SpectraSuite Data File
++++++++++++++++++++++++++++++++++++
Date: Mon Aug 26 10:24:33 PDT 2019
User: corrico
Dark Spectrum Present: No
Reference Spectrum Present: No
Number of Sampled Component Spectra: 1
Spectrometers: USB2+H06089
Integration Time (usec): 10000 (USB2+H06089)
Spectra Averaged: 2 (USB2+H06089)
Boxcar Smoothing: 2 (USB2+H06089)
Correct for Electrical Dark: No (USB2+H06089)
Strobe/Lamp Enabled: No (USB2+H06089)
Correct for Detector Non-linearity: No (USB2+H06089)
Correct for Stray Light: No (USB2+H06089)
Number of Pixels in Processed Spectrum: 2048
>>>>>Begin Processed Spectral Data<<<<<
339.70	1049.73
340.07	1049.73
340.45	1005.26
340.82	976.94
341.19	945.34
341.57	921.70
341.94	898.30
342.31	890.11
342.69	885.19
343.06	888.70
343.43	880.04
343.81	890.34
344.18	889.87
344.55	906.26
344.93	906.26
345.30	907.89
345.67	920.53
346.04	933.87
346.42	934.11
346.79	950.73
347.16	968.05
347.54	974.83
347.91	985.13
348.28	984.66
348.65	996.37
349.03	1002.22
349.40	1011.11
349.77	1022.58
350.14	1043.18
350.52	1046.92
350.89	1048.79
351.26	1053.01
351.63	1061.20
352.01	1061.20
352.38	1052.77
352.75	1064.01
353.12	1073.60
353.50	1069.86
353.87	1068.22
354.24	1083.90
354.61	1074.07
354.98	1077.58
355.36	1073.84
355.73	1076.18
356.10	1075.94
356.47	1082.50
356.84	1072.43
357.22	1078.75
357.59	1079.22
357.96	1078.28
358.33	1087.41
358.70	1089.75
359.08	1089.75
359.45	1093.97
359.82	1086.01
360.19	1082.26
360.56	1085.77
360.94	1082.50
361.31	1078.52
361.68	1082.26
362.05	1076.18
362.42	1069.62
362.79	1063.07
363.16	1060.50
363.54	1062.84
363.91	1058.62
364.28	1057.69
364.65	1060.03
365.02	1063.31
365.39	1062.14
365.76	1067.52
366.14	1072.20
366.51	1066.82
366.88	1066.35
367.25	1066.82
367.62	1072.20
367.99	1064.94
368.36	1073.60
368.73	1072.20
369.10	1064.94
369.48	1061.90
369.85	1069.86
370.22	1075.24
370.59	1073.84
370.96	1075.01
371.33	1075.01
371.70	1069.39
372.07	1060.96
372.44	1069.39
372.81	1067.75
373.18	1070.09
373.55	1064.71
373.93	1072.43
374.30	1063.31
374.67	1070.33
375.04	1070.80
375.41	1086.01
375.78	1076.18
376.15	1083.67
376.52	1074.54
376.89	1073.14
377.26	1055.11
377.63	1060.96
378.00	1061.20
378.37	1072.67
378.74	1082.26
379.11	1086.94
379.48	1086.01
379.85	1087.41
380.22	1077.58
380.59	1066.58
380.96	1070.33
381.33	1069.86
381.70	1070.80
382.07	1080.86
382.44	1078.28
382.81	1075.01
383.18	1068.22
383.55	1068.92
383.92	1065.65
384.29	1071.03
384.66	1085.07
385.03	1094.67
385.40	1089.52
385.77	1084.60
386.14	1087.41
386.51	1076.65
386.88	1081.56
387.25	1086.71
387.62	1095.37
387.99	1095.60
388.36	1103.09
388.73	1097.95
389.10	1088.82
389.46	1086.94
389.83	1085.31
390.20	1077.11
390.57	1073.60
390.94	1069.62
391.31	1077.58
391.68	1068.45
392.05	1068.69
392.42	1073.84
392.79	1075.24
393.16	1059.33
393.53	1066.82
393.89	1075.48
394.26	1066.11
394.63	1073.14
395.00	1086.94
395.37	1085.31
395.74	1084.37
396.11	1090.69
396.48	1091.39
396.84	1086.24
397.21	1090.69
397.58	1093.26
397.95	1101.22
398.32	1092.09
398.69	1090.22
399.06	1078.75
399.42	1081.09
399.79	1083.67
400.16	1090.92
400.53	1089.29
400.90	1097.01
401.27	1089.99
401.64	1091.86
402.00	1095.37
402.37	1095.84
402.74	1097.48
403.11	1110.12
403.48	1104.73
403.84	1107.31
404.21	1115.27
404.58	1124.39
404.95	1108.71
405.32	1113.63
405.68	1114.33
406.05	1113.39
406.42	1113.86
406.79	1131.41
407.16	1146.39
407.52	1161.84
407.89	1167.69
408.26	1178.23
408.63	1185.48
408.99	1183.14
409.36	1172.14
409.73	1181.74
410.10	1185.72
410.47	1181.74
410.83	1193.21
411.20	1212.40
411.57	1228.78
411.94	1247.27
412.30	1266.46
412.67	1277.46
413.04	1298.30
413.40	1308.59
413.77	1331.30
414.14	1355.17
414.51	1388.41
414.87	1398.70
415.24	1428.90
415.61	1444.34
415.97	1473.37
416.34	1485.07
416.71	1515.50
417.08	1537.73
417.44	1563.01
417.81	1595.31
418.18	1622.46
418.54	1657.80
418.91	1695.48
419.28	1746.98
419.64	1783.96
420.01	1846.45
420.38	1910.58
420.74	1963.48
421.11	2006.07
421.48	2068.33
421.84	2131.99
422.21	2176.70
422.58	2247.62
422.94	2327.19
423.31	2401.16
423.68	2471.61
424.04	2560.31
424.41	2640.36
424.77	2718.06
425.14	2801.62
425.51	2885.65
425.87	2997.76
426.24	3098.87
426.61	3215.66
426.97	3350.94
427.34	3484.12
427.70	3617.30
428.07	3757.96
428.44	3903.55
428.80	4028.53
429.17	4163.58
429.53	4304.25
429.90	4480.49
430.27	4656.50
430.63	4806.29
431.00	4983.23
431.36	5135.14
431.73	5269.01
432.09	5420.68
432.46	5612.37
432.83	5779.72
433.19	5966.73
433.56	6167.31
433.92	6366.73
434.29	6533.14
434.65	6674.27
435.02	6870.88
435.38	7033.08
435.75	7133.25
436.11	7291.94
436.48	7463.27
436.84	7569.76
437.21	7689.83
437.57	7782.28
437.94	7847.35
438.30	7914.76
438.67	7921.78
439.03	7926.46
439.40	7971.16
439.76	7926.22
440.13	7857.65
440.49	7838.45
440.86	7735.70
441.22	7620.78
441.59	7531.61
441.95	7449.69
442.32	7309.02
442.68	7220.08
443.05	7124.36
443.41	7012.24
443.78	6848.88
444.14	6682.46
444.51	6512.07
444.87	6358.07
445.24	6208.51
445.60	6073.22
445.96	5963.92
446.33	5836.59
446.69	5667.14
447.06	5511.73
447.42	5363.81
447.79	5235.78
448.15	5104.94
448.51	4996.81
448.88	4907.17
449.24	4810.74
449.61	4711.50
449.97	4613.66
450.33	4531.04
450.70	4401.85
451.06	4299.33
451.43	4178.56
451.79	4098.98
452.15	4009.81
452.52	3958.31
452.88	3900.03
453.24	3840.35
453.61	3766.86
453.97	3695.00
454.34	3617.77
454.70	3548.72
455.06	3470.55
455.43	3394.71
455.79	3282.37
456.15	3203.02
456.52	3115.02
456.88	3057.44
457.24	2977.40
457.61	2932.93
457.97	2878.86
458.33	2800.22
458.70	2716.43
459.06	2656.51
459.42	2593.55
459.79	2503.67
460.15	2466.22
460.51	2427.60
460.88	2372.84
461.24	2328.83
461.60	2311.28
461.96	2275.00
462.33	2223.51
462.69	2189.34
463.05	2153.29
463.42	2108.59
463.78	2079.10
464.14	2044.93
464.50	2012.86
464.87	1984.54
465.23	1957.16
465.59	1920.18
465.95	1896.54
466.32	1874.30
466.68	1839.90
467.04	1812.04
467.40	1805.02
467.77	1786.30
468.13	1763.59
468.49	1747.91
468.85	1745.10
469.22	1707.65
469.58	1701.34
469.94	1685.19
470.30	1680.97
470.66	1660.84
471.03	1651.95
471.39	1636.97
471.75	1621.52
472.11	1600.69
472.47	1585.48
472.84	1559.26
473.20	1543.58
473.56	1533.28
473.92	1522.28
474.28	1507.54
474.65	1513.86
475.01	1507.30
475.37	1493.73
475.73	1479.45
476.09	1467.98
476.45	1466.35
476.81	1447.62
477.18	1437.79
477.54	1436.39
477.90	1432.17
478.26	1407.83
478.62	1392.15
478.98	1381.38
479.34	1368.75
479.71	1351.43
480.07	1354.23
480.43	1353.06
480.79	1350.49
481.15	1342.30
481.51	1334.81
481.87	1320.53
482.23	1313.74
482.59	1316.08
482.96	1300.87
483.32	1307.66
483.68	1298.53
484.04	1288.00
484.40	1267.17
484.76	1272.08
485.12	1263.42
485.48	1262.25
485.84	1266.46
486.20	1266.46
486.56	1257.80
486.92	1248.68
487.28	1254.06
487.64	1251.02
488.00	1245.17
488.37	1249.14
488.73	1253.82
489.09	1249.14
489.45	1246.80
489.81	1251.25
490.17	1251.25
490.53	1252.89
490.89	1236.51
491.25	1230.42
491.61	1216.14
491.97	1202.57
492.33	1191.80
492.69	1193.44
493.05	1183.37
493.41	1187.82
493.77	1185.01
494.13	1186.89
494.49	1182.20
494.85	1180.33
495.21	1179.16
495.57	1185.01
495.93	1175.42
496.29	1181.97
496.64	1180.57
497.00	1184.08
497.36	1181.27
497.72	1182.67
498.08	1176.82
498.44	1177.99
498.80	1167.46
499.16	1165.12
499.52	1154.59
499.88	1144.99
500.24	1137.97
500.60	1139.37
500.96	1127.44
501.32	1133.76
501.68	1140.31
502.03	1137.97
502.39	1126.27
502.75	1127.20
503.11	1126.73
503.47	1138.67
503.83	1143.12
504.19	1147.56
504.55	1149.91
504.91	1152.71
505.26	1126.73
505.62	1126.03
505.98	1118.54
506.34	1121.35
506.70	1108.71
507.06	1121.12
507.42	1119.95
507.78	1127.67
508.13	1121.12
508.49	1127.90
508.85	1126.73
509.21	1128.14
509.57	1118.07
509.93	1112.69
510.28	1110.82
510.64	1111.52
511.00	1113.16
511.36	1122.75
511.72	1120.88
512.07	1109.41
512.43	1087.88
512.79	1075.48
513.15	1077.58
513.51	1079.46
513.86	1089.99
514.22	1101.46
514.58	1106.37
514.94	1100.52
515.30	1101.22
515.65	1107.54
516.01	1103.09
516.37	1111.99
516.73	1112.69
517.08	1104.97
517.44	1097.48
517.80	1102.86
518.16	1094.67
518.51	1087.41
518.87	1087.41
519.23	1085.77
519.59	1094.43
519.94	1092.09
520.30	1104.26
520.66	1117.84
521.01	1109.88
521.37	1102.39
521.73	1107.07
522.09	1108.48
522.44	1109.18
522.80	1111.52
523.16	1105.67
523.51	1100.29
523.87	1092.09
524.23	1088.58
524.58	1091.16
524.94	1093.50
525.30	1087.65
525.65	1092.09
526.01	1094.90
526.37	1096.54
526.72	1097.48
527.08	1099.82
527.44	1094.90
527.79	1086.94
528.15	1084.84
528.51	1077.82
528.86	1076.41
529.22	1077.35
529.58	1073.84
529.93	1071.97
530.29	1082.73
530.65	1083.20
531.00	1083.90
531.36	1084.37
531.71	1076.65
532.07	1077.11
532.43	1091.86
532.78	1089.52
533.14	1090.46
533.49	1102.39
533.85	1093.50
534.21	1079.92
534.56	1079.92
534.92	1082.03
535.27	1084.37
535.63	1100.75
535.98	1111.05
536.34	1120.88
536.69	1126.73
537.05	1131.41
537.41	1119.48
537.76	1119.01
538.12	1122.05
538.47	1129.78
538.83	1126.27
539.18	1122.29
539.54	1115.50
539.89	1106.61
540.25	1097.48
540.60	1099.58
540.96	1100.52
541.31	1098.88
541.67	1097.48
542.02	1101.92
542.38	1095.60
542.73	1096.54
543.09	1102.16
543.44	1093.26
543.80	1080.16
544.15	1075.24
544.51	1079.22
544.86	1077.35
545.22	1079.69
545.57	1085.77
545.93	1090.92
546.28	1097.24
546.64	1103.56
546.99	1102.86
547.35	1108.71
547.70	1102.16
548.05	1096.31
548.41	1082.97
548.76	1082.03
549.12	1075.71
549.47	1079.46
549.83	1080.16
550.18	1085.31
550.53	1088.12
550.89	1089.99
551.24	1091.39
551.60	1082.03
551.95	1084.37
552.30	1084.37
552.66	1078.05
553.01	1088.82
553.37	1093.03
553.72	1088.12
554.07	1087.18
554.43	1093.97
554.78	1083.90
555.13	1078.52
555.49	1085.77
555.84	1078.52
556.19	1086.24
556.55	1088.58
556.90	1098.65
557.26	1089.05
557.61	1099.35
557.96	1083.67
558.32	1075.71
558.67	1067.52
559.02	1069.39
559.37	1062.60
559.73	1065.65
560.08	1067.05
560.43	1071.73
560.79	1081.33
561.14	1092.80
561.49	1086.01
561.85	1084.37
562.20	1073.37
562.55	1059.79
562.90	1052.07
563.26	1064.94
563.61	1065.88
563.96	1072.90
564.32	1087.88
564.67	1084.60
565.02	1080.16
565.37	1082.03
565.73	1086.94
566.08	1075.94
566.43	1084.60
566.78	1077.35
567.14	1078.75
567.49	1082.50
567.84	1083.90
568.19	1075.48
568.54	1078.99
568.90	1082.73
569.25	1079.22
569.60	1076.41
569.95	1075.24
570.31	1080.86
570.66	1077.82
571.01	1076.41
571.36	1071.26
571.71	1084.60
572.06	1078.75
572.42	1075.71
572.77	1081.09
573.12	1096.54
573.47	1094.20
573.82	1101.46
574.18	1108.71
574.53	1101.22
574.88	1097.95
575.23	1089.29
575.58	1089.52
575.93	1080.86
576.28	1080.39
576.64	1079.92
576.99	1081.33
577.34	1080.63
577.69	1086.24
578.04	1091.39
578.39	1100.52
578.74	1101.69
579.09	1106.14
579.44	1106.14
579.80	1105.20
580.15	1095.84
580.50	1101.69
580.85	1098.41
581.20	1099.12
581.55	1099.58
581.90	1102.63
582.25	1093.97
582.60	1097.48
582.95	1097.95
583.30	1084.60
583.65	1077.11
584.00	1092.56
584.35	1089.05
584.71	1093.03
585.06	1094.43
585.41	1089.52
585.76	1084.14
586.11	1072.20
586.46	1054.65
586.81	1063.07
587.16	1071.50
587.51	1071.26
587.86	1079.22
588.21	1085.07
588.56	1079.69
588.91	1081.09
589.26	1076.65
589.61	1082.97
589.96	1089.75
590.31	1101.22
590.66	1105.90
591.01	1097.24
591.36	1090.69
591.71	1082.26
592.06	1076.88
592.41	1075.71
592.76	1081.09
593.10	1081.80
593.45	1084.14
593.80	1086.48
594.15	1078.99
594.50	1076.18
594.85	1082.26
595.20	1086.48
595.55	1078.52
595.90	1086.94
596.25	1095.60
596.60	1090.46
596.95	1097.01
597.30	1104.26
597.64	1148.73
597.99	1145.22
598.34	1147.80
598.69	1141.95
599.04	1140.07
599.39	1079.92
599.74	1079.69
600.09	1068.92
600.44	1072.20
600.78	1067.99
601.13	1076.65
601.48	1078.75
601.83	1086.71
602.18	1083.90
602.53	1089.99
602.88	1087.65
603.22	1093.97
603.57	1097.24
603.92	1087.41
604.27	1084.60
604.62	1080.63
604.97	1079.46
605.31	1069.86
605.66	1085.07
606.01	1084.84
606.36	1089.99
606.71	1088.35
607.05	1094.20
607.40	1083.90
607.75	1079.92
608.10	1078.52
608.44	1074.07
608.79	1071.03
609.14	1070.09
609.49	1082.26
609.84	1085.54
610.18	1085.31
610.53	1086.01
610.88	1081.80
611.23	1072.43
611.57	1079.92
611.92	1083.20
612.27	1085.54
612.62	1095.60
612.96	1103.33
613.31	1096.54
613.66	1100.29
614.00	1093.73
614.35	1096.54
614.70	1099.12
615.05	1092.09
615.39	1080.16
615.74	1091.39
616.09	1094.20
616.43	1076.41
616.78	1085.77
617.13	1095.84
617.47	1091.16
617.82	1077.11
618.17	1083.43
618.51	1082.26
618.86	1071.50
619.21	1071.73
619.55	1082.73
619.90	1081.33
620.25	1073.14
620.59	1077.11
620.94	1075.01
621.29	1066.11
621.63	1072.67
621.98	1078.05
622.32	1093.26
622.67	1091.16
623.02	1091.86
623.36	1093.97
623.71	1093.26
624.05	1087.41
624.40	1089.99
624.75	1102.86
625.09	1108.24
625.44	1115.27
625.78	1105.90
626.13	1098.65
626.48	1091.63
626.82	1090.46
627.17	1081.80
627.51	1083.43
627.86	1090.22
628.20	1084.60
628.55	1078.52
628.89	1085.54
629.24	1092.09
629.58	1096.07
629.93	1100.29
630.28	1092.80
630.62	1092.80
630.97	1086.94
631.31	1081.09
631.66	1070.80
632.00	1071.26
632.35	1064.24
632.69	1064.94
633.04	1064.01
633.38	1072.90
633.73	1075.48
634.07	1076.18
634.42	1080.16
634.76	1078.05
635.11	1075.94
635.45	1081.56
635.79	1082.73
636.14	1082.73
636.48	1091.39
636.83	1087.88
637.17	1088.82
637.52	1074.07
637.86	1070.80
638.21	1071.50
638.55	1069.16
638.89	1067.52
639.24	1083.43
639.58	1078.28
639.93	1073.37
640.27	1089.52
640.61	1087.88
640.96	1079.22
641.30	1088.35
641.65	1088.12
641.99	1072.67
642.33	1076.65
642.68	1083.20
643.02	1079.22
643.37	1080.39
643.71	1094.43
644.05	1084.60
644.40	1081.56
644.74	1080.86
645.08	1078.28
645.43	1071.73
645.77	1078.99
646.11	1080.63
646.46	1078.05
646.80	1072.20
647.14	1072.67
647.49	1064.24
647.83	1062.37
648.17	1067.28
648.52	1071.03
648.86	1076.41
649.20	1088.82
649.55	1086.01
649.89	1081.80
650.23	1089.29
650.57	1080.16
650.92	1071.97
651.26	1078.52
651.60	1076.18
651.95	1068.92
652.29	1073.14
652.63	1071.26
652.97	1071.03
653.32	1066.82
653.66	1078.05
654.00	1071.97
654.34	1064.94
654.69	1060.73
655.03	1057.22
655.37	1042.47
655.71	1049.73
656.05	1057.45
656.40	1063.07
656.74	1075.01
657.08	1086.48
657.42	1081.80
657.76	1084.37
658.11	1088.35
658.45	1088.35
658.79	1088.58
659.13	1095.14
659.47	1096.78
659.82	1098.18
660.16	1097.48
660.50	1096.54
660.84	1093.97
661.18	1089.29
661.52	1087.18
661.87	1087.41
662.21	1078.05
662.55	1068.22
662.89	1070.09
663.23	1061.67
663.57	1061.43
663.91	1065.18
664.25	1075.01
664.60	1073.37
664.94	1082.26
665.28	1085.07
665.62	1094.67
665.96	1087.88
666.30	1081.56
666.64	1071.97
666.98	1070.80
667.32	1063.54
667.66	1075.48
668.01	1086.48
668.35	1085.54
668.69	1084.37
669.03	1082.73
669.37	1077.58
669.71	1078.99
670.05	1083.90
670.39	1076.65
670.73	1074.54
671.07	1077.11
671.41	1079.46
671.75	1079.46
672.09	1086.01
672.43	1088.58
672.77	1081.09
673.11	1075.71
673.45	1071.50
673.79	1068.22
674.13	1073.84
674.47	1080.16
674.81	1076.88
675.15	1085.54
675.49	1095.14
675.83	1092.80
676.17	1096.31
676.51	1101.22
676.85	1086.01
677.19	1071.50
677.53	1071.50
677.87	1060.50
678.21	1057.92
678.55	1071.03
678.89	1080.16
679.23	1071.03
679.57	1069.62
679.90	1069.16
680.24	1060.50
680.58	1056.75
680.92	1063.54
681.26	1069.86
681.60	1071.03
681.94	1078.52
682.28	1083.43
682.62	1086.01
682.96	1084.84
683.29	1085.77
683.63	1082.03
683.97	1083.90
684.31	1076.41
684.65	1080.63
684.99	1080.16
685.33	1085.54
685.67	1086.01
686.00	1103.56
686.34	1100.99
686.68	1092.80
687.02	1095.14
687.36	1092.09
687.70	1084.14
688.03	1079.92
688.37	1081.33
688.71	1087.65
689.05	1086.94
689.39	1089.99
689.72	1090.46
690.06	1095.84
690.40	1079.69
690.74	1076.88
691.08	1065.65
691.41	1072.20
691.75	1068.92
692.09	1083.90
692.43	1082.26
692.76	1090.92
693.10	1078.28
693.44	1088.12
693.78	1078.28
694.11	1075.94
694.45	1068.45
694.79	1077.11
695.13	1068.22
695.46	1072.20
695.80	1080.86
696.14	1080.86
696.48	1084.14
696.81	1084.37
697.15	1075.01
697.49	1064.94
697.82	1068.69
698.16	1064.24
698.50	1069.16
698.83	1071.73
699.17	1076.18
699.51	1076.65
699.84	1069.86
700.18	1068.92
700.52	1076.41
700.85	1082.97
701.19	1079.22
701.53	1082.97
701.86	1082.26
702.20	1080.39
702.54	1082.26
702.87	1086.71
703.21	1095.14
703.55	1094.20
703.88	1096.31
704.22	1081.09
704.55	1080.39
704.89	1085.77
705.23	1086.24
705.56	1091.16
705.90	1088.35
706.23	1090.22
706.57	1080.86
706.91	1072.20
707.24	1074.07
707.58	1096.78
707.91	1096.31
708.25	1102.16
708.58	1115.97
708.92	1115.50
709.26	1100.99
709.59	1099.82
709.93	1098.88
710.26	1092.33
710.60	1075.71
710.93	1078.52
711.27	1071.73
711.60	1061.67
711.94	1063.77
712.27	1075.01
712.61	1075.24
712.94	1078.75
713.28	1075.01
713.61	1074.31
713.95	1062.14
714.28	1061.20
714.62	1069.86
714.95	1075.48
715.29	1071.26
715.62	1087.65
715.96	1099.35
716.29	1095.60
716.63	1093.03
716.96	1099.82
717.29	1086.01
717.63	1066.58
717.96	1060.50
718.30	1071.50
718.63	1073.84
718.97	1074.07
719.30	1081.56
719.63	1076.41
719.97	1071.26
720.30	1070.80
720.64	1078.99
720.97	1082.73
721.30	1082.73
721.64	1078.52
721.97	1075.48
722.31	1063.07
722.64	1062.37
722.97	1070.09
723.31	1074.54
723.64	1069.16
723.97	1086.48
724.31	1084.84
724.64	1082.50
724.98	1077.11
725.31	1077.82
725.64	1064.24
725.98	1063.07
726.31	1060.50
726.64	1067.28
726.97	1070.09
727.31	1076.41
727.64	1086.24
727.97	1094.43
728.31	1089.05
728.64	1083.90
728.97	1076.88
729.31	1067.99
729.64	1060.03
729.97	1061.43
730.30	1059.79
730.64	1058.16
730.97	1057.92
731.30	1064.71
731.63	1063.54
731.97	1064.48
732.30	1075.71
732.63	1078.05
732.96	1085.31
733.30	1088.82
733.63	1091.63
733.96	1075.48
734.29	1080.63
734.63	1071.97
734.96	1077.11
735.29	1074.54
735.62	1092.09
735.95	1080.63
736.29	1078.52
736.62	1076.65
736.95	1089.05
737.28	1082.73
737.61	1087.65
737.94	1092.09
738.28	1086.94
738.61	1084.60
738.94	1076.65
739.27	1065.65
739.60	1064.48
739.93	1071.26
740.27	1055.82
740.60	1065.65
740.93	1077.35
741.26	1077.11
741.59	1073.84
741.92	1083.90
742.25	1085.31
742.58	1078.99
742.91	1079.22
743.25	1073.37
743.58	1068.69
743.91	1060.96
744.24	1066.82
744.57	1061.67
744.90	1064.94
745.23	1070.56
745.56	1083.43
745.89	1085.31
746.22	1090.46
746.55	1089.99
746.88	1092.80
747.21	1078.99
747.54	1069.39
747.87	1069.39
748.20	1065.88
748.53	1064.01
748.87	1073.84
749.20	1084.60
749.53	1084.14
749.86	1087.65
750.19	1088.35
750.52	1085.54
750.85	1078.99
751.18	1081.80
751.51	1080.16
751.84	1072.67
752.16	1063.54
752.49	1071.03
752.82	1062.37
753.15	1068.69
753.48	1073.84
753.81	1089.29
754.14	1085.54
754.47	1086.71
754.80	1081.80
755.13	1079.92
755.46	1075.71
755.79	1075.71
756.12	1085.54
756.45	1087.41
756.78	1094.67
757.11	1100.05
757.43	1100.52
757.76	1097.01
758.09	1097.71
758.42	1088.35
758.75	1089.75
759.08	1083.43
759.41	1078.52
759.74	1076.88
760.07	1080.63
760.39	1070.09
760.72	1073.60
761.05	1071.97
761.38	1069.86
761.71	1070.09
762.04	1063.77
762.36	1060.50
762.69	1065.41
763.02	1070.56
763.35	1078.75
763.68	1084.60
764.01	1097.01
764.33	1095.37
764.66	1098.88
764.99	1097.71
765.32	1100.75
765.65	1090.69
765.97	1093.26
766.30	1086.24
766.63	1081.33
766.96	1071.73
767.28	1077.11
767.61	1070.33
767.94	1067.75
768.27	1065.41
768.59	1078.75
768.92	1077.58
769.25	1085.31
769.58	1092.09
769.90	1097.71
770.23	1100.99
770.56	1110.82
770.89	1115.50
771.21	1117.14
771.54	1117.37
771.87	1106.61
772.19	1097.95
772.52	1092.33
772.85	1094.20
773.17	1076.65
773.50	1079.69
773.83	1081.33
774.15	1081.80
774.48	1073.14
774.81	1081.09
775.13	1078.28
775.46	1070.09
775.79	1065.18
776.11	1072.43
776.44	1085.31
776.77	1084.84
777.09	1091.16
777.42	1094.20
777.74	1084.84
778.07	1081.09
778.40	1079.92
778.72	1072.90
779.05	1070.33
779.37	1077.82
779.70	1069.86
780.03	1065.18
780.35	1073.14
780.68	1078.05
781.00	1080.63
781.33	1089.75
781.65	1098.18
781.98	1097.01
782.31	1096.07
782.63	1083.90
782.96	1072.90
783.28	1073.37
783.61	1079.22
783.93	1083.20
784.26	1085.77
784.58	1095.60
784.91	1091.63
785.23	1093.26
785.56	1084.14
785.88	1079.92
786.21	1072.67
786.53	1072.43
786.86	1060.50
787.18	1072.90
787.51	1080.39
787.83	1073.84
788.16	1072.20
788.48	1075.48
788.81	1070.80
789.13	1069.16
789.46	1064.71
789.78	1069.86
790.10	1071.50
790.43	1072.90
790.75	1074.31
791.08	1086.01
791.40	1082.73
791.73	1086.24
792.05	1082.73
792.37	1087.88
792.70	1091.86
793.02	1094.67
793.35	1090.46
793.67	1080.63
793.99	1079.92
794.32	1078.99
794.64	1072.20
794.96	1080.86
795.29	1098.41
795.61	1088.58
795.93	1087.18
796.26	1081.09
796.58	1066.11
796.91	1060.73
797.23	1068.69
797.55	1060.26
797.87	1076.41
798.20	1078.28
798.52	1069.86
798.84	1070.09
799.17	1083.43
799.49	1082.26
799.81	1075.48
800.14	1074.07
800.46	1065.88
800.78	1054.41
801.10	1050.67
801.43	1066.35
801.75	1067.28
802.07	1073.84
802.40	1078.05
802.72	1076.18
803.04	1076.41
803.36	1074.77
803.69	1071.26
804.01	1082.26
804.33	1086.01
804.65	1080.86
804.97	1091.63
805.30	1093.26
805.62	1076.88
805.94	1074.07
806.26	1081.80
806.58	1085.77
806.91	1077.35
807.23	1085.77
807.55	1088.82
807.87	1086.01
808.19	1074.07
808.52	1082.73
808.84	1078.28
809.16	1069.86
809.48	1059.79
809.80	1054.65
810.12	1063.31
810.44	1070.56
810.77	1082.73
811.09	1083.20
811.41	1091.39
811.73	1087.18
812.05	1087.18
812.37	1083.90
812.69	1082.26
813.01	1089.29
813.33	1093.50
813.66	1098.65
813.98	1098.65
814.30	1097.95
814.62	1086.94
814.94	1080.86
815.26	1071.97
815.58	1067.05
815.90	1068.45
816.22	1074.31
816.54	1074.77
816.86	1077.58
817.18	1083.20
817.50	1089.29
817.82	1084.14
818.14	1082.26
818.46	1076.65
818.78	1078.05
819.10	1071.26
819.42	1072.43
819.74	1077.58
820.06	1079.92
820.38	1069.16
820.70	1071.73
821.02	1064.24
821.34	1055.35
821.66	1054.41
821.98	1058.62
822.30	1068.69
822.62	1084.14
822.94	1091.16
823.26	1087.41
823.58	1081.56
823.90	1077.11
824.22	1070.80
824.54	1068.92
824.86	1073.37
825.18	1089.52
825.50	1073.37
825.81	1066.11
826.13	1060.03
826.45	1061.43
826.77	1056.75
827.09	1076.41
827.41	1086.24
827.73	1091.63
828.05	1089.05
828.36	1075.94
828.68	1072.20
829.00	1072.67
829.32	1080.39
829.64	1077.35
829.96	1093.73
830.28	1086.24
830.59	1082.97
830.91	1077.35
831.23	1081.80
831.55	1064.48
831.87	1073.37
832.19	1073.60
832.50	1074.31
832.82	1079.22
833.14	1099.12
833.46	1088.58
833.78	1081.80
834.09	1072.43
834.41	1068.22
834.73	1057.45
835.05	1064.48
835.36	1077.11
835.68	1083.90
836.00	1086.48
836.32	1086.71
836.63	1083.43
836.95	1074.54
837.27	1066.58
837.59	1064.71
837.90	1068.69
838.22	1067.99
838.54	1074.54
838.85	1067.75
839.17	1060.50
839.49	1057.45
839.80	1057.22
840.12	1047.86
840.44	1067.75
840.76	1076.18
841.07	1076.88
841.39	1075.71
841.71	1081.33
842.02	1072.20
842.34	1069.39
842.65	1070.80
842.97	1079.22
843.29	1080.16
843.60	1074.77
843.92	1078.99
844.24	1080.63
844.55	1073.84
844.87	1074.07
845.18	1070.33
845.50	1059.09
845.82	1051.84
846.13	1055.82
846.45	1057.45
846.76	1072.20
847.08	1083.43
847.40	1087.41
847.71	1087.88
848.03	1084.14
848.34	1086.01
848.66	1082.50
848.97	1081.56
849.29	1085.77
849.60	1089.99
849.92	1081.33
850.24	1077.35
850.55	1073.14
850.87	1064.94
851.18	1068.92
851.50	1068.22
851.81	1065.88
852.13	1068.92
852.44	1069.16
852.76	1056.52
853.07	1060.50
853.39	1066.11
853.70	1073.60
854.01	1072.20
854.33	1078.05
854.64	1081.09
854.96	1077.11
855.27	1070.80
855.59	1075.01
855.90	1081.56
856.22	1078.75
856.53	1081.09
856.84	1086.01
857.16	1084.60
857.47	1083.67
857.79	1079.22
858.10	1083.43
858.41	1082.50
858.73	1082.97
859.04	1078.28
859.36	1082.03
859.67	1086.24
859.98	1085.77
860.30	1075.01
860.61	1075.71
860.92	1063.07
861.24	1055.35
861.55	1053.94
861.87	1069.62
862.18	1065.18
862.49	1091.16
862.81	1093.03
863.12	1091.16
863.43	1085.07
863.74	1083.67
864.06	1070.56
864.37	1068.92
864.68	1071.97
865.00	1073.84
865.31	1071.03
865.62	1074.54
865.94	1076.65
866.25	1074.07
866.56	1072.20
866.87	1080.63
867.19	1070.56
867.50	1065.18
867.81	1065.88
868.12	1071.97
868.44	1081.80
868.75	1097.71
869.06	1104.03
869.37	1093.26
869.68	1093.73
870.00	1082.26
870.31	1075.94
870.62	1070.80
870.93	1074.77
871.24	1071.97
871.56	1067.52
871.87	1064.71
872.18	1071.97
872.49	1078.99
872.80	1076.65
873.12	1085.54
873.43	1086.71
873.74	1074.54
874.05	1076.41
874.36	1081.56
874.67	1080.39
874.98	1084.37
875.29	1094.20
875.61	1086.24
875.92	1078.05
876.23	1080.16
876.54	1081.56
876.85	1083.20
877.16	1086.48
877.47	1091.86
877.78	1099.12
878.09	1099.12
878.40	1092.09
878.72	1091.86
879.03	1082.73
879.34	1067.05
879.65	1059.33
879.96	1065.18
880.27	1065.41
880.58	1063.54
880.89	1066.35
881.20	1075.94
881.51	1079.92
881.82	1076.88
882.13	1085.77
882.44	1081.56
882.75	1076.18
883.06	1069.39
883.37	1072.20
883.68	1069.16
883.99	1077.82
884.30	1073.14
884.61	1065.88
884.92	1066.82
885.23	1068.45
885.54	1063.77
885.85	1073.14
886.16	1089.75
886.47	1099.35
886.78	1097.48
887.08	1096.07
887.39	1089.29
887.70	1079.46
888.01	1064.48
888.32	1065.41
888.63	1069.86
888.94	1067.75
889.25	1070.33
889.56	1078.99
889.87	1080.63
890.17	1083.20
890.48	1083.43
890.79	1083.90
891.10	1078.75
891.41	1082.97
891.72	1078.99
892.03	1082.26
892.34	1076.88
892.64	1083.43
892.95	1082.73
893.26	1075.24
893.57	1072.67
893.88	1079.69
894.18	1073.37
894.49	1067.99
894.80	1076.88
895.11	1075.24
895.42	1073.14
895.72	1066.35
896.03	1067.99
896.34	1060.73
896.65	1065.88
896.96	1060.26
897.26	1068.69
897.57	1070.33
897.88	1079.46
898.19	1073.84
898.49	1088.35
898.80	1095.60
899.11	1100.29
899.41	1098.65
899.72	1103.80
900.03	1094.20
900.34	1095.14
900.64	1087.65
900.95	1082.50
901.26	1086.01
901.56	1091.39
901.87	1082.50
902.18	1084.84
902.48	1079.92
902.79	1065.88
903.10	1061.67
903.40	1067.99
903.71	1067.99
904.02	1071.97
904.32	1079.46
904.63	1070.56
904.94	1067.52
905.24	1063.31
905.55	1066.11
905.85	1074.07
906.16	1087.18
906.47	1087.18
906.77	1104.50
907.08	1102.63
907.38	1094.20
907.69	1086.01
908.00	1081.33
908.30	1069.86
908.61	1071.26
908.91	1076.88
909.22	1078.52
909.52	1077.82
909.83	1072.67
910.14	1082.50
910.44	1081.56
910.75	1076.65
911.05	1075.24
911.36	1075.94
911.66	1072.20
911.97	1059.09
912.27	1061.20
912.58	1074.31
912.88	1083.67
913.19	1071.03
913.49	1080.16
913.80	1084.37
914.10	1073.60
914.41	1070.80
914.71	1081.80
915.01	1067.75
915.32	1068.69
915.62	1067.99
915.93	1064.24
916.23	1061.20
916.54	1073.60
916.84	1064.94
917.15	1077.11
917.45	1074.77
917.75	1070.09
918.06	1069.16
918.36	1075.24
918.67	1057.92
918.97	1056.52
919.27	1058.16
919.58	1060.26
919.88	1059.09
920.18	1072.67
920.49	1071.26
920.79	1071.26
921.10	1068.22
921.40	1067.28
921.70	1063.31
922.01	1070.33
922.31	1067.52
922.61	1067.05
922.92	1074.77
923.22	1075.01
923.52	1071.73
923.82	1075.01
924.13	1079.22
924.43	1075.48
924.73	1074.54
925.04	1073.60
925.34	1078.52
925.64	1073.14
925.94	1073.84
926.25	1071.26
926.55	1076.41
926.85	1075.01
927.15	1075.24
927.46	1079.69
927.76	1088.82
928.06	1082.26
928.36	1084.14
928.67	1093.26
928.97	1086.01
929.27	1082.73
929.57	1087.65
929.87	1084.14
930.18	1078.75
930.48	1084.60
930.78	1080.16
931.08	1072.90
931.38	1077.11
931.69	1077.11
931.99	1075.71
932.29	1076.65
932.59	1082.97
932.89	1076.41
933.19	1082.97
933.49	1078.99
933.80	1086.01
934.10	1092.56
934.40	1091.86
934.70	1082.73
935.00	1081.80
935.30	1078.99
935.60	1071.26
935.90	1070.56
936.20	1075.71
936.50	1081.56
936.81	1080.39
937.11	1084.14
937.41	1091.39
937.71	1089.52
938.01	1089.75
938.31	1092.56
938.61	1090.69
938.91	1089.75
939.21	1084.60
939.51	1071.73
939.81	1071.03
940.11	1068.45
940.41	1062.14
940.71	1072.20
941.01	1080.86
941.31	1071.97
941.61	1072.20
941.91	1069.86
942.21	1074.54
942.51	1078.28
942.81	1081.80
943.11	1083.90
943.41	1093.26
943.71	1089.29
944.01	1092.80
944.31	1098.41
944.61	1092.80
944.90	1087.88
945.20	1072.43
945.50	1058.62
945.80	1056.52
946.10	1066.35
946.40	1059.79
946.70	1075.48
947.00	1088.82
947.30	1090.46
947.60	1086.24
947.89	1093.26
948.19	1088.12
948.49	1087.65
948.79	1082.97
949.09	1081.33
949.39	1090.22
949.69	1091.86
949.98	1080.39
950.28	1082.97
950.58	1081.09
950.88	1067.75
951.18	1066.82
951.48	1074.77
951.77	1073.84
952.07	1073.60
952.37	1082.73
952.67	1089.99
952.97	1087.18
953.26	1094.90
953.56	1088.82
953.86	1082.73
954.16	1072.43
954.45	1060.73
954.75	1056.52
955.05	1063.07
955.35	1068.45
955.64	1071.03
955.94	1087.65
956.24	1082.26
956.54	1089.52
956.83	1092.09
957.13	1095.14
957.43	1091.16
957.72	1097.71
958.02	1098.41
958.32	1092.80
958.61	1086.01
958.91	1078.75
959.21	1069.16
959.50	1075.48
959.80	1079.46
960.10	1081.56
960.39	1089.75
960.69	1088.35
960.99	1079.69
961.28	1079.92
961.58	1082.50
961.87	1080.16
962.17	1083.43
962.47	1074.77
962.76	1075.48
963.06	1065.88
963.36	1064.01
963.65	1056.75
963.95	1064.01
964.24	1067.52
964.54	1082.73
964.83	1076.88
965.13	1084.60
965.42	1081.56
965.72	1071.50
966.02	1065.41
966.31	1073.84
966.61	1067.99
966.90	1066.35
967.20	1075.24
967.49	1073.14
967.79	1078.28
968.08	1094.20
968.38	1099.35
968.67	1093.50
968.97	1087.41
969.26	1091.63
969.56	1081.09
969.85	1077.11
970.15	1075.71
970.44	1076.88
970.74	1070.09
971.03	1059.09
971.32	1063.07
971.62	1056.52
971.91	1066.82
972.21	1064.48
972.50	1071.97
972.80	1076.41
973.09	1082.97
973.38	1077.11
973.68	1066.35
973.97	1063.77
974.27	1050.90
974.56	1038.73
974.85	1042.24
975.15	1053.48
975.44	1065.41
975.73	1061.67
976.03	1076.18
976.32	1063.31
976.61	1060.73
976.91	1055.58
977.20	1064.48
977.49	1068.22
977.79	1081.09
978.08	1084.14
978.37	1091.86
978.67	1091.63
978.96	1082.97
979.25	1086.71
979.55	1082.73
979.84	1064.94
980.13	1063.54
980.42	1065.41
980.72	1061.20
981.01	1064.24
981.30	1063.77
981.59	1060.96
981.89	1053.71
982.18	1058.86
982.47	1063.54
982.76	1078.28
983.06	1078.52
983.35	1086.48
983.64	1080.39
983.93	1082.03
984.22	1083.67
984.52	1080.16
984.81	1084.37
985.10	1078.99
985.39	1079.69
985.68	1069.86
985.97	1076.88
986.27	1075.71
986.56	1083.43
986.85	1072.90
987.14	1081.09
987.43	1077.35
987.72	1070.56
988.01	1061.67
988.31	1063.07
988.60	1057.22
988.89	1059.33
989.18	1056.52
989.47	1056.52
989.76	1064.24
990.05	1074.07
990.34	1074.54
990.63	1083.43
990.92	1089.29
991.21	1086.24
991.51	1081.09
991.80	1090.22
992.09	1103.09
992.38	1100.29
992.67	1097.95
992.96	1098.41
993.25	1093.73
993.54	1075.71
993.83	1070.80
994.12	1072.67
994.41	1075.01
994.70	1078.52
994.99	1085.54
995.28	1100.99
995.57	1093.73
995.86	1089.29
996.15	1085.54
996.44	1081.80
996.73	1075.71
997.02	1075.01
997.31	1079.92
997.59	1080.39
997.88	1080.86
998.17	1082.73
998.46	1084.84
998.75	1085.31
999.04	1083.67
999.33	1083.67
999.62	1085.54
999.91	1088.35
1000.20	1083.20
1000.49	1078.05
1000.77	1081.56
1001.06	1073.14
1001.35	1082.97
1001.64	1085.07
1001.93	1094.67
1002.22	1081.56
1002.51	1083.43
1002.79	1076.88
1003.08	1077.11
1003.37	1061.20
1003.66	1063.31
1003.95	1059.33
1004.23	1054.88
1004.52	1049.96
1004.81	1054.18
1005.10	1054.65
1005.39	1058.16
1005.67	1056.99
1005.96	1061.67
1006.25	1075.71
1006.54	1082.73
1006.83	1082.50
1007.11	1092.80
1007.40	1090.69
1007.69	1081.56
1007.97	1078.75
1008.26	1086.71
1008.55	1073.37
1008.84	1083.90
1009.12	1086.01
1009.41	1090.22
1009.70	1082.73
1009.98	1087.41
1010.27	1076.41
1010.56	1076.18
1010.85	1079.92
1011.13	1089.99
1011.42	1093.50
1011.71	1090.46
1011.99	1089.29
1012.28	1093.03
1012.56	1086.71
1012.85	1083.90
1013.14	1095.14
1013.42	1090.92
1013.71	1079.46
1014.00	1072.67
1014.28	1074.77
1014.57	1069.86
1014.85	1082.97
1015.14	1082.03
1015.43	1088.58
1015.71	1089.99
1016.00	1084.14
1016.28	1091.39
1016.57	1088.58
1016.85	1091.63
1017.14	1084.84
1017.43	1078.99
1017.71	1061.20
1018.00	1065.41
1018.28	1052.77
1018.57	1060.73
1018.85	1073.84
1019.14	1075.71
1019.42	1076.65
1019.71	1085.54
1019.99	1089.75
1020.28	1090.69
1020.56	1089.52
1020.85	1089.75
1021.13	1084.60
1021.42	1074.77
1021.70	1074.07
1021.99	1081.80
1022.27	1078.99
1022.55	1105.90
1022.84	1060.26
>>>>>End Processed Spectral Data<<<<<
