SpectraSuite Data File
++++++++++++++++++++++++++++++++++++
Date: Mon Aug 26 10:24:35 PDT 2019
User: corrico
Dark Spectrum Present: No
Reference Spectrum Present: No
Number of Sampled Component Spectra: 1
Spectrometers: USB2+H06089
Integration Time (usec): 10000 (USB2+H06089)
Spectra Averaged: 2 (USB2+H06089)
Boxcar Smoothing: 2 (USB2+H06089)
Correct for Electrical Dark: No (USB2+H06089)
Strobe/Lamp Enabled: No (USB2+H06089)
Correct for Detector Non-linearity: No (USB2+H06089)
Correct for Stray Light: No (USB2+H06089)
Number of Pixels in Processed Spectrum: 2048
>>>>>Begin Processed Spectral Data<<<<<
339.70	1038.03
340.07	1038.03
340.45	992.39
340.82	972.49
341.19	945.34
341.57	915.62
341.94	919.36
342.31	915.15
342.69	910.94
343.06	908.36
343.43	917.02
343.81	922.17
344.18	917.02
344.55	920.53
344.93	925.21
345.30	926.15
345.67	927.09
346.04	940.19
346.42	952.83
346.79	966.41
347.16	973.43
347.54	968.98
347.91	973.43
348.28	971.32
348.65	979.05
349.03	980.92
349.40	994.73
349.77	998.71
350.14	1005.73
350.52	1014.15
350.89	1020.01
351.26	1032.88
351.63	1043.88
352.01	1059.56
352.38	1066.11
352.75	1075.48
353.12	1080.86
353.50	1086.48
353.87	1076.18
354.24	1064.71
354.61	1067.52
354.98	1069.62
355.36	1072.20
355.73	1072.90
356.10	1087.18
356.47	1088.12
356.84	1079.46
357.22	1077.11
357.59	1082.97
357.96	1078.75
358.33	1080.63
358.70	1089.29
359.08	1086.01
359.45	1099.35
359.82	1105.67
360.19	1100.29
360.56	1089.75
360.94	1089.99
361.31	1075.71
361.68	1076.41
362.05	1079.22
362.42	1088.35
362.79	1091.63
363.16	1085.31
363.54	1083.20
363.91	1083.43
364.28	1078.05
364.65	1065.88
365.02	1062.84
365.39	1056.05
365.76	1047.39
366.14	1043.88
366.51	1045.28
366.88	1055.35
367.25	1053.24
367.62	1065.41
367.99	1068.92
368.36	1087.18
368.73	1083.20
369.10	1081.09
369.48	1076.88
369.85	1079.69
370.22	1063.31
370.59	1078.52
370.96	1089.05
371.33	1095.37
371.70	1087.18
372.07	1090.22
372.44	1079.69
372.81	1074.31
373.18	1061.67
373.55	1063.31
373.93	1066.58
374.30	1067.28
374.67	1065.88
375.04	1070.33
375.41	1077.11
375.78	1074.54
376.15	1072.90
376.52	1074.77
376.89	1084.14
377.26	1083.90
377.63	1076.18
378.00	1076.41
378.37	1081.09
378.74	1068.92
379.11	1066.58
379.48	1076.18
379.85	1068.45
380.22	1064.24
380.59	1072.43
380.96	1080.39
381.33	1082.73
381.70	1084.14
382.07	1082.50
382.44	1080.86
382.81	1072.67
383.18	1063.31
383.55	1073.60
383.92	1073.14
384.29	1067.05
384.66	1066.35
385.03	1069.86
385.40	1075.01
385.77	1069.39
386.14	1075.01
386.51	1088.35
386.88	1093.26
387.25	1091.39
387.62	1101.46
387.99	1094.90
388.36	1080.16
388.73	1081.56
389.10	1078.28
389.46	1076.88
389.83	1077.58
390.20	1079.46
390.57	1081.09
390.94	1067.28
391.31	1070.80
391.68	1076.41
392.05	1081.33
392.42	1079.92
392.79	1091.63
393.16	1082.03
393.53	1086.01
393.89	1083.67
394.26	1083.67
394.63	1074.07
395.00	1077.11
395.37	1071.97
395.74	1077.35
396.11	1081.80
396.48	1086.94
396.84	1085.31
397.21	1080.63
397.58	1066.35
397.95	1067.05
398.32	1079.69
398.69	1087.65
399.06	1088.58
399.42	1101.22
399.79	1100.29
400.16	1089.52
400.53	1082.73
400.90	1086.24
401.27	1078.52
401.64	1067.28
402.00	1079.22
402.37	1088.35
402.74	1095.14
403.11	1102.86
403.48	1113.16
403.84	1100.05
404.21	1095.84
404.58	1094.67
404.95	1097.48
405.32	1094.43
405.68	1115.97
406.05	1123.46
406.42	1131.41
406.79	1139.84
407.16	1153.18
407.52	1150.61
407.89	1157.86
408.26	1161.14
408.63	1164.42
408.99	1169.33
409.36	1175.18
409.73	1171.67
410.10	1177.29
410.47	1193.44
410.83	1199.06
411.20	1209.35
411.57	1223.63
411.94	1229.02
412.30	1228.78
412.67	1240.25
413.04	1250.31
413.40	1269.74
413.77	1290.81
414.14	1316.32
414.51	1343.23
414.87	1362.43
415.24	1386.77
415.61	1405.96
415.97	1414.85
416.34	1438.73
416.71	1465.64
417.08	1485.54
417.44	1523.45
417.81	1561.37
418.18	1591.33
418.54	1629.95
418.91	1663.42
419.28	1703.68
419.64	1741.12
420.01	1788.64
420.38	1830.77
420.74	1888.34
421.11	1937.73
421.48	2005.84
421.84	2058.74
422.21	2126.61
422.58	2185.83
422.94	2246.68
423.31	2315.49
423.68	2392.03
424.04	2462.48
424.41	2538.31
424.77	2643.40
425.14	2721.57
425.51	2821.52
425.87	2917.95
426.24	3032.40
426.61	3140.06
426.97	3270.66
427.34	3404.31
427.70	3554.10
428.07	3691.49
428.44	3831.46
428.80	3985.93
429.17	4109.04
429.53	4257.67
429.90	4439.53
430.27	4593.54
430.63	4737.48
431.00	4910.21
431.36	5091.37
431.73	5237.18
432.09	5425.36
432.46	5618.69
432.83	5799.38
433.19	5983.11
433.56	6184.16
433.92	6391.07
434.29	6552.56
434.65	6735.83
435.02	6873.92
435.38	7048.06
435.75	7178.66
436.11	7379.48
436.48	7515.46
436.84	7663.62
437.21	7793.75
437.57	7964.84
437.94	8066.42
438.30	8216.92
438.67	8326.69
439.03	8372.10
439.40	8386.84
439.76	8391.99
440.13	8350.56
440.49	8320.14
440.86	8286.43
441.22	8208.02
441.59	8120.25
441.95	8064.08
442.32	7962.03
442.68	7826.28
443.05	7732.19
443.41	7618.68
443.78	7445.48
444.14	7295.22
444.51	7151.97
444.87	6993.29
445.24	6838.34
445.60	6691.83
445.96	6530.80
446.33	6388.02
446.69	6210.85
447.06	6027.58
447.42	5848.53
447.79	5715.35
448.15	5612.14
448.51	5482.00
448.88	5393.76
449.24	5305.99
449.61	5210.27
449.97	5093.24
450.33	4992.83
450.70	4877.21
451.06	4791.08
451.43	4652.99
451.79	4542.98
452.15	4455.44
452.52	4354.33
452.88	4233.56
453.24	4167.79
453.61	4080.72
453.97	4003.49
454.34	3942.16
454.70	3890.91
455.06	3791.90
455.43	3703.20
455.79	3574.70
456.15	3469.61
456.52	3362.41
456.88	3311.86
457.24	3240.94
457.61	3208.64
457.97	3147.32
458.33	3096.53
458.70	3011.80
459.06	2938.31
459.42	2878.16
459.79	2805.13
460.15	2744.75
460.51	2698.87
460.88	2645.74
461.24	2579.04
461.60	2536.20
461.96	2479.33
462.33	2427.60
462.69	2372.13
463.05	2326.26
463.42	2284.36
463.78	2247.38
464.14	2208.06
464.50	2187.00
464.87	2149.78
465.23	2105.31
465.59	2073.01
465.95	2034.16
466.32	1994.14
466.68	1973.54
467.04	1961.37
467.40	1926.26
467.77	1906.83
468.13	1871.73
468.49	1842.70
468.85	1814.38
469.22	1805.96
469.58	1773.89
469.94	1772.25
470.30	1750.72
470.66	1740.42
471.03	1714.68
471.39	1703.44
471.75	1681.91
472.11	1661.08
472.47	1643.52
472.84	1634.40
473.20	1633.46
473.56	1618.48
473.92	1606.31
474.28	1594.84
474.65	1579.39
475.01	1559.97
475.37	1538.90
475.73	1534.92
476.09	1519.48
476.45	1502.39
476.81	1485.07
477.18	1493.26
477.54	1485.30
477.90	1482.73
478.26	1480.86
478.62	1467.75
478.98	1450.90
479.34	1435.68
479.71	1424.45
480.07	1402.21
480.43	1407.36
480.79	1398.00
481.15	1384.43
481.51	1378.34
481.87	1386.77
482.23	1380.21
482.59	1378.81
482.96	1387.24
483.32	1375.77
483.68	1369.68
484.04	1361.26
484.40	1346.28
484.76	1338.79
485.12	1335.74
485.48	1324.74
485.84	1324.28
486.20	1324.74
486.56	1305.55
486.92	1293.38
487.28	1293.38
487.64	1283.78
488.00	1285.89
488.37	1286.59
488.73	1284.02
489.09	1278.87
489.45	1274.89
489.81	1255.70
490.17	1251.25
490.53	1248.44
490.89	1236.04
491.25	1220.12
491.61	1219.65
491.97	1219.89
492.33	1217.78
492.69	1212.40
493.05	1210.76
493.41	1209.12
493.77	1210.29
494.13	1216.14
494.49	1214.97
494.85	1216.38
495.21	1214.74
495.57	1206.78
495.93	1197.42
496.29	1190.86
496.64	1187.82
497.00	1186.42
497.36	1183.61
497.72	1180.10
498.08	1188.52
498.44	1184.08
498.80	1174.95
499.16	1165.35
499.52	1165.12
499.88	1159.50
500.24	1156.93
500.60	1159.50
500.96	1160.44
501.32	1150.61
501.68	1143.12
502.03	1143.82
502.39	1133.52
502.75	1141.71
503.11	1139.61
503.47	1144.99
503.83	1146.63
504.19	1145.69
504.55	1129.31
504.91	1121.58
505.26	1124.39
505.62	1116.44
505.98	1118.54
506.34	1122.99
506.70	1130.71
507.06	1128.14
507.42	1133.29
507.78	1137.50
508.13	1125.80
508.49	1116.90
508.85	1113.16
509.21	1108.48
509.57	1101.92
509.93	1100.75
510.28	1104.26
510.64	1096.31
511.00	1091.16
511.36	1089.05
511.72	1097.95
512.07	1097.01
512.43	1104.26
512.79	1108.71
513.15	1108.71
513.51	1108.24
513.86	1106.61
514.22	1101.46
514.58	1100.99
514.94	1099.58
515.30	1095.14
515.65	1102.86
516.01	1107.54
516.37	1095.60
516.73	1100.75
517.08	1107.31
517.44	1098.41
517.80	1095.60
518.16	1111.52
518.51	1102.39
518.87	1102.16
519.23	1104.03
519.59	1105.44
519.94	1091.63
520.30	1093.73
520.66	1096.07
521.01	1090.92
521.37	1080.39
521.73	1083.67
522.09	1089.05
522.44	1089.75
522.80	1093.03
523.16	1101.22
523.51	1106.61
523.87	1109.65
524.23	1110.35
524.58	1118.54
524.94	1119.01
525.30	1118.78
525.65	1107.54
526.01	1104.26
526.37	1102.16
526.72	1098.41
527.08	1101.22
527.44	1106.14
527.79	1098.41
528.15	1096.78
528.51	1097.71
528.86	1091.39
529.22	1098.65
529.58	1108.01
529.93	1108.95
530.29	1115.50
530.65	1114.10
531.00	1101.92
531.36	1091.16
531.71	1086.94
532.07	1079.69
532.43	1081.56
532.78	1084.14
533.14	1088.58
533.49	1094.20
533.85	1099.58
534.21	1106.37
534.56	1111.99
534.92	1111.99
535.27	1109.18
535.63	1098.65
535.98	1092.80
536.34	1090.69
536.69	1084.37
537.05	1085.54
537.41	1093.26
537.76	1096.31
538.12	1094.90
538.47	1102.16
538.83	1099.58
539.18	1088.58
539.54	1080.63
539.89	1083.67
540.25	1092.33
540.60	1093.50
540.96	1104.50
541.31	1103.56
541.67	1096.78
542.02	1076.41
542.38	1078.28
542.73	1075.48
543.09	1080.16
543.44	1081.56
543.80	1086.94
544.15	1089.52
544.51	1087.65
544.86	1079.69
545.22	1080.16
545.57	1087.65
545.93	1080.63
546.28	1080.39
546.64	1084.37
546.99	1088.12
547.35	1084.14
547.70	1084.84
548.05	1088.58
548.41	1093.26
548.76	1097.71
549.12	1102.39
549.47	1107.54
549.83	1106.61
550.18	1098.65
550.53	1088.35
550.89	1093.26
551.24	1086.24
551.60	1087.88
551.95	1089.99
552.30	1091.16
552.66	1082.97
553.01	1077.11
553.37	1080.39
553.72	1082.73
554.07	1085.54
554.43	1094.67
554.78	1099.12
555.13	1086.01
555.49	1086.48
555.84	1091.16
556.19	1078.52
556.55	1080.86
556.90	1088.12
557.26	1091.39
557.61	1085.77
557.96	1083.90
558.32	1088.82
558.67	1090.22
559.02	1091.39
559.37	1095.37
559.73	1092.33
560.08	1085.31
560.43	1076.88
560.79	1071.97
561.14	1067.28
561.49	1063.54
561.85	1068.69
562.20	1069.39
562.55	1070.80
562.90	1064.01
563.26	1074.54
563.61	1071.03
563.96	1067.52
564.32	1074.07
564.67	1086.48
565.02	1084.84
565.37	1085.77
565.73	1101.22
566.08	1097.95
566.43	1097.01
566.78	1099.12
567.14	1098.41
567.49	1086.01
567.84	1075.94
568.19	1069.39
568.54	1062.37
568.90	1061.43
569.25	1071.26
569.60	1079.92
569.95	1089.99
570.31	1086.71
570.66	1082.97
571.01	1074.54
571.36	1069.86
571.71	1057.92
572.06	1071.26
572.42	1074.77
572.77	1076.65
573.12	1079.46
573.47	1086.94
573.82	1083.67
574.18	1096.31
574.53	1092.56
574.88	1090.22
575.23	1086.94
575.58	1086.94
575.93	1080.86
576.28	1091.86
576.64	1090.69
576.99	1090.92
577.34	1090.22
577.69	1089.05
578.04	1083.20
578.39	1091.63
578.74	1086.94
579.09	1087.41
579.44	1082.97
579.80	1082.03
580.15	1078.99
580.50	1089.52
580.85	1094.43
581.20	1106.14
581.55	1110.35
581.90	1096.31
582.25	1078.05
582.60	1073.60
582.95	1064.71
583.30	1068.45
583.65	1079.22
584.00	1097.48
584.35	1092.33
584.71	1095.37
585.06	1081.80
585.41	1079.92
585.76	1079.69
586.11	1090.69
586.46	1086.48
586.81	1104.50
587.16	1101.69
587.51	1094.20
587.86	1088.35
588.21	1089.99
588.56	1076.41
588.91	1082.03
589.26	1079.22
589.61	1074.07
589.96	1069.39
590.31	1073.14
590.66	1081.80
591.01	1082.73
591.36	1085.54
591.71	1092.80
592.06	1089.75
592.41	1080.39
592.76	1089.75
593.10	1089.05
593.45	1086.71
593.80	1088.12
594.15	1094.20
594.50	1087.65
594.85	1088.58
595.20	1082.03
595.55	1076.41
595.90	1069.16
596.25	1057.22
596.60	1059.09
596.95	1050.43
597.30	1059.79
597.64	1106.14
597.99	1115.73
598.34	1110.35
598.69	1115.27
599.04	1117.14
599.39	1070.56
599.74	1075.48
600.09	1080.39
600.44	1091.86
600.78	1099.82
601.13	1097.01
601.48	1092.80
601.83	1093.26
602.18	1088.12
602.53	1071.26
602.88	1070.09
603.22	1074.77
603.57	1080.86
603.92	1084.37
604.27	1081.33
604.62	1081.56
604.97	1082.26
605.31	1075.48
605.66	1070.09
606.01	1072.43
606.36	1081.33
606.71	1076.88
607.05	1080.39
607.40	1082.97
607.75	1078.28
608.10	1075.24
608.44	1067.52
608.79	1066.35
609.14	1068.45
609.49	1079.46
609.84	1075.94
610.18	1083.43
610.53	1085.54
610.88	1085.54
611.23	1082.26
611.57	1086.71
611.92	1096.54
612.27	1097.71
612.62	1102.86
612.96	1098.41
613.31	1097.71
613.66	1092.56
614.00	1081.56
614.35	1068.92
614.70	1077.11
615.05	1081.80
615.39	1079.46
615.74	1077.11
616.09	1087.88
616.43	1087.18
616.78	1090.22
617.13	1088.58
617.47	1091.86
617.82	1084.60
618.17	1081.80
618.51	1071.26
618.86	1076.41
619.21	1079.92
619.55	1086.71
619.90	1079.22
620.25	1088.82
620.59	1079.69
620.94	1078.28
621.29	1080.39
621.63	1100.52
621.98	1085.31
622.32	1096.31
622.67	1098.41
623.02	1095.84
623.36	1086.48
623.71	1101.69
624.05	1090.22
624.40	1086.71
624.75	1088.12
625.09	1088.58
625.44	1075.94
625.78	1079.22
626.13	1089.05
626.48	1082.97
626.82	1079.92
627.17	1090.46
627.51	1094.20
627.86	1092.56
628.20	1093.97
628.55	1087.88
628.89	1081.80
629.24	1080.86
629.58	1068.45
629.93	1065.88
630.28	1066.11
630.62	1064.01
630.97	1071.97
631.31	1084.84
631.66	1089.05
632.00	1092.80
632.35	1088.58
632.69	1083.43
633.04	1075.48
633.38	1078.52
633.73	1083.90
634.07	1088.35
634.42	1076.65
634.76	1076.65
635.11	1074.07
635.45	1069.39
635.79	1068.69
636.14	1073.84
636.48	1080.39
636.83	1076.65
637.17	1077.58
637.52	1078.99
637.86	1074.07
638.21	1073.60
638.55	1078.52
638.89	1070.80
639.24	1084.37
639.58	1091.63
639.93	1082.50
640.27	1075.71
640.61	1080.86
640.96	1070.33
641.30	1064.94
641.65	1072.43
641.99	1078.52
642.33	1075.01
642.68	1071.73
643.02	1077.82
643.37	1074.54
643.71	1067.05
644.05	1074.31
644.40	1078.99
644.74	1073.84
645.08	1072.20
645.43	1074.54
645.77	1077.11
646.11	1067.52
646.46	1079.46
646.80	1081.80
647.14	1087.65
647.49	1075.94
647.83	1082.97
648.17	1079.46
648.52	1090.46
648.86	1087.41
649.20	1091.63
649.55	1091.63
649.89	1088.35
650.23	1074.07
650.57	1069.62
650.92	1077.11
651.26	1072.90
651.60	1070.09
651.95	1078.52
652.29	1075.24
652.63	1080.63
652.97	1088.82
653.32	1100.52
653.66	1083.43
654.00	1098.18
654.34	1083.90
654.69	1067.52
655.03	1061.67
655.37	1074.07
655.71	1067.05
656.05	1070.33
656.40	1082.50
656.74	1074.77
657.08	1076.88
657.42	1083.43
657.76	1094.43
658.11	1095.37
658.45	1102.86
658.79	1102.86
659.13	1097.95
659.47	1084.60
659.82	1088.35
660.16	1091.63
660.50	1096.07
660.84	1091.63
661.18	1096.31
661.52	1089.05
661.87	1080.39
662.21	1078.99
662.55	1090.69
662.89	1089.75
663.23	1092.80
663.57	1094.20
663.91	1094.20
664.25	1084.84
664.60	1092.80
664.94	1092.80
665.28	1088.58
665.62	1081.09
665.96	1080.39
666.30	1076.18
666.64	1075.71
666.98	1078.52
667.32	1076.65
667.66	1084.37
668.01	1067.99
668.35	1066.11
668.69	1072.43
669.03	1075.48
669.37	1070.80
669.71	1087.41
670.05	1082.73
670.39	1074.07
670.73	1077.35
671.07	1066.35
671.41	1064.71
671.75	1074.07
672.09	1083.43
672.43	1071.73
672.77	1079.46
673.11	1076.41
673.45	1068.45
673.79	1067.28
674.13	1085.31
674.47	1083.43
674.81	1079.92
675.15	1080.63
675.49	1078.75
675.83	1070.56
676.17	1062.37
676.51	1068.69
676.85	1071.26
677.19	1071.50
677.53	1067.75
677.87	1085.07
678.21	1090.46
678.55	1087.65
678.89	1086.24
679.23	1084.14
679.57	1079.22
679.90	1074.77
680.24	1084.37
680.58	1083.43
680.92	1081.56
681.26	1081.09
681.60	1080.63
681.94	1074.31
682.28	1067.99
682.62	1076.41
682.96	1085.77
683.29	1084.84
683.63	1070.33
683.97	1080.63
684.31	1075.01
684.65	1069.16
684.99	1073.60
685.33	1083.43
685.67	1081.33
686.00	1089.05
686.34	1081.09
686.68	1067.05
687.02	1057.69
687.36	1057.45
687.70	1051.13
688.03	1060.73
688.37	1067.52
688.71	1079.22
689.05	1080.16
689.39	1082.73
689.72	1076.18
690.06	1078.28
690.40	1071.50
690.74	1064.48
691.08	1062.60
691.41	1055.35
691.75	1059.56
692.09	1073.37
692.43	1086.01
692.76	1088.82
693.10	1091.16
693.44	1087.18
693.78	1076.41
694.11	1067.05
694.45	1072.67
694.79	1080.86
695.13	1083.20
695.46	1084.84
695.80	1092.09
696.14	1088.12
696.48	1081.56
696.81	1077.35
697.15	1071.50
697.49	1067.05
697.82	1061.67
698.16	1060.73
698.50	1065.41
698.83	1069.39
699.17	1066.58
699.51	1063.77
699.84	1068.69
700.18	1067.05
700.52	1066.35
700.85	1056.05
701.19	1061.90
701.53	1071.50
701.86	1064.01
702.20	1071.50
702.54	1071.97
702.87	1075.24
703.21	1064.24
703.55	1078.52
703.88	1077.58
704.22	1084.84
704.55	1087.18
704.89	1091.63
705.23	1085.07
705.56	1086.94
705.90	1086.48
706.23	1091.39
706.57	1078.99
706.91	1073.60
707.24	1078.52
707.58	1084.37
707.91	1076.18
708.25	1087.65
708.58	1093.50
708.92	1083.67
709.26	1075.24
709.59	1078.75
709.93	1068.45
710.26	1067.28
710.60	1068.69
710.93	1075.24
711.27	1064.48
711.60	1067.28
711.94	1069.86
712.27	1069.86
712.61	1063.54
712.94	1078.52
713.28	1078.99
713.61	1074.31
713.95	1081.09
714.28	1087.41
714.62	1086.71
714.95	1092.33
715.29	1089.52
715.62	1087.88
715.96	1091.16
716.29	1076.41
716.63	1079.46
716.96	1087.18
717.29	1082.50
717.63	1073.60
717.96	1079.69
718.30	1068.69
718.63	1056.99
718.97	1056.52
719.30	1060.50
719.63	1070.56
719.97	1074.54
720.30	1082.03
720.64	1087.88
720.97	1082.50
721.30	1072.90
721.64	1082.97
721.97	1078.52
722.31	1082.73
722.64	1092.09
722.97	1093.50
723.31	1089.52
723.64	1093.03
723.97	1083.67
724.31	1084.60
724.64	1082.73
724.98	1084.37
725.31	1092.09
725.64	1097.48
725.98	1100.75
726.31	1100.52
726.64	1092.09
726.97	1079.92
727.31	1076.88
727.64	1072.90
727.97	1073.37
728.31	1081.09
728.64	1085.31
728.97	1081.80
729.31	1081.56
729.64	1080.63
729.97	1074.07
730.30	1077.58
730.64	1079.22
730.97	1073.14
731.30	1081.80
731.63	1078.75
731.97	1071.73
732.30	1076.41
732.63	1083.67
732.96	1073.37
733.30	1086.24
733.63	1091.39
733.96	1091.63
734.29	1097.24
734.63	1111.05
734.96	1100.52
735.29	1095.60
735.62	1098.18
735.95	1094.43
736.29	1092.80
736.62	1094.67
736.95	1102.39
737.28	1101.22
737.61	1102.39
737.94	1083.90
738.28	1086.48
738.61	1076.65
738.94	1075.24
739.27	1065.65
739.60	1073.84
739.93	1065.88
740.27	1080.63
740.60	1079.69
740.93	1076.41
741.26	1075.24
741.59	1080.39
741.92	1077.82
742.25	1081.80
742.58	1082.26
742.91	1086.94
743.25	1095.37
743.58	1087.18
743.91	1081.56
744.24	1088.12
744.57	1089.75
744.90	1088.82
745.23	1091.16
745.56	1091.39
745.89	1093.03
746.22	1086.94
746.55	1080.63
746.88	1076.88
747.21	1077.35
747.54	1077.58
747.87	1080.39
748.20	1075.24
748.53	1083.67
748.87	1085.07
749.20	1091.16
749.53	1084.37
749.86	1086.94
750.19	1088.58
750.52	1079.92
750.85	1075.01
751.18	1083.67
751.51	1092.80
751.84	1090.69
752.16	1091.39
752.49	1091.63
752.82	1088.35
753.15	1077.11
753.48	1071.73
753.81	1078.28
754.14	1075.48
754.47	1080.39
754.80	1091.16
755.13	1090.92
755.46	1087.88
755.79	1088.58
756.12	1097.24
756.45	1095.84
756.78	1100.05
757.11	1102.39
757.43	1102.16
757.76	1094.90
758.09	1092.80
758.42	1090.69
758.75	1085.07
759.08	1086.24
759.41	1082.97
759.74	1088.82
760.07	1075.71
760.39	1083.43
760.72	1074.07
761.05	1073.37
761.38	1069.16
761.71	1080.16
762.04	1077.11
762.36	1081.33
762.69	1077.35
763.02	1067.52
763.35	1079.22
763.68	1081.33
764.01	1084.84
764.33	1088.12
764.66	1099.35
764.99	1093.73
765.32	1082.50
765.65	1080.39
765.97	1083.20
766.30	1082.73
766.63	1077.11
766.96	1077.58
767.28	1076.41
767.61	1067.52
767.94	1062.84
768.27	1064.71
768.59	1067.99
768.92	1066.35
769.25	1068.45
769.58	1068.92
769.90	1071.50
770.23	1075.01
770.56	1074.77
770.89	1058.62
771.21	1057.92
771.54	1056.28
771.87	1059.33
772.19	1060.26
772.52	1072.67
772.85	1071.97
773.17	1059.56
773.50	1055.82
773.83	1057.45
774.15	1065.18
774.48	1060.03
774.81	1075.24
775.13	1084.37
775.46	1088.82
775.79	1079.22
776.11	1080.86
776.44	1078.05
776.77	1069.86
777.09	1056.99
777.42	1070.09
777.74	1074.77
778.07	1063.07
778.40	1060.26
778.72	1061.43
779.05	1054.18
779.37	1048.33
779.70	1052.07
780.03	1061.67
780.35	1076.41
780.68	1076.18
781.00	1085.07
781.33	1090.22
781.65	1087.88
781.98	1084.37
782.31	1083.43
782.63	1076.65
782.96	1070.09
783.28	1061.43
783.61	1064.71
783.93	1058.86
784.26	1061.20
784.58	1069.86
784.91	1071.97
785.23	1067.05
785.56	1074.54
785.88	1078.52
786.21	1081.33
786.53	1091.39
786.86	1087.88
787.18	1084.84
787.51	1082.03
787.83	1071.50
788.16	1064.71
788.48	1066.82
788.81	1080.63
789.13	1086.48
789.46	1091.39
789.78	1090.22
790.10	1078.75
790.43	1068.22
790.75	1066.58
791.08	1068.69
791.40	1074.31
791.73	1092.33
792.05	1098.18
792.37	1093.50
792.70	1092.80
793.02	1084.84
793.35	1080.86
793.67	1072.67
793.99	1073.84
794.32	1087.65
794.64	1094.20
794.96	1098.88
795.29	1102.86
795.61	1108.24
795.93	1083.67
796.26	1082.50
796.58	1078.75
796.91	1078.52
797.23	1074.31
797.55	1078.28
797.87	1085.54
798.20	1082.03
798.52	1079.92
798.84	1071.26
799.17	1079.22
799.49	1064.24
799.81	1067.99
800.14	1069.16
800.46	1074.07
800.78	1078.75
801.10	1088.82
801.43	1086.48
801.75	1097.48
802.07	1111.52
802.40	1094.43
802.72	1090.92
803.04	1090.69
803.36	1081.33
803.69	1068.22
804.01	1075.48
804.33	1077.35
804.65	1079.22
804.97	1080.86
805.30	1084.14
805.62	1085.07
805.94	1082.73
806.26	1077.82
806.58	1066.35
806.91	1047.62
807.23	1052.77
807.55	1055.11
807.87	1058.62
808.19	1073.14
808.52	1089.99
808.84	1095.37
809.16	1094.43
809.48	1091.39
809.80	1078.28
810.12	1081.56
810.44	1080.16
810.77	1082.73
811.09	1094.20
811.41	1103.33
811.73	1099.12
812.05	1099.12
812.37	1101.22
812.69	1089.05
813.01	1088.12
813.33	1089.75
813.66	1086.48
813.98	1079.46
814.30	1086.94
814.62	1088.35
814.94	1086.94
815.26	1086.71
815.58	1091.39
815.90	1088.58
816.22	1094.90
816.54	1100.05
816.86	1100.29
817.18	1098.65
817.50	1104.50
817.82	1096.07
818.14	1088.35
818.46	1094.67
818.78	1097.71
819.10	1089.99
819.42	1103.33
819.74	1118.78
820.06	1102.39
820.38	1095.37
820.70	1100.05
821.02	1093.50
821.34	1082.03
821.66	1082.50
821.98	1089.05
822.30	1088.35
822.62	1083.67
822.94	1092.56
823.26	1094.90
823.58	1092.33
823.90	1086.94
824.22	1089.52
824.54	1086.01
824.86	1088.35
825.18	1081.56
825.50	1079.46
825.81	1066.82
826.13	1058.16
826.45	1049.26
826.77	1045.75
827.09	1047.16
827.41	1057.45
827.73	1056.28
828.05	1074.54
828.36	1082.03
828.68	1082.97
829.00	1078.28
829.32	1077.35
829.64	1074.54
829.96	1072.67
830.28	1078.52
830.59	1086.24
830.91	1088.12
831.23	1085.31
831.55	1087.18
831.87	1090.92
832.19	1086.24
832.50	1081.80
832.82	1075.94
833.14	1071.50
833.46	1067.28
833.78	1064.01
834.09	1074.31
834.41	1079.46
834.73	1089.52
835.05	1088.35
835.36	1086.94
835.68	1078.75
836.00	1074.77
836.32	1074.54
836.63	1061.43
836.95	1062.60
837.27	1070.09
837.59	1080.86
837.90	1078.52
838.22	1077.82
838.54	1084.84
838.85	1076.18
839.17	1073.37
839.49	1070.09
839.80	1073.37
840.12	1074.07
840.44	1082.50
840.76	1075.71
841.07	1071.97
841.39	1082.73
841.71	1073.60
842.02	1067.99
842.34	1063.07
842.65	1069.39
842.97	1071.50
843.29	1076.41
843.60	1072.67
843.92	1082.97
844.24	1083.43
844.55	1074.31
844.87	1079.69
845.18	1095.37
845.50	1086.94
845.82	1089.52
846.13	1094.67
846.45	1082.50
846.76	1066.11
847.08	1075.01
847.40	1070.09
847.71	1064.48
848.03	1075.24
848.34	1083.90
848.66	1084.14
848.97	1087.65
849.29	1090.69
849.60	1074.54
849.92	1077.35
850.24	1075.01
850.55	1073.14
850.87	1077.82
851.18	1089.05
851.50	1087.65
851.81	1092.09
852.13	1088.35
852.44	1090.69
852.76	1084.14
853.07	1089.05
853.39	1085.07
853.70	1081.09
854.01	1072.20
854.33	1078.28
854.64	1068.92
854.96	1067.05
855.27	1073.60
855.59	1082.26
855.90	1086.01
856.22	1081.09
856.53	1090.69
856.84	1088.35
857.16	1082.03
857.47	1089.99
857.79	1101.92
858.10	1090.92
858.41	1092.33
858.73	1095.84
859.04	1087.88
859.36	1085.54
859.67	1090.46
859.98	1100.05
860.30	1090.69
860.61	1083.90
860.92	1076.41
861.24	1071.03
861.55	1062.14
861.87	1069.62
862.18	1070.56
862.49	1067.05
862.81	1072.90
863.12	1087.18
863.43	1078.99
863.74	1081.09
864.06	1092.09
864.37	1095.14
864.68	1081.56
865.00	1090.92
865.31	1101.22
865.62	1093.73
865.94	1086.24
866.25	1087.18
866.56	1087.18
866.87	1077.11
867.19	1090.46
867.50	1086.71
867.81	1085.77
868.12	1082.73
868.44	1082.03
868.75	1071.03
869.06	1075.71
869.37	1075.71
869.68	1079.22
870.00	1077.82
870.31	1078.28
870.62	1088.12
870.93	1092.09
871.24	1085.07
871.56	1093.50
871.87	1095.84
872.18	1080.86
872.49	1071.50
872.80	1079.22
873.12	1069.62
873.43	1062.84
873.74	1061.67
874.05	1070.80
874.36	1069.62
874.67	1076.65
874.98	1087.88
875.29	1093.26
875.61	1081.56
875.92	1078.52
876.23	1077.82
876.54	1076.88
876.85	1074.54
877.16	1077.58
877.47	1091.16
877.78	1089.29
878.09	1086.01
878.40	1088.82
878.72	1089.99
879.03	1084.14
879.34	1086.01
879.65	1088.58
879.96	1097.24
880.27	1092.09
880.58	1074.31
880.89	1070.33
881.20	1066.58
881.51	1057.45
881.82	1067.75
882.13	1085.54
882.44	1084.14
882.75	1075.24
883.06	1073.37
883.37	1076.18
883.68	1065.18
883.99	1064.24
884.30	1073.84
884.61	1080.39
884.92	1079.22
885.23	1089.52
885.54	1098.18
885.85	1095.37
886.16	1086.01
886.47	1080.39
886.78	1082.50
887.08	1075.24
887.39	1078.52
887.70	1088.58
888.01	1093.73
888.32	1084.37
888.63	1082.97
888.94	1079.92
889.25	1079.46
889.56	1072.43
889.87	1075.01
890.17	1076.18
890.48	1077.58
890.79	1068.45
891.10	1075.94
891.41	1071.50
891.72	1069.39
892.03	1076.18
892.34	1084.60
892.64	1078.99
892.95	1081.56
893.26	1091.86
893.57	1083.20
893.88	1078.28
894.18	1075.48
894.49	1081.56
894.80	1084.37
895.11	1084.84
895.42	1082.50
895.72	1083.43
896.03	1077.82
896.34	1071.97
896.65	1076.41
896.96	1079.92
897.26	1082.50
897.57	1080.16
897.88	1071.26
898.19	1059.09
898.49	1064.01
898.80	1067.52
899.11	1075.48
899.41	1084.60
899.72	1091.39
900.03	1086.71
900.34	1083.20
900.64	1076.88
900.95	1070.56
901.26	1063.07
901.56	1050.90
901.87	1055.35
902.18	1042.01
902.48	1042.01
902.79	1044.11
903.10	1049.50
903.40	1052.77
903.71	1065.18
904.02	1076.18
904.32	1085.54
904.63	1090.92
904.94	1086.94
905.24	1090.69
905.55	1081.09
905.85	1087.18
906.16	1093.97
906.47	1084.14
906.77	1082.50
907.08	1081.33
907.38	1076.88
907.69	1072.43
908.00	1083.20
908.30	1088.35
908.61	1096.54
908.91	1103.80
909.22	1104.97
909.52	1102.86
909.83	1095.14
910.14	1086.71
910.44	1070.56
910.75	1065.18
911.05	1064.48
911.36	1059.09
911.66	1062.37
911.97	1072.20
912.27	1079.22
912.58	1076.41
912.88	1081.09
913.19	1087.88
913.49	1095.60
913.80	1086.71
914.10	1090.46
914.41	1098.41
914.71	1092.33
915.01	1085.31
915.32	1082.73
915.62	1068.69
915.93	1065.18
916.23	1067.05
916.54	1058.39
916.84	1061.90
917.15	1077.11
917.45	1070.09
917.75	1070.33
918.06	1074.31
918.36	1069.86
918.67	1070.80
918.97	1070.80
919.27	1067.52
919.58	1066.58
919.88	1085.31
920.18	1083.43
920.49	1091.39
920.79	1097.48
921.10	1087.41
921.40	1070.33
921.70	1067.05
922.01	1062.37
922.31	1065.18
922.61	1079.92
922.92	1092.80
923.22	1094.20
923.52	1098.18
923.82	1092.56
924.13	1097.71
924.43	1086.71
924.73	1088.35
925.04	1086.94
925.34	1084.14
925.64	1076.18
925.94	1086.94
926.25	1093.26
926.55	1093.50
926.85	1096.31
927.15	1098.65
927.46	1095.60
927.76	1087.41
928.06	1085.07
928.36	1082.73
928.67	1079.92
928.97	1073.37
929.27	1069.62
929.57	1073.84
929.87	1069.39
930.18	1076.65
930.48	1080.16
930.78	1091.39
931.08	1090.46
931.38	1096.31
931.69	1098.65
931.99	1099.58
932.29	1089.99
932.59	1093.26
932.89	1094.67
933.19	1089.75
933.49	1092.56
933.80	1091.39
934.10	1094.67
934.40	1095.84
934.70	1103.80
935.00	1103.09
935.30	1104.03
935.60	1086.48
935.90	1078.52
936.20	1064.24
936.50	1053.01
936.81	1054.88
937.11	1062.60
937.41	1055.58
937.71	1060.03
938.01	1067.28
938.31	1073.14
938.61	1082.26
938.91	1099.82
939.21	1100.99
939.51	1102.39
939.81	1096.78
940.11	1080.86
940.41	1074.77
940.71	1073.60
941.01	1078.52
941.31	1085.07
941.61	1092.09
941.91	1089.05
942.21	1084.60
942.51	1078.05
942.81	1082.97
943.11	1082.50
943.41	1079.69
943.71	1075.48
944.01	1083.67
944.31	1074.54
944.61	1075.71
944.90	1080.86
945.20	1083.90
945.50	1082.97
945.80	1085.77
946.10	1087.88
946.40	1086.01
946.70	1084.84
947.00	1075.94
947.30	1080.39
947.60	1079.46
947.89	1080.86
948.19	1079.46
948.49	1082.03
948.79	1069.16
949.09	1066.58
949.39	1068.69
949.69	1072.90
949.98	1071.50
950.28	1079.92
950.58	1077.11
950.88	1075.01
951.18	1069.16
951.48	1066.58
951.77	1075.94
952.07	1082.50
952.37	1076.88
952.67	1080.86
952.97	1084.60
953.26	1071.97
953.56	1063.07
953.86	1060.26
954.16	1061.20
954.45	1064.01
954.75	1062.37
955.05	1074.07
955.35	1081.09
955.64	1088.58
955.94	1090.22
956.24	1096.07
956.54	1093.50
956.83	1096.54
957.13	1078.52
957.43	1075.71
957.72	1066.58
958.02	1053.71
958.32	1046.69
958.61	1060.26
958.91	1058.39
959.21	1064.71
959.50	1071.26
959.80	1075.24
960.10	1067.52
960.39	1061.20
960.69	1056.75
960.99	1056.28
961.28	1064.01
961.58	1068.22
961.87	1075.71
962.17	1074.07
962.47	1087.65
962.76	1082.03
963.06	1086.24
963.36	1087.65
963.65	1098.41
963.95	1087.65
964.24	1081.56
964.54	1080.63
964.83	1079.92
965.13	1073.14
965.42	1067.52
965.72	1078.75
966.02	1078.28
966.31	1072.20
966.61	1070.09
966.90	1075.94
967.20	1074.31
967.49	1068.22
967.79	1066.35
968.08	1064.71
968.38	1063.54
968.67	1058.16
968.97	1064.94
969.26	1074.54
969.56	1071.26
969.85	1071.73
970.15	1069.39
970.44	1067.05
970.74	1066.11
971.03	1078.99
971.32	1081.09
971.62	1078.52
971.91	1081.09
972.21	1078.28
972.50	1078.05
972.80	1079.22
973.09	1085.54
973.38	1078.75
973.68	1080.16
973.97	1074.77
974.27	1070.09
974.56	1067.75
974.85	1076.65
975.15	1072.20
975.44	1068.92
975.73	1071.97
976.03	1081.56
976.32	1071.73
976.61	1073.37
976.91	1067.99
977.20	1073.14
977.49	1066.58
977.79	1072.90
978.08	1070.56
978.37	1080.16
978.67	1077.35
978.96	1075.94
979.25	1075.94
979.55	1092.33
979.84	1091.16
980.13	1090.92
980.42	1084.60
980.72	1084.37
981.01	1071.73
981.30	1065.65
981.59	1068.92
981.89	1075.48
982.18	1084.14
982.47	1083.43
982.76	1094.43
983.06	1083.20
983.35	1086.01
983.64	1074.07
983.93	1075.94
984.22	1078.05
984.52	1080.86
984.81	1075.24
985.10	1076.88
985.39	1077.35
985.68	1069.39
985.97	1071.50
986.27	1079.46
986.56	1085.07
986.85	1087.41
987.14	1094.43
987.43	1103.56
987.72	1094.67
988.01	1098.88
988.31	1105.20
988.60	1091.16
988.89	1075.01
989.18	1077.11
989.47	1075.01
989.76	1064.24
990.05	1064.71
990.34	1071.97
990.63	1072.90
990.92	1065.88
991.21	1065.18
991.51	1074.54
991.80	1080.86
992.09	1082.03
992.38	1083.20
992.67	1087.18
992.96	1089.99
993.25	1082.97
993.54	1078.52
993.83	1083.90
994.12	1079.69
994.41	1068.22
994.70	1065.88
994.99	1068.45
995.28	1059.56
995.57	1074.77
995.86	1084.84
996.15	1089.99
996.44	1094.20
996.73	1094.90
997.02	1087.18
997.31	1078.52
997.59	1081.33
997.88	1078.99
998.17	1082.50
998.46	1083.20
998.75	1089.29
999.04	1086.71
999.33	1085.07
999.62	1085.31
999.91	1078.28
1000.20	1083.43
1000.49	1079.46
1000.77	1079.69
1001.06	1085.77
1001.35	1081.80
1001.64	1073.60
1001.93	1082.26
1002.22	1095.37
1002.51	1090.69
1002.79	1086.94
1003.08	1093.50
1003.37	1093.73
1003.66	1074.31
1003.95	1068.22
1004.23	1074.31
1004.52	1068.92
1004.81	1060.03
1005.10	1071.03
1005.39	1068.22
1005.67	1077.11
1005.96	1080.39
1006.25	1093.97
1006.54	1084.84
1006.83	1089.29
1007.11	1090.92
1007.40	1080.63
1007.69	1074.77
1007.97	1078.99
1008.26	1083.43
1008.55	1072.67
1008.84	1078.52
1009.12	1079.46
1009.41	1084.60
1009.70	1081.80
1009.98	1090.22
1010.27	1094.67
1010.56	1089.52
1010.85	1086.71
1011.13	1084.14
1011.42	1076.88
1011.71	1077.35
1011.99	1076.65
1012.28	1071.26
1012.56	1072.90
1012.85	1071.73
1013.14	1082.26
1013.42	1087.65
1013.71	1091.39
1014.00	1095.37
1014.28	1104.73
1014.57	1095.14
1014.85	1096.07
1015.14	1100.29
1015.43	1096.31
1015.71	1089.99
1016.00	1084.60
1016.28	1076.41
1016.57	1071.03
1016.85	1073.60
1017.14	1069.86
1017.43	1070.56
1017.71	1064.94
1018.00	1067.52
1018.28	1062.37
1018.57	1072.67
1018.85	1068.92
1019.14	1075.24
1019.42	1068.22
1019.71	1078.52
1019.99	1083.67
1020.28	1079.92
1020.56	1082.97
1020.85	1079.69
1021.13	1068.45
1021.42	1054.65
1021.70	1060.73
1021.99	1057.22
1022.27	1076.18
1022.55	1068.45
1022.84	1122.29
>>>>>End Processed Spectral Data<<<<<
