SpectraSuite Data File
++++++++++++++++++++++++++++++++++++
Date: Mon Aug 26 10:24:30 PDT 2019
User: corrico
Dark Spectrum Present: No
Reference Spectrum Present: No
Number of Sampled Component Spectra: 1
Spectrometers: USB2+H06089
Integration Time (usec): 10000 (USB2+H06089)
Spectra Averaged: 2 (USB2+H06089)
Boxcar Smoothing: 2 (USB2+H06089)
Correct for Electrical Dark: No (USB2+H06089)
Strobe/Lamp Enabled: No (USB2+H06089)
Correct for Detector Non-linearity: No (USB2+H06089)
Correct for Stray Light: No (USB2+H06089)
Number of Pixels in Processed Spectrum: 2048
>>>>>Begin Processed Spectral Data<<<<<
339.70	1049.73
340.07	1049.73
340.45	1007.37
340.82	987.47
341.19	967.58
341.57	928.26
341.94	918.66
342.31	899.94
342.69	883.08
343.06	874.42
343.43	881.21
343.81	887.53
344.18	897.13
344.55	907.43
344.93	910.70
345.30	916.32
345.67	929.66
346.04	937.38
346.42	944.87
346.79	954.24
347.16	971.79
347.54	972.02
347.91	983.73
348.28	992.39
348.65	997.77
349.03	1000.58
349.40	1001.28
349.77	1012.28
350.14	1024.45
350.52	1035.45
350.89	1035.45
351.26	1051.13
351.63	1061.20
352.01	1061.20
352.38	1054.18
352.75	1064.48
353.12	1067.52
353.50	1050.90
353.87	1055.11
354.24	1067.52
354.61	1067.99
354.98	1071.03
355.36	1076.18
355.73	1077.35
356.10	1075.71
356.47	1084.14
356.84	1085.31
357.22	1092.09
357.59	1097.95
357.96	1098.18
358.33	1086.71
358.70	1069.39
359.08	1067.28
359.45	1061.43
359.82	1066.82
360.19	1074.31
360.56	1089.29
360.94	1090.46
361.31	1088.82
361.68	1084.37
362.05	1077.11
362.42	1076.65
362.79	1079.69
363.16	1079.22
363.54	1078.05
363.91	1090.22
364.28	1091.39
364.65	1088.82
365.02	1090.92
365.39	1087.41
365.76	1075.48
366.14	1068.69
366.51	1059.56
366.88	1048.09
367.25	1053.48
367.62	1064.94
367.99	1075.94
368.36	1072.90
368.73	1079.22
369.10	1080.63
369.48	1070.09
369.85	1059.09
370.22	1064.71
370.59	1062.60
370.96	1061.43
371.33	1069.39
371.70	1070.56
372.07	1074.54
372.44	1070.33
372.81	1068.69
373.18	1054.65
373.55	1054.88
373.93	1055.82
374.30	1057.69
374.67	1054.65
375.04	1068.45
375.41	1058.86
375.78	1065.18
376.15	1073.84
376.52	1082.73
376.89	1074.54
377.26	1093.03
377.63	1083.67
378.00	1083.20
378.37	1073.84
378.74	1077.11
379.11	1065.65
379.48	1070.09
379.85	1062.37
380.22	1061.20
380.59	1066.11
380.96	1075.01
381.33	1072.67
381.70	1083.43
382.07	1090.46
382.44	1080.86
382.81	1074.31
383.18	1069.62
383.55	1059.79
383.92	1054.65
384.29	1064.94
384.66	1068.69
385.03	1074.31
385.40	1076.65
385.77	1077.82
386.14	1077.11
386.51	1070.56
386.88	1064.71
387.25	1068.92
387.62	1068.92
387.99	1068.22
388.36	1073.14
388.73	1076.41
389.10	1075.24
389.46	1082.73
389.83	1080.86
390.20	1085.54
390.57	1086.24
390.94	1086.94
391.31	1073.84
391.68	1073.14
392.05	1061.20
392.42	1058.39
392.79	1056.05
393.16	1062.37
393.53	1055.82
393.89	1061.90
394.26	1069.16
394.63	1074.77
395.00	1070.33
395.37	1071.26
395.74	1065.18
396.11	1055.11
396.48	1053.48
396.84	1055.11
397.21	1056.05
397.58	1064.48
397.95	1073.14
398.32	1071.97
398.69	1076.18
399.06	1075.71
399.42	1067.05
399.79	1066.58
400.16	1075.94
400.53	1075.94
400.90	1085.31
401.27	1089.75
401.64	1094.90
402.00	1083.67
402.37	1082.03
402.74	1079.69
403.11	1082.97
403.48	1061.67
403.84	1068.69
404.21	1074.31
404.58	1072.67
404.95	1075.24
405.32	1089.29
405.68	1084.84
406.05	1081.33
406.42	1079.92
406.79	1080.86
407.16	1087.18
407.52	1082.97
407.89	1090.46
408.26	1093.97
408.63	1079.69
408.99	1084.14
409.36	1076.65
409.73	1072.90
410.10	1070.09
410.47	1093.73
410.83	1082.03
411.20	1095.14
411.57	1094.90
411.94	1090.46
412.30	1083.43
412.67	1089.29
413.04	1087.41
413.40	1091.39
413.77	1099.58
414.14	1101.92
414.51	1107.31
414.87	1113.16
415.24	1108.24
415.61	1098.88
415.97	1093.50
416.34	1084.37
416.71	1088.82
417.08	1080.39
417.44	1095.60
417.81	1094.90
418.18	1099.58
418.54	1102.63
418.91	1115.50
419.28	1116.44
419.64	1120.65
420.01	1128.14
420.38	1128.37
420.74	1144.76
421.11	1146.39
421.48	1161.14
421.84	1169.33
422.21	1171.20
422.58	1163.71
422.94	1170.03
423.31	1173.31
423.68	1178.69
424.04	1192.74
424.41	1205.14
424.77	1224.57
425.14	1229.95
425.51	1234.40
425.87	1244.70
426.24	1258.04
426.61	1260.61
426.97	1279.57
427.34	1304.61
427.70	1313.51
428.07	1324.51
428.44	1337.38
428.80	1349.55
429.17	1365.23
429.53	1382.09
429.90	1401.98
430.27	1421.41
430.63	1440.83
431.00	1443.17
431.36	1452.07
431.73	1454.17
432.09	1477.58
432.46	1487.64
432.83	1511.28
433.19	1536.80
433.56	1568.16
433.92	1579.16
434.29	1590.16
434.65	1593.90
435.02	1612.86
435.38	1637.91
435.75	1656.87
436.11	1690.10
436.48	1709.06
436.84	1712.10
437.21	1712.34
437.57	1716.78
437.94	1712.10
438.30	1726.15
438.67	1737.38
439.03	1748.15
439.40	1749.55
439.76	1738.55
440.13	1734.34
440.49	1736.44
440.86	1723.57
441.22	1727.08
441.59	1739.72
441.95	1742.76
442.32	1726.38
442.68	1726.61
443.05	1721.46
443.41	1692.21
443.78	1663.42
444.14	1655.46
444.51	1642.59
444.87	1625.03
445.24	1634.40
445.60	1632.06
445.96	1622.23
446.33	1619.18
446.69	1601.39
447.06	1582.20
447.42	1567.69
447.79	1550.14
448.15	1517.60
448.51	1504.96
448.88	1490.22
449.24	1481.79
449.61	1481.33
449.97	1470.79
450.33	1453.47
450.70	1435.92
451.06	1434.28
451.43	1423.05
451.79	1417.90
452.15	1411.11
452.52	1419.53
452.88	1394.02
453.24	1376.70
453.61	1363.36
453.97	1344.87
454.34	1320.06
454.70	1320.53
455.06	1310.47
455.43	1313.98
455.79	1325.68
456.15	1320.06
456.52	1305.08
456.88	1301.57
457.24	1278.87
457.61	1271.14
457.97	1263.66
458.33	1255.23
458.70	1249.14
459.06	1240.25
459.42	1229.72
459.79	1237.44
460.15	1243.06
460.51	1232.53
460.88	1232.53
461.24	1219.19
461.60	1214.27
461.96	1201.40
462.33	1197.89
462.69	1192.27
463.05	1197.65
463.42	1181.27
463.78	1172.84
464.14	1174.95
464.50	1172.61
464.87	1163.25
465.23	1170.03
465.59	1174.48
465.95	1167.69
466.32	1171.20
466.68	1166.52
467.04	1160.20
467.40	1155.29
467.77	1142.18
468.13	1138.90
468.49	1142.18
468.85	1144.05
469.22	1140.78
469.58	1150.61
469.94	1154.12
470.30	1151.31
470.66	1145.22
471.03	1147.10
471.39	1140.54
471.75	1136.33
472.11	1135.86
472.47	1138.44
472.84	1144.76
473.20	1149.67
473.56	1143.82
473.92	1143.35
474.28	1128.84
474.65	1117.14
475.01	1115.97
475.37	1113.86
475.73	1103.80
476.09	1116.20
476.45	1125.56
476.81	1114.10
477.18	1115.27
477.54	1120.65
477.90	1115.27
478.26	1104.26
478.62	1108.95
478.98	1111.75
479.34	1108.48
479.71	1108.01
480.07	1111.52
480.43	1111.05
480.79	1103.56
481.15	1108.01
481.51	1115.03
481.87	1120.18
482.23	1118.54
482.59	1115.03
482.96	1108.71
483.32	1093.97
483.68	1087.65
484.04	1083.90
484.40	1089.75
484.76	1092.09
485.12	1094.43
485.48	1097.24
485.84	1100.99
486.20	1097.95
486.56	1097.48
486.92	1090.46
487.28	1086.24
487.64	1096.31
488.00	1099.12
488.37	1092.56
488.73	1098.88
489.09	1099.58
489.45	1092.56
489.81	1082.50
490.17	1088.82
490.53	1097.95
490.89	1099.12
491.25	1097.71
491.61	1097.01
491.97	1093.26
492.33	1083.20
492.69	1077.11
493.05	1071.97
493.41	1073.84
493.77	1084.60
494.13	1082.97
494.49	1079.22
494.85	1077.35
495.21	1072.43
495.57	1063.07
495.93	1068.69
496.29	1075.71
496.64	1078.28
497.00	1094.90
497.36	1092.33
497.72	1086.24
498.08	1083.90
498.44	1089.05
498.80	1080.63
499.16	1079.92
499.52	1085.31
499.88	1090.69
500.24	1081.56
500.60	1073.37
500.96	1074.77
501.32	1078.75
501.68	1074.54
502.03	1085.31
502.39	1091.63
502.75	1096.78
503.11	1087.18
503.47	1086.24
503.83	1087.41
504.19	1086.71
504.55	1078.52
504.91	1088.12
505.26	1097.48
505.62	1091.16
505.98	1091.63
506.34	1096.78
506.70	1089.29
507.06	1085.31
507.42	1091.39
507.78	1090.46
508.13	1079.46
508.49	1079.22
508.85	1071.03
509.21	1067.52
509.57	1074.54
509.93	1086.01
510.28	1082.73
510.64	1092.33
511.00	1099.35
511.36	1098.18
511.72	1095.14
512.07	1098.88
512.43	1086.71
512.79	1084.37
513.15	1080.16
513.51	1083.43
513.86	1075.24
514.22	1080.16
514.58	1074.31
514.94	1069.16
515.30	1067.05
515.65	1075.71
516.01	1073.37
516.37	1068.45
516.73	1080.86
517.08	1080.39
517.44	1082.50
517.80	1091.39
518.16	1092.80
518.51	1093.50
518.87	1103.09
519.23	1102.16
519.59	1096.31
519.94	1103.09
520.30	1097.95
520.66	1089.99
521.01	1086.24
521.37	1080.63
521.73	1071.97
522.09	1069.39
522.44	1066.11
522.80	1066.82
523.16	1071.03
523.51	1066.82
523.87	1063.31
524.23	1071.97
524.58	1073.60
524.94	1078.05
525.30	1082.03
525.65	1087.88
526.01	1073.60
526.37	1069.16
526.72	1062.14
527.08	1063.54
527.44	1068.22
527.79	1079.22
528.15	1087.88
528.51	1091.39
528.86	1089.29
529.22	1081.56
529.58	1073.14
529.93	1059.79
530.29	1058.39
530.65	1051.60
531.00	1048.09
531.36	1049.96
531.71	1067.05
532.07	1071.97
532.43	1090.69
532.78	1090.69
533.14	1087.65
533.49	1079.22
533.85	1072.43
534.21	1063.31
534.56	1068.45
534.92	1072.90
535.27	1072.90
535.63	1073.37
535.98	1075.24
536.34	1082.03
536.69	1102.16
537.05	1098.18
537.41	1096.54
537.76	1096.31
538.12	1085.31
538.47	1069.39
538.83	1071.50
539.18	1063.77
539.54	1065.65
539.89	1071.73
540.25	1075.24
540.60	1070.56
540.96	1077.58
541.31	1068.45
541.67	1073.60
542.02	1069.39
542.38	1075.71
542.73	1082.26
543.09	1082.97
543.44	1075.94
543.80	1080.16
544.15	1084.84
544.51	1079.69
544.86	1088.12
545.22	1091.86
545.57	1088.12
545.93	1084.84
546.28	1090.22
546.64	1087.41
546.99	1073.37
547.35	1071.50
547.70	1073.60
548.05	1064.94
548.41	1064.71
548.76	1071.97
549.12	1060.03
549.47	1053.71
549.83	1059.56
550.18	1064.01
550.53	1062.60
550.89	1073.37
551.24	1073.37
551.60	1068.69
551.95	1070.80
552.30	1080.86
552.66	1081.33
553.01	1073.60
553.37	1075.94
553.72	1061.20
554.07	1058.39
554.43	1055.11
554.78	1063.54
555.13	1063.07
555.49	1067.75
555.84	1057.45
556.19	1057.69
556.55	1064.24
556.90	1073.14
557.26	1086.01
557.61	1096.78
557.96	1098.88
558.32	1093.03
558.67	1087.18
559.02	1075.01
559.37	1068.22
559.73	1060.96
560.08	1062.14
560.43	1070.80
560.79	1077.58
561.14	1087.41
561.49	1100.52
561.85	1104.97
562.20	1089.29
562.55	1092.80
562.90	1093.03
563.26	1090.46
563.61	1101.46
563.96	1102.39
564.32	1103.80
564.67	1092.33
565.02	1093.50
565.37	1074.54
565.73	1077.58
566.08	1068.69
566.43	1066.11
566.78	1060.50
567.14	1067.52
567.49	1068.69
567.84	1073.37
568.19	1076.65
568.54	1073.84
568.90	1078.75
569.25	1082.50
569.60	1084.37
569.95	1089.05
570.31	1096.54
570.66	1089.52
571.01	1089.05
571.36	1078.75
571.71	1082.03
572.06	1083.43
572.42	1088.12
572.77	1077.82
573.12	1077.35
573.47	1068.92
573.82	1065.41
574.18	1055.58
574.53	1064.24
574.88	1068.69
575.23	1071.26
575.58	1071.50
575.93	1074.54
576.28	1075.24
576.64	1077.11
576.99	1079.22
577.34	1084.60
577.69	1080.63
578.04	1074.77
578.39	1074.77
578.74	1075.01
579.09	1063.07
579.44	1071.03
579.80	1074.54
580.15	1075.48
580.50	1080.16
580.85	1087.88
581.20	1084.60
581.55	1090.22
581.90	1084.84
582.25	1086.48
582.60	1083.67
582.95	1090.92
583.30	1081.56
583.65	1090.46
584.00	1082.73
584.35	1088.35
584.71	1084.84
585.06	1095.37
585.41	1088.35
585.76	1101.69
586.11	1104.73
586.46	1106.14
586.81	1100.99
587.16	1097.95
587.51	1086.24
587.86	1076.41
588.21	1071.03
588.56	1076.65
588.91	1083.67
589.26	1093.26
589.61	1098.18
589.96	1097.71
590.31	1100.52
590.66	1096.07
591.01	1081.09
591.36	1062.60
591.71	1072.20
592.06	1065.65
592.41	1065.88
592.76	1071.73
593.10	1098.18
593.45	1092.80
593.80	1095.14
594.15	1100.29
594.50	1100.52
594.85	1079.46
595.20	1073.60
595.55	1061.67
595.90	1062.37
596.25	1061.67
596.60	1072.20
596.95	1072.67
597.30	1073.84
597.64	1122.75
597.99	1138.20
598.34	1132.35
598.69	1138.20
599.04	1142.42
599.39	1099.82
599.74	1086.01
600.09	1093.50
600.44	1089.52
600.78	1089.29
601.13	1082.03
601.48	1074.54
601.83	1070.56
602.18	1072.20
602.53	1065.65
602.88	1059.09
603.22	1062.84
603.57	1069.62
603.92	1067.28
604.27	1076.18
604.62	1085.31
604.97	1093.03
605.31	1092.33
605.66	1098.65
606.01	1111.29
606.36	1102.39
606.71	1093.50
607.05	1089.75
607.40	1086.01
607.75	1071.03
608.10	1083.67
608.44	1095.14
608.79	1100.52
609.14	1098.18
609.49	1099.82
609.84	1087.88
610.18	1082.03
610.53	1075.48
610.88	1089.29
611.23	1098.65
611.57	1100.05
611.92	1093.97
612.27	1094.43
612.62	1078.75
612.96	1074.77
613.31	1078.05
613.66	1074.77
614.00	1085.77
614.35	1094.67
614.70	1095.84
615.05	1095.14
615.39	1112.46
615.74	1106.84
616.09	1102.63
616.43	1095.60
616.78	1099.35
617.13	1081.80
617.47	1075.24
617.82	1066.82
618.17	1059.79
618.51	1054.41
618.86	1059.33
619.21	1058.86
619.55	1064.71
619.90	1072.43
620.25	1074.31
620.59	1067.52
620.94	1073.14
621.29	1070.56
621.63	1076.88
621.98	1080.39
622.32	1088.58
622.67	1080.39
623.02	1084.60
623.36	1081.56
623.71	1081.33
624.05	1085.31
624.40	1093.26
624.75	1093.97
625.09	1087.41
625.44	1087.88
625.78	1092.80
626.13	1082.03
626.48	1078.05
626.82	1080.16
627.17	1072.20
627.51	1061.67
627.86	1064.24
628.20	1071.97
628.55	1076.18
628.89	1087.18
629.24	1090.69
629.58	1096.31
629.93	1088.12
630.28	1082.03
630.62	1082.73
630.97	1080.16
631.31	1079.46
631.66	1081.09
632.00	1088.35
632.35	1076.65
632.69	1072.67
633.04	1078.75
633.38	1077.35
633.73	1067.99
634.07	1073.37
634.42	1077.82
634.76	1071.73
635.11	1081.33
635.45	1080.16
635.79	1082.73
636.14	1090.69
636.48	1088.12
636.83	1080.63
637.17	1084.14
637.52	1081.33
637.86	1071.97
638.21	1072.20
638.55	1076.88
638.89	1088.82
639.24	1082.50
639.58	1088.12
639.93	1092.33
640.27	1088.12
640.61	1074.54
640.96	1083.90
641.30	1078.05
641.65	1075.01
641.99	1080.39
642.33	1085.54
642.68	1071.50
643.02	1079.69
643.37	1076.88
643.71	1074.77
644.05	1077.11
644.40	1084.37
644.74	1078.28
645.08	1084.37
645.43	1077.11
645.77	1070.33
646.11	1075.48
646.46	1075.71
646.80	1069.39
647.14	1069.86
647.49	1075.48
647.83	1075.94
648.17	1075.01
648.52	1088.58
648.86	1089.99
649.20	1090.92
649.55	1094.43
649.89	1095.14
650.23	1087.18
650.57	1087.88
650.92	1079.92
651.26	1072.90
651.60	1076.41
651.95	1082.97
652.29	1085.77
652.63	1093.50
652.97	1097.71
653.32	1096.07
653.66	1092.33
654.00	1089.52
654.34	1093.03
654.69	1084.60
655.03	1092.33
655.37	1094.20
655.71	1093.73
656.05	1096.54
656.40	1096.07
656.74	1089.52
657.08	1086.01
657.42	1080.39
657.76	1066.58
658.11	1068.92
658.45	1065.18
658.79	1068.92
659.13	1080.63
659.47	1080.63
659.82	1082.50
660.16	1081.09
660.50	1071.26
660.84	1062.84
661.18	1064.71
661.52	1062.37
661.87	1065.88
662.21	1067.99
662.55	1071.26
662.89	1069.39
663.23	1062.84
663.57	1067.75
663.91	1079.46
664.25	1087.41
664.60	1095.60
664.94	1111.99
665.28	1105.67
665.62	1095.84
665.96	1084.37
666.30	1080.63
666.64	1075.24
666.98	1078.52
667.32	1075.71
667.66	1086.71
668.01	1090.46
668.35	1077.35
668.69	1068.69
669.03	1074.07
669.37	1064.24
669.71	1067.75
670.05	1065.88
670.39	1068.92
670.73	1068.22
671.07	1073.84
671.41	1072.20
671.75	1090.46
672.09	1091.86
672.43	1078.99
672.77	1062.14
673.11	1049.73
673.45	1050.67
673.79	1046.45
674.13	1056.75
674.47	1067.99
674.81	1076.88
675.15	1070.09
675.49	1074.54
675.83	1083.20
676.17	1095.14
676.51	1097.71
676.85	1100.52
677.19	1093.97
677.53	1096.07
677.87	1088.12
678.21	1078.05
678.55	1077.11
678.89	1086.01
679.23	1075.24
679.57	1072.43
679.90	1082.03
680.24	1078.05
680.58	1072.43
680.92	1077.58
681.26	1072.90
681.60	1069.62
681.94	1071.73
682.28	1068.69
682.62	1070.33
682.96	1074.54
683.29	1083.43
683.63	1079.22
683.97	1079.46
684.31	1071.26
684.65	1079.46
684.99	1066.82
685.33	1072.67
685.67	1085.31
686.00	1082.73
686.34	1072.90
686.68	1068.92
687.02	1068.45
687.36	1068.92
687.70	1078.28
688.03	1074.77
688.37	1087.18
688.71	1079.46
689.05	1077.82
689.39	1063.54
689.72	1071.50
690.06	1056.75
690.40	1067.05
690.74	1067.52
691.08	1081.56
691.41	1078.99
691.75	1095.14
692.09	1087.18
692.43	1083.20
692.76	1082.97
693.10	1087.88
693.44	1084.37
693.78	1089.99
694.11	1087.88
694.45	1081.09
694.79	1083.43
695.13	1085.54
695.46	1085.31
695.80	1081.80
696.14	1090.69
696.48	1081.56
696.81	1077.11
697.15	1086.94
697.49	1089.05
697.82	1076.65
698.16	1075.24
698.50	1082.03
698.83	1068.22
699.17	1066.82
699.51	1063.77
699.84	1064.24
700.18	1051.84
700.52	1054.65
700.85	1063.31
701.19	1085.07
701.53	1093.97
701.86	1105.20
702.20	1106.14
702.54	1102.63
702.87	1084.84
703.21	1079.22
703.55	1068.92
703.88	1070.80
704.22	1074.07
704.55	1075.24
704.89	1075.01
705.23	1076.88
705.56	1073.14
705.90	1067.99
706.23	1063.54
706.57	1061.90
706.91	1058.86
707.24	1064.94
707.58	1060.26
707.91	1075.24
708.25	1078.75
708.58	1077.58
708.92	1076.18
709.26	1080.63
709.59	1071.73
709.93	1072.90
710.26	1083.67
710.60	1077.11
710.93	1080.16
711.27	1088.35
711.60	1088.35
711.94	1090.69
712.27	1094.20
712.61	1088.58
712.94	1091.16
713.28	1090.22
713.61	1092.80
713.95	1096.54
714.28	1100.75
714.62	1104.97
714.95	1099.58
715.29	1092.56
715.62	1086.24
715.96	1086.01
716.29	1073.60
716.63	1078.52
716.96	1086.71
717.29	1091.86
717.63	1078.75
717.96	1078.05
718.30	1082.50
718.63	1080.63
718.97	1078.75
719.30	1090.69
719.63	1086.48
719.97	1078.99
720.30	1071.03
720.64	1066.82
720.97	1066.82
721.30	1086.48
721.64	1085.31
721.97	1085.31
722.31	1082.26
722.64	1086.71
722.97	1069.39
723.31	1072.43
723.64	1069.62
723.97	1081.80
724.31	1078.75
724.64	1076.65
724.98	1072.20
725.31	1075.71
725.64	1076.41
725.98	1076.65
726.31	1081.80
726.64	1083.43
726.97	1085.54
727.31	1084.14
727.64	1078.75
727.97	1081.09
728.31	1088.12
728.64	1091.86
728.97	1093.50
729.31	1095.37
729.64	1093.03
729.97	1086.01
730.30	1080.86
730.64	1076.65
730.97	1075.48
731.30	1078.28
731.63	1078.99
731.97	1079.92
732.30	1077.58
732.63	1089.29
732.96	1077.11
733.30	1078.28
733.63	1073.84
733.96	1076.41
734.29	1071.26
734.63	1072.20
734.96	1077.82
735.29	1088.58
735.62	1091.86
735.95	1088.82
736.29	1090.46
736.62	1081.80
736.95	1070.09
737.28	1067.75
737.61	1062.84
737.94	1077.11
738.28	1088.12
738.61	1093.26
738.94	1086.71
739.27	1089.29
739.60	1081.80
739.93	1082.03
740.27	1080.86
740.60	1078.52
740.93	1082.50
741.26	1086.48
741.59	1074.31
741.92	1076.18
742.25	1075.71
742.58	1078.75
742.91	1072.43
743.25	1079.92
743.58	1080.63
743.91	1085.77
744.24	1077.35
744.57	1087.41
744.90	1088.58
745.23	1078.99
745.56	1085.07
745.89	1089.29
746.22	1077.82
746.55	1075.71
746.88	1083.90
747.21	1071.97
747.54	1071.97
747.87	1078.05
748.20	1068.22
748.53	1062.37
748.87	1063.54
749.20	1067.99
749.53	1064.24
749.86	1075.24
750.19	1075.94
750.52	1082.97
750.85	1077.11
751.18	1070.56
751.51	1067.28
751.84	1061.90
752.16	1049.03
752.49	1053.94
752.82	1060.03
753.15	1064.48
753.48	1073.37
753.81	1081.09
754.14	1073.14
754.47	1066.82
754.80	1066.58
755.13	1069.39
755.46	1070.56
755.79	1076.41
756.12	1089.29
756.45	1082.50
756.78	1077.35
757.11	1079.46
757.43	1079.22
757.76	1060.96
758.09	1062.14
758.42	1054.41
758.75	1052.54
759.08	1045.05
759.41	1064.94
759.74	1073.37
760.07	1086.48
760.39	1086.71
760.72	1096.07
761.05	1091.63
761.38	1080.86
761.71	1079.69
762.04	1083.20
762.36	1075.71
762.69	1073.84
763.02	1074.54
763.35	1067.75
763.68	1073.37
764.01	1072.90
764.33	1081.80
764.66	1093.26
764.99	1093.97
765.32	1086.71
765.65	1087.41
765.97	1078.99
766.30	1064.94
766.63	1066.35
766.96	1074.31
767.28	1083.67
767.61	1081.33
767.94	1095.37
768.27	1099.58
768.59	1095.14
768.92	1085.07
769.25	1088.35
769.58	1082.50
769.90	1082.50
770.23	1068.69
770.56	1075.01
770.89	1078.99
771.21	1074.31
771.54	1072.90
771.87	1082.73
772.19	1075.48
772.52	1075.71
772.85	1078.99
773.17	1076.18
773.50	1083.43
773.83	1091.16
774.15	1083.90
774.48	1083.20
774.81	1086.24
775.13	1076.88
775.46	1072.67
775.79	1068.92
776.11	1068.92
776.44	1071.97
776.77	1073.14
777.09	1075.48
777.42	1075.94
777.74	1079.92
778.07	1071.50
778.40	1075.01
778.72	1075.24
779.05	1083.67
779.37	1079.22
779.70	1078.28
780.03	1089.75
780.35	1086.48
780.68	1086.71
781.00	1088.12
781.33	1091.63
781.65	1078.75
781.98	1087.18
782.31	1075.01
782.63	1073.37
782.96	1069.62
783.28	1060.73
783.61	1055.82
783.93	1057.69
784.26	1056.99
784.58	1065.88
784.91	1077.82
785.23	1075.24
785.56	1081.33
785.88	1087.65
786.21	1078.52
786.53	1061.67
786.86	1065.18
787.18	1064.94
787.51	1059.33
787.83	1061.67
788.16	1075.24
788.48	1074.31
788.81	1067.05
789.13	1071.03
789.46	1080.16
789.78	1088.12
790.10	1097.01
790.43	1104.03
790.75	1101.69
791.08	1088.12
791.40	1076.88
791.73	1067.75
792.05	1063.31
792.37	1066.58
792.70	1074.77
793.02	1085.31
793.35	1083.43
793.67	1092.80
793.99	1089.99
794.32	1084.84
794.64	1073.84
794.96	1072.90
795.29	1068.69
795.61	1070.33
795.93	1078.52
796.26	1072.43
796.58	1077.35
796.91	1079.46
797.23	1079.92
797.55	1079.92
797.87	1092.09
798.20	1081.56
798.52	1082.03
798.84	1085.77
799.17	1081.33
799.49	1077.82
799.81	1082.73
800.14	1083.67
800.46	1087.18
800.78	1083.90
801.10	1078.99
801.43	1092.56
801.75	1084.37
802.07	1073.14
802.40	1082.97
802.72	1082.50
803.04	1073.37
803.36	1084.60
803.69	1092.33
804.01	1077.11
804.33	1089.05
804.65	1084.84
804.97	1071.73
805.30	1053.94
805.62	1057.45
805.94	1053.01
806.26	1053.48
806.58	1057.69
806.91	1065.65
807.23	1067.75
807.55	1062.37
807.87	1053.48
808.19	1054.65
808.52	1057.92
808.84	1062.60
809.16	1065.65
809.48	1082.03
809.80	1086.94
810.12	1085.54
810.44	1082.03
810.77	1082.03
811.09	1077.35
811.41	1080.16
811.73	1079.22
812.05	1085.77
812.37	1085.07
812.69	1081.33
813.01	1071.97
813.33	1070.56
813.66	1070.80
813.98	1070.09
814.30	1079.22
814.62	1071.97
814.94	1071.97
815.26	1076.88
815.58	1077.58
815.90	1073.14
816.22	1075.24
816.54	1074.77
816.86	1066.58
817.18	1059.09
817.50	1055.35
817.82	1060.03
818.14	1062.60
818.46	1064.24
818.78	1074.77
819.10	1081.80
819.42	1082.03
819.74	1086.48
820.06	1081.09
820.38	1076.88
820.70	1067.28
821.02	1072.67
821.34	1061.67
821.66	1067.75
821.98	1070.80
822.30	1076.41
822.62	1066.11
822.94	1077.35
823.26	1080.16
823.58	1076.41
823.90	1075.48
824.22	1093.73
824.54	1091.39
824.86	1091.86
825.18	1101.46
825.50	1100.29
825.81	1093.50
826.13	1104.50
826.45	1105.20
826.77	1095.37
827.09	1090.46
827.41	1084.84
827.73	1069.86
828.05	1072.67
828.36	1077.82
828.68	1076.41
829.00	1074.54
829.32	1078.52
829.64	1065.18
829.96	1067.99
830.28	1078.05
830.59	1084.84
830.91	1091.39
831.23	1090.22
831.55	1082.03
831.87	1070.56
832.19	1066.82
832.50	1058.62
832.82	1057.69
833.14	1059.56
833.46	1074.07
833.78	1067.52
834.09	1065.88
834.41	1068.45
834.73	1070.33
835.05	1064.71
835.36	1072.67
835.68	1075.48
836.00	1092.56
836.32	1092.56
836.63	1100.05
836.95	1106.37
837.27	1095.84
837.59	1080.39
837.90	1076.88
838.22	1066.11
838.54	1056.52
838.85	1064.94
839.17	1064.71
839.49	1064.01
839.80	1063.77
840.12	1060.96
840.44	1061.67
840.76	1064.01
841.07	1066.11
841.39	1072.20
841.71	1071.73
842.02	1076.88
842.34	1078.05
842.65	1090.46
842.97	1091.16
843.29	1097.95
843.60	1096.07
843.92	1101.69
844.24	1091.39
844.55	1086.94
844.87	1082.50
845.18	1073.84
845.50	1062.37
845.82	1060.26
846.13	1057.92
846.45	1056.28
846.76	1060.73
847.08	1061.20
847.40	1067.52
847.71	1064.48
848.03	1071.50
848.34	1069.16
848.66	1075.94
848.97	1077.58
849.29	1078.28
849.60	1090.22
849.92	1092.33
850.24	1084.14
850.55	1076.18
850.87	1083.90
851.18	1074.77
851.50	1078.05
851.81	1080.39
852.13	1086.94
852.44	1076.65
852.76	1070.09
853.07	1064.71
853.39	1062.84
853.70	1051.13
854.01	1061.20
854.33	1065.88
854.64	1062.14
854.96	1065.65
855.27	1074.07
855.59	1068.22
855.90	1060.26
856.22	1068.22
856.53	1063.31
856.84	1064.71
857.16	1077.82
857.47	1081.09
857.79	1085.54
858.10	1089.29
858.41	1087.18
858.73	1080.16
859.04	1080.63
859.36	1074.77
859.67	1077.82
859.98	1075.94
860.30	1072.90
860.61	1079.46
860.92	1081.80
861.24	1086.94
861.55	1093.26
861.87	1097.24
862.18	1094.90
862.49	1095.60
862.81	1093.03
863.12	1078.52
863.43	1075.71
863.74	1072.20
864.06	1063.77
864.37	1061.20
864.68	1082.03
865.00	1084.14
865.31	1086.01
865.62	1092.80
865.94	1087.18
866.25	1078.99
866.56	1073.60
866.87	1066.82
867.19	1066.11
867.50	1080.16
867.81	1082.73
868.12	1089.99
868.44	1105.67
868.75	1116.44
869.06	1108.24
869.37	1104.73
869.68	1091.16
870.00	1081.09
870.31	1061.90
870.62	1048.33
870.93	1042.71
871.24	1062.14
871.56	1059.33
871.87	1072.67
872.18	1094.20
872.49	1097.24
872.80	1079.22
873.12	1075.94
873.43	1071.26
873.74	1061.67
874.05	1066.58
874.36	1075.24
874.67	1070.80
874.98	1075.24
875.29	1073.37
875.61	1069.86
875.92	1074.07
876.23	1088.12
876.54	1088.12
876.85	1085.77
877.16	1089.05
877.47	1088.82
877.78	1087.65
878.09	1089.75
878.40	1093.73
878.72	1091.39
879.03	1093.73
879.34	1089.99
879.65	1085.07
879.96	1081.33
880.27	1079.69
880.58	1077.35
880.89	1077.35
881.20	1071.50
881.51	1073.14
881.82	1074.07
882.13	1073.60
882.44	1084.37
882.75	1085.77
883.06	1087.88
883.37	1089.29
883.68	1087.65
883.99	1076.18
884.30	1084.60
884.61	1083.20
884.92	1083.67
885.23	1078.99
885.54	1074.77
885.85	1069.39
886.16	1076.65
886.47	1072.43
886.78	1080.63
887.08	1088.35
887.39	1094.20
887.70	1085.77
888.01	1086.24
888.32	1074.77
888.63	1080.39
888.94	1072.90
889.25	1074.31
889.56	1076.18
889.87	1086.24
890.17	1079.69
890.48	1082.97
890.79	1086.24
891.10	1073.60
891.41	1066.35
891.72	1074.07
892.03	1071.73
892.34	1073.14
892.64	1089.05
892.95	1088.82
893.26	1080.86
893.57	1083.43
893.88	1091.16
894.18	1090.46
894.49	1100.99
894.80	1106.14
895.11	1104.26
895.42	1095.84
895.72	1096.31
896.03	1089.99
896.34	1083.20
896.65	1087.18
896.96	1090.69
897.26	1083.43
897.57	1080.86
897.88	1081.80
898.19	1074.31
898.49	1067.75
898.80	1068.69
899.11	1071.73
899.41	1077.35
899.72	1077.35
900.03	1079.46
900.34	1078.05
900.64	1071.03
900.95	1064.01
901.26	1063.77
901.56	1062.14
901.87	1069.16
902.18	1071.50
902.48	1074.77
902.79	1081.09
903.10	1093.26
903.40	1085.77
903.71	1097.95
904.02	1104.50
904.32	1106.37
904.63	1090.46
904.94	1093.50
905.24	1081.80
905.55	1074.07
905.85	1072.43
906.16	1071.26
906.47	1075.24
906.77	1075.24
907.08	1076.18
907.38	1068.22
907.69	1073.37
908.00	1079.69
908.30	1083.20
908.61	1078.05
908.91	1083.90
909.22	1076.65
909.52	1071.26
909.83	1061.90
910.14	1063.54
910.44	1067.52
910.75	1072.90
911.05	1061.67
911.36	1063.77
911.66	1063.54
911.97	1057.92
912.27	1053.71
912.58	1067.05
912.88	1077.58
913.19	1077.35
913.49	1075.48
913.80	1085.54
914.10	1075.48
914.41	1078.05
914.71	1082.50
915.01	1085.77
915.32	1086.94
915.62	1090.69
915.93	1075.24
916.23	1072.43
916.54	1076.18
916.84	1067.05
917.15	1065.41
917.45	1067.52
917.75	1074.77
918.06	1075.48
918.36	1074.07
918.67	1082.03
918.97	1094.67
919.27	1089.99
919.58	1078.75
919.88	1077.35
920.18	1073.60
920.49	1065.65
920.79	1060.26
921.10	1069.39
921.40	1069.62
921.70	1071.97
922.01	1087.18
922.31	1100.05
922.61	1097.48
922.92	1096.07
923.22	1087.65
923.52	1075.71
923.82	1068.92
924.13	1072.67
924.43	1069.86
924.73	1079.46
925.04	1075.94
925.34	1082.97
925.64	1085.07
925.94	1092.33
926.25	1089.05
926.55	1093.50
926.85	1089.52
927.15	1072.67
927.46	1075.94
927.76	1072.90
928.06	1072.67
928.36	1065.41
928.67	1078.52
928.97	1073.14
929.27	1068.69
929.57	1064.48
929.87	1056.75
930.18	1058.62
930.48	1070.33
930.78	1071.97
931.08	1070.80
931.38	1088.12
931.69	1082.03
931.99	1064.24
932.29	1061.67
932.59	1061.43
932.89	1056.52
933.19	1065.41
933.49	1080.86
933.80	1088.58
934.10	1096.31
934.40	1094.43
934.70	1086.01
935.00	1076.88
935.30	1078.28
935.60	1079.22
935.90	1079.46
936.20	1083.43
936.50	1093.97
936.81	1096.31
937.11	1093.03
937.41	1096.31
937.71	1098.18
938.01	1099.12
938.31	1087.41
938.61	1083.43
938.91	1078.05
939.21	1078.52
939.51	1074.54
939.81	1071.50
940.11	1067.75
940.41	1078.05
940.71	1076.41
941.01	1073.37
941.31	1084.60
941.61	1094.20
941.91	1080.63
942.21	1086.94
942.51	1088.58
942.81	1087.41
943.11	1084.37
943.41	1072.67
943.71	1064.24
944.01	1059.09
944.31	1054.41
944.61	1053.94
944.90	1064.94
945.20	1061.43
945.50	1065.41
945.80	1069.62
946.10	1068.69
946.40	1065.41
946.70	1070.33
947.00	1074.77
947.30	1070.09
947.60	1068.92
947.89	1078.99
948.19	1075.71
948.49	1069.16
948.79	1081.09
949.09	1078.28
949.39	1080.16
949.69	1084.14
949.98	1084.60
950.28	1075.24
950.58	1080.39
950.88	1082.03
951.18	1088.58
951.48	1088.35
951.77	1080.39
952.07	1071.03
952.37	1068.69
952.67	1057.69
952.97	1054.41
953.26	1057.92
953.56	1061.90
953.86	1062.14
954.16	1065.41
954.45	1072.90
954.75	1076.41
955.05	1077.58
955.35	1073.84
955.64	1070.80
955.94	1075.94
956.24	1070.09
956.54	1062.60
956.83	1057.45
957.13	1064.94
957.43	1063.07
957.72	1070.56
958.02	1087.18
958.32	1090.92
958.61	1077.82
958.91	1067.99
959.21	1071.26
959.50	1067.99
959.80	1062.37
960.10	1072.90
960.39	1074.54
960.69	1067.52
960.99	1068.69
961.28	1075.48
961.58	1075.94
961.87	1075.48
962.17	1082.03
962.47	1077.58
962.76	1086.24
963.06	1068.22
963.36	1079.69
963.65	1073.84
963.95	1075.01
964.24	1068.22
964.54	1084.60
964.83	1076.65
965.13	1071.26
965.42	1060.96
965.72	1062.14
966.02	1058.16
966.31	1056.05
966.61	1056.52
966.90	1070.80
967.20	1070.56
967.49	1070.09
967.79	1078.99
968.08	1091.63
968.38	1086.24
968.67	1088.58
968.97	1095.84
969.26	1093.03
969.56	1077.82
969.85	1079.69
970.15	1074.07
970.44	1058.62
970.74	1054.41
971.03	1064.48
971.32	1063.07
971.62	1066.11
971.91	1077.82
972.21	1072.90
972.50	1078.05
972.80	1078.05
973.09	1063.31
973.38	1062.60
973.68	1065.18
973.97	1072.43
974.27	1082.97
974.56	1107.07
974.85	1106.61
975.15	1118.78
975.44	1103.09
975.73	1089.99
976.03	1075.71
976.32	1073.14
976.61	1057.22
976.91	1064.24
977.20	1069.62
977.49	1079.22
977.79	1081.56
978.08	1091.86
978.37	1090.92
978.67	1087.18
978.96	1081.09
979.25	1076.41
979.55	1082.03
979.84	1079.46
980.13	1086.71
980.42	1087.41
980.72	1094.67
981.01	1088.12
981.30	1091.39
981.59	1087.65
981.89	1084.37
982.18	1086.01
982.47	1089.75
982.76	1085.77
983.06	1083.20
983.35	1085.54
983.64	1075.01
983.93	1070.80
984.22	1060.26
984.52	1063.31
984.81	1066.11
985.10	1074.31
985.39	1074.77
985.68	1087.88
985.97	1090.92
986.27	1088.58
986.56	1074.07
986.85	1070.56
987.14	1070.80
987.43	1070.33
987.72	1069.62
988.01	1084.60
988.31	1088.82
988.60	1081.09
988.89	1073.14
989.18	1075.24
989.47	1071.26
989.76	1070.80
990.05	1074.77
990.34	1075.94
990.63	1072.20
990.92	1076.88
991.21	1077.11
991.51	1086.94
991.80	1086.01
992.09	1098.41
992.38	1100.52
992.67	1096.31
992.96	1083.43
993.25	1084.14
993.54	1066.11
993.83	1067.28
994.12	1073.14
994.41	1075.71
994.70	1078.28
994.99	1077.11
995.28	1069.16
995.57	1074.31
995.86	1072.90
996.15	1070.09
996.44	1078.05
996.73	1079.69
997.02	1073.84
997.31	1070.09
997.59	1069.16
997.88	1065.41
998.17	1072.67
998.46	1076.65
998.75	1091.86
999.04	1097.71
999.33	1090.22
999.62	1087.18
999.91	1086.24
1000.20	1080.86
1000.49	1076.41
1000.77	1084.60
1001.06	1075.01
1001.35	1059.56
1001.64	1056.05
1001.93	1056.75
1002.22	1048.79
1002.51	1059.56
1002.79	1070.09
1003.08	1076.65
1003.37	1078.75
1003.66	1084.60
1003.95	1080.16
1004.23	1078.28
1004.52	1077.58
1004.81	1078.75
1005.10	1082.03
1005.39	1085.54
1005.67	1073.37
1005.96	1065.41
1006.25	1063.77
1006.54	1066.58
1006.83	1060.73
1007.11	1062.60
1007.40	1069.16
1007.69	1067.28
1007.97	1061.67
1008.26	1060.03
1008.55	1070.33
1008.84	1068.45
1009.12	1070.56
1009.41	1085.54
1009.70	1090.22
1009.98	1091.63
1010.27	1089.29
1010.56	1093.73
1010.85	1084.14
1011.13	1079.22
1011.42	1069.16
1011.71	1065.88
1011.99	1060.03
1012.28	1057.45
1012.56	1059.09
1012.85	1064.24
1013.14	1072.43
1013.42	1073.37
1013.71	1075.48
1014.00	1069.86
1014.28	1069.86
1014.57	1065.41
1014.85	1062.60
1015.14	1052.77
1015.43	1059.33
1015.71	1063.54
1016.00	1071.03
1016.28	1072.43
1016.57	1089.05
1016.85	1092.33
1017.14	1093.97
1017.43	1087.65
1017.71	1089.05
1018.00	1078.28
1018.28	1068.45
1018.57	1066.58
1018.85	1066.35
1019.14	1068.45
1019.42	1068.22
1019.71	1077.11
1019.99	1080.39
1020.28	1072.90
1020.56	1068.69
1020.85	1071.50
1021.13	1071.50
1021.42	1061.67
1021.70	1073.37
1021.99	1075.24
1022.27	1073.37
1022.55	1076.65
1022.84	1060.26
>>>>>End Processed Spectral Data<<<<<
