SpectraSuite Data File
++++++++++++++++++++++++++++++++++++
Date: Mon Aug 26 10:24:29 PDT 2019
User: corrico
Dark Spectrum Present: No
Reference Spectrum Present: No
Number of Sampled Component Spectra: 1
Spectrometers: USB2+H06089
Integration Time (usec): 10000 (USB2+H06089)
Spectra Averaged: 2 (USB2+H06089)
Boxcar Smoothing: 2 (USB2+H06089)
Correct for Electrical Dark: No (USB2+H06089)
Strobe/Lamp Enabled: No (USB2+H06089)
Correct for Detector Non-linearity: No (USB2+H06089)
Correct for Stray Light: No (USB2+H06089)
Number of Pixels in Processed Spectrum: 2048
>>>>>Begin Processed Spectral Data<<<<<
339.70	1074.31
340.07	1074.31
340.45	1024.69
340.82	991.45
341.19	952.60
341.57	918.19
341.94	911.17
342.31	903.68
342.69	903.91
343.06	899.23
343.43	898.30
343.81	902.04
344.18	899.23
344.55	905.79
344.93	917.49
345.30	920.77
345.67	914.45
346.04	918.19
346.42	920.77
346.79	928.02
347.16	941.36
347.54	960.32
347.91	968.51
348.28	973.43
348.65	976.47
349.03	987.47
349.40	996.37
349.77	1004.79
350.14	1022.81
350.52	1035.22
350.89	1038.50
351.26	1038.03
351.63	1047.62
352.01	1044.35
352.38	1045.99
352.75	1034.98
353.12	1050.20
353.50	1053.71
353.87	1059.09
354.24	1059.56
354.61	1072.20
354.98	1065.88
355.36	1058.39
355.73	1051.37
356.10	1057.69
356.47	1065.65
356.84	1066.11
357.22	1084.84
357.59	1086.94
357.96	1086.48
358.33	1081.56
358.70	1078.52
359.08	1062.84
359.45	1073.14
359.82	1075.24
360.19	1075.24
360.56	1076.88
360.94	1089.99
361.31	1084.37
361.68	1087.88
362.05	1082.03
362.42	1076.88
362.79	1069.39
363.16	1068.69
363.54	1066.11
363.91	1076.41
364.28	1083.43
364.65	1080.63
365.02	1085.31
365.39	1086.71
365.76	1074.07
366.14	1065.18
366.51	1072.43
366.88	1066.82
367.25	1061.43
367.62	1077.11
367.99	1085.77
368.36	1077.58
368.73	1075.24
369.10	1083.20
369.48	1068.92
369.85	1061.90
370.22	1060.26
370.59	1061.90
370.96	1050.43
371.33	1058.16
371.70	1064.24
372.07	1064.48
372.44	1071.50
372.81	1074.77
373.18	1072.90
373.55	1072.20
373.93	1082.26
374.30	1081.80
374.67	1085.31
375.04	1082.50
375.41	1087.88
375.78	1075.94
376.15	1062.84
376.52	1066.35
376.89	1073.14
377.26	1058.86
377.63	1053.71
378.00	1054.41
378.37	1041.30
378.74	1034.05
379.11	1050.90
379.48	1056.75
379.85	1062.60
380.22	1079.69
380.59	1083.67
380.96	1076.41
381.33	1086.24
381.70	1082.73
382.07	1066.35
382.44	1061.20
382.81	1062.60
383.18	1056.28
383.55	1063.31
383.92	1078.99
384.29	1086.71
384.66	1079.69
385.03	1074.31
385.40	1058.86
385.77	1056.99
386.14	1049.26
386.51	1048.79
386.88	1057.22
387.25	1068.45
387.62	1053.24
387.99	1054.41
388.36	1059.33
388.73	1048.56
389.10	1048.33
389.46	1054.88
389.83	1062.14
390.20	1057.69
390.57	1060.03
390.94	1073.14
391.31	1076.88
391.68	1070.09
392.05	1076.18
392.42	1082.03
392.79	1075.01
393.16	1068.22
393.53	1072.43
393.89	1082.03
394.26	1081.33
394.63	1077.82
395.00	1088.35
395.37	1082.03
395.74	1068.69
396.11	1071.97
396.48	1069.62
396.84	1064.01
397.21	1069.86
397.58	1067.52
397.95	1066.11
398.32	1064.01
398.69	1059.33
399.06	1066.82
399.42	1064.94
399.79	1064.94
400.16	1063.77
400.53	1072.43
400.90	1057.92
401.27	1073.37
401.64	1076.18
402.00	1080.63
402.37	1075.48
402.74	1074.77
403.11	1058.39
403.48	1048.79
403.84	1050.90
404.21	1051.37
404.58	1060.03
404.95	1064.94
405.32	1070.80
405.68	1074.77
406.05	1082.03
406.42	1081.56
406.79	1085.07
407.16	1079.46
407.52	1058.86
407.89	1054.65
408.26	1056.05
408.63	1055.35
408.99	1063.77
409.36	1088.12
409.73	1090.46
410.10	1099.82
410.47	1103.80
410.83	1110.58
411.20	1097.71
411.57	1103.09
411.94	1099.58
412.30	1102.86
412.67	1093.50
413.04	1105.90
413.40	1101.22
413.77	1093.03
414.14	1089.75
414.51	1090.92
414.87	1078.75
415.24	1084.60
415.61	1099.82
415.97	1100.29
416.34	1103.80
416.71	1121.82
417.08	1124.63
417.44	1121.12
417.81	1126.27
418.18	1134.93
418.54	1132.35
418.91	1135.86
419.28	1141.25
419.64	1144.52
420.01	1142.18
420.38	1143.82
420.74	1151.31
421.11	1159.74
421.48	1172.61
421.84	1191.10
422.21	1210.29
422.58	1215.91
422.94	1220.36
423.31	1229.72
423.68	1234.40
424.04	1239.08
424.41	1239.08
424.77	1244.23
425.14	1256.63
425.51	1256.63
425.87	1266.70
426.24	1288.46
426.61	1284.49
426.97	1293.38
427.34	1312.57
427.70	1328.72
428.07	1336.45
428.44	1366.17
428.80	1385.60
429.17	1392.38
429.53	1401.04
429.90	1412.75
430.27	1426.79
430.63	1436.39
431.00	1466.58
431.36	1482.26
431.73	1507.77
432.09	1521.11
432.46	1548.03
432.83	1568.39
433.19	1577.76
433.56	1598.12
433.92	1618.95
434.29	1634.40
434.65	1647.50
435.02	1683.08
435.38	1704.14
435.75	1738.32
436.11	1756.10
436.48	1772.72
436.84	1788.40
437.21	1799.40
437.57	1801.74
437.94	1805.72
438.30	1811.34
438.67	1811.34
439.03	1805.26
439.40	1813.68
439.76	1804.32
440.13	1805.26
440.49	1811.81
440.86	1808.53
441.22	1803.85
441.59	1803.62
441.95	1795.42
442.32	1775.53
442.68	1769.91
443.05	1748.61
443.41	1741.83
443.78	1730.83
444.14	1719.12
444.51	1702.74
444.87	1690.57
445.24	1673.72
445.60	1654.52
445.96	1633.46
446.33	1628.78
446.69	1621.29
447.06	1610.76
447.42	1595.78
447.79	1582.90
448.15	1560.44
448.51	1540.31
448.88	1528.37
449.24	1511.99
449.61	1505.20
449.97	1489.99
450.33	1477.11
450.70	1460.26
451.06	1457.92
451.43	1452.30
451.79	1442.00
452.15	1429.37
452.52	1411.58
452.88	1395.43
453.24	1377.64
453.61	1369.68
453.97	1367.81
454.34	1365.70
454.70	1361.26
455.06	1356.34
455.43	1343.23
455.79	1328.25
456.15	1313.04
456.52	1306.72
456.88	1291.27
457.24	1295.49
457.61	1301.81
457.97	1289.64
458.33	1279.10
458.70	1280.51
459.06	1269.51
459.42	1247.51
459.79	1247.27
460.15	1242.12
460.51	1227.85
460.88	1216.84
461.24	1212.87
461.60	1213.57
461.96	1201.16
462.33	1202.80
462.69	1201.16
463.05	1200.93
463.42	1194.84
463.78	1212.63
464.14	1202.57
464.50	1189.23
464.87	1185.25
465.23	1183.37
465.59	1166.52
465.95	1173.54
466.32	1179.86
466.68	1185.72
467.04	1193.67
467.40	1185.48
467.77	1176.35
468.13	1174.48
468.49	1166.52
468.85	1152.25
469.22	1151.78
469.58	1154.82
469.94	1144.05
470.30	1134.69
470.66	1131.18
471.03	1138.90
471.39	1128.37
471.75	1137.97
472.11	1142.18
472.47	1139.61
472.84	1125.33
473.20	1118.54
473.56	1124.63
473.92	1121.58
474.28	1131.41
474.65	1132.12
475.01	1134.69
475.37	1121.58
475.73	1113.86
476.09	1107.31
476.45	1113.39
476.81	1118.78
477.18	1124.16
477.54	1132.35
477.90	1128.37
478.26	1122.52
478.62	1115.27
478.98	1095.37
479.34	1090.22
479.71	1084.37
480.07	1087.18
480.43	1091.86
480.79	1105.20
481.15	1105.90
481.51	1106.61
481.87	1105.67
482.23	1103.33
482.59	1103.09
482.96	1104.73
483.32	1111.29
483.68	1105.90
484.04	1103.33
484.40	1098.88
484.76	1098.18
485.12	1093.97
485.48	1096.31
485.84	1102.16
486.20	1112.22
486.56	1112.22
486.92	1119.48
487.28	1121.35
487.64	1124.16
488.00	1129.54
488.37	1115.97
488.73	1112.46
489.09	1103.56
489.45	1097.48
489.81	1088.82
490.17	1099.35
490.53	1091.86
490.89	1094.20
491.25	1088.35
491.61	1090.69
491.97	1083.90
492.33	1081.56
492.69	1077.82
493.05	1079.22
493.41	1072.90
493.77	1070.33
494.13	1070.80
494.49	1080.63
494.85	1072.67
495.21	1074.07
495.57	1085.31
495.93	1091.63
496.29	1090.46
496.64	1103.56
497.00	1105.44
497.36	1098.88
497.72	1101.22
498.08	1091.39
498.44	1081.56
498.80	1077.35
499.16	1077.82
499.52	1071.50
499.88	1072.67
500.24	1081.33
500.60	1079.69
500.96	1086.24
501.32	1086.71
501.68	1093.50
502.03	1092.56
502.39	1096.07
502.75	1086.94
503.11	1091.63
503.47	1083.20
503.83	1084.60
504.19	1077.11
504.55	1075.94
504.91	1078.52
505.26	1084.84
505.62	1078.75
505.98	1085.77
506.34	1091.86
506.70	1091.39
507.06	1080.39
507.42	1076.18
507.78	1076.88
508.13	1076.41
508.49	1066.82
508.85	1067.99
509.21	1082.73
509.57	1081.80
509.93	1078.75
510.28	1083.43
510.64	1090.22
511.00	1078.75
511.36	1072.90
511.72	1072.43
512.07	1061.20
512.43	1062.84
512.79	1064.01
513.15	1061.20
513.51	1068.69
513.86	1069.62
514.22	1062.84
514.58	1064.01
514.94	1066.35
515.30	1052.54
515.65	1056.75
516.01	1066.11
516.37	1071.73
516.73	1069.39
517.08	1079.22
517.44	1077.35
517.80	1078.52
518.16	1075.24
518.51	1084.60
518.87	1081.09
519.23	1090.69
519.59	1084.14
519.94	1085.31
520.30	1084.14
520.66	1081.80
521.01	1072.20
521.37	1069.86
521.73	1073.37
522.09	1067.52
522.44	1078.28
522.80	1089.52
523.16	1096.07
523.51	1089.75
523.87	1091.16
524.23	1083.20
524.58	1076.65
524.94	1078.05
525.30	1075.01
525.65	1075.48
526.01	1078.05
526.37	1078.28
526.72	1065.88
527.08	1070.33
527.44	1070.80
527.79	1075.94
528.15	1072.67
528.51	1079.22
528.86	1081.09
529.22	1081.09
529.58	1075.48
529.93	1086.01
530.29	1088.35
530.65	1084.84
531.00	1083.43
531.36	1085.54
531.71	1080.39
532.07	1088.35
532.43	1085.31
532.78	1086.24
533.14	1083.67
533.49	1086.01
533.85	1079.46
534.21	1087.41
534.56	1088.58
534.92	1083.90
535.27	1079.92
535.63	1086.94
535.98	1077.82
536.34	1077.58
536.69	1083.43
537.05	1093.73
537.41	1087.18
537.76	1086.01
538.12	1089.29
538.47	1086.48
538.83	1071.73
539.18	1066.82
539.54	1075.71
539.89	1071.73
540.25	1065.41
540.60	1071.50
540.96	1074.31
541.31	1069.39
541.67	1073.84
542.02	1082.73
542.38	1071.97
542.73	1074.77
543.09	1083.90
543.44	1088.35
543.80	1090.92
544.15	1100.99
544.51	1092.33
544.86	1085.31
545.22	1085.07
545.57	1091.16
545.93	1088.82
546.28	1093.50
546.64	1098.41
546.99	1088.82
547.35	1074.31
547.70	1073.37
548.05	1076.88
548.41	1067.75
548.76	1063.77
549.12	1063.07
549.47	1077.35
549.83	1064.94
550.18	1066.11
550.53	1077.35
550.89	1076.41
551.24	1069.62
551.60	1081.33
551.95	1093.73
552.30	1091.86
552.66	1100.99
553.01	1091.63
553.37	1088.12
553.72	1065.88
554.07	1059.56
554.43	1056.28
554.78	1058.86
555.13	1058.16
555.49	1071.26
555.84	1073.37
556.19	1067.75
556.55	1081.09
556.90	1082.50
557.26	1084.14
557.61	1082.97
557.96	1080.39
558.32	1059.33
558.67	1057.22
559.02	1052.77
559.37	1047.39
559.73	1040.60
560.08	1053.94
560.43	1053.48
560.79	1049.03
561.14	1049.50
561.49	1054.41
561.85	1050.90
562.20	1058.86
562.55	1061.20
562.90	1074.77
563.26	1092.09
563.61	1094.67
563.96	1092.80
564.32	1096.78
564.67	1092.56
565.02	1083.43
565.37	1091.39
565.73	1095.37
566.08	1097.01
566.43	1089.29
566.78	1089.99
567.14	1076.88
567.49	1074.07
567.84	1075.24
568.19	1080.86
568.54	1082.50
568.90	1078.05
569.25	1081.09
569.60	1082.26
569.95	1081.33
570.31	1081.33
570.66	1083.43
571.01	1083.90
571.36	1084.60
571.71	1084.14
572.06	1080.16
572.42	1091.63
572.77	1084.14
573.12	1082.50
573.47	1082.26
573.82	1081.80
574.18	1070.33
574.53	1063.07
574.88	1064.94
575.23	1060.26
575.58	1057.45
575.93	1058.39
576.28	1061.90
576.64	1055.35
576.99	1063.07
577.34	1070.33
577.69	1069.86
578.04	1073.37
578.39	1072.90
578.74	1073.14
579.09	1069.62
579.44	1078.28
579.80	1073.84
580.15	1081.56
580.50	1073.84
580.85	1073.37
581.20	1067.99
581.55	1076.88
581.90	1077.82
582.25	1079.22
582.60	1085.54
582.95	1084.37
583.30	1085.07
583.65	1073.84
584.00	1084.37
584.35	1098.65
584.71	1098.65
585.06	1095.84
585.41	1094.67
585.76	1082.73
586.11	1062.37
586.46	1062.84
586.81	1066.82
587.16	1075.24
587.51	1084.84
587.86	1091.39
588.21	1092.80
588.56	1090.46
588.91	1090.22
589.26	1078.28
589.61	1071.26
589.96	1067.28
590.31	1058.39
590.66	1064.24
591.01	1070.56
591.36	1074.77
591.71	1078.52
592.06	1076.88
592.41	1070.56
592.76	1071.03
593.10	1073.60
593.45	1068.22
593.80	1071.97
594.15	1078.99
594.50	1069.16
594.85	1066.35
595.20	1080.63
595.55	1082.97
595.90	1076.18
596.25	1083.90
596.60	1089.75
596.95	1084.37
597.30	1090.46
597.64	1133.76
597.99	1141.25
598.34	1136.56
598.69	1133.29
599.04	1125.80
599.39	1075.71
599.74	1067.05
600.09	1072.90
600.44	1069.16
600.78	1070.56
601.13	1075.24
601.48	1082.26
601.83	1070.80
602.18	1085.54
602.53	1086.94
602.88	1089.29
603.22	1082.03
603.57	1084.37
603.92	1067.75
604.27	1063.31
604.62	1063.31
604.97	1069.86
605.31	1071.73
605.66	1076.65
606.01	1078.75
606.36	1067.99
606.71	1069.86
607.05	1067.99
607.40	1069.62
607.75	1071.50
608.10	1079.22
608.44	1071.03
608.79	1069.16
609.14	1075.94
609.49	1075.71
609.84	1068.69
610.18	1064.94
610.53	1061.67
610.88	1053.94
611.23	1059.33
611.57	1070.80
611.92	1088.58
612.27	1098.65
612.62	1094.43
612.96	1091.86
613.31	1085.77
613.66	1066.82
614.00	1063.54
614.35	1066.35
614.70	1062.60
615.05	1070.33
615.39	1082.73
615.74	1085.77
616.09	1082.03
616.43	1085.54
616.78	1085.07
617.13	1084.14
617.47	1086.48
617.82	1094.20
618.17	1087.18
618.51	1086.48
618.86	1090.46
619.21	1078.05
619.55	1076.88
619.90	1079.92
620.25	1079.46
620.59	1076.41
620.94	1080.63
621.29	1076.41
621.63	1080.86
621.98	1083.67
622.32	1085.54
622.67	1089.52
623.02	1085.77
623.36	1090.22
623.71	1093.97
624.05	1084.14
624.40	1082.26
624.75	1096.07
625.09	1085.54
625.44	1072.67
625.78	1075.94
626.13	1074.77
626.48	1070.80
626.82	1070.56
627.17	1070.56
627.51	1065.65
627.86	1070.09
628.20	1060.03
628.55	1062.84
628.89	1054.88
629.24	1059.56
629.58	1065.65
629.93	1071.50
630.28	1069.39
630.62	1075.94
630.97	1078.28
631.31	1063.77
631.66	1072.90
632.00	1067.52
632.35	1070.56
632.69	1074.77
633.04	1083.20
633.38	1074.54
633.73	1088.35
634.07	1081.56
634.42	1075.24
634.76	1071.03
635.11	1073.84
635.45	1067.05
635.79	1070.56
636.14	1071.97
636.48	1069.39
636.83	1061.90
637.17	1062.60
637.52	1067.99
637.86	1064.48
638.21	1062.37
638.55	1066.58
638.89	1067.28
639.24	1068.69
639.58	1079.46
639.93	1085.31
640.27	1077.11
640.61	1072.20
640.96	1064.94
641.30	1057.45
641.65	1056.05
641.99	1060.73
642.33	1064.94
642.68	1081.56
643.02	1078.99
643.37	1074.54
643.71	1075.71
644.05	1076.88
644.40	1055.58
644.74	1064.01
645.08	1076.18
645.43	1074.07
645.77	1064.71
646.11	1080.39
646.46	1073.84
646.80	1074.07
647.14	1082.97
647.49	1091.63
647.83	1077.82
648.17	1079.92
648.52	1071.26
648.86	1063.31
649.20	1055.35
649.55	1058.86
649.89	1057.92
650.23	1059.56
650.57	1063.07
650.92	1066.82
651.26	1072.20
651.60	1065.88
651.95	1066.58
652.29	1062.60
652.63	1066.58
652.97	1062.37
653.32	1076.88
653.66	1082.73
654.00	1090.69
654.34	1082.50
654.69	1089.75
655.03	1073.37
655.37	1065.65
655.71	1064.71
656.05	1076.18
656.40	1061.43
656.74	1066.58
657.08	1074.07
657.42	1074.07
657.76	1064.71
658.11	1071.97
658.45	1076.88
658.79	1072.90
659.13	1071.03
659.47	1077.35
659.82	1081.09
660.16	1076.65
660.50	1075.94
660.84	1069.62
661.18	1066.82
661.52	1067.99
661.87	1077.82
662.21	1075.01
662.55	1082.03
662.89	1083.90
663.23	1085.54
663.57	1073.14
663.91	1077.82
664.25	1070.33
664.60	1072.90
664.94	1067.05
665.28	1077.35
665.62	1076.41
665.96	1085.31
666.30	1078.75
666.64	1088.35
666.98	1080.63
667.32	1076.65
667.66	1078.05
668.01	1086.01
668.35	1084.60
668.69	1091.16
669.03	1093.73
669.37	1085.31
669.71	1094.67
670.05	1085.77
670.39	1086.48
670.73	1088.82
671.07	1104.26
671.41	1100.05
671.75	1111.29
672.09	1102.63
672.43	1100.99
672.77	1089.99
673.11	1083.67
673.45	1079.69
673.79	1075.01
674.13	1071.50
674.47	1074.07
674.81	1077.82
675.15	1078.99
675.49	1078.52
675.83	1078.99
676.17	1077.82
676.51	1070.33
676.85	1066.35
677.19	1074.31
677.53	1076.41
677.87	1082.03
678.21	1085.77
678.55	1089.05
678.89	1087.88
679.23	1083.20
679.57	1069.39
679.90	1074.54
680.24	1062.37
680.58	1064.48
680.92	1060.03
681.26	1062.37
681.60	1045.05
681.94	1046.92
682.28	1046.22
682.62	1060.96
682.96	1061.90
683.29	1068.92
683.63	1076.18
683.97	1074.54
684.31	1066.35
684.65	1069.16
684.99	1071.97
685.33	1072.20
685.67	1078.28
686.00	1077.11
686.34	1076.65
686.68	1080.63
687.02	1076.65
687.36	1071.73
687.70	1077.58
688.03	1089.99
688.37	1084.37
688.71	1093.03
689.05	1097.95
689.39	1097.95
689.72	1086.01
690.06	1085.54
690.40	1082.50
690.74	1075.01
691.08	1066.82
691.41	1069.39
691.75	1070.56
692.09	1068.69
692.43	1077.35
692.76	1086.71
693.10	1088.82
693.44	1091.39
693.78	1087.41
694.11	1087.18
694.45	1090.92
694.79	1097.71
695.13	1089.75
695.46	1084.84
695.80	1082.03
696.14	1072.90
696.48	1070.56
696.81	1085.54
697.15	1091.39
697.49	1073.60
697.82	1069.86
698.16	1058.62
698.50	1050.90
698.83	1044.82
699.17	1061.20
699.51	1074.54
699.84	1080.86
700.18	1084.37
700.52	1098.88
700.85	1105.67
701.19	1098.41
701.53	1098.41
701.86	1102.39
702.20	1101.69
702.54	1095.37
702.87	1086.24
703.21	1082.26
703.55	1071.50
703.88	1074.77
704.22	1066.82
704.55	1070.80
704.89	1070.56
705.23	1079.22
705.56	1080.16
705.90	1089.52
706.23	1094.67
706.57	1088.58
706.91	1082.73
707.24	1072.20
707.58	1068.45
707.91	1075.01
708.25	1083.90
708.58	1082.97
708.92	1087.65
709.26	1084.37
709.59	1078.28
709.93	1078.05
710.26	1079.22
710.60	1079.22
710.93	1085.31
711.27	1085.31
711.60	1085.54
711.94	1085.77
712.27	1086.24
712.61	1082.73
712.94	1077.58
713.28	1072.67
713.61	1069.62
713.95	1060.96
714.28	1056.05
714.62	1058.16
714.95	1067.99
715.29	1071.97
715.62	1073.37
715.96	1081.56
716.29	1075.48
716.63	1067.52
716.96	1067.52
717.29	1070.80
717.63	1063.77
717.96	1074.07
718.30	1072.90
718.63	1073.84
718.97	1064.24
719.30	1073.60
719.63	1074.77
719.97	1073.84
720.30	1075.71
720.64	1090.46
720.97	1082.97
721.30	1079.22
721.64	1085.54
721.97	1079.92
722.31	1068.22
722.64	1071.50
722.97	1066.11
723.31	1065.18
723.64	1064.01
723.97	1080.16
724.31	1078.05
724.64	1079.69
724.98	1075.94
725.31	1078.75
725.64	1073.60
725.98	1086.48
726.31	1090.46
726.64	1086.01
726.97	1088.58
727.31	1078.52
727.64	1069.16
727.97	1062.84
728.31	1071.73
728.64	1056.28
728.97	1069.62
729.31	1064.24
729.64	1064.94
729.97	1059.56
730.30	1081.56
730.64	1072.90
730.97	1076.65
731.30	1087.88
731.63	1095.37
731.97	1093.26
732.30	1092.56
732.63	1084.37
732.96	1079.92
733.30	1079.46
733.63	1064.01
733.96	1068.69
734.29	1085.31
734.63	1088.58
734.96	1085.77
735.29	1089.99
735.62	1090.92
735.95	1082.26
736.29	1079.46
736.62	1083.90
736.95	1084.14
737.28	1074.07
737.61	1074.54
737.94	1070.09
738.28	1057.92
738.61	1060.26
738.94	1068.69
739.27	1078.05
739.60	1080.63
739.93	1093.97
740.27	1100.52
740.60	1097.48
740.93	1084.37
741.26	1081.09
741.59	1075.24
741.92	1071.73
742.25	1076.41
742.58	1081.80
742.91	1086.94
743.25	1075.01
743.58	1073.14
743.91	1073.37
744.24	1068.92
744.57	1069.86
744.90	1083.90
745.23	1092.33
745.56	1089.99
745.89	1094.43
746.22	1094.43
746.55	1093.73
746.88	1093.50
747.21	1094.20
747.54	1100.75
747.87	1096.54
748.20	1085.77
748.53	1087.41
748.87	1076.41
749.20	1069.16
749.53	1072.20
749.86	1084.14
750.19	1072.67
750.52	1087.41
750.85	1084.14
751.18	1088.35
751.51	1084.84
751.84	1093.26
752.16	1085.31
752.49	1080.39
752.82	1075.71
753.15	1075.48
753.48	1072.43
753.81	1068.22
754.14	1075.01
754.47	1066.11
754.80	1068.69
755.13	1072.90
755.46	1077.58
755.79	1082.26
756.12	1094.43
756.45	1084.14
756.78	1081.09
757.11	1081.33
757.43	1071.26
757.76	1062.37
758.09	1074.31
758.42	1062.84
758.75	1064.48
759.08	1065.18
759.41	1067.52
759.74	1056.28
760.07	1068.92
760.39	1064.94
760.72	1065.88
761.05	1077.58
761.38	1086.24
761.71	1085.31
762.04	1093.03
762.36	1099.58
762.69	1084.14
763.02	1089.05
763.35	1086.94
763.68	1076.41
764.01	1069.39
764.33	1072.67
764.66	1062.37
764.99	1057.92
765.32	1071.03
765.65	1071.26
765.97	1072.67
766.30	1071.03
766.63	1065.88
766.96	1061.43
767.28	1069.16
767.61	1064.48
767.94	1067.52
768.27	1074.54
768.59	1067.28
768.92	1062.14
769.25	1070.09
769.58	1073.37
769.90	1078.75
770.23	1069.39
770.56	1074.54
770.89	1075.94
771.21	1074.31
771.54	1067.99
771.87	1074.31
772.19	1077.35
772.52	1077.58
772.85	1068.92
773.17	1066.58
773.50	1072.90
773.83	1067.75
774.15	1062.84
774.48	1077.11
774.81	1090.92
775.13	1092.33
775.46	1085.07
775.79	1092.33
776.11	1088.82
776.44	1081.33
776.77	1079.92
777.09	1085.77
777.42	1085.54
777.74	1082.03
778.07	1073.84
778.40	1070.80
778.72	1072.67
779.05	1083.67
779.37	1093.03
779.70	1095.60
780.03	1104.03
780.35	1104.97
780.68	1088.58
781.00	1081.80
781.33	1090.69
781.65	1089.99
781.98	1081.33
782.31	1076.18
782.63	1077.58
782.96	1073.37
783.28	1074.77
783.61	1079.22
783.93	1080.86
784.26	1085.07
784.58	1076.65
784.91	1075.48
785.23	1077.35
785.56	1088.12
785.88	1091.63
786.21	1100.99
786.53	1106.37
786.86	1113.86
787.18	1110.35
787.51	1094.90
787.83	1098.65
788.16	1088.58
788.48	1070.09
788.81	1078.52
789.13	1089.29
789.46	1091.16
789.78	1091.86
790.10	1095.14
790.43	1084.60
790.75	1077.58
791.08	1064.48
791.40	1063.77
791.73	1077.82
792.05	1072.90
792.37	1077.35
792.70	1080.63
793.02	1092.80
793.35	1088.12
793.67	1095.60
793.99	1091.39
794.32	1092.56
794.64	1086.24
794.96	1087.18
795.29	1081.80
795.61	1079.69
795.93	1085.07
796.26	1079.46
796.58	1078.28
796.91	1082.03
797.23	1091.63
797.55	1085.31
797.87	1083.20
798.20	1091.39
798.52	1087.41
798.84	1078.52
799.17	1086.24
799.49	1086.24
799.81	1074.07
800.14	1078.28
800.46	1085.07
800.78	1086.01
801.10	1082.73
801.43	1084.37
801.75	1077.82
802.07	1071.03
802.40	1059.56
802.72	1066.35
803.04	1076.65
803.36	1083.43
803.69	1088.82
804.01	1088.35
804.33	1079.46
804.65	1062.84
804.97	1055.11
805.30	1052.77
805.62	1063.07
805.94	1067.75
806.26	1075.71
806.58	1080.16
806.91	1090.92
807.23	1082.03
807.55	1081.80
807.87	1081.80
808.19	1085.54
808.52	1076.18
808.84	1082.26
809.16	1077.35
809.48	1068.69
809.80	1050.67
810.12	1049.03
810.44	1043.41
810.77	1066.11
811.09	1078.99
811.41	1092.56
811.73	1094.20
812.05	1081.33
812.37	1067.28
812.69	1054.18
813.01	1052.07
813.33	1054.65
813.66	1070.80
813.98	1078.05
814.30	1084.14
814.62	1086.94
814.94	1087.18
815.26	1085.07
815.58	1078.05
815.90	1077.58
816.22	1071.50
816.54	1062.14
816.86	1061.90
817.18	1061.43
817.50	1064.24
817.82	1074.77
818.14	1088.82
818.46	1089.29
818.78	1090.92
819.10	1086.94
819.42	1081.56
819.74	1078.99
820.06	1085.77
820.38	1084.14
820.70	1089.52
821.02	1087.18
821.34	1076.18
821.66	1081.09
821.98	1086.71
822.30	1092.09
822.62	1090.22
822.94	1091.63
823.26	1086.71
823.58	1080.63
823.90	1073.60
824.22	1073.84
824.54	1071.50
824.86	1069.86
825.18	1064.48
825.50	1055.58
825.81	1055.35
826.13	1050.67
826.45	1042.47
826.77	1052.77
827.09	1058.62
827.41	1059.09
827.73	1073.84
828.05	1071.03
828.36	1060.96
828.68	1062.84
829.00	1066.35
829.32	1054.41
829.64	1056.75
829.96	1063.31
830.28	1068.92
830.59	1075.24
830.91	1075.94
831.23	1078.28
831.55	1078.28
831.87	1067.52
832.19	1063.54
832.50	1060.26
832.82	1059.56
833.14	1061.20
833.46	1065.65
833.78	1060.50
834.09	1062.14
834.41	1061.20
834.73	1067.05
835.05	1065.65
835.36	1079.46
835.68	1094.67
836.00	1098.65
836.32	1092.33
836.63	1091.16
836.95	1084.84
837.27	1077.35
837.59	1075.01
837.90	1073.37
838.22	1076.88
838.54	1067.52
838.85	1065.88
839.17	1063.31
839.49	1070.09
839.80	1067.99
840.12	1071.03
840.44	1063.31
840.76	1069.16
841.07	1062.84
841.39	1070.56
841.71	1078.75
842.02	1090.69
842.34	1079.69
842.65	1075.94
842.97	1073.37
843.29	1067.99
843.60	1069.39
843.92	1084.37
844.24	1085.54
844.55	1087.65
844.87	1089.05
845.18	1092.33
845.50	1090.92
845.82	1092.33
846.13	1089.29
846.45	1083.90
846.76	1080.63
847.08	1072.90
847.40	1078.05
847.71	1075.24
848.03	1083.67
848.34	1080.39
848.66	1087.88
848.97	1080.86
849.29	1084.84
849.60	1074.07
849.92	1079.69
850.24	1075.71
850.55	1076.18
850.87	1076.88
851.18	1081.80
851.50	1078.28
851.81	1070.09
852.13	1074.54
852.44	1071.03
852.76	1067.28
853.07	1064.71
853.39	1083.20
853.70	1078.05
854.01	1076.88
854.33	1086.24
854.64	1090.22
854.96	1075.71
855.27	1077.58
855.59	1080.16
855.90	1067.75
856.22	1052.54
856.53	1056.05
856.84	1048.79
857.16	1048.33
857.47	1060.26
857.79	1064.24
858.10	1070.56
858.41	1083.90
858.73	1073.84
859.04	1075.24
859.36	1080.39
859.67	1074.77
859.98	1060.96
860.30	1073.60
860.61	1072.43
860.92	1074.77
861.24	1071.26
861.55	1077.35
861.87	1064.94
862.18	1062.37
862.49	1060.73
862.81	1069.16
863.12	1068.92
863.43	1084.84
863.74	1075.94
864.06	1075.01
864.37	1067.28
864.68	1069.16
865.00	1056.05
865.31	1068.69
865.62	1068.69
865.94	1065.18
866.25	1065.65
866.56	1074.54
866.87	1070.80
867.19	1080.63
867.50	1091.16
867.81	1083.20
868.12	1074.07
868.44	1071.50
868.75	1072.20
869.06	1074.07
869.37	1077.11
869.68	1074.77
870.00	1088.35
870.31	1082.50
870.62	1081.33
870.93	1086.24
871.24	1085.54
871.56	1073.37
871.87	1085.77
872.18	1082.73
872.49	1089.52
872.80	1107.31
873.12	1109.41
873.43	1088.12
873.74	1087.65
874.05	1076.41
874.36	1075.71
874.67	1073.84
874.98	1081.09
875.29	1078.52
875.61	1078.99
875.92	1069.16
876.23	1060.96
876.54	1060.26
876.85	1054.65
877.16	1048.79
877.47	1047.39
877.78	1054.18
878.09	1046.22
878.40	1053.94
878.72	1062.14
879.03	1070.33
879.34	1070.33
879.65	1076.88
879.96	1079.46
880.27	1068.92
880.58	1056.52
880.89	1062.14
881.20	1071.97
881.51	1068.92
881.82	1076.41
882.13	1089.52
882.44	1095.84
882.75	1090.46
883.06	1087.88
883.37	1099.35
883.68	1086.94
883.99	1081.56
884.30	1082.50
884.61	1077.58
884.92	1072.20
885.23	1081.33
885.54	1082.26
885.85	1081.80
886.16	1082.50
886.47	1076.18
886.78	1078.28
887.08	1067.28
887.39	1071.73
887.70	1083.43
888.01	1088.35
888.32	1078.28
888.63	1083.90
888.94	1074.07
889.25	1068.92
889.56	1062.37
889.87	1067.05
890.17	1060.96
890.48	1061.67
890.79	1056.75
891.10	1066.11
891.41	1065.88
891.72	1075.94
892.03	1075.71
892.34	1076.65
892.64	1077.58
892.95	1084.37
893.26	1073.60
893.57	1071.73
893.88	1061.90
894.18	1057.45
894.49	1041.77
894.80	1053.24
895.11	1057.69
895.42	1061.43
895.72	1063.77
896.03	1072.43
896.34	1068.69
896.65	1067.75
896.96	1075.01
897.26	1075.94
897.57	1074.54
897.88	1066.82
898.19	1062.84
898.49	1060.73
898.80	1056.99
899.11	1061.67
899.41	1067.99
899.72	1068.45
900.03	1073.84
900.34	1077.11
900.64	1070.80
900.95	1075.71
901.26	1069.62
901.56	1068.22
901.87	1064.94
902.18	1063.31
902.48	1056.28
902.79	1064.01
903.10	1060.26
903.40	1063.54
903.71	1073.84
904.02	1082.97
904.32	1083.67
904.63	1088.82
904.94	1083.90
905.24	1075.01
905.55	1064.48
905.85	1065.18
906.16	1073.14
906.47	1078.99
906.77	1089.99
907.08	1090.69
907.38	1094.20
907.69	1089.75
908.00	1081.33
908.30	1056.99
908.61	1054.41
908.91	1060.03
909.22	1057.92
909.52	1049.50
909.83	1071.97
910.14	1077.35
910.44	1071.50
910.75	1070.80
911.05	1087.41
911.36	1085.07
911.66	1082.97
911.97	1088.35
912.27	1083.90
912.58	1083.20
912.88	1076.18
913.19	1072.43
913.49	1060.03
913.80	1053.01
914.10	1048.09
914.41	1052.07
914.71	1049.73
915.01	1058.62
915.32	1060.73
915.62	1058.16
915.93	1056.28
916.23	1062.60
916.54	1061.67
916.84	1071.03
917.15	1081.80
917.45	1082.03
917.75	1076.18
918.06	1075.24
918.36	1071.97
918.67	1068.22
918.97	1063.54
919.27	1077.58
919.58	1074.07
919.88	1081.56
920.18	1081.56
920.49	1086.01
920.79	1078.05
921.10	1071.97
921.40	1070.80
921.70	1065.65
922.01	1074.07
922.31	1072.20
922.61	1080.16
922.92	1073.14
923.22	1079.22
923.52	1064.48
923.82	1067.75
924.13	1071.73
924.43	1073.14
924.73	1068.69
925.04	1076.65
925.34	1083.43
925.64	1079.46
925.94	1081.56
926.25	1080.39
926.55	1081.56
926.85	1079.46
927.15	1076.65
927.46	1082.03
927.76	1086.24
928.06	1088.58
928.36	1087.18
928.67	1097.95
928.97	1097.48
929.27	1091.86
929.57	1093.50
929.87	1094.20
930.18	1084.14
930.48	1082.26
930.78	1080.86
931.08	1078.52
931.38	1074.54
931.69	1071.73
931.99	1067.28
932.29	1073.37
932.59	1076.41
932.89	1076.65
933.19	1080.86
933.49	1078.05
933.80	1075.01
934.10	1081.80
934.40	1078.75
934.70	1082.97
935.00	1096.54
935.30	1106.61
935.60	1099.35
935.90	1101.69
936.20	1090.46
936.50	1074.31
936.81	1067.75
937.11	1062.84
937.41	1058.86
937.71	1063.07
938.01	1072.20
938.31	1068.69
938.61	1074.07
938.91	1082.26
939.21	1096.78
939.51	1095.14
939.81	1101.22
940.11	1097.48
940.41	1098.88
940.71	1098.65
941.01	1098.41
941.31	1093.50
941.61	1093.50
941.91	1083.43
942.21	1070.09
942.51	1069.86
942.81	1074.54
943.11	1070.33
943.41	1080.63
943.71	1078.05
944.01	1079.69
944.31	1076.65
944.61	1080.86
944.90	1081.33
945.20	1083.67
945.50	1078.99
945.80	1074.31
946.10	1076.88
946.40	1069.86
946.70	1078.05
947.00	1077.35
947.30	1088.58
947.60	1083.90
947.89	1072.67
948.19	1072.90
948.49	1076.41
948.79	1058.86
949.09	1050.67
949.39	1061.20
949.69	1057.92
949.98	1055.11
950.28	1060.50
950.58	1064.01
950.88	1063.07
951.18	1057.22
951.48	1057.22
951.77	1067.28
952.07	1067.75
952.37	1069.86
952.67	1071.97
952.97	1070.33
953.26	1066.35
953.56	1073.37
953.86	1074.31
954.16	1085.07
954.45	1095.84
954.75	1097.24
955.05	1090.22
955.35	1082.26
955.64	1074.31
955.94	1065.41
956.24	1064.94
956.54	1073.84
956.83	1078.52
957.13	1089.05
957.43	1087.65
957.72	1082.97
958.02	1073.14
958.32	1070.09
958.61	1057.92
958.91	1066.11
959.21	1071.50
959.50	1080.63
959.80	1085.07
960.10	1084.60
960.39	1079.22
960.69	1077.58
960.99	1078.52
961.28	1086.48
961.58	1087.65
961.87	1086.71
962.17	1084.37
962.47	1079.46
962.76	1063.77
963.06	1067.05
963.36	1064.94
963.65	1070.09
963.95	1076.41
964.24	1089.29
964.54	1086.71
964.83	1095.14
965.13	1087.65
965.42	1076.41
965.72	1073.14
966.02	1065.88
966.31	1059.33
966.61	1057.69
966.90	1056.52
967.20	1054.88
967.49	1060.03
967.79	1067.75
968.08	1072.20
968.38	1087.88
968.67	1088.82
968.97	1085.54
969.26	1078.05
969.56	1091.16
969.85	1073.14
970.15	1060.50
970.44	1070.56
970.74	1079.22
971.03	1070.80
971.32	1085.54
971.62	1094.20
971.91	1087.41
972.21	1079.69
972.50	1087.41
972.80	1082.97
973.09	1085.07
973.38	1082.73
973.68	1079.92
973.97	1062.60
974.27	1052.54
974.56	1054.41
974.85	1065.88
975.15	1060.73
975.44	1064.48
975.73	1078.99
976.03	1081.09
976.32	1079.46
976.61	1086.71
976.91	1089.05
977.20	1084.84
977.49	1081.33
977.79	1083.43
978.08	1089.99
978.37	1089.05
978.67	1084.84
978.96	1090.22
979.25	1085.54
979.55	1084.37
979.84	1083.43
980.13	1089.29
980.42	1093.26
980.72	1096.31
981.01	1094.90
981.30	1087.88
981.59	1081.09
981.89	1068.22
982.18	1050.43
982.47	1049.96
982.76	1062.60
983.06	1076.65
983.35	1083.20
983.64	1097.95
983.93	1084.60
984.22	1086.24
984.52	1067.99
984.81	1070.80
985.10	1065.41
985.39	1076.18
985.68	1069.16
985.97	1079.46
986.27	1076.18
986.56	1075.01
986.85	1072.43
987.14	1075.48
987.43	1080.39
987.72	1084.14
988.01	1088.35
988.31	1101.69
988.60	1095.37
988.89	1102.16
989.18	1094.67
989.47	1091.86
989.76	1087.65
990.05	1095.60
990.34	1082.97
990.63	1086.01
990.92	1086.01
991.21	1078.99
991.51	1071.73
991.80	1084.60
992.09	1078.75
992.38	1073.60
992.67	1069.86
992.96	1082.97
993.25	1074.54
993.54	1071.26
993.83	1078.99
994.12	1082.26
994.41	1077.35
994.70	1071.03
994.99	1091.39
995.28	1086.71
995.57	1092.09
995.86	1086.24
996.15	1084.14
996.44	1076.18
996.73	1085.07
997.02	1076.41
997.31	1083.43
997.59	1088.35
997.88	1086.71
998.17	1083.43
998.46	1093.97
998.75	1089.29
999.04	1083.67
999.33	1090.92
999.62	1084.37
999.91	1077.82
1000.20	1076.65
1000.49	1087.41
1000.77	1079.69
1001.06	1084.60
1001.35	1082.50
1001.64	1076.18
1001.93	1070.33
1002.22	1071.97
1002.51	1068.69
1002.79	1069.39
1003.08	1075.24
1003.37	1074.31
1003.66	1065.88
1003.95	1067.75
1004.23	1065.41
1004.52	1066.58
1004.81	1067.75
1005.10	1069.86
1005.39	1074.54
1005.67	1075.48
1005.96	1072.67
1006.25	1072.90
1006.54	1073.14
1006.83	1072.43
1007.11	1074.31
1007.40	1078.05
1007.69	1071.73
1007.97	1075.24
1008.26	1068.92
1008.55	1070.33
1008.84	1077.82
1009.12	1081.33
1009.41	1079.22
1009.70	1067.52
1009.98	1074.07
1010.27	1069.86
1010.56	1066.35
1010.85	1074.77
1011.13	1095.84
1011.42	1093.97
1011.71	1089.52
1011.99	1099.58
1012.28	1093.97
1012.56	1089.29
1012.85	1086.24
1013.14	1086.71
1013.42	1080.39
1013.71	1075.94
1014.00	1076.18
1014.28	1075.01
1014.57	1065.65
1014.85	1076.88
1015.14	1084.14
1015.43	1082.26
1015.71	1076.65
1016.00	1083.43
1016.28	1074.77
1016.57	1069.39
1016.85	1071.97
1017.14	1078.99
1017.43	1078.75
1017.71	1083.20
1018.00	1084.60
1018.28	1082.73
1018.57	1080.86
1018.85	1084.37
1019.14	1083.20
1019.42	1076.88
1019.71	1081.80
1019.99	1075.48
1020.28	1077.58
1020.56	1066.11
1020.85	1069.16
1021.13	1060.26
1021.42	1070.80
1021.70	1062.84
1021.99	1067.75
1022.27	1059.33
1022.55	1066.11
1022.84	1018.13
>>>>>End Processed Spectral Data<<<<<
