SpectraSuite Data File
++++++++++++++++++++++++++++++++++++
Date: Mon Aug 26 10:24:31 PDT 2019
User: corrico
Dark Spectrum Present: No
Reference Spectrum Present: No
Number of Sampled Component Spectra: 1
Spectrometers: USB2+H06089
Integration Time (usec): 10000 (USB2+H06089)
Spectra Averaged: 2 (USB2+H06089)
Boxcar Smoothing: 2 (USB2+H06089)
Correct for Electrical Dark: No (USB2+H06089)
Strobe/Lamp Enabled: No (USB2+H06089)
Correct for Detector Non-linearity: No (USB2+H06089)
Correct for Stray Light: No (USB2+H06089)
Number of Pixels in Processed Spectrum: 2048
>>>>>Begin Processed Spectral Data<<<<<
339.70	1022.81
340.07	1022.81
340.45	1002.45
340.82	989.58
341.19	965.71
341.57	932.24
341.94	913.75
342.31	900.40
342.69	890.34
343.06	883.79
343.43	890.81
343.81	896.43
344.18	895.02
344.55	888.00
344.93	900.17
345.30	909.30
345.67	912.34
346.04	917.49
346.42	937.38
346.79	941.83
347.16	947.45
347.54	957.28
347.91	971.56
348.28	969.68
348.65	975.07
349.03	989.11
349.40	998.47
349.77	1009.00
350.14	1020.47
350.52	1030.07
350.89	1042.47
351.26	1043.18
351.63	1045.05
352.01	1058.16
352.38	1064.24
352.75	1048.79
353.12	1057.69
353.50	1060.73
353.87	1058.39
354.24	1065.18
354.61	1067.05
354.98	1071.73
355.36	1074.07
355.73	1071.03
356.10	1075.94
356.47	1089.75
356.84	1091.63
357.22	1089.52
357.59	1089.75
357.96	1080.86
358.33	1083.20
358.70	1082.73
359.08	1081.80
359.45	1096.31
359.82	1097.95
360.19	1097.24
360.56	1100.52
360.94	1102.86
361.31	1079.46
361.68	1075.71
362.05	1064.01
362.42	1049.03
362.79	1038.26
363.16	1045.75
363.54	1043.64
363.91	1043.18
364.28	1053.01
364.65	1057.45
365.02	1065.88
365.39	1077.58
365.76	1085.07
366.14	1083.43
366.51	1082.97
366.88	1075.71
367.25	1053.94
367.62	1050.20
367.99	1040.37
368.36	1037.33
368.73	1034.52
369.10	1043.41
369.48	1048.09
369.85	1051.37
370.22	1051.37
370.59	1058.39
370.96	1056.28
371.33	1050.67
371.70	1053.94
372.07	1054.65
372.44	1051.84
372.81	1048.56
373.18	1050.90
373.55	1045.75
373.93	1047.62
374.30	1045.52
374.67	1060.73
375.04	1061.20
375.41	1064.24
375.78	1066.58
376.15	1068.92
376.52	1061.67
376.89	1066.82
377.26	1073.84
377.63	1080.63
378.00	1084.60
378.37	1083.43
378.74	1090.46
379.11	1082.97
379.48	1070.33
379.85	1070.09
380.22	1071.03
380.59	1055.82
380.96	1053.48
381.33	1056.75
381.70	1054.88
382.07	1059.79
382.44	1064.94
382.81	1066.82
383.18	1075.94
383.55	1074.77
383.92	1072.20
384.29	1071.73
384.66	1075.94
385.03	1070.80
385.40	1073.37
385.77	1066.58
386.14	1064.48
386.51	1062.14
386.88	1071.97
387.25	1074.54
387.62	1089.29
387.99	1088.35
388.36	1090.69
388.73	1082.26
389.10	1086.48
389.46	1073.37
389.83	1072.67
390.20	1070.80
390.57	1070.80
390.94	1057.22
391.31	1061.20
391.68	1064.71
392.05	1060.50
392.42	1054.88
392.79	1059.79
393.16	1071.97
393.53	1061.67
393.89	1066.11
394.26	1078.28
394.63	1079.46
395.00	1078.99
395.37	1098.18
395.74	1097.24
396.11	1091.86
396.48	1093.73
396.84	1082.03
397.21	1068.22
397.58	1071.26
397.95	1072.20
398.32	1066.82
398.69	1062.84
399.06	1060.03
399.42	1060.26
399.79	1064.01
400.16	1058.39
400.53	1068.92
400.90	1069.39
401.27	1061.90
401.64	1050.67
402.00	1064.94
402.37	1059.56
402.74	1063.31
403.11	1071.03
403.48	1076.18
403.84	1065.65
404.21	1056.99
404.58	1055.35
404.95	1049.03
405.32	1056.75
405.68	1056.05
406.05	1073.84
406.42	1078.05
406.79	1089.99
407.16	1086.71
407.52	1089.75
407.89	1077.58
408.26	1063.54
408.63	1056.75
408.99	1054.65
409.36	1040.84
409.73	1039.43
410.10	1056.05
410.47	1056.99
410.83	1060.26
411.20	1071.50
411.57	1080.39
411.94	1072.67
412.30	1079.69
412.67	1073.60
413.04	1089.29
413.40	1081.80
413.77	1082.97
414.14	1072.67
414.51	1079.22
414.87	1072.90
415.24	1083.90
415.61	1087.65
415.97	1090.92
416.34	1095.60
416.71	1089.99
417.08	1087.65
417.44	1088.12
417.81	1087.18
418.18	1079.69
418.54	1077.35
418.91	1077.11
419.28	1073.37
419.64	1084.60
420.01	1087.88
420.38	1087.41
420.74	1084.84
421.11	1086.48
421.48	1069.86
421.84	1063.54
422.21	1071.97
422.58	1069.16
422.94	1068.22
423.31	1075.48
423.68	1076.41
424.04	1068.22
424.41	1071.26
424.77	1078.28
425.14	1078.52
425.51	1086.01
425.87	1093.26
426.24	1096.54
426.61	1093.97
426.97	1103.09
427.34	1103.33
427.70	1100.29
428.07	1097.01
428.44	1087.65
428.80	1077.82
429.17	1075.94
429.53	1071.50
429.90	1065.41
430.27	1077.35
430.63	1079.69
431.00	1075.24
431.36	1074.31
431.73	1072.20
432.09	1055.35
432.46	1050.43
432.83	1060.96
433.19	1061.90
433.56	1067.75
433.92	1082.03
434.29	1086.48
434.65	1083.90
435.02	1088.12
435.38	1080.86
435.75	1084.37
436.11	1086.71
436.48	1071.97
436.84	1078.28
437.21	1083.90
437.57	1077.11
437.94	1081.33
438.30	1094.20
438.67	1086.94
439.03	1088.82
439.40	1093.73
439.76	1081.56
440.13	1075.01
440.49	1085.07
440.86	1084.14
441.22	1092.09
441.59	1099.82
441.95	1101.92
442.32	1094.20
442.68	1100.52
443.05	1101.46
443.41	1103.56
443.78	1100.52
444.14	1100.05
444.51	1103.80
444.87	1092.56
445.24	1091.86
445.60	1097.01
445.96	1100.05
446.33	1097.71
446.69	1097.95
447.06	1099.82
447.42	1098.65
447.79	1098.65
448.15	1092.09
448.51	1095.37
448.88	1085.54
449.24	1091.16
449.61	1087.41
449.97	1084.60
450.33	1083.20
450.70	1086.94
451.06	1076.41
451.43	1078.28
451.79	1074.31
452.15	1067.28
452.52	1076.18
452.88	1080.16
453.24	1081.56
453.61	1085.31
453.97	1093.73
454.34	1088.35
454.70	1086.71
455.06	1078.52
455.43	1084.14
455.79	1083.90
456.15	1075.24
456.52	1078.52
456.88	1072.67
457.24	1070.56
457.61	1065.88
457.97	1068.22
458.33	1066.11
458.70	1075.94
459.06	1074.54
459.42	1074.54
459.79	1074.07
460.15	1078.52
460.51	1082.26
460.88	1082.50
461.24	1081.09
461.60	1079.46
461.96	1070.09
462.33	1070.09
462.69	1062.84
463.05	1066.35
463.42	1067.52
463.78	1075.01
464.14	1066.82
464.50	1079.92
464.87	1079.69
465.23	1091.39
465.59	1089.52
465.95	1084.37
466.32	1083.90
466.68	1084.84
467.04	1070.80
467.40	1061.67
467.77	1072.43
468.13	1069.86
468.49	1068.69
468.85	1076.88
469.22	1084.84
469.58	1087.18
469.94	1089.52
470.30	1094.67
470.66	1098.88
471.03	1106.14
471.39	1098.88
471.75	1099.35
472.11	1087.88
472.47	1077.58
472.84	1063.07
473.20	1069.16
473.56	1072.67
473.92	1075.48
474.28	1082.73
474.65	1092.09
475.01	1082.97
475.37	1074.07
475.73	1085.31
476.09	1080.39
476.45	1076.88
476.81	1087.41
477.18	1078.28
477.54	1079.22
477.90	1090.46
478.26	1098.65
478.62	1097.71
478.98	1101.92
479.34	1092.56
479.71	1075.24
480.07	1073.14
480.43	1084.60
480.79	1091.63
481.15	1090.22
481.51	1093.03
481.87	1088.82
482.23	1071.50
482.59	1072.90
482.96	1073.84
483.32	1069.86
483.68	1074.07
484.04	1075.24
484.40	1080.39
484.76	1078.52
485.12	1084.60
485.48	1074.77
485.84	1078.52
486.20	1068.45
486.56	1070.80
486.92	1071.97
487.28	1081.56
487.64	1078.52
488.00	1082.26
488.37	1090.46
488.73	1098.88
489.09	1109.65
489.45	1116.20
489.81	1111.52
490.17	1102.16
490.53	1090.22
490.89	1078.28
491.25	1066.58
491.61	1068.22
491.97	1066.11
492.33	1076.18
492.69	1074.07
493.05	1085.77
493.41	1085.77
493.77	1086.48
494.13	1080.63
494.49	1078.05
494.85	1080.16
495.21	1090.92
495.57	1091.63
495.93	1104.03
496.29	1117.14
496.64	1109.41
497.00	1093.97
497.36	1102.63
497.72	1090.22
498.08	1078.52
498.44	1079.22
498.80	1098.65
499.16	1090.69
499.52	1086.01
499.88	1092.56
500.24	1089.29
500.60	1071.97
500.96	1075.71
501.32	1068.69
501.68	1064.01
502.03	1065.65
502.39	1067.99
502.75	1057.22
503.11	1063.77
503.47	1061.43
503.83	1062.14
504.19	1061.90
504.55	1078.52
504.91	1077.82
505.26	1089.05
505.62	1093.50
505.98	1087.18
506.34	1075.01
506.70	1078.28
507.06	1063.07
507.42	1055.11
507.78	1065.88
508.13	1080.63
508.49	1078.99
508.85	1079.92
509.21	1086.24
509.57	1078.28
509.93	1066.11
510.28	1069.39
510.64	1068.45
511.00	1067.52
511.36	1068.69
511.72	1060.73
512.07	1059.33
512.43	1072.67
512.79	1071.73
513.15	1077.58
513.51	1081.80
513.86	1090.22
514.22	1073.84
514.58	1072.20
514.94	1068.22
515.30	1074.31
515.65	1078.52
516.01	1096.07
516.37	1096.78
516.73	1100.52
517.08	1096.78
517.44	1082.03
517.80	1067.99
518.16	1063.07
518.51	1060.50
518.87	1063.77
519.23	1071.26
519.59	1080.16
519.94	1096.07
520.30	1103.09
520.66	1101.69
521.01	1098.65
521.37	1087.41
521.73	1077.82
522.09	1067.99
522.44	1066.35
522.80	1066.82
523.16	1069.39
523.51	1071.26
523.87	1075.48
524.23	1073.14
524.58	1070.09
524.94	1080.63
525.30	1077.11
525.65	1078.28
526.01	1083.67
526.37	1091.86
526.72	1088.12
527.08	1098.18
527.44	1100.29
527.79	1104.03
528.15	1100.29
528.51	1092.56
528.86	1084.14
529.22	1079.69
529.58	1071.03
529.93	1065.88
530.29	1072.90
530.65	1072.43
531.00	1065.18
531.36	1067.28
531.71	1063.77
532.07	1056.99
532.43	1062.84
532.78	1069.39
533.14	1076.41
533.49	1086.01
533.85	1098.41
534.21	1088.82
534.56	1093.97
534.92	1096.54
535.27	1087.88
535.63	1074.31
535.98	1072.67
536.34	1069.62
536.69	1066.35
537.05	1069.16
537.41	1073.60
537.76	1087.18
538.12	1085.54
538.47	1074.31
538.83	1075.48
539.18	1078.75
539.54	1072.20
539.89	1073.84
540.25	1087.88
540.60	1087.65
540.96	1086.71
541.31	1085.54
541.67	1081.09
542.02	1082.03
542.38	1078.05
542.73	1076.41
543.09	1075.24
543.44	1076.18
543.80	1064.24
544.15	1058.62
544.51	1061.20
544.86	1063.54
545.22	1069.39
545.57	1072.67
545.93	1079.69
546.28	1078.28
546.64	1070.56
546.99	1076.41
547.35	1075.01
547.70	1078.52
548.05	1073.14
548.41	1074.77
548.76	1062.84
549.12	1063.77
549.47	1064.01
549.83	1067.28
550.18	1077.58
550.53	1094.90
550.89	1095.60
551.24	1101.69
551.60	1101.22
551.95	1094.90
552.30	1077.11
552.66	1072.90
553.01	1070.80
553.37	1078.28
553.72	1081.33
554.07	1083.90
554.43	1094.43
554.78	1085.07
555.13	1086.01
555.49	1082.26
555.84	1089.99
556.19	1091.86
556.55	1093.03
556.90	1081.33
557.26	1082.26
557.61	1081.80
557.96	1064.24
558.32	1072.20
558.67	1086.24
559.02	1076.88
559.37	1070.33
559.73	1074.31
560.08	1062.84
560.43	1055.11
560.79	1064.71
561.14	1064.48
561.49	1069.16
561.85	1079.69
562.20	1078.28
562.55	1073.37
562.90	1067.99
563.26	1073.84
563.61	1071.97
563.96	1072.90
564.32	1082.26
564.67	1085.77
565.02	1077.11
565.37	1076.18
565.73	1073.84
566.08	1073.84
566.43	1080.86
566.78	1078.52
567.14	1075.01
567.49	1079.69
567.84	1075.24
568.19	1067.52
568.54	1081.09
568.90	1083.90
569.25	1080.86
569.60	1082.26
569.95	1086.71
570.31	1083.43
570.66	1088.12
571.01	1075.94
571.36	1074.54
571.71	1072.20
572.06	1059.56
572.42	1049.73
572.77	1060.50
573.12	1057.22
573.47	1057.92
573.82	1071.26
574.18	1075.24
574.53	1074.31
574.88	1082.97
575.23	1084.84
575.58	1076.41
575.93	1091.16
576.28	1089.99
576.64	1081.56
576.99	1077.58
577.34	1074.54
577.69	1060.96
578.04	1058.39
578.39	1065.65
578.74	1067.52
579.09	1073.37
579.44	1074.54
579.80	1083.43
580.15	1078.05
580.50	1078.52
580.85	1078.28
581.20	1079.69
581.55	1075.24
581.90	1078.75
582.25	1080.16
582.60	1089.29
582.95	1082.97
583.30	1090.92
583.65	1088.82
584.00	1091.63
584.35	1094.67
584.71	1103.80
585.06	1093.50
585.41	1097.71
585.76	1097.01
586.11	1081.56
586.46	1079.69
586.81	1075.24
587.16	1067.05
587.51	1075.01
587.86	1079.92
588.21	1079.22
588.56	1088.35
588.91	1092.56
589.26	1086.71
589.61	1081.09
589.96	1078.75
590.31	1074.07
590.66	1060.26
591.01	1047.86
591.36	1054.41
591.71	1053.01
592.06	1058.62
592.41	1064.94
592.76	1069.86
593.10	1082.97
593.45	1088.35
593.80	1095.37
594.15	1109.65
594.50	1116.20
594.85	1105.44
595.20	1104.26
595.55	1088.12
595.90	1083.90
596.25	1076.88
596.60	1072.67
596.95	1071.03
597.30	1076.65
597.64	1120.41
597.99	1123.46
598.34	1130.24
598.69	1129.78
599.04	1133.52
599.39	1078.52
599.74	1080.39
600.09	1074.07
600.44	1070.33
600.78	1062.84
601.13	1067.75
601.48	1065.65
601.83	1061.67
602.18	1060.03
602.53	1063.07
602.88	1064.24
603.22	1060.50
603.57	1071.26
603.92	1078.99
604.27	1079.46
604.62	1086.01
604.97	1095.84
605.31	1105.44
605.66	1098.65
606.01	1093.50
606.36	1089.29
606.71	1076.65
607.05	1059.79
607.40	1073.84
607.75	1089.75
608.10	1082.50
608.44	1090.22
608.79	1090.22
609.14	1077.58
609.49	1066.35
609.84	1079.46
610.18	1081.80
610.53	1083.67
610.88	1089.29
611.23	1093.73
611.57	1097.24
611.92	1103.33
612.27	1112.46
612.62	1111.99
612.96	1106.14
613.31	1098.41
613.66	1090.46
614.00	1084.60
614.35	1080.39
614.70	1090.22
615.05	1087.88
615.39	1089.99
615.74	1088.12
616.09	1085.77
616.43	1074.77
616.78	1081.09
617.13	1079.69
617.47	1078.99
617.82	1083.90
618.17	1089.75
618.51	1084.14
618.86	1073.60
619.21	1065.88
619.55	1060.03
619.90	1060.26
620.25	1053.48
620.59	1052.07
620.94	1064.01
621.29	1070.80
621.63	1076.18
621.98	1078.52
622.32	1090.92
622.67	1081.09
623.02	1075.71
623.36	1066.82
623.71	1073.37
624.05	1071.73
624.40	1072.90
624.75	1072.90
625.09	1073.14
625.44	1066.11
625.78	1057.22
626.13	1054.18
626.48	1059.79
626.82	1063.07
627.17	1072.20
627.51	1078.52
627.86	1084.14
628.20	1080.86
628.55	1078.52
628.89	1069.16
629.24	1072.20
629.58	1072.43
629.93	1075.48
630.28	1080.39
630.62	1086.24
630.97	1087.18
631.31	1088.58
631.66	1083.43
632.00	1080.63
632.35	1075.01
632.69	1075.48
633.04	1083.90
633.38	1086.94
633.73	1087.88
634.07	1095.14
634.42	1098.18
634.76	1090.92
635.11	1088.35
635.45	1089.29
635.79	1086.94
636.14	1074.77
636.48	1078.28
636.83	1079.22
637.17	1075.71
637.52	1081.80
637.86	1099.35
638.21	1095.84
638.55	1093.03
638.89	1093.50
639.24	1081.56
639.58	1067.52
639.93	1063.07
640.27	1060.73
640.61	1061.43
640.96	1070.33
641.30	1074.31
641.65	1076.65
641.99	1085.31
642.33	1085.54
642.68	1083.43
643.02	1084.60
643.37	1083.43
643.71	1086.94
644.05	1088.12
644.40	1083.90
644.74	1090.22
645.08	1083.90
645.43	1082.97
645.77	1081.80
646.11	1082.50
646.46	1073.37
646.80	1084.84
647.14	1080.39
647.49	1084.37
647.83	1083.67
648.17	1082.97
648.52	1075.94
648.86	1076.88
649.20	1075.01
649.55	1081.56
649.89	1090.69
650.23	1083.43
650.57	1081.33
650.92	1082.03
651.26	1086.24
651.60	1076.41
651.95	1085.54
652.29	1091.16
652.63	1089.52
652.97	1082.03
653.32	1078.52
653.66	1074.54
654.00	1072.90
654.34	1071.50
654.69	1074.07
655.03	1086.94
655.37	1092.09
655.71	1092.33
656.05	1096.07
656.40	1103.56
656.74	1097.48
657.08	1105.67
657.42	1117.84
657.76	1121.58
658.11	1112.46
658.45	1120.18
658.79	1118.07
659.13	1115.73
659.47	1111.99
659.82	1103.09
660.16	1086.94
660.50	1080.39
660.84	1071.03
661.18	1068.69
661.52	1082.26
661.87	1086.71
662.21	1085.77
662.55	1082.50
662.89	1087.88
663.23	1083.43
663.57	1084.14
663.91	1094.67
664.25	1092.09
664.60	1087.88
664.94	1081.09
665.28	1070.56
665.62	1054.65
665.96	1065.18
666.30	1054.88
666.64	1065.65
666.98	1078.99
667.32	1080.39
667.66	1075.48
668.01	1085.77
668.35	1072.90
668.69	1072.90
669.03	1078.52
669.37	1075.48
669.71	1075.24
670.05	1080.16
670.39	1066.82
670.73	1069.39
671.07	1062.14
671.41	1065.18
671.75	1075.01
672.09	1081.80
672.43	1073.37
672.77	1089.29
673.11	1092.09
673.45	1079.22
673.79	1077.58
674.13	1078.28
674.47	1058.16
674.81	1051.13
675.15	1066.11
675.49	1077.58
675.83	1083.43
676.17	1096.54
676.51	1103.80
676.85	1090.69
677.19	1083.67
677.53	1089.29
677.87	1085.77
678.21	1081.09
678.55	1080.16
678.89	1083.90
679.23	1081.09
679.57	1093.50
679.90	1097.71
680.24	1098.88
680.58	1097.95
680.92	1097.24
681.26	1083.20
681.60	1074.77
681.94	1070.09
682.28	1069.39
682.62	1062.37
682.96	1065.88
683.29	1057.69
683.63	1060.96
683.97	1067.28
684.31	1070.80
684.65	1081.80
684.99	1093.03
685.33	1105.20
685.67	1102.16
686.00	1104.50
686.34	1102.39
686.68	1102.63
687.02	1102.63
687.36	1097.71
687.70	1097.95
688.03	1083.20
688.37	1076.18
688.71	1059.09
689.05	1058.39
689.39	1056.52
689.72	1064.71
690.06	1068.22
690.40	1074.07
690.74	1079.92
691.08	1079.22
691.41	1077.82
691.75	1076.88
692.09	1077.82
692.43	1084.14
692.76	1078.99
693.10	1079.46
693.44	1077.58
693.78	1079.46
694.11	1071.97
694.45	1081.09
694.79	1073.84
695.13	1068.92
695.46	1066.82
695.80	1064.71
696.14	1062.84
696.48	1057.92
696.81	1061.90
697.15	1069.86
697.49	1068.92
697.82	1075.01
698.16	1088.58
698.50	1093.97
698.83	1081.33
699.17	1096.31
699.51	1095.60
699.84	1094.90
700.18	1097.48
700.52	1100.05
700.85	1087.88
701.19	1089.05
701.53	1090.69
701.86	1093.03
702.20	1095.37
702.54	1087.65
702.87	1079.69
703.21	1081.80
703.55	1084.60
703.88	1087.41
704.22	1087.41
704.55	1092.09
704.89	1079.46
705.23	1068.92
705.56	1069.39
705.90	1072.20
706.23	1065.65
706.57	1081.09
706.91	1082.03
707.24	1084.37
707.58	1087.41
707.91	1091.63
708.25	1085.31
708.58	1083.43
708.92	1086.24
709.26	1085.77
709.59	1082.26
709.93	1068.92
710.26	1075.01
710.60	1057.45
710.93	1066.35
711.27	1073.14
711.60	1085.07
711.94	1076.88
712.27	1086.94
712.61	1081.56
712.94	1075.01
713.28	1068.92
713.61	1082.03
713.95	1088.82
714.28	1089.52
714.62	1090.22
714.95	1084.84
715.29	1076.18
715.62	1075.48
715.96	1072.43
716.29	1075.24
716.63	1077.82
716.96	1078.05
717.29	1078.75
717.63	1071.50
717.96	1061.20
718.30	1068.92
718.63	1075.94
718.97	1072.20
719.30	1088.82
719.63	1100.05
719.97	1099.12
720.30	1097.95
720.64	1094.67
720.97	1085.31
721.30	1083.43
721.64	1088.12
721.97	1079.46
722.31	1080.39
722.64	1082.97
722.97	1080.39
723.31	1073.60
723.64	1086.94
723.97	1090.46
724.31	1086.48
724.64	1092.33
724.98	1097.71
725.31	1092.56
725.64	1086.01
725.98	1091.16
726.31	1077.35
726.64	1071.50
726.97	1065.18
727.31	1071.97
727.64	1077.58
727.97	1098.41
728.31	1102.16
728.64	1095.14
728.97	1081.80
729.31	1071.26
729.64	1050.20
729.97	1054.41
730.30	1053.24
730.64	1063.07
730.97	1069.16
731.30	1065.41
731.63	1056.52
731.97	1063.77
732.30	1058.62
732.63	1056.99
732.96	1073.84
733.30	1083.67
733.63	1089.75
733.96	1106.61
734.29	1096.54
734.63	1100.29
734.96	1098.41
735.29	1088.12
735.62	1074.54
735.95	1072.43
736.29	1060.03
736.62	1064.01
736.95	1080.86
737.28	1095.14
737.61	1097.01
737.94	1094.90
738.28	1080.63
738.61	1066.35
738.94	1062.84
739.27	1064.24
739.60	1064.94
739.93	1072.43
740.27	1081.56
740.60	1078.75
740.93	1088.35
741.26	1091.39
741.59	1099.82
741.92	1091.39
742.25	1082.97
742.58	1075.24
742.91	1074.54
743.25	1069.62
743.58	1071.26
743.91	1072.43
744.24	1075.48
744.57	1092.33
744.90	1086.48
745.23	1079.92
745.56	1087.88
745.89	1096.31
746.22	1083.20
746.55	1084.84
746.88	1092.33
747.21	1082.73
747.54	1074.07
747.87	1079.69
748.20	1090.92
748.53	1087.41
748.87	1089.52
749.20	1087.65
749.53	1078.75
749.86	1070.56
750.19	1078.75
750.52	1083.43
750.85	1082.97
751.18	1085.31
751.51	1072.43
751.84	1075.01
752.16	1073.14
752.49	1076.18
752.82	1074.31
753.15	1091.39
753.48	1078.05
753.81	1076.41
754.14	1082.97
754.47	1082.97
754.80	1062.60
755.13	1074.77
755.46	1079.69
755.79	1061.20
756.12	1067.52
756.45	1075.01
756.78	1075.71
757.11	1074.07
757.43	1083.43
757.76	1077.35
758.09	1086.24
758.42	1078.75
758.75	1076.41
759.08	1080.39
759.41	1082.73
759.74	1080.16
760.07	1073.37
760.39	1073.60
760.72	1072.67
761.05	1063.77
761.38	1067.05
761.71	1077.35
762.04	1078.75
762.36	1074.77
762.69	1084.84
763.02	1077.58
763.35	1077.58
763.68	1073.14
764.01	1089.29
764.33	1086.01
764.66	1085.54
764.99	1081.80
765.32	1084.84
765.65	1072.20
765.97	1070.80
766.30	1077.11
766.63	1079.22
766.96	1076.88
767.28	1069.86
767.61	1069.62
767.94	1064.24
768.27	1059.56
768.59	1060.50
768.92	1071.50
769.25	1073.14
769.58	1072.67
769.90	1075.48
770.23	1069.16
770.56	1068.22
770.89	1055.35
771.21	1051.37
771.54	1049.96
771.87	1057.92
772.19	1060.26
772.52	1075.24
772.85	1084.60
773.17	1082.50
773.50	1083.20
773.83	1078.75
774.15	1076.18
774.48	1075.48
774.81	1075.48
775.13	1069.39
775.46	1072.20
775.79	1069.86
776.11	1064.24
776.44	1070.09
776.77	1076.41
777.09	1080.39
777.42	1090.92
777.74	1099.58
778.07	1100.29
778.40	1097.71
778.72	1083.67
779.05	1076.88
779.37	1073.37
779.70	1069.86
780.03	1075.24
780.35	1082.73
780.68	1081.56
781.00	1084.14
781.33	1079.46
781.65	1074.77
781.98	1077.58
782.31	1077.82
782.63	1065.88
782.96	1071.50
783.28	1072.90
783.61	1070.80
783.93	1082.73
784.26	1091.86
784.58	1087.41
784.91	1089.99
785.23	1094.90
785.56	1078.75
785.88	1082.73
786.21	1079.92
786.53	1076.65
786.86	1071.03
787.18	1080.63
787.51	1072.20
787.83	1083.67
788.16	1092.33
788.48	1088.12
788.81	1075.24
789.13	1073.14
789.46	1066.35
789.78	1054.88
790.10	1055.82
790.43	1064.01
790.75	1068.45
791.08	1064.01
791.40	1063.54
791.73	1073.60
792.05	1069.39
792.37	1072.20
792.70	1085.54
793.02	1091.16
793.35	1084.37
793.67	1079.22
793.99	1080.16
794.32	1067.52
794.64	1066.35
794.96	1063.77
795.29	1069.39
795.61	1068.45
795.93	1072.67
796.26	1068.69
796.58	1071.50
796.91	1084.14
797.23	1084.60
797.55	1085.31
797.87	1083.20
798.20	1082.97
798.52	1070.56
798.84	1063.07
799.17	1068.22
799.49	1070.80
799.81	1075.01
800.14	1085.54
800.46	1091.63
800.78	1089.75
801.10	1096.54
801.43	1087.88
801.75	1085.54
802.07	1094.90
802.40	1096.78
802.72	1092.09
803.04	1098.88
803.36	1094.20
803.69	1085.07
804.01	1080.86
804.33	1071.03
804.65	1063.07
804.97	1061.43
805.30	1057.69
805.62	1051.60
805.94	1056.99
806.26	1061.20
806.58	1059.09
806.91	1060.03
807.23	1064.48
807.55	1066.11
807.87	1061.43
808.19	1066.58
808.52	1069.16
808.84	1072.67
809.16	1078.75
809.48	1089.05
809.80	1082.50
810.12	1069.62
810.44	1059.56
810.77	1053.48
811.09	1044.82
811.41	1051.13
811.73	1061.67
812.05	1075.94
812.37	1075.24
812.69	1082.26
813.01	1090.22
813.33	1088.12
813.66	1075.01
813.98	1074.54
814.30	1073.84
814.62	1071.97
814.94	1077.82
815.26	1086.01
815.58	1086.48
815.90	1081.80
816.22	1072.67
816.54	1071.50
816.86	1069.16
817.18	1066.35
817.50	1075.24
817.82	1073.37
818.14	1069.62
818.46	1073.14
818.78	1086.71
819.10	1076.88
819.42	1086.24
819.74	1084.37
820.06	1079.69
820.38	1076.88
820.70	1085.31
821.02	1075.94
821.34	1089.05
821.66	1092.80
821.98	1088.35
822.30	1082.97
822.62	1086.01
822.94	1078.05
823.26	1071.26
823.58	1064.71
823.90	1061.90
824.22	1060.50
824.54	1067.99
824.86	1075.01
825.18	1085.31
825.50	1092.09
825.81	1096.54
826.13	1087.65
826.45	1085.54
826.77	1069.86
827.09	1069.86
827.41	1068.92
827.73	1067.75
828.05	1070.33
828.36	1088.58
828.68	1079.69
829.00	1080.86
829.32	1082.73
829.64	1081.56
829.96	1076.88
830.28	1080.63
830.59	1073.14
830.91	1086.71
831.23	1083.90
831.55	1086.94
831.87	1090.69
832.19	1096.07
832.50	1085.77
832.82	1085.54
833.14	1074.07
833.46	1071.50
833.78	1069.62
834.09	1064.24
834.41	1071.03
834.73	1081.56
835.05	1074.77
835.36	1076.88
835.68	1082.26
836.00	1077.82
836.32	1071.03
836.63	1082.26
836.95	1081.33
837.27	1081.09
837.59	1084.14
837.90	1089.29
838.22	1078.28
838.54	1078.05
838.85	1071.26
839.17	1065.18
839.49	1068.69
839.80	1080.86
840.12	1079.69
840.44	1084.84
840.76	1091.16
841.07	1081.80
841.39	1069.39
841.71	1078.52
842.02	1082.50
842.34	1079.92
842.65	1078.75
842.97	1091.39
843.29	1084.84
843.60	1087.88
843.92	1087.41
844.24	1082.03
844.55	1071.97
844.87	1078.05
845.18	1070.09
845.50	1073.14
845.82	1089.52
846.13	1086.48
846.45	1080.86
846.76	1088.58
847.08	1080.39
847.40	1072.67
847.71	1083.20
848.03	1087.65
848.34	1083.90
848.66	1091.39
848.97	1091.16
849.29	1079.92
849.60	1071.26
849.92	1060.26
850.24	1056.05
850.55	1057.22
850.87	1063.31
851.18	1065.88
851.50	1079.92
851.81	1069.39
852.13	1073.37
852.44	1075.01
852.76	1071.03
853.07	1070.56
853.39	1084.84
853.70	1088.12
854.01	1092.33
854.33	1093.03
854.64	1089.05
854.96	1090.22
855.27	1078.75
855.59	1073.60
855.90	1082.03
856.22	1078.05
856.53	1086.01
856.84	1088.12
857.16	1087.65
857.47	1082.97
857.79	1085.31
858.10	1075.94
858.41	1073.37
858.73	1079.69
859.04	1079.69
859.36	1078.52
859.67	1081.80
859.98	1086.94
860.30	1086.94
860.61	1087.41
860.92	1089.52
861.24	1096.31
861.55	1092.56
861.87	1082.03
862.18	1085.31
862.49	1085.54
862.81	1069.62
863.12	1071.50
863.43	1066.11
863.74	1062.84
864.06	1055.58
864.37	1053.24
864.68	1053.48
865.00	1057.22
865.31	1056.52
865.62	1062.37
865.94	1063.77
866.25	1064.94
866.56	1076.65
866.87	1069.62
867.19	1061.67
867.50	1070.56
867.81	1065.88
868.12	1061.90
868.44	1067.99
868.75	1071.50
869.06	1062.37
869.37	1072.43
869.68	1071.97
870.00	1078.75
870.31	1084.37
870.62	1090.46
870.93	1080.86
871.24	1083.67
871.56	1071.73
871.87	1077.35
872.18	1084.84
872.49	1097.71
872.80	1091.39
873.12	1094.20
873.43	1096.31
873.74	1094.43
874.05	1086.01
874.36	1087.88
874.67	1100.99
874.98	1089.29
875.29	1087.41
875.61	1084.60
875.92	1082.26
876.23	1072.90
876.54	1077.58
876.85	1077.58
877.16	1074.77
877.47	1077.11
877.78	1086.01
878.09	1082.03
878.40	1071.50
878.72	1072.43
879.03	1070.56
879.34	1068.69
879.65	1074.31
879.96	1090.69
880.27	1097.95
880.58	1106.61
880.89	1093.26
881.20	1083.20
881.51	1078.28
881.82	1074.07
882.13	1063.31
882.44	1076.65
882.75	1078.05
883.06	1069.39
883.37	1070.33
883.68	1072.67
883.99	1060.50
884.30	1064.71
884.61	1073.84
884.92	1071.03
885.23	1070.56
885.54	1078.28
885.85	1075.48
886.16	1077.82
886.47	1086.71
886.78	1084.37
887.08	1077.11
887.39	1079.92
887.70	1073.60
888.01	1066.58
888.32	1073.14
888.63	1083.67
888.94	1079.69
889.25	1078.52
889.56	1077.58
889.87	1075.24
890.17	1074.77
890.48	1082.50
890.79	1086.01
891.10	1089.52
891.41	1088.58
891.72	1080.86
892.03	1082.50
892.34	1078.05
892.64	1076.88
892.95	1080.86
893.26	1084.37
893.57	1086.01
893.88	1092.56
894.18	1087.88
894.49	1079.69
894.80	1085.54
895.11	1079.46
895.42	1075.71
895.72	1079.46
896.03	1090.69
896.34	1081.56
896.65	1089.29
896.96	1085.77
897.26	1088.12
897.57	1082.03
897.88	1080.39
898.19	1076.18
898.49	1079.22
898.80	1081.80
899.11	1091.16
899.41	1090.69
899.72	1083.90
900.03	1080.16
900.34	1075.71
900.64	1067.52
900.95	1071.73
901.26	1086.71
901.56	1089.99
901.87	1091.86
902.18	1084.60
902.48	1081.80
902.79	1060.26
903.10	1067.05
903.40	1062.37
903.71	1074.07
904.02	1071.26
904.32	1080.16
904.63	1073.60
904.94	1067.05
905.24	1063.77
905.55	1066.58
905.85	1064.94
906.16	1058.39
906.47	1065.65
906.77	1069.16
907.08	1061.90
907.38	1067.05
907.69	1078.05
908.00	1082.50
908.30	1075.01
908.61	1087.41
908.91	1074.77
909.22	1069.86
909.52	1068.69
909.83	1070.33
910.14	1073.37
910.44	1082.26
910.75	1085.54
911.05	1090.92
911.36	1096.31
911.66	1093.50
911.97	1084.84
912.27	1077.35
912.58	1077.58
912.88	1073.14
913.19	1073.37
913.49	1079.69
913.80	1081.33
914.10	1060.73
914.41	1066.11
914.71	1064.94
915.01	1065.41
915.32	1064.94
915.62	1081.09
915.93	1071.73
916.23	1078.52
916.54	1074.07
916.84	1078.99
917.15	1076.41
917.45	1078.05
917.75	1068.22
918.06	1076.65
918.36	1072.67
918.67	1078.28
918.97	1081.56
919.27	1099.82
919.58	1100.29
919.88	1101.46
920.18	1094.67
920.49	1088.58
920.79	1076.65
921.10	1080.39
921.40	1074.07
921.70	1077.11
922.01	1082.26
922.31	1074.31
922.61	1062.37
922.92	1063.31
923.22	1054.65
923.52	1054.18
923.82	1065.88
924.13	1070.56
924.43	1071.73
924.73	1078.75
925.04	1089.52
925.34	1083.20
925.64	1077.82
925.94	1087.65
926.25	1082.97
926.55	1069.62
926.85	1059.33
927.15	1066.35
927.46	1067.99
927.76	1080.63
928.06	1080.86
928.36	1091.86
928.67	1088.82
928.97	1086.01
929.27	1082.50
929.57	1085.77
929.87	1085.77
930.18	1091.63
930.48	1093.97
930.78	1096.54
931.08	1098.65
931.38	1098.41
931.69	1099.82
931.99	1096.54
932.29	1089.75
932.59	1095.37
932.89	1088.82
933.19	1083.67
933.49	1084.37
933.80	1088.12
934.10	1077.82
934.40	1077.35
934.70	1073.14
935.00	1071.73
935.30	1067.52
935.60	1071.97
935.90	1085.31
936.20	1089.52
936.50	1075.71
936.81	1080.63
937.11	1080.39
937.41	1071.73
937.71	1075.71
938.01	1085.77
938.31	1078.52
938.61	1078.05
938.91	1077.82
939.21	1075.01
939.51	1070.09
939.81	1074.54
940.11	1068.22
940.41	1063.77
940.71	1069.62
941.01	1084.14
941.31	1082.03
941.61	1089.05
941.91	1083.90
942.21	1076.65
942.51	1063.77
942.81	1061.90
943.11	1061.43
943.41	1067.75
943.71	1067.05
944.01	1077.82
944.31	1075.48
944.61	1080.39
944.90	1088.12
945.20	1084.14
945.50	1083.67
945.80	1083.67
946.10	1071.50
946.40	1076.88
946.70	1081.33
947.00	1079.22
947.30	1083.67
947.60	1089.05
947.89	1085.31
948.19	1082.73
948.49	1073.14
948.79	1070.09
949.09	1069.16
949.39	1061.90
949.69	1070.09
949.98	1083.20
950.28	1087.65
950.58	1089.99
950.88	1091.86
951.18	1086.94
951.48	1078.05
951.77	1080.63
952.07	1074.31
952.37	1079.69
952.67	1080.86
952.97	1086.94
953.26	1086.71
953.56	1093.73
953.86	1085.31
954.16	1081.80
954.45	1070.56
954.75	1066.11
955.05	1067.99
955.35	1066.82
955.64	1070.33
955.94	1070.56
956.24	1068.92
956.54	1067.05
956.83	1075.01
957.13	1079.69
957.43	1083.67
957.72	1081.33
958.02	1075.24
958.32	1069.39
958.61	1056.52
958.91	1065.65
959.21	1070.09
959.50	1076.18
959.80	1085.31
960.10	1101.22
960.39	1097.24
960.69	1098.88
960.99	1091.63
961.28	1086.48
961.58	1077.82
961.87	1082.26
962.17	1082.97
962.47	1093.03
962.76	1087.65
963.06	1086.24
963.36	1087.41
963.65	1078.75
963.95	1077.35
964.24	1095.37
964.54	1106.14
964.83	1099.82
965.13	1111.52
965.42	1104.97
965.72	1083.20
966.02	1073.14
966.31	1071.50
966.61	1063.54
966.90	1068.69
967.20	1076.65
967.49	1079.46
967.79	1080.39
968.08	1078.75
968.38	1072.90
968.67	1066.35
968.97	1072.20
969.26	1075.48
969.56	1083.43
969.85	1095.84
970.15	1106.14
970.44	1103.56
970.74	1085.31
971.03	1076.65
971.32	1068.22
971.62	1064.48
971.91	1056.52
972.21	1070.80
972.50	1079.69
972.80	1075.94
973.09	1066.11
973.38	1075.71
973.68	1084.60
973.97	1085.07
974.27	1086.01
974.56	1086.48
974.85	1078.05
975.15	1062.84
975.44	1062.37
975.73	1064.94
976.03	1080.86
976.32	1079.22
976.61	1084.14
976.91	1078.52
977.20	1078.75
977.49	1071.50
977.79	1075.48
978.08	1078.52
978.37	1076.65
978.67	1067.75
978.96	1067.05
979.25	1063.77
979.55	1061.20
979.84	1064.71
980.13	1070.80
980.42	1066.82
980.72	1064.24
981.01	1060.50
981.30	1062.37
981.59	1066.35
981.89	1080.63
982.18	1089.99
982.47	1084.84
982.76	1078.28
983.06	1085.54
983.35	1072.43
983.64	1067.75
983.93	1082.03
984.22	1084.84
984.52	1080.39
984.81	1097.95
985.10	1105.67
985.39	1099.35
985.68	1097.95
985.97	1096.07
986.27	1079.46
986.56	1073.37
986.85	1082.26
987.14	1080.39
987.43	1085.07
987.72	1087.88
988.01	1086.71
988.31	1075.24
988.60	1075.01
988.89	1074.07
989.18	1066.11
989.47	1062.14
989.76	1071.97
990.05	1080.16
990.34	1077.11
990.63	1073.84
990.92	1076.18
991.21	1067.75
991.51	1067.05
991.80	1060.26
992.09	1068.92
992.38	1074.77
992.67	1071.03
992.96	1074.31
993.25	1070.33
993.54	1074.77
993.83	1073.37
994.12	1080.39
994.41	1071.03
994.70	1078.99
994.99	1071.50
995.28	1067.05
995.57	1057.45
995.86	1065.41
996.15	1071.50
996.44	1077.11
996.73	1071.26
997.02	1083.20
997.31	1083.67
997.59	1079.92
997.88	1071.26
998.17	1080.39
998.46	1072.43
998.75	1068.69
999.04	1063.77
999.33	1070.09
999.62	1068.92
999.91	1077.82
1000.20	1079.92
1000.49	1081.33
1000.77	1081.56
1001.06	1085.31
1001.35	1078.99
1001.64	1065.88
1001.93	1071.26
1002.22	1078.52
1002.51	1068.92
1002.79	1075.01
1003.08	1088.58
1003.37	1083.90
1003.66	1084.84
1003.95	1084.84
1004.23	1081.33
1004.52	1084.14
1004.81	1092.80
1005.10	1081.09
1005.39	1095.14
1005.67	1091.63
1005.96	1084.84
1006.25	1079.69
1006.54	1082.26
1006.83	1065.88
1007.11	1075.48
1007.40	1077.11
1007.69	1076.88
1007.97	1080.39
1008.26	1083.90
1008.55	1072.43
1008.84	1069.86
1009.12	1061.67
1009.41	1052.77
1009.70	1064.01
1009.98	1061.67
1010.27	1059.33
1010.56	1070.33
1010.85	1085.07
1011.13	1081.09
1011.42	1094.43
1011.71	1113.16
1011.99	1097.48
1012.28	1089.75
1012.56	1084.37
1012.85	1082.03
1013.14	1066.58
1013.42	1079.22
1013.71	1082.73
1014.00	1083.90
1014.28	1087.41
1014.57	1085.54
1014.85	1078.99
1015.14	1080.39
1015.43	1079.22
1015.71	1060.73
1016.00	1067.52
1016.28	1075.01
1016.57	1071.26
1016.85	1058.39
1017.14	1070.80
1017.43	1070.33
1017.71	1066.11
1018.00	1069.86
1018.28	1090.69
1018.57	1088.82
1018.85	1082.73
1019.14	1086.24
1019.42	1076.88
1019.71	1067.75
1019.99	1067.75
1020.28	1082.50
1020.56	1081.09
1020.85	1085.07
1021.13	1086.24
1021.42	1097.24
1021.70	1082.26
1021.99	1086.71
1022.27	1097.01
1022.55	1105.90
1022.84	1125.80
>>>>>End Processed Spectral Data<<<<<
