SpectraSuite Data File
++++++++++++++++++++++++++++++++++++
Date: Mon Aug 26 10:24:32 PDT 2019
User: corrico
Dark Spectrum Present: No
Reference Spectrum Present: No
Number of Sampled Component Spectra: 1
Spectrometers: USB2+H06089
Integration Time (usec): 10000 (USB2+H06089)
Spectra Averaged: 2 (USB2+H06089)
Boxcar Smoothing: 2 (USB2+H06089)
Correct for Electrical Dark: No (USB2+H06089)
Strobe/Lamp Enabled: No (USB2+H06089)
Correct for Detector Non-linearity: No (USB2+H06089)
Correct for Stray Light: No (USB2+H06089)
Number of Pixels in Processed Spectrum: 2048
>>>>>Begin Processed Spectral Data<<<<<
339.70	1006.43
340.07	1006.43
340.45	978.34
340.82	970.85
341.19	947.68
341.57	918.66
341.94	911.40
342.31	898.30
342.69	884.96
343.06	891.98
343.43	897.13
343.81	904.62
344.18	915.15
344.55	912.81
344.93	907.89
345.30	911.87
345.67	914.21
346.04	924.98
346.42	948.62
346.79	962.19
347.16	981.15
347.54	993.79
347.91	998.71
348.28	992.86
348.65	993.32
349.03	996.60
349.40	990.28
349.77	989.11
350.14	1005.49
350.52	1010.88
350.89	1021.88
351.26	1040.60
351.63	1056.99
352.01	1062.37
352.38	1070.80
352.75	1064.94
353.12	1057.69
353.50	1054.18
353.87	1053.94
354.24	1064.94
354.61	1079.92
354.98	1089.52
355.36	1095.37
355.73	1087.65
356.10	1063.77
356.47	1066.82
356.84	1067.28
357.22	1057.92
357.59	1060.26
357.96	1078.75
358.33	1069.39
358.70	1065.88
359.08	1074.54
359.45	1072.20
359.82	1076.41
360.19	1085.07
360.56	1081.56
360.94	1076.65
361.31	1090.92
361.68	1088.58
362.05	1081.33
362.42	1092.80
362.79	1095.14
363.16	1091.16
363.54	1096.31
363.91	1099.12
364.28	1103.09
364.65	1108.01
365.02	1099.58
365.39	1092.33
365.76	1088.82
366.14	1072.67
366.51	1073.60
366.88	1071.73
367.25	1078.99
367.62	1078.75
367.99	1078.52
368.36	1074.54
368.73	1071.03
369.10	1071.26
369.48	1072.90
369.85	1076.41
370.22	1066.82
370.59	1084.14
370.96	1082.26
371.33	1078.28
371.70	1076.18
372.07	1081.09
372.44	1078.52
372.81	1066.58
373.18	1071.50
373.55	1071.97
373.93	1075.71
374.30	1064.24
374.67	1070.56
375.04	1061.43
375.41	1071.03
375.78	1071.73
376.15	1068.69
376.52	1060.50
376.89	1068.69
377.26	1062.37
377.63	1055.11
378.00	1065.65
378.37	1075.94
378.74	1069.86
379.11	1079.46
379.48	1086.01
379.85	1090.92
380.22	1086.48
380.59	1085.54
380.96	1084.84
381.33	1087.41
381.70	1078.52
382.07	1078.05
382.44	1084.60
382.81	1075.48
383.18	1071.26
383.55	1064.24
383.92	1080.63
384.29	1079.69
384.66	1090.22
385.03	1100.05
385.40	1100.05
385.77	1087.65
386.14	1092.56
386.51	1084.14
386.88	1069.86
387.25	1077.11
387.62	1069.86
387.99	1061.90
388.36	1066.11
388.73	1069.16
389.10	1064.94
389.46	1077.11
389.83	1079.46
390.20	1073.14
390.57	1079.46
390.94	1081.80
391.31	1077.35
391.68	1071.73
392.05	1071.26
392.42	1073.84
392.79	1073.60
393.16	1074.07
393.53	1079.46
393.89	1072.43
394.26	1064.24
394.63	1071.03
395.00	1068.69
395.37	1071.26
395.74	1081.80
396.11	1084.14
396.48	1081.33
396.84	1076.88
397.21	1072.43
397.58	1071.73
397.95	1072.67
398.32	1082.50
398.69	1078.52
399.06	1073.37
399.42	1075.01
399.79	1078.52
400.16	1074.54
400.53	1084.14
400.90	1090.22
401.27	1092.09
401.64	1091.86
402.00	1088.82
402.37	1091.39
402.74	1099.12
403.11	1098.65
403.48	1102.86
403.84	1106.61
404.21	1113.39
404.58	1107.31
404.95	1111.29
405.32	1113.86
405.68	1115.50
406.05	1115.27
406.42	1122.05
406.79	1124.39
407.16	1126.27
407.52	1133.29
407.89	1133.29
408.26	1135.63
408.63	1144.29
408.99	1142.65
409.36	1148.03
409.73	1158.33
410.10	1157.63
410.47	1158.57
410.83	1173.54
411.20	1190.63
411.57	1203.74
411.94	1228.31
412.30	1236.51
412.67	1238.14
413.04	1238.38
413.40	1242.36
413.77	1248.21
414.14	1272.08
414.51	1290.81
414.87	1301.34
415.24	1327.32
415.61	1354.94
415.97	1362.66
416.34	1384.43
416.71	1407.36
417.08	1424.68
417.44	1439.66
417.81	1470.32
418.18	1503.09
418.54	1526.50
418.91	1560.44
419.28	1603.97
419.64	1632.76
420.01	1671.84
420.38	1729.42
420.74	1768.51
421.11	1811.81
421.48	1860.96
421.84	1897.71
422.21	1942.64
422.58	1995.07
422.94	2048.67
423.31	2110.23
423.68	2161.02
424.04	2217.89
424.41	2280.62
424.77	2340.30
425.14	2408.18
425.51	2498.05
425.87	2554.93
426.24	2634.04
426.61	2711.28
426.97	2820.81
427.34	2924.97
427.70	3048.78
428.07	3159.26
428.44	3273.71
428.80	3375.29
429.17	3484.36
429.53	3615.19
429.90	3747.67
430.27	3860.25
430.63	3975.63
431.00	4109.28
431.36	4231.69
431.73	4358.08
432.09	4495.23
432.46	4631.69
432.83	4753.16
433.19	4880.72
433.56	5001.49
433.92	5170.01
434.29	5290.08
434.65	5407.34
435.02	5533.03
435.38	5654.97
435.75	5726.59
436.11	5855.08
436.48	5981.71
436.84	6084.92
437.21	6157.72
437.57	6226.76
437.94	6269.12
438.30	6290.19
438.67	6284.10
439.03	6323.89
439.40	6327.40
439.76	6284.81
440.13	6232.14
440.49	6204.06
440.86	6113.71
441.22	6053.80
441.59	6006.05
441.95	5918.51
442.32	5830.04
442.68	5724.01
443.05	5615.18
443.41	5498.85
443.78	5421.38
444.14	5283.06
444.51	5183.12
444.87	5093.94
445.24	4969.19
445.60	4871.12
445.96	4768.61
446.33	4675.22
446.69	4548.13
447.06	4449.59
447.42	4327.88
447.79	4217.18
448.15	4118.87
448.51	4033.45
448.88	3974.00
449.24	3897.93
449.61	3852.99
449.97	3779.50
450.33	3694.54
450.70	3610.98
451.06	3542.17
451.43	3457.21
451.79	3398.46
452.15	3347.90
452.52	3287.75
452.88	3211.68
453.24	3147.32
453.61	3080.38
453.97	3014.61
454.34	2948.61
454.70	2903.90
455.06	2870.67
455.43	2821.52
455.79	2757.39
456.15	2701.68
456.52	2642.46
456.88	2584.89
457.24	2522.63
457.61	2479.80
457.97	2434.39
458.33	2379.86
458.70	2327.19
459.06	2276.41
459.42	2244.81
459.79	2193.32
460.15	2165.93
460.51	2129.19
460.88	2092.20
461.24	2039.54
461.60	2012.16
461.96	1979.86
462.33	1955.05
462.69	1930.24
463.05	1894.66
463.42	1879.22
463.78	1844.81
464.14	1814.38
464.50	1786.53
464.87	1779.74
465.23	1733.17
465.59	1711.17
465.95	1694.78
466.32	1679.80
466.68	1665.06
467.04	1668.80
467.40	1658.74
467.77	1634.86
468.13	1617.31
468.49	1594.14
468.85	1553.65
469.22	1537.73
469.58	1539.14
469.94	1526.50
470.30	1524.16
470.66	1533.28
471.03	1520.65
471.39	1500.05
471.75	1497.94
472.11	1485.54
472.47	1469.86
472.84	1462.83
473.20	1445.28
473.56	1424.22
473.92	1398.94
474.28	1388.64
474.65	1373.19
475.01	1365.23
475.37	1358.45
475.73	1363.13
476.09	1366.40
476.45	1360.79
476.81	1366.40
477.18	1363.13
477.54	1358.68
477.90	1344.87
478.26	1335.51
478.62	1318.42
478.98	1310.23
479.34	1299.47
479.71	1293.85
480.07	1289.64
480.43	1285.66
480.79	1276.76
481.15	1278.63
481.51	1281.68
481.87	1277.00
482.23	1275.83
482.59	1277.70
482.96	1269.97
483.32	1252.42
483.68	1264.12
484.04	1263.42
484.40	1249.61
484.76	1245.16
485.12	1252.89
485.48	1242.12
485.84	1232.29
486.20	1233.93
486.56	1236.97
486.92	1234.63
487.28	1229.02
487.64	1228.55
488.00	1230.19
488.37	1227.85
488.73	1226.21
489.09	1218.25
489.45	1210.06
489.81	1203.74
490.17	1184.78
490.53	1171.91
490.89	1175.18
491.25	1163.25
491.61	1171.67
491.97	1181.27
492.33	1187.59
492.69	1180.10
493.05	1186.18
493.41	1181.03
493.77	1170.74
494.13	1168.40
494.49	1160.44
494.85	1160.67
495.21	1156.93
495.57	1153.42
495.93	1144.05
496.29	1143.82
496.64	1151.08
497.00	1148.97
497.36	1152.01
497.72	1153.18
498.08	1153.88
498.44	1145.22
498.80	1142.42
499.16	1138.90
499.52	1146.39
499.88	1130.95
500.24	1111.05
500.60	1094.90
500.96	1092.80
501.32	1076.88
501.68	1090.92
502.03	1109.65
502.39	1113.63
502.75	1114.80
503.11	1115.50
503.47	1114.80
503.83	1113.16
504.19	1117.61
504.55	1112.46
504.91	1108.48
505.26	1112.22
505.62	1112.69
505.98	1119.01
506.34	1113.16
506.70	1125.80
507.06	1117.84
507.42	1113.39
507.78	1109.18
508.13	1121.82
508.49	1119.95
508.85	1125.80
509.21	1123.69
509.57	1119.01
509.93	1116.44
510.28	1117.61
510.64	1119.95
511.00	1124.16
511.36	1122.75
511.72	1120.41
512.07	1113.63
512.43	1109.18
512.79	1098.41
513.15	1096.78
513.51	1090.22
513.86	1082.97
514.22	1089.75
514.58	1101.92
514.94	1106.14
515.30	1105.44
515.65	1102.63
516.01	1088.35
516.37	1088.12
516.73	1085.54
517.08	1090.69
517.44	1097.48
517.80	1111.75
518.16	1101.92
518.51	1100.52
518.87	1101.92
519.23	1106.37
519.59	1099.12
519.94	1104.73
520.30	1106.14
520.66	1098.88
521.01	1093.73
521.37	1091.39
521.73	1083.20
522.09	1085.77
522.44	1093.73
522.80	1098.18
523.16	1096.31
523.51	1097.95
523.87	1089.29
524.23	1082.26
524.58	1073.14
524.94	1081.56
525.30	1082.50
525.65	1086.24
526.01	1084.37
526.37	1091.86
526.72	1086.94
527.08	1089.75
527.44	1091.86
527.79	1090.46
528.15	1085.07
528.51	1079.22
528.86	1083.20
529.22	1084.84
529.58	1094.43
529.93	1097.24
530.29	1092.80
530.65	1092.09
531.00	1086.01
531.36	1078.28
531.71	1092.33
532.07	1090.46
532.43	1086.48
532.78	1091.16
533.14	1094.90
533.49	1078.75
533.85	1094.67
534.21	1103.56
534.56	1096.07
534.92	1093.73
535.27	1092.80
535.63	1093.26
535.98	1086.24
536.34	1092.56
536.69	1094.20
537.05	1096.54
537.41	1088.58
537.76	1086.24
538.12	1087.88
538.47	1092.33
538.83	1104.73
539.18	1106.61
539.54	1103.09
539.89	1095.37
540.25	1093.97
540.60	1079.69
540.96	1072.90
541.31	1079.22
541.67	1086.01
542.02	1077.11
542.38	1078.52
542.73	1086.24
543.09	1090.46
543.44	1093.97
543.80	1096.54
544.15	1090.92
544.51	1082.50
544.86	1084.37
545.22	1079.46
545.57	1080.39
545.93	1084.84
546.28	1087.41
546.64	1082.26
546.99	1092.33
547.35	1097.71
547.70	1111.52
548.05	1122.05
548.41	1121.58
548.76	1104.03
549.12	1101.69
549.47	1090.92
549.83	1082.50
550.18	1081.33
550.53	1082.03
550.89	1079.46
551.24	1071.73
551.60	1073.84
551.95	1068.45
552.30	1075.48
552.66	1077.11
553.01	1080.16
553.37	1088.82
553.72	1098.18
554.07	1102.63
554.43	1102.86
554.78	1111.29
555.13	1103.09
555.49	1095.60
555.84	1086.01
556.19	1087.65
556.55	1086.71
556.90	1084.14
557.26	1093.26
557.61	1102.39
557.96	1103.09
558.32	1100.05
558.67	1108.01
559.02	1097.95
559.37	1094.67
559.73	1088.82
560.08	1088.58
560.43	1081.09
560.79	1088.82
561.14	1094.67
561.49	1098.41
561.85	1093.97
562.20	1095.37
562.55	1086.24
562.90	1082.73
563.26	1080.63
563.61	1081.56
563.96	1077.35
564.32	1070.56
564.67	1066.82
565.02	1057.92
565.37	1057.22
565.73	1058.62
566.08	1064.24
566.43	1058.62
566.78	1073.60
567.14	1082.73
567.49	1083.90
567.84	1086.24
568.19	1089.52
568.54	1081.33
568.90	1070.33
569.25	1073.60
569.60	1075.71
569.95	1082.50
570.31	1085.77
570.66	1088.58
571.01	1087.18
571.36	1087.65
571.71	1080.63
572.06	1081.33
572.42	1077.82
572.77	1073.14
573.12	1078.52
573.47	1088.12
573.82	1092.56
574.18	1087.41
574.53	1096.31
574.88	1097.48
575.23	1077.11
575.58	1072.67
575.93	1082.50
576.28	1079.46
576.64	1074.77
576.99	1090.22
577.34	1087.41
577.69	1090.69
578.04	1087.88
578.39	1094.20
578.74	1087.88
579.09	1094.43
579.44	1094.43
579.80	1095.84
580.15	1090.69
580.50	1091.63
580.85	1093.73
581.20	1086.48
581.55	1079.69
581.90	1072.20
582.25	1076.18
582.60	1062.60
582.95	1066.82
583.30	1067.05
583.65	1064.24
584.00	1067.99
584.35	1075.94
584.71	1082.26
585.06	1090.22
585.41	1089.99
585.76	1089.29
586.11	1089.75
586.46	1074.54
586.81	1074.07
587.16	1092.33
587.51	1081.33
587.86	1083.67
588.21	1090.69
588.56	1095.60
588.91	1089.29
589.26	1098.41
589.61	1091.16
589.96	1096.78
590.31	1091.63
590.66	1094.20
591.01	1083.43
591.36	1083.43
591.71	1081.33
592.06	1088.35
592.41	1080.63
592.76	1094.20
593.10	1093.97
593.45	1087.18
593.80	1069.16
594.15	1066.58
594.50	1057.92
594.85	1053.01
595.20	1053.01
595.55	1062.84
595.90	1063.77
596.25	1067.75
596.60	1071.26
596.95	1078.75
597.30	1076.18
597.64	1117.61
597.99	1107.78
598.34	1110.82
598.69	1103.09
599.04	1102.16
599.39	1061.43
599.74	1064.24
600.09	1067.99
600.44	1074.31
600.78	1075.94
601.13	1075.94
601.48	1080.86
601.83	1080.39
602.18	1081.56
602.53	1083.90
602.88	1082.97
603.22	1082.50
603.57	1078.75
603.92	1076.65
604.27	1071.73
604.62	1071.50
604.97	1071.50
605.31	1070.33
605.66	1075.94
606.01	1073.60
606.36	1083.20
606.71	1080.16
607.05	1088.82
607.40	1086.48
607.75	1085.54
608.10	1082.03
608.44	1091.86
608.79	1086.48
609.14	1078.52
609.49	1086.01
609.84	1079.46
610.18	1076.88
610.53	1071.26
610.88	1085.31
611.23	1090.22
611.57	1096.54
611.92	1098.18
612.27	1109.88
612.62	1112.92
612.96	1113.39
613.31	1104.97
613.66	1091.39
614.00	1090.22
614.35	1071.97
614.70	1065.41
615.05	1067.28
615.39	1071.73
615.74	1063.07
616.09	1072.20
616.43	1072.20
616.78	1080.63
617.13	1085.54
617.47	1087.18
617.82	1083.90
618.17	1083.67
618.51	1079.92
618.86	1078.99
619.21	1080.16
619.55	1077.35
619.90	1071.03
620.25	1071.26
620.59	1065.41
620.94	1068.92
621.29	1082.97
621.63	1089.05
621.98	1097.01
622.32	1104.73
622.67	1099.82
623.02	1091.16
623.36	1092.56
623.71	1086.01
624.05	1085.31
624.40	1082.73
624.75	1082.73
625.09	1078.99
625.44	1070.33
625.78	1072.20
626.13	1080.86
626.48	1078.99
626.82	1077.58
627.17	1079.92
627.51	1081.33
627.86	1090.22
628.20	1088.35
628.55	1089.99
628.89	1098.41
629.24	1097.01
629.58	1087.18
629.93	1084.84
630.28	1091.86
630.62	1078.99
630.97	1074.54
631.31	1069.62
631.66	1076.65
632.00	1074.07
632.35	1074.77
632.69	1082.03
633.04	1080.63
633.38	1082.26
633.73	1079.46
634.07	1098.65
634.42	1094.90
634.76	1101.92
635.11	1091.39
635.45	1087.41
635.79	1080.16
636.14	1070.80
636.48	1066.82
636.83	1073.84
637.17	1077.58
637.52	1070.56
637.86	1078.99
638.21	1082.97
638.55	1078.28
638.89	1082.03
639.24	1083.43
639.58	1089.05
639.93	1086.24
640.27	1093.26
640.61	1092.33
640.96	1094.43
641.30	1080.86
641.65	1080.63
641.99	1073.84
642.33	1069.86
642.68	1079.92
643.02	1081.56
643.37	1078.99
643.71	1083.43
644.05	1081.33
644.40	1061.67
644.74	1077.82
645.08	1082.03
645.43	1088.82
645.77	1097.95
646.11	1103.33
646.46	1084.84
646.80	1079.22
647.14	1067.52
647.49	1065.41
647.83	1065.41
648.17	1076.18
648.52	1083.90
648.86	1095.14
649.20	1092.56
649.55	1098.41
649.89	1093.50
650.23	1092.33
650.57	1083.67
650.92	1081.80
651.26	1079.69
651.60	1081.56
651.95	1081.33
652.29	1076.41
652.63	1076.41
652.97	1068.22
653.32	1068.92
653.66	1073.37
654.00	1069.86
654.34	1079.92
654.69	1092.80
655.03	1092.09
655.37	1080.86
655.71	1089.29
656.05	1080.63
656.40	1073.37
656.74	1066.11
657.08	1071.03
657.42	1068.69
657.76	1070.09
658.11	1075.24
658.45	1077.82
658.79	1077.82
659.13	1084.14
659.47	1076.88
659.82	1066.58
660.16	1065.18
660.50	1059.79
660.84	1054.65
661.18	1061.67
661.52	1064.48
661.87	1069.62
662.21	1063.54
662.55	1070.33
662.89	1059.56
663.23	1049.26
663.57	1053.94
663.91	1053.01
664.25	1036.16
664.60	1052.77
664.94	1068.22
665.28	1063.77
665.62	1071.97
665.96	1074.31
666.30	1072.43
666.64	1078.05
666.98	1074.54
667.32	1076.65
667.66	1092.09
668.01	1084.37
668.35	1074.07
668.69	1082.03
669.03	1079.46
669.37	1075.48
669.71	1078.75
670.05	1089.05
670.39	1086.94
670.73	1096.07
671.07	1103.09
671.41	1100.52
671.75	1086.94
672.09	1085.31
672.43	1073.14
672.77	1061.90
673.11	1067.52
673.45	1086.94
673.79	1101.46
674.13	1114.80
674.47	1113.86
674.81	1102.86
675.15	1085.07
675.49	1078.99
675.83	1070.80
676.17	1078.52
676.51	1089.75
676.85	1087.18
677.19	1086.01
677.53	1082.73
677.87	1077.11
678.21	1077.35
678.55	1089.29
678.89	1077.11
679.23	1072.90
679.57	1065.88
679.90	1072.43
680.24	1067.52
680.58	1074.31
680.92	1092.09
681.26	1100.99
681.60	1092.33
681.94	1100.75
682.28	1099.12
682.62	1093.26
682.96	1103.09
683.29	1103.09
683.63	1097.01
683.97	1084.60
684.31	1085.31
684.65	1078.99
684.99	1077.35
685.33	1082.26
685.67	1093.26
686.00	1091.63
686.34	1086.94
686.68	1081.33
687.02	1081.33
687.36	1076.18
687.70	1075.24
688.03	1070.80
688.37	1083.90
688.71	1079.22
689.05	1089.05
689.39	1091.86
689.72	1100.29
690.06	1092.80
690.40	1095.60
690.74	1099.35
691.08	1096.78
691.41	1089.99
691.75	1084.60
692.09	1074.77
692.43	1055.82
692.76	1056.05
693.10	1061.67
693.44	1069.86
693.78	1077.35
694.11	1088.58
694.45	1090.46
694.79	1084.37
695.13	1074.31
695.46	1064.01
695.80	1068.92
696.14	1064.01
696.48	1072.67
696.81	1086.48
697.15	1097.95
697.49	1096.78
697.82	1100.99
698.16	1081.56
698.50	1075.01
698.83	1062.14
699.17	1058.62
699.51	1059.33
699.84	1075.71
700.18	1083.20
700.52	1095.37
700.85	1101.22
701.19	1100.52
701.53	1100.05
701.86	1086.48
702.20	1083.67
702.54	1084.37
702.87	1089.75
703.21	1096.07
703.55	1102.86
703.88	1096.07
704.22	1091.86
704.55	1083.90
704.89	1082.03
705.23	1075.24
705.56	1083.43
705.90	1081.80
706.23	1078.75
706.57	1080.63
706.91	1085.77
707.24	1078.75
707.58	1072.20
707.91	1090.69
708.25	1088.35
708.58	1085.54
708.92	1099.82
709.26	1104.73
709.59	1091.86
709.93	1085.31
710.26	1086.24
710.60	1076.65
710.93	1075.94
711.27	1074.54
711.60	1072.43
711.94	1065.18
712.27	1064.48
712.61	1059.79
712.94	1054.41
713.28	1056.28
713.61	1065.18
713.95	1056.52
714.28	1061.43
714.62	1060.96
714.95	1061.43
715.29	1054.88
715.62	1061.43
715.96	1060.03
716.29	1059.33
716.63	1066.82
716.96	1071.50
717.29	1075.01
717.63	1078.05
717.96	1084.37
718.30	1075.01
718.63	1066.11
718.97	1066.11
719.30	1064.24
719.63	1071.26
719.97	1079.69
720.30	1085.31
720.64	1090.69
720.97	1103.33
721.30	1098.18
721.64	1087.18
721.97	1099.12
722.31	1095.37
722.64	1089.75
722.97	1083.20
723.31	1092.56
723.64	1086.48
723.97	1087.88
724.31	1079.22
724.64	1086.24
724.98	1069.16
725.31	1063.31
725.64	1068.69
725.98	1063.07
726.31	1061.20
726.64	1069.86
726.97	1081.80
727.31	1080.63
727.64	1086.01
727.97	1081.56
728.31	1086.48
728.64	1083.67
728.97	1082.97
729.31	1086.24
729.64	1083.67
729.97	1072.20
730.30	1073.84
730.64	1065.88
730.97	1064.24
731.30	1067.75
731.63	1071.73
731.97	1069.16
732.30	1071.26
732.63	1068.69
732.96	1070.33
733.30	1068.45
733.63	1064.71
733.96	1064.71
734.29	1059.09
734.63	1063.31
734.96	1069.39
735.29	1081.09
735.62	1080.39
735.95	1088.12
736.29	1082.97
736.62	1089.99
736.95	1074.31
737.28	1072.90
737.61	1069.62
737.94	1077.82
738.28	1059.33
738.61	1067.52
738.94	1072.67
739.27	1073.60
739.60	1064.24
739.93	1078.28
740.27	1080.86
740.60	1074.31
740.93	1081.80
741.26	1091.39
741.59	1091.16
741.92	1091.86
742.25	1091.86
742.58	1092.33
742.91	1082.73
743.25	1076.65
743.58	1068.92
743.91	1063.07
744.24	1062.14
744.57	1064.71
744.90	1069.39
745.23	1071.50
745.56	1080.63
745.89	1072.67
746.22	1065.18
746.55	1068.92
746.88	1067.75
747.21	1076.88
747.54	1085.77
747.87	1095.84
748.20	1092.80
748.53	1092.56
748.87	1078.52
749.20	1091.16
749.53	1082.73
749.86	1081.33
750.19	1075.24
750.52	1087.18
750.85	1073.60
751.18	1084.37
751.51	1089.52
751.84	1096.78
752.16	1088.12
752.49	1083.20
752.82	1073.60
753.15	1062.37
753.48	1060.03
753.81	1069.39
754.14	1072.90
754.47	1081.56
754.80	1092.56
755.13	1088.12
755.46	1076.88
755.79	1076.65
756.12	1082.26
756.45	1079.22
756.78	1078.05
757.11	1089.75
757.43	1087.88
757.76	1075.24
758.09	1071.97
758.42	1077.58
758.75	1066.11
759.08	1077.11
759.41	1082.97
759.74	1091.86
760.07	1101.69
760.39	1102.39
760.72	1083.43
761.05	1082.26
761.38	1079.46
761.71	1074.31
762.04	1082.03
762.36	1087.41
762.69	1089.99
763.02	1091.39
763.35	1093.03
763.68	1100.05
764.01	1112.22
764.33	1103.56
764.66	1101.22
764.99	1090.46
765.32	1078.75
765.65	1078.99
765.97	1084.60
766.30	1086.94
766.63	1088.12
766.96	1087.88
767.28	1083.67
767.61	1084.60
767.94	1082.50
768.27	1082.97
768.59	1080.39
768.92	1084.84
769.25	1089.99
769.58	1092.80
769.90	1094.43
770.23	1098.88
770.56	1095.60
770.89	1091.86
771.21	1094.90
771.54	1102.39
771.87	1097.71
772.19	1088.82
772.52	1090.69
772.85	1077.11
773.17	1077.58
773.50	1080.63
773.83	1081.56
774.15	1076.41
774.48	1077.35
774.81	1072.90
775.13	1073.60
775.46	1082.03
775.79	1077.35
776.11	1078.75
776.44	1080.16
776.77	1073.14
777.09	1070.56
777.42	1075.71
777.74	1082.73
778.07	1080.63
778.40	1083.90
778.72	1078.52
779.05	1076.65
779.37	1071.50
779.70	1072.67
780.03	1071.26
780.35	1068.45
780.68	1066.11
781.00	1064.01
781.33	1066.35
781.65	1065.18
781.98	1074.77
782.31	1078.52
782.63	1080.16
782.96	1074.77
783.28	1078.28
783.61	1083.20
783.93	1088.82
784.26	1086.01
784.58	1094.67
784.91	1110.12
785.23	1107.54
785.56	1096.31
785.88	1097.71
786.21	1094.20
786.53	1078.52
786.86	1067.99
787.18	1064.24
787.51	1068.22
787.83	1069.62
788.16	1074.77
788.48	1071.50
788.81	1079.69
789.13	1074.07
789.46	1068.22
789.78	1059.79
790.10	1068.22
790.43	1069.16
790.75	1078.05
791.08	1086.01
791.40	1092.80
791.73	1101.92
792.05	1095.84
792.37	1087.41
792.70	1072.43
793.02	1064.94
793.35	1052.54
793.67	1059.09
793.99	1068.92
794.32	1077.58
794.64	1082.26
794.96	1085.54
795.29	1087.88
795.61	1082.03
795.93	1077.82
796.26	1085.77
796.58	1076.88
796.91	1072.43
797.23	1074.07
797.55	1075.48
797.87	1070.33
798.20	1080.86
798.52	1072.67
798.84	1072.67
799.17	1065.65
799.49	1069.62
799.81	1065.88
800.14	1078.28
800.46	1078.28
800.78	1097.71
801.10	1100.29
801.43	1096.54
801.75	1096.78
802.07	1093.50
802.40	1085.07
802.72	1074.54
803.04	1079.92
803.36	1079.46
803.69	1085.31
804.01	1082.73
804.33	1078.05
804.65	1074.54
804.97	1074.07
805.30	1073.37
805.62	1074.07
805.94	1093.73
806.26	1102.16
806.58	1097.95
806.91	1108.01
807.23	1111.75
807.55	1100.99
807.87	1095.37
808.19	1095.84
808.52	1075.94
808.84	1058.62
809.16	1059.09
809.48	1061.90
809.80	1057.92
810.12	1069.39
810.44	1082.26
810.77	1079.92
811.09	1076.41
811.41	1079.22
811.73	1077.11
812.05	1075.71
812.37	1075.01
812.69	1079.46
813.01	1082.73
813.33	1078.75
813.66	1075.48
813.98	1075.94
814.30	1064.24
814.62	1069.16
814.94	1071.50
815.26	1086.71
815.58	1089.75
815.90	1105.90
816.22	1100.99
816.54	1097.24
816.86	1093.03
817.18	1092.33
817.50	1081.80
817.82	1084.60
818.14	1087.65
818.46	1080.86
818.78	1071.50
819.10	1078.28
819.42	1075.94
819.74	1074.54
820.06	1078.75
820.38	1086.01
820.70	1086.71
821.02	1087.88
821.34	1086.01
821.66	1087.18
821.98	1086.48
822.30	1079.92
822.62	1077.58
822.94	1079.69
823.26	1074.31
823.58	1073.84
823.90	1073.84
824.22	1070.56
824.54	1073.14
824.86	1079.46
825.18	1084.84
825.50	1087.88
825.81	1089.29
826.13	1088.35
826.45	1091.63
826.77	1078.05
827.09	1074.31
827.41	1069.39
827.73	1071.97
828.05	1059.09
828.36	1066.82
828.68	1060.50
829.00	1066.11
829.32	1062.60
829.64	1067.75
829.96	1075.01
830.28	1085.54
830.59	1078.28
830.91	1078.52
831.23	1078.75
831.55	1070.80
831.87	1061.67
832.19	1067.75
832.50	1068.69
832.82	1063.31
833.14	1059.09
833.46	1062.37
833.78	1058.16
834.09	1061.90
834.41	1072.20
834.73	1080.39
835.05	1093.03
835.36	1104.03
835.68	1099.12
836.00	1095.84
836.32	1095.84
836.63	1080.16
836.95	1079.92
837.27	1077.11
837.59	1075.48
837.90	1064.24
838.22	1070.80
838.54	1065.41
838.85	1071.97
839.17	1074.07
839.49	1088.35
839.80	1099.82
840.12	1108.01
840.44	1104.03
840.76	1110.82
841.07	1103.33
841.39	1101.22
841.71	1087.88
842.02	1085.54
842.34	1071.97
842.65	1079.92
842.97	1075.48
843.29	1075.48
843.60	1086.71
843.92	1089.29
844.24	1076.65
844.55	1072.67
844.87	1077.35
845.18	1066.11
845.50	1062.60
845.82	1065.18
846.13	1072.43
846.45	1076.41
846.76	1083.20
847.08	1086.94
847.40	1082.03
847.71	1068.22
848.03	1063.31
848.34	1056.52
848.66	1062.84
848.97	1068.22
849.29	1073.14
849.60	1076.88
849.92	1092.80
850.24	1091.16
850.55	1090.92
850.87	1083.20
851.18	1088.82
851.50	1068.45
851.81	1065.88
852.13	1077.35
852.44	1090.46
852.76	1085.77
853.07	1096.31
853.39	1096.31
853.70	1098.88
854.01	1084.37
854.33	1088.12
854.64	1089.05
854.96	1083.43
855.27	1074.54
855.59	1081.80
855.90	1082.50
856.22	1074.31
856.53	1076.18
856.84	1071.97
857.16	1078.28
857.47	1078.99
857.79	1081.80
858.10	1086.48
858.41	1095.14
858.73	1095.84
859.04	1075.71
859.36	1076.65
859.67	1070.80
859.98	1066.11
860.30	1061.20
860.61	1078.05
860.92	1074.54
861.24	1090.22
861.55	1101.92
861.87	1100.05
862.18	1099.12
862.49	1108.95
862.81	1099.58
863.12	1080.86
863.43	1077.58
863.74	1075.94
864.06	1064.24
864.37	1058.39
864.68	1066.58
865.00	1074.54
865.31	1075.48
865.62	1078.05
865.94	1079.92
866.25	1077.35
866.56	1084.37
866.87	1088.82
867.19	1092.33
867.50	1099.12
867.81	1093.03
868.12	1079.69
868.44	1064.71
868.75	1068.22
869.06	1057.22
869.37	1067.28
869.68	1068.92
870.00	1075.94
870.31	1082.50
870.62	1091.63
870.93	1083.20
871.24	1095.37
871.56	1099.58
871.87	1095.60
872.18	1086.71
872.49	1093.03
872.80	1087.88
873.12	1079.22
873.43	1060.50
873.74	1066.58
874.05	1074.31
874.36	1067.75
874.67	1076.88
874.98	1089.75
875.29	1088.12
875.61	1075.24
875.92	1079.46
876.23	1080.16
876.54	1083.20
876.85	1084.14
877.16	1086.71
877.47	1081.09
877.78	1069.62
878.09	1057.22
878.40	1060.50
878.72	1049.96
879.03	1053.94
879.34	1061.90
879.65	1066.82
879.96	1069.16
880.27	1087.88
880.58	1085.54
880.89	1084.60
881.20	1094.90
881.51	1096.54
881.82	1088.58
882.13	1083.20
882.44	1074.77
882.75	1069.86
883.06	1071.97
883.37	1067.52
883.68	1067.05
883.99	1074.31
884.30	1058.16
884.61	1043.18
884.92	1044.58
885.23	1047.39
885.54	1047.62
885.85	1062.84
886.16	1050.67
886.47	1058.62
886.78	1062.60
887.08	1059.33
887.39	1066.58
887.70	1088.58
888.01	1088.82
888.32	1093.73
888.63	1098.18
888.94	1087.65
889.25	1082.73
889.56	1076.88
889.87	1081.56
890.17	1083.67
890.48	1086.94
890.79	1080.86
891.10	1077.35
891.41	1072.67
891.72	1068.22
892.03	1070.80
892.34	1073.37
892.64	1073.84
892.95	1067.99
893.26	1066.35
893.57	1061.67
893.88	1069.62
894.18	1066.58
894.49	1064.94
894.80	1066.82
895.11	1060.50
895.42	1064.01
895.72	1072.90
896.03	1075.01
896.34	1075.71
896.65	1078.28
896.96	1065.88
897.26	1064.71
897.57	1070.09
897.88	1077.11
898.19	1070.33
898.49	1075.01
898.80	1065.65
899.11	1056.75
899.41	1045.52
899.72	1062.37
900.03	1064.01
900.34	1076.88
900.64	1082.03
900.95	1092.56
901.26	1088.58
901.56	1082.03
901.87	1078.05
902.18	1075.24
902.48	1076.18
902.79	1076.41
903.10	1074.54
903.40	1071.26
903.71	1078.75
904.02	1067.99
904.32	1066.11
904.63	1082.26
904.94	1090.46
905.24	1085.54
905.55	1091.39
905.85	1092.33
906.16	1088.58
906.47	1068.45
906.77	1053.48
907.08	1056.05
907.38	1058.16
907.69	1058.39
908.00	1069.16
908.30	1093.97
908.61	1088.58
908.91	1090.22
909.22	1089.29
909.52	1096.07
909.83	1082.26
910.14	1087.88
910.44	1088.58
910.75	1078.52
911.05	1086.94
911.36	1090.22
911.66	1083.90
911.97	1089.52
912.27	1104.26
912.58	1102.63
912.88	1107.07
913.19	1103.09
913.49	1085.54
913.80	1085.07
914.10	1073.84
914.41	1076.88
914.71	1082.50
915.01	1096.31
915.32	1086.01
915.62	1082.73
915.93	1080.63
916.23	1074.77
916.54	1067.05
916.84	1063.77
917.15	1073.84
917.45	1063.54
917.75	1078.75
918.06	1078.52
918.36	1079.22
918.67	1068.69
918.97	1075.94
919.27	1069.62
919.58	1072.90
919.88	1071.73
920.18	1081.09
920.49	1088.58
920.79	1088.82
921.10	1093.26
921.40	1100.99
921.70	1098.88
922.01	1094.67
922.31	1094.20
922.61	1087.18
922.92	1091.16
923.22	1094.90
923.52	1083.67
923.82	1084.37
924.13	1083.67
924.43	1083.43
924.73	1081.09
925.04	1086.71
925.34	1084.60
925.64	1079.46
925.94	1075.71
926.25	1073.14
926.55	1069.62
926.85	1074.31
927.15	1092.56
927.46	1089.05
927.76	1081.09
928.06	1088.12
928.36	1083.90
928.67	1075.94
928.97	1077.58
929.27	1087.18
929.57	1077.58
929.87	1070.80
930.18	1066.11
930.48	1065.65
930.78	1062.37
931.08	1066.11
931.38	1076.41
931.69	1072.20
931.99	1074.54
932.29	1066.82
932.59	1070.80
932.89	1056.99
933.19	1057.45
933.49	1055.35
933.80	1066.58
934.10	1065.41
934.40	1071.50
934.70	1066.35
935.00	1061.43
935.30	1063.31
935.60	1066.58
935.90	1069.62
936.20	1085.07
936.50	1082.50
936.81	1081.33
937.11	1076.88
937.41	1070.80
937.71	1068.92
938.01	1081.33
938.31	1080.16
938.61	1083.67
938.91	1094.67
939.21	1090.69
939.51	1101.92
939.81	1103.56
940.11	1099.12
940.41	1090.69
940.71	1083.43
941.01	1056.75
941.31	1056.28
941.61	1054.41
941.91	1058.62
942.21	1058.16
942.51	1061.67
942.81	1069.39
943.11	1077.11
943.41	1079.22
943.71	1087.41
944.01	1099.58
944.31	1084.37
944.61	1083.20
944.90	1080.39
945.20	1078.28
945.50	1076.65
945.80	1089.52
946.10	1092.33
946.40	1094.43
946.70	1092.09
947.00	1087.88
947.30	1075.24
947.60	1071.03
947.89	1066.82
948.19	1072.43
948.49	1071.73
948.79	1080.86
949.09	1083.67
949.39	1087.88
949.69	1086.24
949.98	1094.67
950.28	1092.56
950.58	1084.84
950.88	1084.60
951.18	1077.82
951.48	1075.48
951.77	1076.41
952.07	1084.14
952.37	1082.50
952.67	1090.46
952.97	1091.63
953.26	1092.80
953.56	1088.12
953.86	1085.07
954.16	1084.37
954.45	1075.94
954.75	1079.46
955.05	1082.73
955.35	1082.26
955.64	1078.28
955.94	1079.22
956.24	1065.88
956.54	1074.77
956.83	1075.48
957.13	1067.52
957.43	1078.28
957.72	1078.05
958.02	1068.22
958.32	1075.94
958.61	1088.12
958.91	1073.60
959.21	1084.60
959.50	1088.82
959.80	1088.12
960.10	1078.05
960.39	1086.94
960.69	1078.05
960.99	1075.94
961.28	1081.33
961.58	1086.48
961.87	1084.84
962.17	1088.35
962.47	1091.16
962.76	1078.99
963.06	1090.22
963.36	1077.35
963.65	1073.37
963.95	1069.86
964.24	1081.09
964.54	1078.99
964.83	1091.39
965.13	1089.52
965.42	1084.14
965.72	1076.88
966.02	1069.16
966.31	1068.22
966.61	1081.80
966.90	1094.67
967.20	1086.94
967.49	1095.60
967.79	1104.26
968.08	1099.82
968.38	1095.84
968.67	1100.52
968.97	1093.26
969.26	1094.67
969.56	1083.20
969.85	1067.99
970.15	1068.22
970.44	1061.67
970.74	1065.88
971.03	1071.03
971.32	1077.82
971.62	1075.01
971.91	1084.14
972.21	1074.31
972.50	1078.28
972.80	1074.54
973.09	1077.35
973.38	1078.05
973.68	1069.62
973.97	1070.09
974.27	1076.88
974.56	1078.75
974.85	1078.75
975.15	1083.43
975.44	1084.14
975.73	1083.20
976.03	1077.11
976.32	1077.11
976.61	1074.31
976.91	1072.20
977.20	1070.56
977.49	1079.46
977.79	1076.41
978.08	1078.52
978.37	1076.88
978.67	1080.39
978.96	1077.82
979.25	1079.22
979.55	1082.03
979.84	1084.37
980.13	1080.86
980.42	1076.65
980.72	1073.60
981.01	1075.01
981.30	1076.65
981.59	1085.77
981.89	1082.26
982.18	1080.39
982.47	1078.99
982.76	1078.52
983.06	1068.69
983.35	1079.92
983.64	1078.75
983.93	1073.84
984.22	1078.05
984.52	1083.43
984.81	1072.67
985.10	1077.11
985.39	1077.35
985.68	1075.94
985.97	1067.75
986.27	1070.56
986.56	1081.33
986.85	1082.50
987.14	1068.45
987.43	1068.22
987.72	1072.20
988.01	1062.14
988.31	1063.54
988.60	1077.82
988.89	1086.94
989.18	1088.12
989.47	1082.97
989.76	1092.09
990.05	1087.88
990.34	1083.90
990.63	1089.75
990.92	1083.20
991.21	1080.16
991.51	1082.26
991.80	1090.92
992.09	1074.07
992.38	1084.60
992.67	1068.45
992.96	1057.22
993.25	1047.39
993.54	1051.84
993.83	1048.79
994.12	1062.37
994.41	1071.26
994.70	1066.35
994.99	1066.35
995.28	1072.20
995.57	1060.96
995.86	1064.48
996.15	1065.65
996.44	1072.90
996.73	1075.24
997.02	1080.39
997.31	1076.88
997.59	1084.84
997.88	1085.54
998.17	1075.01
998.46	1087.18
998.75	1084.37
999.04	1086.94
999.33	1088.82
999.62	1098.41
999.91	1085.54
1000.20	1094.43
1000.49	1088.82
1000.77	1082.97
1001.06	1077.35
1001.35	1083.67
1001.64	1077.58
1001.93	1073.84
1002.22	1074.77
1002.51	1074.77
1002.79	1072.90
1003.08	1068.45
1003.37	1069.39
1003.66	1069.16
1003.95	1079.46
1004.23	1076.18
1004.52	1080.63
1004.81	1075.94
1005.10	1091.63
1005.39	1083.90
1005.67	1083.43
1005.96	1087.41
1006.25	1099.58
1006.54	1075.94
1006.83	1062.60
1007.11	1064.71
1007.40	1059.56
1007.69	1053.94
1007.97	1064.71
1008.26	1088.12
1008.55	1099.12
1008.84	1100.99
1009.12	1100.52
1009.41	1089.29
1009.70	1079.22
1009.98	1064.01
1010.27	1062.37
1010.56	1068.45
1010.85	1077.11
1011.13	1074.54
1011.42	1077.35
1011.71	1080.16
1011.99	1078.52
1012.28	1081.33
1012.56	1088.35
1012.85	1087.41
1013.14	1086.94
1013.42	1074.07
1013.71	1065.41
1014.00	1064.94
1014.28	1073.60
1014.57	1076.41
1014.85	1080.86
1015.14	1087.41
1015.43	1079.22
1015.71	1069.39
1016.00	1065.65
1016.28	1069.62
1016.57	1063.77
1016.85	1063.31
1017.14	1062.14
1017.43	1071.50
1017.71	1073.84
1018.00	1079.69
1018.28	1092.09
1018.57	1099.58
1018.85	1092.09
1019.14	1095.60
1019.42	1099.82
1019.71	1101.22
1019.99	1092.56
1020.28	1086.01
1020.56	1091.16
1020.85	1088.58
1021.13	1075.01
1021.42	1077.82
1021.70	1089.52
1021.99	1071.73
1022.27	1051.37
1022.55	1038.03
1022.84	985.37
>>>>>End Processed Spectral Data<<<<<
