SpectraSuite Data File
++++++++++++++++++++++++++++++++++++
Date: Mon Aug 26 10:24:30 PDT 2019
User: corrico
Dark Spectrum Present: No
Reference Spectrum Present: No
Number of Sampled Component Spectra: 1
Spectrometers: USB2+H06089
Integration Time (usec): 10000 (USB2+H06089)
Spectra Averaged: 2 (USB2+H06089)
Boxcar Smoothing: 2 (USB2+H06089)
Correct for Electrical Dark: No (USB2+H06089)
Strobe/Lamp Enabled: No (USB2+H06089)
Correct for Detector Non-linearity: No (USB2+H06089)
Correct for Stray Light: No (USB2+H06089)
Number of Pixels in Processed Spectrum: 2048
>>>>>Begin Processed Spectral Data<<<<<
339.70	1052.07
340.07	1052.07
340.45	1005.49
340.82	976.47
341.19	947.92
341.57	925.45
341.94	922.87
342.31	915.15
342.69	916.79
343.06	909.30
343.43	905.55
343.81	892.45
344.18	897.83
344.55	899.47
344.93	904.85
345.30	909.06
345.67	932.24
346.04	939.26
346.42	945.11
346.79	961.73
347.16	967.58
347.54	964.30
347.91	969.45
348.28	979.51
348.65	978.81
349.03	989.58
349.40	1005.03
349.77	1006.43
350.14	1005.26
350.52	1022.11
350.89	1031.01
351.26	1030.30
351.63	1037.09
352.01	1047.16
352.38	1042.24
352.75	1037.33
353.12	1043.18
353.50	1058.39
353.87	1063.31
354.24	1074.31
354.61	1084.60
354.98	1082.26
355.36	1076.88
355.73	1068.69
356.10	1071.26
356.47	1069.86
356.84	1075.48
357.22	1078.05
357.59	1094.67
357.96	1093.73
358.33	1085.54
358.70	1077.11
359.08	1086.01
359.45	1081.80
359.82	1071.73
360.19	1070.09
360.56	1069.62
360.94	1067.05
361.31	1070.56
361.68	1081.56
362.05	1089.52
362.42	1093.03
362.79	1077.35
363.16	1058.62
363.54	1049.50
363.91	1056.28
364.28	1067.75
364.65	1074.54
365.02	1082.03
365.39	1089.52
365.76	1081.80
366.14	1072.43
366.51	1069.86
366.88	1074.77
367.25	1064.48
367.62	1065.41
367.99	1065.88
368.36	1065.41
368.73	1066.35
369.10	1069.39
369.48	1067.05
369.85	1068.22
370.22	1071.50
370.59	1072.20
370.96	1072.67
371.33	1072.43
371.70	1068.92
372.07	1069.62
372.44	1063.77
372.81	1055.82
373.18	1056.52
373.55	1067.75
373.93	1060.73
374.30	1056.05
374.67	1065.88
375.04	1060.03
375.41	1054.41
375.78	1062.14
376.15	1069.39
376.52	1063.77
376.89	1068.69
377.26	1068.69
377.63	1064.48
378.00	1056.28
378.37	1058.86
378.74	1059.79
379.11	1057.92
379.48	1059.79
379.85	1068.45
380.22	1070.33
380.59	1064.24
380.96	1071.97
381.33	1074.54
381.70	1075.71
382.07	1078.28
382.44	1081.33
382.81	1067.05
383.18	1065.65
383.55	1066.82
383.92	1065.18
384.29	1065.18
384.66	1061.67
385.03	1052.07
385.40	1051.84
385.77	1051.13
386.14	1053.94
386.51	1060.50
386.88	1072.67
387.25	1069.86
387.62	1068.45
387.99	1065.88
388.36	1071.26
388.73	1066.82
389.10	1063.77
389.46	1069.86
389.83	1074.31
390.20	1081.09
390.57	1085.54
390.94	1089.52
391.31	1087.65
391.68	1089.75
392.05	1081.33
392.42	1081.56
392.79	1071.26
393.16	1071.50
393.53	1068.22
393.89	1067.28
394.26	1060.73
394.63	1061.43
395.00	1064.01
395.37	1067.28
395.74	1065.88
396.11	1065.18
396.48	1078.99
396.84	1075.48
397.21	1063.31
397.58	1063.77
397.95	1072.67
398.32	1067.52
398.69	1061.20
399.06	1067.05
399.42	1058.39
399.79	1056.28
400.16	1053.94
400.53	1058.86
400.90	1066.82
401.27	1072.67
401.64	1069.86
402.00	1074.31
402.37	1081.56
402.74	1078.75
403.11	1087.41
403.48	1089.99
403.84	1079.46
404.21	1067.52
404.58	1072.20
404.95	1076.65
405.32	1072.43
405.68	1077.11
406.05	1081.09
406.42	1073.84
406.79	1069.16
407.16	1077.82
407.52	1095.37
407.89	1090.46
408.26	1086.24
408.63	1082.03
408.99	1077.58
409.36	1064.48
409.73	1070.33
410.10	1070.56
410.47	1070.33
410.83	1075.24
411.20	1086.94
411.57	1100.05
411.94	1106.84
412.30	1108.01
412.67	1107.78
413.04	1101.69
413.40	1096.78
413.77	1099.58
414.14	1117.14
414.51	1120.65
414.87	1127.67
415.24	1132.12
415.61	1124.63
415.97	1116.20
416.34	1123.22
416.71	1113.86
417.08	1114.80
417.44	1123.69
417.81	1119.95
418.18	1110.58
418.54	1112.46
418.91	1107.78
419.28	1114.56
419.64	1126.27
420.01	1139.37
420.38	1157.86
420.74	1160.44
421.11	1160.44
421.48	1155.99
421.84	1151.31
422.21	1144.99
422.58	1152.25
422.94	1155.52
423.31	1167.23
423.68	1180.57
424.04	1187.35
424.41	1198.12
424.77	1194.84
425.14	1196.25
425.51	1196.48
425.87	1203.27
426.24	1214.97
426.61	1241.42
426.97	1256.63
427.34	1267.87
427.70	1283.08
428.07	1285.66
428.44	1303.68
428.80	1317.72
429.17	1323.81
429.53	1331.06
429.90	1351.66
430.27	1365.70
430.63	1381.38
431.00	1399.64
431.36	1411.81
431.73	1422.34
432.09	1426.09
432.46	1429.83
432.83	1452.54
433.19	1486.24
433.56	1497.47
433.92	1535.16
434.29	1552.24
434.65	1562.31
435.02	1563.01
435.38	1575.18
435.75	1565.35
436.11	1582.44
436.48	1599.29
436.84	1624.10
437.21	1638.61
437.57	1665.76
437.94	1687.53
438.30	1694.08
438.67	1684.48
439.03	1693.14
439.40	1673.72
439.76	1671.84
440.13	1658.74
440.49	1670.44
440.86	1666.46
441.22	1665.99
441.59	1645.86
441.95	1641.89
442.32	1618.95
442.68	1613.33
443.05	1616.14
443.41	1610.99
443.78	1598.35
444.14	1602.80
444.51	1583.37
444.87	1562.31
445.24	1558.09
445.60	1553.65
445.96	1535.86
446.33	1532.58
446.69	1520.88
447.06	1497.01
447.42	1488.81
447.79	1478.05
448.15	1461.43
448.51	1456.52
448.88	1450.90
449.24	1431.00
449.61	1417.66
449.97	1412.28
450.33	1398.24
450.70	1383.96
451.06	1383.02
451.43	1376.24
451.79	1368.51
452.15	1362.66
452.52	1346.98
452.88	1343.70
453.24	1330.83
453.61	1319.83
453.97	1312.34
454.34	1316.55
454.70	1305.08
455.06	1306.25
455.43	1290.81
455.79	1278.17
456.15	1272.08
456.52	1266.93
456.88	1242.59
457.24	1244.46
457.61	1243.53
457.97	1234.16
458.33	1222.70
458.70	1234.40
459.06	1232.53
459.42	1219.89
459.79	1208.89
460.15	1211.70
460.51	1211.93
460.88	1201.63
461.24	1195.31
461.60	1200.69
461.96	1199.99
462.33	1177.29
462.69	1175.65
463.05	1175.65
463.42	1179.40
463.78	1166.76
464.14	1166.29
464.50	1166.05
464.87	1163.01
465.23	1142.42
465.59	1149.20
465.95	1144.29
466.32	1135.39
466.68	1136.80
467.04	1144.52
467.40	1141.25
467.77	1140.54
468.13	1139.14
468.49	1130.48
468.85	1128.37
469.22	1120.18
469.58	1118.78
469.94	1115.73
470.30	1124.39
470.66	1125.80
471.03	1127.44
471.39	1135.86
471.75	1142.42
472.11	1137.27
472.47	1130.24
472.84	1125.33
473.20	1115.97
473.56	1099.35
473.92	1093.26
474.28	1097.24
474.65	1095.37
475.01	1102.63
475.37	1121.12
475.73	1128.37
476.09	1129.54
476.45	1126.50
476.81	1108.95
477.18	1094.43
477.54	1079.22
477.90	1079.22
478.26	1080.63
478.62	1097.71
478.98	1100.52
479.34	1110.12
479.71	1100.52
480.07	1097.71
480.43	1088.58
480.79	1086.94
481.15	1090.46
481.51	1086.24
481.87	1088.35
482.23	1092.09
482.59	1100.75
482.96	1097.95
483.32	1097.95
483.68	1091.86
484.04	1089.99
484.40	1083.90
484.76	1078.75
485.12	1085.31
485.48	1091.16
485.84	1089.52
486.20	1085.54
486.56	1081.80
486.92	1076.41
487.28	1077.11
487.64	1076.41
488.00	1076.41
488.37	1079.69
488.73	1092.80
489.09	1089.52
489.45	1092.56
489.81	1097.01
490.17	1106.14
490.53	1096.07
490.89	1105.44
491.25	1104.50
491.61	1111.05
491.97	1111.52
492.33	1118.31
492.69	1105.90
493.05	1110.12
493.41	1109.41
493.77	1100.75
494.13	1096.07
494.49	1099.12
494.85	1097.01
495.21	1087.18
495.57	1094.90
495.93	1087.41
496.29	1093.26
496.64	1089.05
497.00	1090.22
497.36	1085.77
497.72	1089.75
498.08	1088.12
498.44	1091.63
498.80	1085.31
499.16	1080.39
499.52	1083.67
499.88	1086.48
500.24	1080.86
500.60	1081.33
500.96	1093.97
501.32	1092.33
501.68	1086.24
502.03	1096.31
502.39	1101.46
502.75	1086.48
503.11	1092.56
503.47	1087.18
503.83	1073.37
504.19	1064.94
504.55	1067.75
504.91	1054.41
505.26	1056.75
505.62	1071.26
505.98	1085.54
506.34	1097.24
506.70	1096.54
507.06	1105.44
507.42	1093.03
507.78	1079.92
508.13	1068.69
508.49	1069.16
508.85	1060.96
509.21	1065.18
509.57	1074.54
509.93	1070.80
510.28	1066.11
510.64	1061.20
511.00	1054.65
511.36	1044.58
511.72	1049.73
512.07	1060.26
512.43	1065.18
512.79	1078.28
513.15	1094.67
513.51	1088.35
513.86	1093.03
514.22	1093.26
514.58	1092.80
514.94	1087.65
515.30	1096.07
515.65	1086.71
516.01	1098.65
516.37	1087.88
516.73	1088.58
517.08	1081.09
517.44	1085.07
517.80	1076.65
518.16	1066.82
518.51	1062.14
518.87	1071.26
519.23	1076.88
519.59	1079.46
519.94	1089.29
520.30	1090.22
520.66	1077.82
521.01	1066.82
521.37	1060.50
521.73	1073.37
522.09	1074.31
522.44	1077.11
522.80	1084.37
523.16	1086.94
523.51	1075.71
523.87	1067.75
524.23	1074.07
524.58	1079.69
524.94	1078.75
525.30	1069.16
525.65	1076.41
526.01	1076.88
526.37	1069.86
526.72	1066.58
527.08	1071.03
527.44	1065.41
527.79	1058.39
528.15	1063.31
528.51	1062.60
528.86	1068.22
529.22	1068.92
529.58	1067.75
529.93	1059.79
530.29	1058.86
530.65	1052.07
531.00	1047.62
531.36	1058.16
531.71	1055.35
532.07	1060.03
532.43	1063.31
532.78	1069.39
533.14	1059.56
533.49	1068.69
533.85	1072.43
534.21	1079.69
534.56	1078.99
534.92	1082.26
535.27	1071.50
535.63	1064.24
535.98	1060.73
536.34	1063.77
536.69	1061.67
537.05	1071.03
537.41	1069.16
537.76	1073.14
538.12	1076.41
538.47	1087.18
538.83	1099.12
539.18	1110.82
539.54	1105.44
539.89	1095.60
540.25	1098.65
540.60	1086.01
540.96	1077.58
541.31	1080.86
541.67	1086.71
542.02	1084.37
542.38	1083.20
542.73	1075.94
543.09	1068.22
543.44	1071.50
543.80	1064.01
544.15	1060.50
544.51	1066.11
544.86	1075.48
545.22	1070.56
545.57	1081.33
545.93	1083.43
546.28	1095.14
546.64	1086.71
546.99	1090.22
547.35	1077.58
547.70	1074.07
548.05	1059.33
548.41	1060.73
548.76	1058.16
549.12	1061.90
549.47	1064.94
549.83	1061.90
550.18	1064.24
550.53	1070.56
550.89	1063.54
551.24	1061.67
551.60	1066.35
551.95	1068.92
552.30	1062.60
552.66	1067.28
553.01	1076.88
553.37	1080.86
553.72	1081.33
554.07	1080.86
554.43	1088.12
554.78	1081.56
555.13	1085.07
555.49	1078.05
555.84	1077.82
556.19	1079.69
556.55	1063.77
556.90	1064.71
557.26	1072.67
557.61	1075.48
557.96	1070.80
558.32	1093.03
558.67	1085.77
559.02	1089.05
559.37	1083.20
559.73	1083.90
560.08	1075.94
560.43	1081.80
560.79	1076.65
561.14	1079.46
561.49	1080.63
561.85	1075.48
562.20	1069.62
562.55	1069.16
562.90	1075.24
563.26	1078.05
563.61	1081.56
563.96	1089.75
564.32	1087.65
564.67	1082.50
565.02	1082.50
565.37	1085.31
565.73	1078.05
566.08	1081.09
566.43	1084.60
566.78	1077.11
567.14	1077.11
567.49	1077.58
567.84	1071.26
568.19	1061.43
568.54	1072.90
568.90	1074.54
569.25	1082.73
569.60	1100.52
569.95	1105.20
570.31	1088.35
570.66	1085.31
571.01	1073.37
571.36	1065.65
571.71	1065.88
572.06	1081.56
572.42	1090.46
572.77	1087.41
573.12	1080.63
573.47	1086.01
573.82	1082.73
574.18	1074.77
574.53	1073.14
574.88	1081.80
575.23	1078.52
575.58	1068.92
575.93	1067.05
576.28	1075.94
576.64	1066.11
576.99	1064.94
577.34	1069.62
577.69	1076.65
578.04	1076.18
578.39	1085.77
578.74	1080.86
579.09	1081.56
579.44	1077.11
579.80	1070.09
580.15	1054.41
580.50	1055.35
580.85	1060.03
581.20	1058.16
581.55	1070.09
581.90	1077.35
582.25	1081.80
582.60	1069.62
582.95	1067.99
583.30	1066.82
583.65	1066.58
584.00	1066.11
584.35	1069.86
584.71	1083.90
585.06	1082.26
585.41	1076.88
585.76	1086.24
586.11	1088.58
586.46	1077.82
586.81	1078.52
587.16	1079.92
587.51	1065.65
587.86	1064.71
588.21	1061.67
588.56	1065.18
588.91	1071.03
589.26	1079.69
589.61	1081.33
589.96	1088.58
590.31	1083.67
590.66	1093.50
591.01	1093.73
591.36	1083.20
591.71	1076.65
592.06	1081.80
592.41	1073.84
592.76	1072.43
593.10	1082.03
593.45	1084.37
593.80	1086.94
594.15	1082.50
594.50	1086.71
594.85	1086.94
595.20	1090.46
595.55	1093.50
595.90	1093.73
596.25	1089.52
596.60	1077.58
596.95	1074.54
597.30	1066.58
597.64	1118.07
597.99	1115.73
598.34	1126.50
598.69	1127.44
599.04	1133.29
599.39	1079.46
599.74	1085.77
600.09	1082.03
600.44	1083.90
600.78	1078.28
601.13	1089.52
601.48	1086.01
601.83	1089.05
602.18	1079.69
602.53	1082.73
602.88	1077.35
603.22	1082.97
603.57	1084.37
603.92	1091.63
604.27	1088.82
604.62	1091.86
604.97	1082.03
605.31	1083.20
605.66	1084.60
606.01	1082.97
606.36	1089.75
606.71	1082.50
607.05	1085.31
607.40	1086.48
607.75	1085.54
608.10	1078.28
608.44	1092.80
608.79	1084.14
609.14	1087.18
609.49	1083.43
609.84	1086.94
610.18	1084.14
610.53	1086.24
610.88	1093.50
611.23	1097.71
611.57	1101.92
611.92	1104.26
612.27	1106.61
612.62	1087.88
612.96	1099.82
613.31	1096.78
613.66	1090.92
614.00	1089.99
614.35	1098.41
614.70	1090.46
615.05	1087.18
615.39	1087.18
615.74	1089.75
616.09	1084.84
616.43	1074.07
616.78	1074.54
617.13	1071.50
617.47	1074.07
617.82	1082.97
618.17	1084.60
618.51	1091.16
618.86	1089.52
619.21	1080.63
619.55	1067.99
619.90	1075.01
620.25	1075.01
620.59	1085.07
620.94	1080.63
621.29	1091.63
621.63	1091.39
621.98	1082.50
622.32	1074.77
622.67	1077.35
623.02	1069.86
623.36	1066.58
623.71	1054.65
624.05	1057.69
624.40	1067.99
624.75	1071.97
625.09	1075.48
625.44	1087.18
625.78	1104.26
626.13	1103.33
626.48	1094.67
626.82	1090.92
627.17	1086.24
627.51	1072.90
627.86	1070.80
628.20	1074.07
628.55	1076.88
628.89	1081.80
629.24	1080.16
629.58	1075.24
629.93	1086.01
630.28	1086.24
630.62	1102.16
630.97	1096.78
631.31	1100.29
631.66	1091.39
632.00	1086.71
632.35	1067.28
632.69	1071.50
633.04	1075.01
633.38	1085.31
633.73	1087.41
634.07	1097.48
634.42	1096.78
634.76	1094.90
635.11	1089.99
635.45	1098.18
635.79	1089.75
636.14	1084.14
636.48	1080.86
636.83	1075.71
637.17	1063.54
637.52	1062.60
637.86	1067.52
638.21	1072.43
638.55	1066.35
638.89	1074.31
639.24	1069.39
639.58	1072.20
639.93	1078.28
640.27	1082.73
640.61	1073.84
640.96	1080.16
641.30	1073.60
641.65	1063.07
641.99	1057.69
642.33	1068.69
642.68	1066.58
643.02	1065.41
643.37	1072.43
643.71	1086.48
644.05	1082.73
644.40	1079.69
644.74	1086.24
645.08	1075.24
645.43	1066.82
645.77	1062.14
646.11	1066.11
646.46	1073.60
646.80	1072.90
647.14	1074.54
647.49	1089.05
647.83	1085.54
648.17	1073.60
648.52	1075.71
648.86	1075.71
649.20	1068.69
649.55	1066.35
649.89	1065.41
650.23	1067.75
650.57	1070.80
650.92	1060.73
651.26	1068.92
651.60	1083.20
651.95	1088.12
652.29	1085.07
652.63	1090.22
652.97	1073.14
653.32	1060.96
653.66	1061.43
654.00	1055.82
654.34	1059.33
654.69	1080.39
655.03	1082.73
655.37	1075.71
655.71	1086.48
656.05	1098.18
656.40	1084.60
656.74	1085.77
657.08	1094.90
657.42	1091.86
657.76	1079.69
658.11	1087.18
658.45	1087.18
658.79	1083.43
659.13	1086.01
659.47	1076.41
659.82	1077.35
660.16	1075.71
660.50	1071.03
660.84	1077.58
661.18	1088.82
661.52	1093.97
661.87	1095.60
662.21	1095.14
662.55	1082.26
662.89	1084.14
663.23	1078.99
663.57	1078.99
663.91	1086.24
664.25	1094.43
664.60	1089.99
664.94	1086.71
665.28	1079.46
665.62	1074.54
665.96	1061.20
666.30	1054.88
666.64	1059.33
666.98	1063.77
667.32	1068.45
667.66	1071.50
668.01	1078.05
668.35	1080.63
668.69	1084.37
669.03	1089.29
669.37	1090.69
669.71	1093.73
670.05	1090.22
670.39	1083.90
670.73	1071.26
671.07	1078.99
671.41	1073.37
671.75	1084.37
672.09	1086.24
672.43	1083.67
672.77	1080.16
673.11	1079.92
673.45	1065.41
673.79	1074.77
674.13	1078.05
674.47	1075.24
674.81	1079.22
675.15	1075.94
675.49	1071.50
675.83	1066.58
676.17	1063.31
676.51	1063.07
676.85	1064.48
677.19	1063.77
677.53	1077.82
677.87	1084.14
678.21	1082.26
678.55	1078.52
678.89	1078.75
679.23	1082.50
679.57	1079.46
679.90	1073.37
680.24	1082.73
680.58	1076.88
680.92	1060.26
681.26	1067.28
681.60	1071.97
681.94	1072.20
682.28	1075.94
682.62	1082.50
682.96	1085.31
683.29	1086.94
683.63	1086.71
683.97	1086.94
684.31	1082.26
684.65	1077.35
684.99	1075.94
685.33	1071.26
685.67	1072.43
686.00	1080.86
686.34	1077.82
686.68	1076.18
687.02	1086.48
687.36	1087.41
687.70	1084.60
688.03	1080.16
688.37	1078.05
688.71	1071.50
689.05	1067.28
689.39	1067.52
689.72	1078.28
690.06	1086.94
690.40	1092.33
690.74	1087.88
691.08	1091.86
691.41	1099.12
691.75	1094.67
692.09	1079.92
692.43	1082.73
692.76	1084.14
693.10	1073.37
693.44	1072.90
693.78	1078.52
694.11	1091.63
694.45	1087.88
694.79	1087.88
695.13	1091.86
695.46	1101.92
695.80	1087.18
696.14	1083.43
696.48	1084.84
696.81	1075.01
697.15	1063.77
697.49	1058.16
697.82	1065.65
698.16	1062.37
698.50	1063.77
698.83	1072.90
699.17	1095.37
699.51	1085.07
699.84	1078.05
700.18	1077.82
700.52	1066.35
700.85	1051.13
701.19	1050.43
701.53	1054.18
701.86	1061.20
702.20	1071.97
702.54	1077.35
702.87	1078.28
703.21	1082.73
703.55	1087.18
703.88	1086.94
704.22	1076.41
704.55	1075.24
704.89	1071.73
705.23	1064.24
705.56	1061.67
705.90	1068.92
706.23	1084.84
706.57	1091.86
706.91	1091.39
707.24	1097.95
707.58	1094.90
707.91	1089.29
708.25	1077.58
708.58	1082.03
708.92	1076.18
709.26	1085.31
709.59	1087.41
709.93	1089.99
710.26	1091.63
710.60	1097.01
710.93	1096.31
711.27	1094.67
711.60	1099.82
711.94	1095.14
712.27	1087.65
712.61	1086.48
712.94	1077.11
713.28	1082.03
713.61	1080.86
713.95	1085.07
714.28	1082.73
714.62	1082.03
714.95	1081.56
715.29	1082.03
715.62	1075.01
715.96	1075.71
716.29	1073.60
716.63	1062.84
716.96	1068.92
717.29	1068.45
717.63	1070.56
717.96	1082.03
718.30	1084.14
718.63	1079.46
718.97	1092.80
719.30	1090.69
719.63	1085.31
719.97	1092.80
720.30	1094.43
720.64	1084.37
720.97	1084.84
721.30	1083.43
721.64	1078.75
721.97	1076.88
722.31	1084.60
722.64	1097.71
722.97	1093.03
723.31	1091.16
723.64	1096.78
723.97	1088.35
724.31	1071.50
724.64	1078.75
724.98	1087.18
725.31	1084.60
725.64	1084.37
725.98	1094.20
726.31	1091.86
726.64	1086.24
726.97	1079.92
727.31	1075.71
727.64	1062.84
727.97	1070.33
728.31	1068.45
728.64	1078.75
728.97	1083.43
729.31	1077.82
729.64	1068.69
729.97	1068.45
730.30	1060.73
730.64	1060.03
730.97	1070.33
731.30	1078.75
731.63	1077.58
731.97	1085.77
732.30	1080.16
732.63	1072.20
732.96	1064.94
733.30	1067.99
733.63	1055.58
733.96	1059.09
734.29	1064.48
734.63	1049.73
734.96	1057.22
735.29	1061.90
735.62	1066.58
735.95	1071.73
736.29	1083.67
736.62	1077.58
736.95	1085.07
737.28	1086.24
737.61	1091.86
737.94	1092.33
738.28	1078.28
738.61	1079.22
738.94	1073.37
739.27	1069.39
739.60	1067.99
739.93	1083.90
740.27	1087.41
740.60	1096.54
740.93	1091.86
741.26	1097.24
741.59	1100.05
741.92	1084.14
742.25	1081.09
742.58	1088.35
742.91	1089.75
743.25	1080.39
743.58	1075.48
743.91	1069.86
744.24	1061.90
744.57	1057.92
744.90	1062.14
745.23	1073.37
745.56	1081.09
745.89	1078.99
746.22	1071.26
746.55	1072.20
746.88	1068.22
747.21	1054.18
747.54	1049.50
747.87	1056.75
748.20	1064.24
748.53	1063.07
748.87	1069.39
749.20	1084.60
749.53	1082.97
749.86	1072.20
750.19	1074.07
750.52	1078.28
750.85	1071.26
751.18	1073.84
751.51	1075.24
751.84	1079.92
752.16	1070.33
752.49	1069.86
752.82	1070.09
753.15	1073.14
753.48	1070.33
753.81	1078.52
754.14	1075.01
754.47	1068.45
754.80	1063.54
755.13	1063.07
755.46	1064.01
755.79	1060.26
756.12	1063.07
756.45	1068.92
756.78	1070.56
757.11	1076.41
757.43	1091.39
757.76	1096.54
758.09	1082.03
758.42	1076.65
758.75	1080.63
759.08	1071.97
759.41	1078.99
759.74	1089.75
760.07	1092.56
760.39	1087.88
760.72	1088.82
761.05	1076.88
761.38	1081.33
761.71	1080.86
762.04	1072.43
762.36	1070.80
762.69	1083.43
763.02	1085.31
763.35	1087.41
763.68	1093.03
764.01	1085.07
764.33	1078.28
764.66	1064.48
764.99	1068.69
765.32	1063.77
765.65	1078.75
765.97	1084.37
766.30	1096.78
766.63	1097.71
766.96	1103.33
767.28	1095.14
767.61	1082.97
767.94	1072.90
768.27	1070.09
768.59	1060.73
768.92	1063.07
769.25	1068.45
769.58	1079.69
769.90	1073.84
770.23	1079.69
770.56	1074.54
770.89	1084.84
771.21	1067.52
771.54	1067.99
771.87	1065.88
772.19	1066.35
772.52	1051.60
772.85	1053.01
773.17	1068.69
773.50	1068.69
773.83	1078.52
774.15	1076.88
774.48	1094.20
774.81	1078.52
775.13	1076.41
775.46	1065.41
775.79	1076.18
776.11	1071.50
776.44	1076.18
776.77	1074.31
777.09	1084.14
777.42	1079.22
777.74	1085.77
778.07	1088.82
778.40	1090.22
778.72	1086.01
779.05	1082.26
779.37	1076.18
779.70	1076.41
780.03	1084.84
780.35	1082.03
780.68	1090.22
781.00	1089.75
781.33	1079.69
781.65	1071.03
781.98	1072.67
782.31	1062.60
782.63	1056.99
782.96	1053.71
783.28	1058.86
783.61	1063.77
783.93	1074.54
784.26	1078.52
784.58	1084.60
784.91	1078.99
785.23	1070.09
785.56	1062.84
785.88	1064.94
786.21	1063.77
786.53	1069.86
786.86	1077.58
787.18	1075.71
787.51	1081.56
787.83	1083.90
788.16	1079.46
788.48	1078.05
788.81	1092.80
789.13	1072.67
789.46	1065.65
789.78	1072.67
790.10	1076.41
790.43	1065.88
790.75	1075.94
791.08	1089.29
791.40	1080.39
791.73	1089.99
792.05	1102.39
792.37	1102.39
792.70	1104.50
793.02	1109.41
793.35	1094.20
793.67	1087.18
793.99	1090.69
794.32	1079.92
794.64	1083.67
794.96	1083.90
795.29	1087.88
795.61	1087.41
795.93	1088.82
796.26	1086.48
796.58	1084.14
796.91	1078.28
797.23	1073.14
797.55	1073.14
797.87	1064.01
798.20	1071.73
798.52	1066.82
798.84	1067.28
799.17	1068.92
799.49	1080.39
799.81	1081.80
800.14	1083.43
800.46	1087.65
800.78	1096.78
801.10	1091.86
801.43	1095.60
801.75	1105.67
802.07	1094.90
802.40	1093.50
802.72	1082.50
803.04	1077.35
803.36	1078.28
803.69	1081.09
804.01	1071.73
804.33	1080.16
804.65	1079.92
804.97	1065.18
805.30	1076.18
805.62	1083.90
805.94	1088.58
806.26	1084.14
806.58	1088.58
806.91	1084.37
807.23	1090.22
807.55	1082.73
807.87	1086.71
808.19	1088.12
808.52	1084.60
808.84	1072.43
809.16	1080.16
809.48	1070.09
809.80	1065.88
810.12	1075.01
810.44	1070.56
810.77	1081.33
811.09	1086.94
811.41	1080.86
811.73	1071.97
812.05	1080.39
812.37	1076.18
812.69	1080.16
813.01	1080.16
813.33	1091.86
813.66	1094.67
813.98	1087.41
814.30	1079.92
814.62	1079.46
814.94	1072.20
815.26	1068.69
815.58	1071.03
815.90	1073.84
816.22	1075.94
816.54	1070.56
816.86	1065.41
817.18	1060.26
817.50	1060.03
817.82	1063.54
818.14	1065.41
818.46	1065.88
818.78	1072.90
819.10	1073.84
819.42	1073.60
819.74	1080.63
820.06	1084.84
820.38	1076.65
820.70	1075.48
821.02	1087.18
821.34	1077.82
821.66	1070.80
821.98	1067.52
822.30	1067.28
822.62	1055.35
822.94	1064.24
823.26	1066.82
823.58	1079.69
823.90	1084.14
824.22	1085.54
824.54	1069.16
824.86	1062.37
825.18	1061.67
825.50	1059.09
825.81	1048.56
826.13	1060.50
826.45	1065.65
826.77	1064.48
827.09	1062.14
827.41	1069.62
827.73	1061.90
828.05	1071.97
828.36	1070.80
828.68	1076.18
829.00	1083.90
829.32	1083.20
829.64	1075.71
829.96	1071.97
830.28	1066.35
830.59	1059.33
830.91	1067.52
831.23	1077.11
831.55	1078.75
831.87	1083.67
832.19	1087.41
832.50	1086.01
832.82	1077.58
833.14	1079.46
833.46	1073.84
833.78	1085.31
834.09	1084.60
834.41	1092.56
834.73	1094.20
835.05	1103.56
835.36	1098.88
835.68	1099.35
836.00	1086.24
836.32	1086.71
836.63	1074.54
836.95	1064.94
837.27	1066.11
837.59	1072.90
837.90	1065.18
838.22	1072.90
838.54	1087.41
838.85	1079.69
839.17	1076.18
839.49	1078.52
839.80	1079.69
840.12	1066.35
840.44	1078.75
840.76	1079.22
841.07	1077.11
841.39	1072.67
841.71	1076.18
842.02	1068.45
842.34	1074.07
842.65	1078.52
842.97	1086.48
843.29	1089.75
843.60	1095.84
843.92	1099.58
844.24	1105.44
844.55	1106.14
844.87	1100.75
845.18	1102.86
845.50	1094.90
845.82	1092.80
846.13	1083.90
846.45	1077.82
846.76	1075.48
847.08	1075.24
847.40	1060.73
847.71	1067.75
848.03	1069.39
848.34	1066.35
848.66	1070.56
848.97	1076.18
849.29	1073.14
849.60	1078.28
849.92	1077.82
850.24	1077.58
850.55	1084.60
850.87	1082.26
851.18	1087.88
851.50	1093.97
851.81	1090.22
852.13	1079.92
852.44	1084.37
852.76	1076.88
853.07	1069.62
853.39	1074.54
853.70	1085.31
854.01	1083.90
854.33	1089.52
854.64	1091.86
854.96	1086.48
855.27	1082.50
855.59	1074.77
855.90	1064.48
856.22	1067.28
856.53	1062.37
856.84	1059.79
857.16	1059.79
857.47	1071.73
857.79	1070.56
858.10	1071.03
858.41	1067.28
858.73	1075.01
859.04	1065.65
859.36	1063.77
859.67	1067.52
859.98	1074.31
860.30	1078.05
860.61	1080.63
860.92	1080.16
861.24	1082.26
861.55	1078.28
861.87	1071.03
862.18	1071.73
862.49	1079.92
862.81	1061.67
863.12	1071.03
863.43	1068.69
863.74	1072.20
864.06	1056.52
864.37	1084.37
864.68	1084.60
865.00	1089.52
865.31	1078.28
865.62	1080.39
865.94	1068.92
866.25	1059.79
866.56	1066.11
866.87	1076.88
867.19	1074.77
867.50	1076.88
867.81	1078.99
868.12	1076.41
868.44	1076.88
868.75	1081.80
869.06	1085.31
869.37	1082.26
869.68	1082.50
870.00	1085.07
870.31	1087.88
870.62	1086.48
870.93	1093.03
871.24	1091.63
871.56	1090.46
871.87	1089.99
872.18	1083.43
872.49	1080.16
872.80	1080.39
873.12	1072.67
873.43	1074.31
873.74	1076.65
874.05	1079.22
874.36	1075.94
874.67	1078.99
874.98	1077.82
875.29	1075.71
875.61	1074.77
875.92	1080.39
876.23	1077.58
876.54	1082.97
876.85	1082.26
877.16	1078.75
877.47	1064.48
877.78	1062.84
878.09	1052.30
878.40	1057.92
878.72	1055.35
879.03	1067.75
879.34	1074.31
879.65	1073.37
879.96	1065.18
880.27	1078.28
880.58	1079.46
880.89	1084.60
881.20	1093.50
881.51	1097.48
881.82	1095.14
882.13	1087.41
882.44	1082.03
882.75	1080.63
883.06	1085.31
883.37	1084.14
883.68	1091.16
883.99	1100.75
884.30	1103.56
884.61	1108.01
884.92	1107.31
885.23	1102.63
885.54	1091.86
885.85	1088.12
886.16	1078.75
886.47	1083.67
886.78	1086.48
887.08	1088.58
887.39	1090.22
887.70	1084.60
888.01	1079.92
888.32	1078.05
888.63	1077.58
888.94	1077.11
889.25	1086.48
889.56	1079.69
889.87	1077.82
890.17	1075.24
890.48	1073.37
890.79	1063.07
891.10	1062.14
891.41	1054.18
891.72	1052.07
892.03	1060.03
892.34	1072.90
892.64	1085.77
892.95	1099.82
893.26	1105.44
893.57	1094.90
893.88	1089.05
894.18	1078.75
894.49	1072.90
894.80	1058.86
895.11	1059.56
895.42	1062.14
895.72	1062.14
896.03	1064.24
896.34	1082.73
896.65	1085.77
896.96	1082.03
897.26	1083.43
897.57	1083.43
897.88	1069.39
898.19	1070.09
898.49	1068.45
898.80	1062.60
899.11	1059.33
899.41	1066.11
899.72	1072.90
900.03	1081.09
900.34	1076.65
900.64	1079.46
900.95	1078.52
901.26	1074.07
901.56	1069.39
901.87	1082.97
902.18	1089.75
902.48	1087.41
902.79	1082.26
903.10	1083.43
903.40	1081.09
903.71	1081.56
904.02	1085.07
904.32	1084.14
904.63	1086.01
904.94	1084.14
905.24	1074.54
905.55	1076.41
905.85	1082.50
906.16	1075.24
906.47	1064.48
906.77	1063.07
907.08	1050.67
907.38	1042.94
907.69	1059.56
908.00	1067.99
908.30	1069.62
908.61	1069.39
908.91	1067.52
909.22	1055.58
909.52	1052.30
909.83	1067.05
910.14	1074.54
910.44	1076.88
910.75	1072.90
911.05	1069.62
911.36	1051.84
911.66	1050.20
911.97	1054.65
912.27	1062.60
912.58	1072.90
912.88	1073.14
913.19	1066.82
913.49	1059.79
913.80	1061.90
914.10	1062.84
914.41	1062.84
914.71	1078.75
915.01	1085.77
915.32	1075.24
915.62	1070.09
915.93	1073.37
916.23	1066.35
916.54	1076.18
916.84	1080.63
917.15	1084.84
917.45	1083.20
917.75	1087.41
918.06	1077.82
918.36	1077.58
918.67	1079.22
918.97	1081.33
919.27	1079.69
919.58	1073.60
919.88	1067.75
920.18	1070.33
920.49	1073.14
920.79	1070.80
921.10	1078.99
921.40	1092.80
921.70	1086.71
922.01	1094.90
922.31	1098.18
922.61	1094.90
922.92	1085.31
923.22	1090.92
923.52	1082.50
923.82	1080.63
924.13	1077.82
924.43	1080.63
924.73	1075.48
925.04	1074.54
925.34	1077.82
925.64	1083.20
925.94	1076.88
926.25	1069.62
926.55	1060.73
926.85	1053.71
927.15	1059.56
927.46	1062.37
927.76	1058.16
928.06	1067.28
928.36	1073.60
928.67	1058.16
928.97	1061.90
929.27	1077.35
929.57	1068.22
929.87	1065.88
930.18	1064.24
930.48	1067.28
930.78	1053.71
931.08	1055.35
931.38	1062.84
931.69	1067.05
931.99	1064.01
932.29	1071.97
932.59	1073.37
932.89	1061.90
933.19	1068.22
933.49	1062.84
933.80	1074.31
934.10	1083.90
934.40	1100.52
934.70	1092.09
935.00	1100.52
935.30	1097.95
935.60	1085.54
935.90	1078.52
936.20	1082.50
936.50	1075.24
936.81	1070.33
937.11	1079.22
937.41	1069.16
937.71	1073.14
938.01	1067.05
938.31	1064.24
938.61	1056.52
938.91	1061.20
939.21	1055.82
939.51	1062.37
939.81	1060.26
940.11	1069.86
940.41	1070.33
940.71	1066.82
941.01	1069.39
941.31	1071.26
941.61	1067.05
941.91	1064.94
942.21	1072.90
942.51	1081.56
942.81	1080.63
943.11	1082.26
943.41	1089.05
943.71	1087.65
944.01	1075.01
944.31	1080.86
944.61	1082.03
944.90	1085.07
945.20	1091.16
945.50	1093.03
945.80	1100.99
946.10	1100.52
946.40	1102.63
946.70	1089.29
947.00	1098.88
947.30	1090.46
947.60	1091.86
947.89	1076.88
948.19	1074.54
948.49	1080.63
948.79	1079.46
949.09	1081.56
949.39	1078.52
949.69	1088.12
949.98	1068.22
950.28	1054.65
950.58	1044.58
950.88	1052.77
951.18	1062.84
951.48	1070.56
951.77	1086.48
952.07	1105.90
952.37	1106.37
952.67	1097.95
952.97	1103.33
953.26	1096.54
953.56	1082.97
953.86	1078.99
954.16	1075.24
954.45	1073.84
954.75	1079.92
955.05	1084.14
955.35	1082.97
955.64	1089.99
955.94	1081.56
956.24	1080.63
956.54	1083.20
956.83	1086.01
957.13	1086.94
957.43	1094.43
957.72	1090.92
958.02	1081.80
958.32	1079.92
958.61	1079.22
958.91	1068.22
959.21	1064.24
959.50	1066.82
959.80	1075.48
960.10	1078.05
960.39	1092.09
960.69	1096.31
960.99	1097.01
961.28	1091.16
961.58	1078.05
961.87	1067.99
962.17	1075.01
962.47	1075.94
962.76	1082.03
963.06	1086.94
963.36	1078.99
963.65	1068.92
963.95	1071.26
964.24	1059.79
964.54	1060.96
964.83	1072.67
965.13	1073.14
965.42	1071.26
965.72	1076.41
966.02	1062.84
966.31	1062.37
966.61	1067.75
966.90	1077.58
967.20	1077.82
967.49	1097.24
967.79	1086.71
968.08	1089.05
968.38	1068.45
968.67	1064.71
968.97	1057.22
969.26	1070.09
969.56	1062.37
969.85	1069.39
970.15	1078.75
970.44	1082.50
970.74	1076.41
971.03	1078.28
971.32	1083.67
971.62	1079.22
971.91	1071.97
972.21	1065.65
972.50	1063.54
972.80	1063.31
973.09	1068.92
973.38	1075.24
973.68	1080.39
973.97	1084.14
974.27	1093.73
974.56	1089.52
974.85	1078.05
975.15	1090.22
975.44	1086.24
975.73	1070.56
976.03	1059.79
976.32	1067.05
976.61	1057.22
976.91	1075.24
977.20	1090.46
977.49	1107.78
977.79	1109.18
978.08	1106.61
978.37	1094.20
978.67	1081.09
978.96	1070.09
979.25	1072.90
979.55	1081.80
979.84	1075.48
980.13	1074.31
980.42	1083.90
980.72	1075.71
981.01	1068.92
981.30	1078.52
981.59	1081.80
981.89	1061.43
982.18	1073.60
982.47	1081.33
982.76	1073.37
983.06	1079.46
983.35	1094.43
983.64	1094.43
983.93	1091.39
984.22	1096.07
984.52	1080.86
984.81	1079.46
985.10	1063.31
985.39	1058.39
985.68	1057.22
985.97	1053.94
986.27	1048.33
986.56	1060.50
986.85	1062.37
987.14	1056.05
987.43	1063.31
987.72	1064.71
988.01	1057.92
988.31	1057.92
988.60	1065.65
988.89	1066.58
989.18	1069.86
989.47	1075.01
989.76	1081.56
990.05	1075.01
990.34	1086.24
990.63	1091.16
990.92	1089.75
991.21	1079.92
991.51	1089.05
991.80	1088.82
992.09	1083.20
992.38	1085.31
992.67	1090.22
992.96	1089.52
993.25	1079.46
993.54	1078.52
993.83	1085.31
994.12	1087.65
994.41	1080.16
994.70	1073.14
994.99	1072.67
995.28	1067.28
995.57	1056.52
995.86	1059.09
996.15	1065.88
996.44	1061.20
996.73	1057.45
997.02	1071.50
997.31	1074.77
997.59	1068.69
997.88	1071.50
998.17	1067.75
998.46	1057.45
998.75	1049.73
999.04	1052.30
999.33	1057.69
999.62	1072.67
999.91	1065.88
1000.20	1069.39
1000.49	1080.39
1000.77	1075.01
1001.06	1060.50
1001.35	1073.37
1001.64	1070.80
1001.93	1059.56
1002.22	1069.39
1002.51	1079.69
1002.79	1082.03
1003.08	1080.63
1003.37	1087.88
1003.66	1085.07
1003.95	1078.99
1004.23	1078.75
1004.52	1089.29
1004.81	1080.86
1005.10	1074.07
1005.39	1072.43
1005.67	1075.01
1005.96	1068.45
1006.25	1073.84
1006.54	1081.56
1006.83	1083.90
1007.11	1076.88
1007.40	1073.37
1007.69	1076.88
1007.97	1065.65
1008.26	1062.37
1008.55	1073.84
1008.84	1077.35
1009.12	1078.28
1009.41	1087.88
1009.70	1082.73
1009.98	1069.62
1010.27	1074.31
1010.56	1063.31
1010.85	1058.16
1011.13	1068.69
1011.42	1073.60
1011.71	1071.73
1011.99	1081.09
1012.28	1089.05
1012.56	1090.92
1012.85	1083.20
1013.14	1084.60
1013.42	1084.37
1013.71	1078.28
1014.00	1073.60
1014.28	1076.88
1014.57	1078.75
1014.85	1082.26
1015.14	1085.77
1015.43	1082.03
1015.71	1081.80
1016.00	1078.99
1016.28	1072.43
1016.57	1075.24
1016.85	1079.22
1017.14	1085.54
1017.43	1084.60
1017.71	1086.01
1018.00	1070.33
1018.28	1070.80
1018.57	1074.31
1018.85	1077.35
1019.14	1073.84
1019.42	1079.69
1019.71	1081.33
1019.99	1073.60
1020.28	1069.16
1020.56	1075.48
1020.85	1079.46
1021.13	1079.22
1021.42	1074.31
1021.70	1071.26
1021.99	1059.56
1022.27	1058.39
1022.55	1033.35
1022.84	1064.94
>>>>>End Processed Spectral Data<<<<<
