SpectraSuite Data File
++++++++++++++++++++++++++++++++++++
Date: Mon Aug 26 10:24:33 PDT 2019
User: corrico
Dark Spectrum Present: No
Reference Spectrum Present: No
Number of Sampled Component Spectra: 1
Spectrometers: USB2+H06089
Integration Time (usec): 10000 (USB2+H06089)
Spectra Averaged: 2 (USB2+H06089)
Boxcar Smoothing: 2 (USB2+H06089)
Correct for Electrical Dark: No (USB2+H06089)
Strobe/Lamp Enabled: No (USB2+H06089)
Correct for Detector Non-linearity: No (USB2+H06089)
Correct for Stray Light: No (USB2+H06089)
Number of Pixels in Processed Spectrum: 2048
>>>>>Begin Processed Spectral Data<<<<<
339.70	1057.92
340.07	1057.92
340.45	1021.41
340.82	998.24
341.19	970.15
341.57	943.70
341.94	935.98
342.31	921.94
342.69	910.23
343.06	910.47
343.43	905.09
343.81	897.36
344.18	891.04
344.55	908.83
344.93	903.91
345.30	908.83
345.67	913.51
346.04	920.30
346.42	917.26
346.79	930.13
347.16	941.13
347.54	957.75
347.91	969.45
348.28	983.26
348.65	994.96
349.03	1006.43
349.40	1017.90
349.77	1023.52
350.14	1022.11
350.52	1029.84
350.89	1028.43
351.26	1031.24
351.63	1036.39
352.01	1049.73
352.38	1053.71
352.75	1064.71
353.12	1064.24
353.50	1063.31
353.87	1062.37
354.24	1065.65
354.61	1067.28
354.98	1071.50
355.36	1084.14
355.73	1088.35
356.10	1093.26
356.47	1093.50
356.84	1091.63
357.22	1085.54
357.59	1074.07
357.96	1064.01
358.33	1059.56
358.70	1061.20
359.08	1054.41
359.45	1066.82
359.82	1061.67
360.19	1059.79
360.56	1067.99
360.94	1078.52
361.31	1074.54
361.68	1085.54
362.05	1092.33
362.42	1097.24
362.79	1106.84
363.16	1106.14
363.54	1100.29
363.91	1089.29
364.28	1086.24
364.65	1064.71
365.02	1063.07
365.39	1057.45
365.76	1071.26
366.14	1066.82
366.51	1074.54
366.88	1068.92
367.25	1082.50
367.62	1078.28
367.99	1075.01
368.36	1081.09
368.73	1082.26
369.10	1074.31
369.48	1070.33
369.85	1072.43
370.22	1073.37
370.59	1072.43
370.96	1073.60
371.33	1079.46
371.70	1076.41
372.07	1077.82
372.44	1080.16
372.81	1081.33
373.18	1070.33
373.55	1070.56
373.93	1058.86
374.30	1061.20
374.67	1059.79
375.04	1062.60
375.41	1064.48
375.78	1074.31
376.15	1075.71
376.52	1080.63
376.89	1086.01
377.26	1081.33
377.63	1085.54
378.00	1081.56
378.37	1075.48
378.74	1076.65
379.11	1073.84
379.48	1070.33
379.85	1078.52
380.22	1082.50
380.59	1086.48
380.96	1095.37
381.33	1099.12
381.70	1095.14
382.07	1104.26
382.44	1093.97
382.81	1089.52
383.18	1084.14
383.55	1086.01
383.92	1078.28
384.29	1082.50
384.66	1081.56
385.03	1078.28
385.40	1075.48
385.77	1068.45
386.14	1069.62
386.51	1067.99
386.88	1074.31
387.25	1068.69
387.62	1075.71
387.99	1077.82
388.36	1084.84
388.73	1089.05
389.10	1088.12
389.46	1089.29
389.83	1084.60
390.20	1081.56
390.57	1075.01
390.94	1083.90
391.31	1073.14
391.68	1071.03
392.05	1077.11
392.42	1076.41
392.79	1069.86
393.16	1079.22
393.53	1086.24
393.89	1082.97
394.26	1080.63
394.63	1086.71
395.00	1093.73
395.37	1088.35
395.74	1097.48
396.11	1097.95
396.48	1105.90
396.84	1099.12
397.21	1099.12
397.58	1088.12
397.95	1089.99
398.32	1079.22
398.69	1081.09
399.06	1082.97
399.42	1084.84
399.79	1082.26
400.16	1099.35
400.53	1098.65
400.90	1097.24
401.27	1097.48
401.64	1107.07
402.00	1093.26
402.37	1086.01
402.74	1094.90
403.11	1099.35
403.48	1097.48
403.84	1106.14
404.21	1128.37
404.58	1137.27
404.95	1139.61
405.32	1142.42
405.68	1137.50
406.05	1137.73
406.42	1132.35
406.79	1136.80
407.16	1146.16
407.52	1152.25
407.89	1148.73
408.26	1165.12
408.63	1163.95
408.99	1169.10
409.36	1176.59
409.73	1183.61
410.10	1172.14
410.47	1190.40
410.83	1194.61
411.20	1210.06
411.57	1220.82
411.94	1241.65
412.30	1244.70
412.67	1254.06
413.04	1266.23
413.40	1288.00
413.77	1304.15
414.14	1332.47
414.51	1361.72
414.87	1383.96
415.24	1408.53
415.61	1438.73
415.97	1464.47
416.34	1497.01
416.71	1521.11
417.08	1554.58
417.44	1575.88
417.81	1617.78
418.18	1653.82
418.54	1700.17
418.91	1734.10
419.28	1784.66
419.64	1822.11
420.01	1864.24
420.38	1913.39
420.74	1964.41
421.11	2024.10
421.48	2091.97
421.84	2157.04
422.21	2230.53
422.58	2313.15
422.94	2387.11
423.31	2459.90
423.68	2537.14
424.04	2621.40
424.41	2708.23
424.77	2807.94
425.14	2900.16
425.51	2995.65
425.87	3089.27
426.24	3176.81
426.61	3276.75
426.97	3413.67
427.34	3546.85
427.70	3690.32
428.07	3860.71
428.44	4023.85
428.80	4169.66
429.17	4315.71
429.53	4454.74
429.90	4611.09
430.27	4775.86
430.63	4929.87
431.00	5095.11
431.36	5281.89
431.73	5436.13
432.09	5595.75
432.46	5775.51
432.83	5966.49
433.19	6135.95
433.56	6338.40
433.92	6553.73
434.29	6728.34
434.65	6932.67
435.02	7106.10
435.38	7276.49
435.75	7388.84
436.11	7539.10
436.48	7670.64
436.84	7812.24
437.21	7921.08
437.57	8042.08
437.94	8124.23
438.30	8178.53
438.67	8216.22
439.03	8229.56
439.40	8248.98
439.76	8243.13
440.13	8181.11
440.49	8134.06
440.86	8070.40
441.22	7951.74
441.59	7819.50
441.95	7739.45
442.32	7593.63
442.68	7473.80
443.05	7345.30
443.41	7222.19
443.78	7056.48
444.14	6913.01
444.51	6715.23
444.87	6596.33
445.24	6441.62
445.60	6287.38
445.96	6157.48
446.33	6049.58
446.69	5867.72
447.06	5721.67
447.42	5574.22
447.79	5413.19
448.15	5308.34
448.51	5193.88
448.88	5084.11
449.24	4976.21
449.61	4883.29
449.97	4755.50
450.33	4658.37
450.70	4567.09
451.06	4468.08
451.43	4338.89
451.79	4232.62
452.15	4134.56
452.52	4046.32
452.88	3976.10
453.24	3929.53
453.61	3856.97
453.97	3773.88
454.34	3695.94
454.70	3620.34
455.06	3540.29
455.43	3451.59
455.79	3361.48
456.15	3273.47
456.52	3183.13
456.88	3121.57
457.24	3066.57
457.61	3014.14
457.97	2944.16
458.33	2893.14
458.70	2811.45
459.06	2723.92
459.42	2654.40
459.79	2594.48
460.15	2537.14
460.51	2489.39
460.88	2447.50
461.24	2398.58
461.60	2356.92
461.96	2298.64
462.33	2259.79
462.69	2218.36
463.05	2179.51
463.42	2142.53
463.78	2114.44
464.14	2080.74
464.50	2046.80
464.87	2010.75
465.23	1971.67
465.59	1940.77
465.95	1906.37
466.32	1873.60
466.68	1867.98
467.04	1861.43
467.40	1849.73
467.77	1834.28
468.13	1820.00
468.49	1776.93
468.85	1750.02
469.22	1720.06
469.58	1712.80
469.94	1692.91
470.30	1686.82
470.66	1675.12
471.03	1662.72
471.39	1640.48
471.75	1620.35
472.11	1602.56
472.47	1586.88
472.84	1572.61
473.20	1557.16
473.56	1548.26
473.92	1533.99
474.28	1530.94
474.65	1527.20
475.01	1508.24
475.37	1503.79
475.73	1500.52
476.09	1478.05
476.45	1463.54
476.81	1451.13
477.18	1432.17
477.54	1420.47
477.90	1409.70
478.26	1400.81
478.62	1396.83
478.98	1397.30
479.34	1392.62
479.71	1387.24
480.07	1381.15
480.43	1375.53
480.79	1374.60
481.15	1365.00
481.51	1358.68
481.87	1355.40
482.23	1350.26
482.59	1335.04
482.96	1330.59
483.32	1335.28
483.68	1315.15
484.04	1301.81
484.40	1293.38
484.76	1288.46
485.12	1275.12
485.48	1285.19
485.84	1283.08
486.20	1289.87
486.56	1290.81
486.92	1287.76
487.28	1279.34
487.64	1284.49
488.00	1268.80
488.37	1257.10
488.73	1255.00
489.09	1244.46
489.45	1233.70
489.81	1230.89
490.17	1225.97
490.53	1204.91
490.89	1207.95
491.25	1206.31
491.61	1211.23
491.97	1205.61
492.33	1222.70
492.69	1213.10
493.05	1203.27
493.41	1192.50
493.77	1197.65
494.13	1184.31
494.49	1182.67
494.85	1179.16
495.21	1170.97
495.57	1162.78
495.93	1167.69
496.29	1163.01
496.64	1169.10
497.00	1176.12
497.36	1167.23
497.72	1163.25
498.08	1155.52
498.44	1155.52
498.80	1155.76
499.16	1157.16
499.52	1163.95
499.88	1170.03
500.24	1168.40
500.60	1161.61
500.96	1166.99
501.32	1151.78
501.68	1150.14
502.03	1147.56
502.39	1149.91
502.75	1145.93
503.11	1146.86
503.47	1141.95
503.83	1141.25
504.19	1141.71
504.55	1143.35
504.91	1146.63
505.26	1143.59
505.62	1136.56
505.98	1135.39
506.34	1134.46
506.70	1129.78
507.06	1131.18
507.42	1131.65
507.78	1121.82
508.13	1117.14
508.49	1113.39
508.85	1123.46
509.21	1126.03
509.57	1130.95
509.93	1133.76
510.28	1136.80
510.64	1123.46
511.00	1114.09
511.36	1113.86
511.72	1107.31
512.07	1110.12
512.43	1115.97
512.79	1123.69
513.15	1119.95
513.51	1118.07
513.86	1110.35
514.22	1101.22
514.58	1094.43
514.94	1084.84
515.30	1085.07
515.65	1089.52
516.01	1088.35
516.37	1089.52
516.73	1101.92
517.08	1099.12
517.44	1091.39
517.80	1099.82
518.16	1096.31
518.51	1093.97
518.87	1097.24
519.23	1094.67
519.59	1089.05
519.94	1092.09
520.30	1088.82
520.66	1091.16
521.01	1093.26
521.37	1097.01
521.73	1092.33
522.09	1086.71
522.44	1082.03
522.80	1087.41
523.16	1087.65
523.51	1084.14
523.87	1091.39
524.23	1089.75
524.58	1090.69
524.94	1089.99
525.30	1104.97
525.65	1104.03
526.01	1105.44
526.37	1099.12
526.72	1093.26
527.08	1080.86
527.44	1079.92
527.79	1079.46
528.15	1076.41
528.51	1076.65
528.86	1083.20
529.22	1084.60
529.58	1081.56
529.93	1087.18
530.29	1090.46
530.65	1084.60
531.00	1078.52
531.36	1079.46
531.71	1081.33
532.07	1085.77
532.43	1088.35
532.78	1091.39
533.14	1096.31
533.49	1084.37
533.85	1085.07
534.21	1080.86
534.56	1080.16
534.92	1079.46
535.27	1089.52
535.63	1091.39
535.98	1089.75
536.34	1092.56
536.69	1088.58
537.05	1084.60
537.41	1066.11
537.76	1079.69
538.12	1076.41
538.47	1074.07
538.83	1074.54
539.18	1087.88
539.54	1082.50
539.89	1079.69
540.25	1082.97
540.60	1088.35
540.96	1091.86
541.31	1092.56
541.67	1101.69
542.02	1099.58
542.38	1091.39
542.73	1084.14
543.09	1091.16
543.44	1092.09
543.80	1101.92
544.15	1103.09
544.51	1107.31
544.86	1096.31
545.22	1097.48
545.57	1096.07
545.93	1098.65
546.28	1098.18
546.64	1108.01
546.99	1106.37
547.35	1102.63
547.70	1096.31
548.05	1091.63
548.41	1088.82
548.76	1076.41
549.12	1086.94
549.47	1095.37
549.83	1095.60
550.18	1086.48
550.53	1085.07
550.89	1071.03
551.24	1068.22
551.60	1069.16
551.95	1065.65
552.30	1068.92
552.66	1069.16
553.01	1076.88
553.37	1076.65
553.72	1073.60
554.07	1074.54
554.43	1072.90
554.78	1065.18
555.13	1066.82
555.49	1076.41
555.84	1085.54
556.19	1096.31
556.55	1096.54
556.90	1084.84
557.26	1082.73
557.61	1077.58
557.96	1074.77
558.32	1076.88
558.67	1088.35
559.02	1088.58
559.37	1084.84
559.73	1078.05
560.08	1081.09
560.43	1078.75
560.79	1078.28
561.14	1083.90
561.49	1078.52
561.85	1073.84
562.20	1071.26
562.55	1083.43
562.90	1080.16
563.26	1090.46
563.61	1096.78
563.96	1099.58
564.32	1079.92
564.67	1079.22
565.02	1078.52
565.37	1070.56
565.73	1077.58
566.08	1094.43
566.43	1104.97
566.78	1095.60
567.14	1106.84
567.49	1103.80
567.84	1100.99
568.19	1089.05
568.54	1103.09
568.90	1101.46
569.25	1098.41
569.60	1081.80
569.95	1086.01
570.31	1076.88
570.66	1061.67
571.01	1065.18
571.36	1079.22
571.71	1081.80
572.06	1084.60
572.42	1085.07
572.77	1070.33
573.12	1072.20
573.47	1071.73
573.82	1075.24
574.18	1078.28
574.53	1091.16
574.88	1088.12
575.23	1084.84
575.58	1078.28
575.93	1079.46
576.28	1084.37
576.64	1083.20
576.99	1086.01
577.34	1089.05
577.69	1103.09
578.04	1094.20
578.39	1086.24
578.74	1079.69
579.09	1086.01
579.44	1072.90
579.80	1070.56
580.15	1080.16
580.50	1085.77
580.85	1078.05
581.20	1083.43
581.55	1086.48
581.90	1087.41
582.25	1087.88
582.60	1090.69
582.95	1087.18
583.30	1090.92
583.65	1094.20
584.00	1089.05
584.35	1092.80
584.71	1086.01
585.06	1082.50
585.41	1078.75
585.76	1083.90
586.11	1084.37
586.46	1082.97
586.81	1077.58
587.16	1082.03
587.51	1079.22
587.86	1078.75
588.21	1086.48
588.56	1090.92
588.91	1083.67
589.26	1083.20
589.61	1086.24
589.96	1086.48
590.31	1088.58
590.66	1081.80
591.01	1091.63
591.36	1087.18
591.71	1092.56
592.06	1096.54
592.41	1102.39
592.76	1090.92
593.10	1087.65
593.45	1078.75
593.80	1069.62
594.15	1065.41
594.50	1061.20
594.85	1063.54
595.20	1063.07
595.55	1071.03
595.90	1082.97
596.25	1085.77
596.60	1081.56
596.95	1091.63
597.30	1084.84
597.64	1126.50
597.99	1134.69
598.34	1132.12
598.69	1125.80
599.04	1125.10
599.39	1069.62
599.74	1064.71
600.09	1079.46
600.44	1079.92
600.78	1085.77
601.13	1093.97
601.48	1083.67
601.83	1076.65
602.18	1069.16
602.53	1072.20
602.88	1079.22
603.22	1086.24
603.57	1080.16
603.92	1085.07
604.27	1081.09
604.62	1072.43
604.97	1082.26
605.31	1079.92
605.66	1084.37
606.01	1073.37
606.36	1073.60
606.71	1069.86
607.05	1076.65
607.40	1071.73
607.75	1076.41
608.10	1070.09
608.44	1057.92
608.79	1057.69
609.14	1066.58
609.49	1072.67
609.84	1087.18
610.18	1104.97
610.53	1099.82
610.88	1093.50
611.23	1101.69
611.57	1097.71
611.92	1083.67
612.27	1089.29
612.62	1090.46
612.96	1084.84
613.31	1083.67
613.66	1081.33
614.00	1073.14
614.35	1073.14
614.70	1072.90
615.05	1075.94
615.39	1079.46
615.74	1080.16
616.09	1082.97
616.43	1075.48
616.78	1063.07
617.13	1068.22
617.47	1081.33
617.82	1079.22
618.17	1085.77
618.51	1089.52
618.86	1081.80
619.21	1083.20
619.55	1076.18
619.90	1080.63
620.25	1081.56
620.59	1086.71
620.94	1083.67
621.29	1092.80
621.63	1084.14
621.98	1090.22
622.32	1082.26
622.67	1071.73
623.02	1072.90
623.36	1068.69
623.71	1063.07
624.05	1078.05
624.40	1083.20
624.75	1074.54
625.09	1080.16
625.44	1085.77
625.78	1090.22
626.13	1094.67
626.48	1093.50
626.82	1089.99
627.17	1082.97
627.51	1074.07
627.86	1070.56
628.20	1082.03
628.55	1090.46
628.89	1095.84
629.24	1096.07
629.58	1100.99
629.93	1097.71
630.28	1108.71
630.62	1103.09
630.97	1097.95
631.31	1090.92
631.66	1086.94
632.00	1079.92
632.35	1090.22
632.69	1093.03
633.04	1103.33
633.38	1112.22
633.73	1100.05
634.07	1092.09
634.42	1088.35
634.76	1078.05
635.11	1070.09
635.45	1077.82
635.79	1077.35
636.14	1081.56
636.48	1081.09
636.83	1076.65
637.17	1073.37
637.52	1073.84
637.86	1074.31
638.21	1078.99
638.55	1078.75
638.89	1082.03
639.24	1076.41
639.58	1078.99
639.93	1073.14
640.27	1077.58
640.61	1069.39
640.96	1075.71
641.30	1085.07
641.65	1088.12
641.99	1085.54
642.33	1085.31
642.68	1095.37
643.02	1086.01
643.37	1087.88
643.71	1093.50
644.05	1099.58
644.40	1092.56
644.74	1093.97
645.08	1097.71
645.43	1095.37
645.77	1100.99
646.11	1097.01
646.46	1101.92
646.80	1102.86
647.14	1105.20
647.49	1101.46
647.83	1103.56
648.17	1095.14
648.52	1090.22
648.86	1078.52
649.20	1073.37
649.55	1072.90
649.89	1066.58
650.23	1066.58
650.57	1079.22
650.92	1074.77
651.26	1077.58
651.60	1094.43
651.95	1090.22
652.29	1087.65
652.63	1095.84
652.97	1092.33
653.32	1079.69
653.66	1083.67
654.00	1088.35
654.34	1088.58
654.69	1089.05
655.03	1089.52
655.37	1087.65
655.71	1079.92
656.05	1081.33
656.40	1085.77
656.74	1081.33
657.08	1077.58
657.42	1075.94
657.76	1072.43
658.11	1067.28
658.45	1081.33
658.79	1085.31
659.13	1088.12
659.47	1083.90
659.82	1086.24
660.16	1077.82
660.50	1076.65
660.84	1075.94
661.18	1078.05
661.52	1069.86
661.87	1073.84
662.21	1078.99
662.55	1082.26
662.89	1093.26
663.23	1098.41
663.57	1095.84
663.91	1086.71
664.25	1081.09
664.60	1071.26
664.94	1063.07
665.28	1055.35
665.62	1061.90
665.96	1067.28
666.30	1066.58
666.64	1071.73
666.98	1074.54
667.32	1071.50
667.66	1061.43
668.01	1062.37
668.35	1063.77
668.69	1072.67
669.03	1080.86
669.37	1091.63
669.71	1098.18
670.05	1093.26
670.39	1080.39
670.73	1073.14
671.07	1079.69
671.41	1081.56
671.75	1091.39
672.09	1092.33
672.43	1093.97
672.77	1090.22
673.11	1083.67
673.45	1078.52
673.79	1094.43
674.13	1089.75
674.47	1088.82
674.81	1084.37
675.15	1081.33
675.49	1073.14
675.83	1078.75
676.17	1073.37
676.51	1079.46
676.85	1092.33
677.19	1083.90
677.53	1086.01
677.87	1089.05
678.21	1073.84
678.55	1062.60
678.89	1064.48
679.23	1062.37
679.57	1056.05
679.90	1059.09
680.24	1059.56
680.58	1063.77
680.92	1060.96
681.26	1065.41
681.60	1068.92
681.94	1070.80
682.28	1073.14
682.62	1072.90
682.96	1081.56
683.29	1085.31
683.63	1085.77
683.97	1089.05
684.31	1092.09
684.65	1081.33
684.99	1083.67
685.33	1084.14
685.67	1083.43
686.00	1081.80
686.34	1081.33
686.68	1085.54
687.02	1087.88
687.36	1089.29
687.70	1095.84
688.03	1101.22
688.37	1099.12
688.71	1102.16
689.05	1087.65
689.39	1080.39
689.72	1071.97
690.06	1069.86
690.40	1055.58
690.74	1064.48
691.08	1070.80
691.41	1081.09
691.75	1083.43
692.09	1095.84
692.43	1094.67
692.76	1085.31
693.10	1077.58
693.44	1081.56
693.78	1082.73
694.11	1080.86
694.45	1083.90
694.79	1090.46
695.13	1082.97
695.46	1077.35
695.80	1082.97
696.14	1080.86
696.48	1079.22
696.81	1086.71
697.15	1089.99
697.49	1090.46
697.82	1091.63
698.16	1092.33
698.50	1078.28
698.83	1074.77
699.17	1079.69
699.51	1077.11
699.84	1068.69
700.18	1078.75
700.52	1078.75
700.85	1069.39
701.19	1074.07
701.53	1082.26
701.86	1076.18
702.20	1076.65
702.54	1081.33
702.87	1071.50
703.21	1073.14
703.55	1083.43
703.88	1080.86
704.22	1079.69
704.55	1083.67
704.89	1083.20
705.23	1073.84
705.56	1080.16
705.90	1075.71
706.23	1077.11
706.57	1078.75
706.91	1090.46
707.24	1086.24
707.58	1096.78
707.91	1098.18
708.25	1094.43
708.58	1083.43
708.92	1078.99
709.26	1070.80
709.59	1069.86
709.93	1067.52
710.26	1070.33
710.60	1073.14
710.93	1081.09
711.27	1081.09
711.60	1073.37
711.94	1077.11
712.27	1076.18
712.61	1060.96
712.94	1068.69
713.28	1073.84
713.61	1063.77
713.95	1071.50
714.28	1082.26
714.62	1080.16
714.95	1083.90
715.29	1093.73
715.62	1091.63
715.96	1083.90
716.29	1085.31
716.63	1082.03
716.96	1077.11
717.29	1079.69
717.63	1087.65
717.96	1073.14
718.30	1066.58
718.63	1059.56
718.97	1048.56
719.30	1048.79
719.63	1053.94
719.97	1064.48
720.30	1072.20
720.64	1075.71
720.97	1074.54
721.30	1082.03
721.64	1076.65
721.97	1071.97
722.31	1071.50
722.64	1071.26
722.97	1060.96
723.31	1070.56
723.64	1069.16
723.97	1071.50
724.31	1074.31
724.64	1081.33
724.98	1080.63
725.31	1085.07
725.64	1087.65
725.98	1083.43
726.31	1080.63
726.64	1080.86
726.97	1076.88
727.31	1073.14
727.64	1075.94
727.97	1086.01
728.31	1083.20
728.64	1094.20
728.97	1092.09
729.31	1096.78
729.64	1087.88
729.97	1092.56
730.30	1088.82
730.64	1078.28
730.97	1067.99
731.30	1072.20
731.63	1064.94
731.97	1069.62
732.30	1087.41
732.63	1087.41
732.96	1083.67
733.30	1089.52
733.63	1088.82
733.96	1083.90
734.29	1088.12
734.63	1092.09
734.96	1088.35
735.29	1084.84
735.62	1089.75
735.95	1093.50
736.29	1095.60
736.62	1095.37
736.95	1085.31
737.28	1073.60
737.61	1065.88
737.94	1055.58
738.28	1052.07
738.61	1061.90
738.94	1075.01
739.27	1084.37
739.60	1099.58
739.93	1102.16
740.27	1096.78
740.60	1097.71
740.93	1098.65
741.26	1092.33
741.59	1087.41
741.92	1092.09
742.25	1091.39
742.58	1081.56
742.91	1074.07
743.25	1082.03
743.58	1080.63
743.91	1088.12
744.24	1091.63
744.57	1088.82
744.90	1091.63
745.23	1091.16
745.56	1083.90
745.89	1085.31
746.22	1100.52
746.55	1082.50
746.88	1079.92
747.21	1067.99
747.54	1063.54
747.87	1061.90
748.20	1067.99
748.53	1069.86
748.87	1067.75
749.20	1070.80
749.53	1062.14
749.86	1070.56
750.19	1069.86
750.52	1080.86
750.85	1074.54
751.18	1082.50
751.51	1072.90
751.84	1071.03
752.16	1067.99
752.49	1072.67
752.82	1074.77
753.15	1084.37
753.48	1087.18
753.81	1093.73
754.14	1090.92
754.47	1085.07
754.80	1084.14
755.13	1077.11
755.46	1072.90
755.79	1081.56
756.12	1085.54
756.45	1081.56
756.78	1093.03
757.11	1089.29
757.43	1086.48
757.76	1079.22
758.09	1077.82
758.42	1068.92
758.75	1066.35
759.08	1066.35
759.41	1063.77
759.74	1075.01
760.07	1076.65
760.39	1085.54
760.72	1088.58
761.05	1097.48
761.38	1088.58
761.71	1093.97
762.04	1094.67
762.36	1089.05
762.69	1080.39
763.02	1076.65
763.35	1067.52
763.68	1062.60
764.01	1054.88
764.33	1062.60
764.66	1060.73
764.99	1072.20
765.32	1073.37
765.65	1081.80
765.97	1075.71
766.30	1077.58
766.63	1069.62
766.96	1065.65
767.28	1062.14
767.61	1067.75
767.94	1067.75
768.27	1075.48
768.59	1080.86
768.92	1079.46
769.25	1071.50
769.58	1075.71
769.90	1068.92
770.23	1067.28
770.56	1071.97
770.89	1070.09
771.21	1066.82
771.54	1076.65
771.87	1073.37
772.19	1074.54
772.52	1084.14
772.85	1090.69
773.17	1092.33
773.50	1101.69
773.83	1093.73
774.15	1101.22
774.48	1102.86
774.81	1085.07
775.13	1070.80
775.46	1070.56
775.79	1059.79
776.11	1060.96
776.44	1069.86
776.77	1071.97
777.09	1079.92
777.42	1079.69
777.74	1078.05
778.07	1075.48
778.40	1084.14
778.72	1086.94
779.05	1091.39
779.37	1089.75
779.70	1093.97
780.03	1097.24
780.35	1088.58
780.68	1088.58
781.00	1087.88
781.33	1090.92
781.65	1090.69
781.98	1085.31
782.31	1077.58
782.63	1069.39
782.96	1063.77
783.28	1062.84
783.61	1075.01
783.93	1075.94
784.26	1087.18
784.58	1089.29
784.91	1085.54
785.23	1078.52
785.56	1090.92
785.88	1092.09
786.21	1094.20
786.53	1095.60
786.86	1099.12
787.18	1086.71
787.51	1073.60
787.83	1077.82
788.16	1077.82
788.48	1082.73
788.81	1090.22
789.13	1089.29
789.46	1081.56
789.78	1073.14
790.10	1068.45
790.43	1069.86
790.75	1072.67
791.08	1076.41
791.40	1089.99
791.73	1107.07
792.05	1100.29
792.37	1103.09
792.70	1099.35
793.02	1094.43
793.35	1075.94
793.67	1085.77
793.99	1088.35
794.32	1083.67
794.64	1081.80
794.96	1077.11
795.29	1064.94
795.61	1067.05
795.93	1071.50
796.26	1073.84
796.58	1082.73
796.91	1086.71
797.23	1076.65
797.55	1071.50
797.87	1069.16
798.20	1068.22
798.52	1060.96
798.84	1072.43
799.17	1078.28
799.49	1075.24
799.81	1074.31
800.14	1078.52
800.46	1067.52
800.78	1068.69
801.10	1071.26
801.43	1065.41
801.75	1071.03
802.07	1080.86
802.40	1077.11
802.72	1074.54
803.04	1071.73
803.36	1068.92
803.69	1073.37
804.01	1077.11
804.33	1081.80
804.65	1083.90
804.97	1080.63
805.30	1081.56
805.62	1088.82
805.94	1080.86
806.26	1080.86
806.58	1083.90
806.91	1076.18
807.23	1068.69
807.55	1069.16
807.87	1080.39
808.19	1077.58
808.52	1077.58
808.84	1075.71
809.16	1085.54
809.48	1085.54
809.80	1078.99
810.12	1085.31
810.44	1086.24
810.77	1083.43
811.09	1081.56
811.41	1083.43
811.73	1068.92
812.05	1072.90
812.37	1075.71
812.69	1080.63
813.01	1079.22
813.33	1090.22
813.66	1086.01
813.98	1084.84
814.30	1078.28
814.62	1082.73
814.94	1080.16
815.26	1090.69
815.58	1092.56
815.90	1099.82
816.22	1108.95
816.54	1107.31
816.86	1106.37
817.18	1098.88
817.50	1082.50
817.82	1079.46
818.14	1078.99
818.46	1083.43
818.78	1092.33
819.10	1100.99
819.42	1105.44
819.74	1108.24
820.06	1087.65
820.38	1080.86
820.70	1079.46
821.02	1067.75
821.34	1073.14
821.66	1075.71
821.98	1069.86
822.30	1070.80
822.62	1079.92
822.94	1073.37
823.26	1080.16
823.58	1078.52
823.90	1080.86
824.22	1079.22
824.54	1079.46
824.86	1073.14
825.18	1073.14
825.50	1073.60
825.81	1070.56
826.13	1074.07
826.45	1074.31
826.77	1088.58
827.09	1087.65
827.41	1090.22
827.73	1091.86
828.05	1095.60
828.36	1093.50
828.68	1090.22
829.00	1098.18
829.32	1092.56
829.64	1098.41
829.96	1101.92
830.28	1111.52
830.59	1109.88
830.91	1101.69
831.23	1099.58
831.55	1089.52
831.87	1086.94
832.19	1075.01
832.50	1080.16
832.82	1071.97
833.14	1073.37
833.46	1065.41
833.78	1069.16
834.09	1075.24
834.41	1075.94
834.73	1074.54
835.05	1071.97
835.36	1067.28
835.68	1064.01
836.00	1078.28
836.32	1075.48
836.63	1078.28
836.95	1086.01
837.27	1080.16
837.59	1069.86
837.90	1077.58
838.22	1077.82
838.54	1067.99
838.85	1066.35
839.17	1070.80
839.49	1074.31
839.80	1084.84
840.12	1088.82
840.44	1092.09
840.76	1087.88
841.07	1085.77
841.39	1079.22
841.71	1086.01
842.02	1095.37
842.34	1104.26
842.65	1099.35
842.97	1098.41
843.29	1100.52
843.60	1098.88
843.92	1097.71
844.24	1100.52
844.55	1091.16
844.87	1083.43
845.18	1086.24
845.50	1079.22
845.82	1075.24
846.13	1087.41
846.45	1089.99
846.76	1083.90
847.08	1088.12
847.40	1096.54
847.71	1091.16
848.03	1096.78
848.34	1092.56
848.66	1091.86
848.97	1093.26
849.29	1097.95
849.60	1091.63
849.92	1095.14
850.24	1098.65
850.55	1090.22
850.87	1083.90
851.18	1087.18
851.50	1088.58
851.81	1082.26
852.13	1093.03
852.44	1102.86
852.76	1099.12
853.07	1104.73
853.39	1106.14
853.70	1084.37
854.01	1079.92
854.33	1083.67
854.64	1073.84
854.96	1069.16
855.27	1079.46
855.59	1077.11
855.90	1069.16
856.22	1064.01
856.53	1064.24
856.84	1068.45
857.16	1067.28
857.47	1078.05
857.79	1098.65
858.10	1102.16
858.41	1096.07
858.73	1096.78
859.04	1089.29
859.36	1071.97
859.67	1071.97
859.98	1077.11
860.30	1071.97
860.61	1078.52
860.92	1081.33
861.24	1080.86
861.55	1069.16
861.87	1074.77
862.18	1068.22
862.49	1061.20
862.81	1056.52
863.12	1065.65
863.43	1063.77
863.74	1060.50
864.06	1070.33
864.37	1076.88
864.68	1082.50
865.00	1083.43
865.31	1082.03
865.62	1083.90
865.94	1074.54
866.25	1065.18
866.56	1061.67
866.87	1061.67
867.19	1060.73
867.50	1066.82
867.81	1073.37
868.12	1074.77
868.44	1083.90
868.75	1080.86
869.06	1078.99
869.37	1087.18
869.68	1093.03
870.00	1074.54
870.31	1075.71
870.62	1083.67
870.93	1075.94
871.24	1072.90
871.56	1089.99
871.87	1089.99
872.18	1072.90
872.49	1069.62
872.80	1071.97
873.12	1072.43
873.43	1078.52
873.74	1083.90
874.05	1083.20
874.36	1083.20
874.67	1079.69
874.98	1066.58
875.29	1071.97
875.61	1062.37
875.92	1053.48
876.23	1044.35
876.54	1056.52
876.85	1059.09
877.16	1078.05
877.47	1085.77
877.78	1098.65
878.09	1095.37
878.40	1094.20
878.72	1080.86
879.03	1079.69
879.34	1081.56
879.65	1084.37
879.96	1089.75
880.27	1089.05
880.58	1095.14
880.89	1085.31
881.20	1086.01
881.51	1073.14
881.82	1080.63
882.13	1065.65
882.44	1070.33
882.75	1061.67
883.06	1066.58
883.37	1067.99
883.68	1079.22
883.99	1080.63
884.30	1081.80
884.61	1078.99
884.92	1076.18
885.23	1078.75
885.54	1077.11
885.85	1079.69
886.16	1084.60
886.47	1084.14
886.78	1078.52
887.08	1086.94
887.39	1094.20
887.70	1097.01
888.01	1097.01
888.32	1101.22
888.63	1091.63
888.94	1084.84
889.25	1081.56
889.56	1080.63
889.87	1086.24
890.17	1084.37
890.48	1085.31
890.79	1090.22
891.10	1080.63
891.41	1073.37
891.72	1076.18
892.03	1064.94
892.34	1056.28
892.64	1063.77
892.95	1056.05
893.26	1049.73
893.57	1055.58
893.88	1054.41
894.18	1053.71
894.49	1057.45
894.80	1066.35
895.11	1077.11
895.42	1075.94
895.72	1078.99
896.03	1077.82
896.34	1075.24
896.65	1067.75
896.96	1065.88
897.26	1071.26
897.57	1065.65
897.88	1064.24
898.19	1053.71
898.49	1060.96
898.80	1058.62
899.11	1060.26
899.41	1057.22
899.72	1068.92
900.03	1066.11
900.34	1061.20
900.64	1064.24
900.95	1067.05
901.26	1070.09
901.56	1071.97
901.87	1078.05
902.18	1081.80
902.48	1090.69
902.79	1087.41
903.10	1094.43
903.40	1097.01
903.71	1103.09
904.02	1094.43
904.32	1084.60
904.63	1074.07
904.94	1065.18
905.24	1053.94
905.55	1051.60
905.85	1070.33
906.16	1072.20
906.47	1069.16
906.77	1075.01
907.08	1086.48
907.38	1086.71
907.69	1090.46
908.00	1100.05
908.30	1094.20
908.61	1075.24
908.91	1062.37
909.22	1059.33
909.52	1050.43
909.83	1059.79
910.14	1066.35
910.44	1070.56
910.75	1075.48
911.05	1078.28
911.36	1070.80
911.66	1079.22
911.97	1075.48
912.27	1067.75
912.58	1071.73
912.88	1078.75
913.19	1070.09
913.49	1064.71
913.80	1071.73
914.10	1061.67
914.41	1052.30
914.71	1059.33
915.01	1069.86
915.32	1062.84
915.62	1070.56
915.93	1077.11
916.23	1072.90
916.54	1066.82
916.84	1067.52
917.15	1069.16
917.45	1064.48
917.75	1072.20
918.06	1071.03
918.36	1072.43
918.67	1080.63
918.97	1087.65
919.27	1073.84
919.58	1078.75
919.88	1076.88
920.18	1059.33
920.49	1057.22
920.79	1073.60
921.10	1073.84
921.40	1074.54
921.70	1086.01
922.01	1084.60
922.31	1067.99
922.61	1066.35
922.92	1069.16
923.22	1072.20
923.52	1074.77
923.82	1097.01
924.13	1099.12
924.43	1105.67
924.73	1097.01
925.04	1096.54
925.34	1082.73
925.64	1083.20
925.94	1078.75
926.25	1079.46
926.55	1080.39
926.85	1088.58
927.15	1089.99
927.46	1087.18
927.76	1090.46
928.06	1089.52
928.36	1080.39
928.67	1080.16
928.97	1075.94
929.27	1071.73
929.57	1054.65
929.87	1067.05
930.18	1067.28
930.48	1065.88
930.78	1067.52
931.08	1082.50
931.38	1074.54
931.69	1077.58
931.99	1079.92
932.29	1086.24
932.59	1090.22
932.89	1095.37
933.19	1095.14
933.49	1103.09
933.80	1094.90
934.10	1089.75
934.40	1088.35
934.70	1075.48
935.00	1069.39
935.30	1073.37
935.60	1068.69
935.90	1051.37
936.20	1055.58
936.50	1068.22
936.81	1066.11
937.11	1061.90
937.41	1071.73
937.71	1070.09
938.01	1059.79
938.31	1064.94
938.61	1074.31
938.91	1072.90
939.21	1082.50
939.51	1082.26
939.81	1083.67
940.11	1083.90
940.41	1080.63
940.71	1078.99
941.01	1076.65
941.31	1066.35
941.61	1068.22
941.91	1071.97
942.21	1075.71
942.51	1080.63
942.81	1082.26
943.11	1087.18
943.41	1088.12
943.71	1085.07
944.01	1091.16
944.31	1092.56
944.61	1092.09
944.90	1099.12
945.20	1098.18
945.50	1088.58
945.80	1092.33
946.10	1093.73
946.40	1085.54
946.70	1084.84
947.00	1086.24
947.30	1086.48
947.60	1075.71
947.89	1078.99
948.19	1071.97
948.49	1068.92
948.79	1069.62
949.09	1072.67
949.39	1066.35
949.69	1069.39
949.98	1084.37
950.28	1087.65
950.58	1091.63
950.88	1108.71
951.18	1112.92
951.48	1107.31
951.77	1103.80
952.07	1108.48
952.37	1099.35
952.67	1092.80
952.97	1095.84
953.26	1101.22
953.56	1096.54
953.86	1095.60
954.16	1104.73
954.45	1094.43
954.75	1078.28
955.05	1071.97
955.35	1069.39
955.64	1053.94
955.94	1060.03
956.24	1064.48
956.54	1061.67
956.83	1070.33
957.13	1083.67
957.43	1079.22
957.72	1081.33
958.02	1093.73
958.32	1078.05
958.61	1070.80
958.91	1072.20
959.21	1077.35
959.50	1074.54
959.80	1085.77
960.10	1086.94
960.39	1084.37
960.69	1079.69
960.99	1077.58
961.28	1081.80
961.58	1089.29
961.87	1097.48
962.17	1092.09
962.47	1095.60
962.76	1083.20
963.06	1075.48
963.36	1068.69
963.65	1077.82
963.95	1070.80
964.24	1079.69
964.54	1075.94
964.83	1093.03
965.13	1094.43
965.42	1097.01
965.72	1091.63
966.02	1095.84
966.31	1076.18
966.61	1067.75
966.90	1064.71
967.20	1065.88
967.49	1065.88
967.79	1065.88
968.08	1077.11
968.38	1086.24
968.67	1082.50
968.97	1091.86
969.26	1093.73
969.56	1086.48
969.85	1078.99
970.15	1091.86
970.44	1090.22
970.74	1092.56
971.03	1103.80
971.32	1103.56
971.62	1097.95
971.91	1097.24
972.21	1098.41
972.50	1083.20
972.80	1083.67
973.09	1080.39
973.38	1075.48
973.68	1072.90
973.97	1068.69
974.27	1065.65
974.56	1063.31
974.85	1071.50
975.15	1073.60
975.44	1083.43
975.73	1092.09
976.03	1096.78
976.32	1094.67
976.61	1095.14
976.91	1096.54
977.20	1094.90
977.49	1088.12
977.79	1080.16
978.08	1064.01
978.37	1061.43
978.67	1056.52
978.96	1065.65
979.25	1072.67
979.55	1078.05
979.84	1077.11
980.13	1086.94
980.42	1083.43
980.72	1080.39
981.01	1092.09
981.30	1085.31
981.59	1076.65
981.89	1068.22
982.18	1073.37
982.47	1065.41
982.76	1087.18
983.06	1088.12
983.35	1099.12
983.64	1096.54
983.93	1101.22
984.22	1082.73
984.52	1079.69
984.81	1071.26
985.10	1068.22
985.39	1064.71
985.68	1076.18
985.97	1088.12
986.27	1095.84
986.56	1089.05
986.85	1094.90
987.14	1083.67
987.43	1078.52
987.72	1077.82
988.01	1091.63
988.31	1092.09
988.60	1094.43
988.89	1084.84
989.18	1087.18
989.47	1071.50
989.76	1065.18
990.05	1063.77
990.34	1059.33
990.63	1063.54
990.92	1070.80
991.21	1071.26
991.51	1074.77
991.80	1082.03
992.09	1073.14
992.38	1075.01
992.67	1071.97
992.96	1063.31
993.25	1056.05
993.54	1055.58
993.83	1041.30
994.12	1038.50
994.41	1049.03
994.70	1058.39
994.99	1062.14
995.28	1072.43
995.57	1077.11
995.86	1078.05
996.15	1072.43
996.44	1062.60
996.73	1069.62
997.02	1081.56
997.31	1078.99
997.59	1085.31
997.88	1088.35
998.17	1086.01
998.46	1076.18
998.75	1084.14
999.04	1083.20
999.33	1085.54
999.62	1080.63
999.91	1083.90
1000.20	1081.09
1000.49	1079.46
1000.77	1084.14
1001.06	1088.58
1001.35	1084.37
1001.64	1078.75
1001.93	1078.99
1002.22	1075.48
1002.51	1081.09
1002.79	1086.94
1003.08	1091.86
1003.37	1092.80
1003.66	1091.16
1003.95	1086.01
1004.23	1087.88
1004.52	1083.67
1004.81	1083.67
1005.10	1086.48
1005.39	1086.01
1005.67	1076.65
1005.96	1078.75
1006.25	1079.46
1006.54	1078.75
1006.83	1072.90
1007.11	1075.71
1007.40	1076.88
1007.69	1073.60
1007.97	1068.69
1008.26	1066.82
1008.55	1052.30
1008.84	1043.41
1009.12	1046.22
1009.41	1050.67
1009.70	1075.24
1009.98	1090.69
1010.27	1095.60
1010.56	1093.73
1010.85	1093.26
1011.13	1076.88
1011.42	1088.12
1011.71	1084.60
1011.99	1097.24
1012.28	1099.58
1012.56	1095.84
1012.85	1093.73
1013.14	1095.60
1013.42	1081.33
1013.71	1079.69
1014.00	1082.73
1014.28	1074.31
1014.57	1069.62
1014.85	1072.20
1015.14	1075.01
1015.43	1071.03
1015.71	1062.60
1016.00	1075.48
1016.28	1075.48
1016.57	1079.22
1016.85	1082.03
1017.14	1088.35
1017.43	1085.07
1017.71	1090.22
1018.00	1087.88
1018.28	1080.86
1018.57	1076.88
1018.85	1066.82
1019.14	1065.18
1019.42	1064.94
1019.71	1067.05
1019.99	1067.05
1020.28	1070.33
1020.56	1067.05
1020.85	1071.03
1021.13	1076.88
1021.42	1084.60
1021.70	1082.03
1021.99	1085.77
1022.27	1078.99
1022.55	1090.69
1022.84	1086.01
>>>>>End Processed Spectral Data<<<<<
