SpectraSuite Data File
++++++++++++++++++++++++++++++++++++
Date: Mon Aug 26 10:24:33 PDT 2019
User: corrico
Dark Spectrum Present: No
Reference Spectrum Present: No
Number of Sampled Component Spectra: 1
Spectrometers: USB2+H06089
Integration Time (usec): 10000 (USB2+H06089)
Spectra Averaged: 2 (USB2+H06089)
Boxcar Smoothing: 2 (USB2+H06089)
Correct for Electrical Dark: No (USB2+H06089)
Strobe/Lamp Enabled: No (USB2+H06089)
Correct for Detector Non-linearity: No (USB2+H06089)
Correct for Stray Light: No (USB2+H06089)
Number of Pixels in Processed Spectrum: 2048
>>>>>Begin Processed Spectral Data<<<<<
339.70	1036.86
340.07	1036.86
340.45	985.60
340.82	961.73
341.19	932.00
341.57	906.49
341.94	902.74
342.31	900.64
342.69	895.02
343.06	897.60
343.43	890.34
343.81	897.36
344.18	904.15
344.55	910.23
344.93	923.34
345.30	940.19
345.67	944.41
346.04	943.00
346.42	954.24
346.79	947.21
347.16	948.39
347.54	959.15
347.91	976.94
348.28	974.83
348.65	986.30
349.03	997.30
349.40	998.24
349.77	1006.90
350.14	1021.41
350.52	1029.84
350.89	1040.13
351.26	1044.82
351.63	1048.56
352.01	1043.18
352.38	1048.56
352.75	1042.71
353.12	1053.48
353.50	1051.13
353.87	1064.24
354.24	1068.45
354.61	1071.26
354.98	1071.26
355.36	1081.56
355.73	1073.14
356.10	1078.99
356.47	1084.37
356.84	1095.60
357.22	1089.29
357.59	1095.14
357.96	1090.46
358.33	1097.48
358.70	1094.20
359.08	1092.33
359.45	1093.73
359.82	1092.09
360.19	1082.97
360.56	1080.86
360.94	1075.94
361.31	1063.77
361.68	1067.05
362.05	1064.94
362.42	1051.84
362.79	1053.01
363.16	1072.20
363.54	1068.69
363.91	1072.90
364.28	1078.52
364.65	1078.75
365.02	1075.01
365.39	1074.77
365.76	1070.80
366.14	1060.96
366.51	1057.45
366.88	1046.69
367.25	1035.92
367.62	1037.09
367.99	1044.11
368.36	1054.65
368.73	1068.45
369.10	1079.69
369.48	1077.11
369.85	1084.60
370.22	1074.54
370.59	1073.37
370.96	1073.37
371.33	1076.65
371.70	1075.01
372.07	1084.37
372.44	1074.31
372.81	1070.33
373.18	1067.99
373.55	1069.39
373.93	1074.54
374.30	1084.37
374.67	1086.48
375.04	1085.54
375.41	1083.20
375.78	1071.03
376.15	1070.56
376.52	1076.65
376.89	1078.52
377.26	1071.73
377.63	1072.20
378.00	1072.67
378.37	1062.60
378.74	1062.60
379.11	1072.67
379.48	1075.71
379.85	1080.86
380.22	1087.88
380.59	1096.07
380.96	1094.90
381.33	1099.35
381.70	1089.99
382.07	1088.58
382.44	1081.80
382.81	1071.73
383.18	1067.05
383.55	1070.33
383.92	1060.73
384.29	1061.90
384.66	1066.82
385.03	1072.20
385.40	1070.33
385.77	1084.14
386.14	1089.52
386.51	1098.18
386.88	1090.92
387.25	1092.80
387.62	1092.33
387.99	1094.43
388.36	1087.65
388.73	1093.97
389.10	1087.18
389.46	1080.16
389.83	1068.92
390.20	1058.62
390.57	1052.54
390.94	1053.01
391.31	1056.52
391.68	1056.99
392.05	1071.73
392.42	1073.14
392.79	1078.28
393.16	1082.03
393.53	1089.99
393.89	1083.67
394.26	1085.77
394.63	1084.60
395.00	1091.86
395.37	1082.26
395.74	1088.35
396.11	1098.18
396.48	1101.69
396.84	1089.52
397.21	1094.43
397.58	1091.39
397.95	1073.84
398.32	1076.65
398.69	1080.16
399.06	1076.65
399.42	1080.39
399.79	1091.16
400.16	1077.58
400.53	1087.65
400.90	1093.97
401.27	1100.52
401.64	1096.31
402.00	1102.86
402.37	1098.65
402.74	1098.65
403.11	1090.69
403.48	1095.60
403.84	1105.20
404.21	1108.24
404.58	1108.71
404.95	1111.05
405.32	1113.39
405.68	1114.56
406.05	1112.69
406.42	1115.03
406.79	1113.63
407.16	1120.88
407.52	1128.84
407.89	1136.80
408.26	1152.01
408.63	1180.80
408.99	1188.99
409.36	1182.44
409.73	1189.46
410.10	1199.52
410.47	1189.69
410.83	1195.31
411.20	1214.04
411.57	1222.23
411.94	1224.57
412.30	1239.55
412.67	1254.53
413.04	1272.78
413.40	1296.66
413.77	1319.36
414.14	1349.08
414.51	1374.60
414.87	1394.96
415.24	1409.94
415.61	1429.13
415.97	1446.69
416.34	1461.43
416.71	1497.47
417.08	1536.33
417.44	1571.20
417.81	1603.74
418.18	1654.06
418.54	1697.12
418.91	1724.97
419.28	1770.85
419.64	1816.26
420.01	1853.70
420.38	1908.00
420.74	1971.90
421.11	2031.35
421.48	2087.99
421.84	2158.68
422.21	2207.13
422.58	2272.89
422.94	2348.96
423.31	2426.20
423.68	2488.22
424.04	2571.78
424.41	2654.17
424.77	2735.38
425.14	2833.45
425.51	2953.99
425.87	3056.04
426.24	3173.30
426.61	3283.07
426.97	3402.20
427.34	3516.42
427.70	3659.19
428.07	3794.48
428.44	3953.87
428.80	4112.56
429.17	4269.84
429.53	4391.78
429.90	4573.41
430.27	4726.48
430.63	4857.31
431.00	5021.62
431.36	5218.46
431.73	5354.44
432.09	5513.37
432.46	5692.18
432.83	5882.70
433.19	6062.92
433.56	6266.78
433.92	6480.71
434.29	6673.57
434.65	6843.26
435.02	7016.22
435.38	7165.78
435.75	7273.21
436.11	7449.46
436.48	7586.38
436.84	7720.26
437.21	7837.28
437.57	7947.05
437.94	8013.76
438.30	8078.12
438.67	8105.74
439.03	8129.85
439.40	8169.41
439.76	8115.11
440.13	8074.61
440.49	8010.25
440.86	7954.31
441.22	7857.65
441.59	7781.35
441.95	7678.13
442.32	7542.14
442.68	7417.16
443.05	7267.13
443.41	7138.63
443.78	6960.52
444.14	6825.94
444.51	6653.21
444.87	6516.29
445.24	6349.17
445.60	6212.95
445.96	6075.56
446.33	5946.83
446.69	5784.63
447.06	5651.93
447.42	5527.18
447.79	5383.00
448.15	5235.08
448.51	5151.75
448.88	5056.73
449.24	4947.89
449.61	4858.02
449.97	4766.03
450.33	4645.96
450.70	4512.79
451.06	4402.08
451.43	4287.63
451.79	4202.43
452.15	4116.07
452.52	4048.66
452.88	3983.12
453.24	3920.63
453.61	3854.86
453.97	3787.92
454.34	3696.41
454.70	3612.62
455.06	3535.38
455.43	3431.69
455.79	3334.33
456.15	3266.22
456.52	3184.30
456.88	3125.55
457.24	3068.68
457.61	2998.93
457.97	2932.69
458.33	2878.16
458.70	2809.81
459.06	2738.43
459.42	2690.45
459.79	2618.12
460.15	2567.10
460.51	2498.05
460.88	2442.82
461.24	2386.18
461.60	2353.64
461.96	2307.53
462.33	2279.21
462.69	2235.91
463.05	2192.38
463.42	2167.10
463.78	2129.19
464.14	2080.97
464.50	2051.01
464.87	2013.80
465.23	1981.03
465.59	1946.62
465.95	1937.03
466.32	1916.90
466.68	1913.62
467.04	1890.92
467.40	1865.41
467.77	1841.07
468.13	1822.11
468.49	1797.77
468.85	1771.55
469.22	1762.19
469.58	1738.32
469.94	1720.29
470.30	1698.99
470.66	1679.80
471.03	1657.57
471.39	1652.65
471.75	1638.61
472.11	1621.99
472.47	1616.61
472.84	1614.27
473.20	1591.80
473.56	1574.01
473.92	1548.73
474.28	1531.18
474.65	1511.99
475.01	1499.35
475.37	1474.77
475.73	1488.58
476.09	1480.15
476.45	1478.05
476.81	1470.56
477.18	1473.37
477.54	1448.56
477.90	1419.53
478.26	1408.77
478.62	1398.70
478.98	1381.15
479.34	1369.45
479.71	1376.47
480.07	1355.17
480.43	1349.08
480.79	1344.87
481.15	1342.53
481.51	1342.53
481.87	1336.68
482.23	1333.17
482.59	1332.00
482.96	1324.51
483.32	1317.25
483.68	1319.59
484.04	1310.70
484.40	1302.27
484.76	1307.42
485.12	1303.91
485.48	1296.89
485.84	1278.40
486.20	1277.23
486.56	1265.29
486.92	1263.42
487.28	1252.65
487.64	1255.46
488.00	1257.80
488.37	1255.00
488.73	1239.31
489.09	1247.51
489.45	1240.25
489.81	1225.74
490.17	1218.48
490.53	1216.84
490.89	1203.50
491.25	1214.27
491.61	1212.40
491.97	1212.87
492.33	1216.38
492.69	1207.48
493.05	1199.29
493.41	1195.55
493.77	1193.91
494.13	1186.89
494.49	1195.78
494.85	1184.78
495.21	1177.06
495.57	1168.16
495.93	1171.20
496.29	1172.37
496.64	1172.14
497.00	1171.20
497.36	1173.78
497.72	1156.93
498.08	1153.65
498.44	1159.27
498.80	1158.10
499.16	1147.56
499.52	1158.10
499.88	1142.65
500.24	1130.95
500.60	1137.73
500.96	1142.42
501.32	1148.50
501.68	1142.65
502.03	1142.88
502.39	1139.84
502.75	1141.25
503.11	1126.27
503.47	1140.54
503.83	1144.05
504.19	1140.31
504.55	1137.27
504.91	1136.56
505.26	1130.71
505.62	1137.27
505.98	1141.71
506.34	1142.88
506.70	1149.67
507.06	1161.84
507.42	1152.25
507.78	1131.65
508.13	1124.63
508.49	1126.73
508.85	1116.90
509.21	1111.52
509.57	1137.03
509.93	1131.88
510.28	1120.88
510.64	1118.07
511.00	1123.22
511.36	1114.56
511.72	1115.03
512.07	1107.78
512.43	1107.78
512.79	1104.26
513.15	1093.50
513.51	1092.33
513.86	1098.88
514.22	1095.14
514.58	1099.82
514.94	1099.35
515.30	1101.69
515.65	1101.92
516.01	1097.95
516.37	1095.14
516.73	1101.92
517.08	1107.07
517.44	1108.71
517.80	1114.33
518.16	1112.46
518.51	1117.37
518.87	1113.63
519.23	1120.88
519.59	1116.90
519.94	1119.95
520.30	1110.82
520.66	1107.78
521.01	1095.84
521.37	1097.01
521.73	1093.50
522.09	1098.65
522.44	1106.37
522.80	1101.92
523.16	1106.84
523.51	1100.29
523.87	1102.63
524.23	1091.39
524.58	1099.58
524.94	1091.86
525.30	1102.86
525.65	1092.56
526.01	1105.67
526.37	1100.29
526.72	1102.16
527.08	1088.35
527.44	1086.71
527.79	1072.20
528.15	1067.75
528.51	1076.18
528.86	1081.56
529.22	1086.71
529.58	1085.77
529.93	1092.09
530.29	1085.54
530.65	1090.22
531.00	1100.29
531.36	1102.39
531.71	1102.39
532.07	1102.63
532.43	1103.09
532.78	1092.80
533.14	1094.43
533.49	1094.67
533.85	1097.71
534.21	1095.84
534.56	1090.69
534.92	1094.20
535.27	1100.52
535.63	1094.43
535.98	1100.29
536.34	1112.22
536.69	1101.46
537.05	1080.39
537.41	1076.65
537.76	1066.58
538.12	1066.11
538.47	1072.67
538.83	1089.05
539.18	1098.88
539.54	1105.44
539.89	1097.71
540.25	1097.24
540.60	1094.20
540.96	1086.24
541.31	1085.07
541.67	1087.65
542.02	1095.84
542.38	1102.39
542.73	1102.16
543.09	1099.12
543.44	1103.80
543.80	1093.97
544.15	1084.60
544.51	1090.46
544.86	1095.84
545.22	1092.33
545.57	1101.46
545.93	1108.95
546.28	1118.78
546.64	1107.07
546.99	1111.29
547.35	1108.48
547.70	1104.97
548.05	1096.31
548.41	1099.82
548.76	1087.65
549.12	1089.29
549.47	1084.14
549.83	1087.65
550.18	1086.01
550.53	1092.33
550.89	1080.86
551.24	1082.26
551.60	1072.67
551.95	1083.67
552.30	1086.48
552.66	1094.67
553.01	1100.05
553.37	1097.24
553.72	1084.60
554.07	1086.48
554.43	1083.20
554.78	1080.39
555.13	1093.26
555.49	1097.95
555.84	1086.94
556.19	1084.37
556.55	1093.50
556.90	1083.67
557.26	1074.54
557.61	1086.24
557.96	1085.54
558.32	1080.16
558.67	1083.90
559.02	1099.58
559.37	1087.88
559.73	1089.05
560.08	1091.86
560.43	1087.65
560.79	1080.63
561.14	1080.39
561.49	1079.46
561.85	1070.09
562.20	1074.77
562.55	1075.01
562.90	1069.86
563.26	1073.60
563.61	1085.54
563.96	1083.67
564.32	1091.63
564.67	1108.01
565.02	1100.52
565.37	1086.71
565.73	1081.56
566.08	1063.07
566.43	1052.07
566.78	1069.16
567.14	1086.24
567.49	1088.58
567.84	1106.37
568.19	1110.58
568.54	1098.18
568.90	1084.37
569.25	1086.94
569.60	1087.18
569.95	1092.56
570.31	1097.24
570.66	1093.50
571.01	1093.73
571.36	1094.90
571.71	1084.14
572.06	1086.71
572.42	1095.37
572.77	1091.39
573.12	1087.65
573.47	1091.86
573.82	1091.16
574.18	1087.88
574.53	1077.11
574.88	1065.88
575.23	1067.75
575.58	1069.62
575.93	1072.20
576.28	1086.24
576.64	1095.14
576.99	1104.03
577.34	1102.63
577.69	1103.80
578.04	1109.65
578.39	1103.80
578.74	1094.90
579.09	1084.37
579.44	1080.16
579.80	1066.11
580.15	1066.11
580.50	1067.28
580.85	1069.39
581.20	1071.73
581.55	1077.58
581.90	1072.67
582.25	1067.52
582.60	1071.97
582.95	1085.77
583.30	1083.67
583.65	1096.54
584.00	1102.16
584.35	1106.14
584.71	1093.03
585.06	1095.14
585.41	1093.03
585.76	1094.90
586.11	1097.24
586.46	1095.14
586.81	1091.86
587.16	1093.03
587.51	1079.46
587.86	1073.60
588.21	1078.75
588.56	1079.22
588.91	1072.67
589.26	1087.41
589.61	1087.88
589.96	1088.82
590.31	1091.39
590.66	1088.58
591.01	1081.33
591.36	1078.99
591.71	1064.01
592.06	1069.16
592.41	1072.90
592.76	1072.90
593.10	1071.26
593.45	1081.33
593.80	1076.41
594.15	1073.14
594.50	1072.20
594.85	1074.31
595.20	1067.52
595.55	1061.43
595.90	1071.26
596.25	1070.09
596.60	1077.58
596.95	1089.05
597.30	1094.43
597.64	1139.61
597.99	1149.20
598.34	1145.46
598.69	1144.29
599.04	1140.31
599.39	1088.12
599.74	1082.97
600.09	1079.69
600.44	1075.94
600.78	1081.09
601.13	1089.52
601.48	1088.12
601.83	1096.07
602.18	1093.26
602.53	1094.43
602.88	1090.69
603.22	1091.39
603.57	1097.24
603.92	1091.86
604.27	1092.80
604.62	1089.75
604.97	1085.07
605.31	1071.73
605.66	1073.60
606.01	1071.03
606.36	1064.24
606.71	1059.56
607.05	1064.48
607.40	1071.50
607.75	1056.52
608.10	1067.28
608.44	1074.31
608.79	1063.07
609.14	1057.45
609.49	1069.62
609.84	1065.65
610.18	1079.46
610.53	1094.67
610.88	1101.22
611.23	1109.41
611.57	1118.31
611.92	1113.63
612.27	1105.90
612.62	1105.90
612.96	1101.22
613.31	1101.69
613.66	1093.26
614.00	1099.35
614.35	1100.05
614.70	1105.44
615.05	1092.80
615.39	1096.31
615.74	1089.52
616.09	1085.31
616.43	1074.54
616.78	1078.99
617.13	1083.90
617.47	1074.77
617.82	1072.20
618.17	1081.80
618.51	1085.31
618.86	1078.52
619.21	1091.86
619.55	1093.26
619.90	1091.86
620.25	1091.16
620.59	1090.92
620.94	1078.75
621.29	1075.24
621.63	1073.14
621.98	1075.24
622.32	1064.01
622.67	1069.62
623.02	1075.48
623.36	1071.50
623.71	1075.94
624.05	1090.46
624.40	1107.31
624.75	1117.84
625.09	1124.16
625.44	1121.12
625.78	1122.52
626.13	1100.29
626.48	1084.84
626.82	1082.26
627.17	1075.71
627.51	1071.73
627.86	1076.18
628.20	1076.88
628.55	1075.48
628.89	1075.24
629.24	1074.07
629.58	1071.73
629.93	1080.86
630.28	1077.11
630.62	1072.90
630.97	1071.03
631.31	1077.11
631.66	1069.16
632.00	1069.39
632.35	1066.35
632.69	1062.84
633.04	1064.94
633.38	1075.01
633.73	1070.80
634.07	1084.14
634.42	1102.86
634.76	1098.65
635.11	1088.82
635.45	1100.75
635.79	1092.09
636.14	1082.73
636.48	1083.90
636.83	1083.67
637.17	1082.03
637.52	1089.99
637.86	1090.22
638.21	1093.03
638.55	1098.88
638.89	1096.07
639.24	1088.58
639.58	1090.69
639.93	1083.67
640.27	1076.41
640.61	1074.77
640.96	1079.46
641.30	1067.75
641.65	1080.63
641.99	1088.58
642.33	1088.58
642.68	1086.24
643.02	1089.29
643.37	1081.09
643.71	1073.60
644.05	1074.07
644.40	1071.73
644.74	1069.16
645.08	1074.07
645.43	1087.65
645.77	1103.80
646.11	1102.86
646.46	1102.86
646.80	1102.86
647.14	1093.97
647.49	1088.35
647.83	1100.29
648.17	1108.48
648.52	1104.73
648.86	1097.01
649.20	1093.97
649.55	1083.90
649.89	1078.99
650.23	1074.31
650.57	1081.56
650.92	1072.43
651.26	1071.73
651.60	1070.09
651.95	1066.58
652.29	1067.05
652.63	1064.24
652.97	1068.45
653.32	1079.46
653.66	1084.84
654.00	1085.07
654.34	1090.22
654.69	1094.90
655.03	1079.46
655.37	1072.20
655.71	1071.26
656.05	1072.43
656.40	1074.77
656.74	1085.07
657.08	1100.05
657.42	1099.82
657.76	1106.84
658.11	1106.14
658.45	1104.03
658.79	1103.80
659.13	1105.90
659.47	1091.16
659.82	1084.84
660.16	1092.56
660.50	1082.73
660.84	1079.92
661.18	1089.05
661.52	1092.80
661.87	1094.90
662.21	1106.61
662.55	1113.86
662.89	1123.46
663.23	1127.90
663.57	1117.84
663.91	1115.73
664.25	1109.88
664.60	1092.80
664.94	1090.69
665.28	1096.31
665.62	1090.46
665.96	1087.41
666.30	1095.37
666.64	1087.18
666.98	1079.92
667.32	1082.97
667.66	1076.18
668.01	1079.22
668.35	1082.26
668.69	1086.94
669.03	1083.43
669.37	1084.60
669.71	1087.88
670.05	1083.43
670.39	1079.46
670.73	1079.69
671.07	1080.63
671.41	1073.60
671.75	1079.69
672.09	1079.69
672.43	1078.28
672.77	1076.41
673.11	1075.71
673.45	1067.05
673.79	1076.41
674.13	1074.54
674.47	1077.11
674.81	1087.18
675.15	1096.07
675.49	1088.82
675.83	1084.37
676.17	1081.09
676.51	1074.77
676.85	1074.77
677.19	1080.86
677.53	1086.24
677.87	1101.92
678.21	1089.99
678.55	1079.22
678.89	1070.33
679.23	1079.22
679.57	1071.73
679.90	1077.11
680.24	1077.35
680.58	1076.18
680.92	1078.05
681.26	1079.22
681.60	1089.75
681.94	1097.24
682.28	1098.65
682.62	1095.60
682.96	1097.71
683.29	1090.92
683.63	1091.16
683.97	1089.05
684.31	1095.60
684.65	1097.24
684.99	1092.56
685.33	1089.29
685.67	1096.07
686.00	1093.26
686.34	1099.35
686.68	1108.01
687.02	1111.05
687.36	1109.88
687.70	1094.90
688.03	1078.99
688.37	1070.09
688.71	1067.99
689.05	1063.31
689.39	1062.84
689.72	1074.31
690.06	1074.77
690.40	1075.24
690.74	1079.46
691.08	1086.94
691.41	1087.65
691.75	1097.71
692.09	1099.35
692.43	1098.18
692.76	1089.75
693.10	1077.35
693.44	1071.97
693.78	1060.73
694.11	1066.35
694.45	1068.22
694.79	1070.56
695.13	1068.92
695.46	1078.52
695.80	1066.11
696.14	1057.45
696.48	1055.82
696.81	1061.90
697.15	1065.65
697.49	1068.69
697.82	1094.67
698.16	1106.61
698.50	1103.33
698.83	1099.35
699.17	1093.73
699.51	1077.58
699.84	1063.07
700.18	1061.20
700.52	1057.22
700.85	1062.14
701.19	1062.84
701.53	1072.67
701.86	1067.99
702.20	1068.22
702.54	1068.92
702.87	1074.31
703.21	1075.24
703.55	1075.01
703.88	1080.86
704.22	1081.80
704.55	1083.67
704.89	1079.92
705.23	1092.80
705.56	1090.46
705.90	1088.35
706.23	1088.58
706.57	1087.65
706.91	1073.14
707.24	1077.82
707.58	1089.52
707.91	1097.95
708.25	1105.44
708.58	1110.58
708.92	1103.56
709.26	1088.35
709.59	1081.33
709.93	1079.22
710.26	1084.37
710.60	1082.03
710.93	1090.92
711.27	1089.29
711.60	1082.73
711.94	1071.97
712.27	1089.29
712.61	1083.90
712.94	1078.05
713.28	1069.62
713.61	1074.31
713.95	1063.31
714.28	1058.62
714.62	1061.90
714.95	1071.50
715.29	1071.03
715.62	1064.94
715.96	1072.43
716.29	1073.60
716.63	1075.71
716.96	1078.28
717.29	1076.18
717.63	1078.28
717.96	1077.35
718.30	1078.75
718.63	1083.20
718.97	1089.29
719.30	1088.35
719.63	1089.05
719.97	1086.24
720.30	1083.20
720.64	1081.56
720.97	1084.14
721.30	1087.41
721.64	1090.22
721.97	1091.86
722.31	1087.88
722.64	1089.99
722.97	1082.03
723.31	1085.77
723.64	1079.92
723.97	1081.09
724.31	1072.90
724.64	1065.18
724.98	1061.67
725.31	1058.16
725.64	1072.43
725.98	1076.88
726.31	1071.26
726.64	1066.82
726.97	1070.56
727.31	1052.07
727.64	1050.90
727.97	1072.67
728.31	1071.97
728.64	1073.84
728.97	1085.07
729.31	1083.20
729.64	1073.14
729.97	1075.71
730.30	1075.94
730.64	1074.07
730.97	1078.05
731.30	1083.67
731.63	1079.22
731.97	1083.90
732.30	1082.26
732.63	1074.54
732.96	1071.50
733.30	1070.80
733.63	1058.16
733.96	1060.50
734.29	1065.88
734.63	1067.75
734.96	1077.11
735.29	1084.60
735.62	1083.90
735.95	1086.71
736.29	1089.05
736.62	1093.73
736.95	1093.97
737.28	1089.52
737.61	1094.20
737.94	1084.84
738.28	1067.28
738.61	1072.20
738.94	1079.69
739.27	1067.75
739.60	1073.84
739.93	1088.35
740.27	1072.90
740.60	1067.99
740.93	1067.05
741.26	1066.35
741.59	1060.50
741.92	1064.24
742.25	1074.31
742.58	1077.35
742.91	1077.35
743.25	1074.77
743.58	1088.35
743.91	1073.14
744.24	1069.16
744.57	1071.50
744.90	1074.54
745.23	1063.31
745.56	1069.62
745.89	1080.63
746.22	1082.97
746.55	1085.07
746.88	1092.80
747.21	1098.88
747.54	1100.05
747.87	1088.58
748.20	1087.65
748.53	1076.41
748.87	1064.71
749.20	1051.60
749.53	1064.94
749.86	1062.14
750.19	1076.41
750.52	1088.58
750.85	1102.63
751.18	1095.84
751.51	1092.09
751.84	1082.50
752.16	1080.63
752.49	1077.82
752.82	1084.37
753.15	1090.46
753.48	1088.12
753.81	1086.01
754.14	1076.18
754.47	1071.73
754.80	1070.56
755.13	1071.26
755.46	1074.07
755.79	1075.01
756.12	1083.43
756.45	1073.84
756.78	1082.97
757.11	1076.65
757.43	1083.67
757.76	1070.56
758.09	1079.69
758.42	1078.52
758.75	1075.24
759.08	1073.14
759.41	1081.56
759.74	1082.50
760.07	1064.94
760.39	1065.65
760.72	1064.71
761.05	1060.50
761.38	1066.82
761.71	1081.80
762.04	1081.09
762.36	1091.16
762.69	1085.77
763.02	1075.24
763.35	1082.50
763.68	1092.09
764.01	1082.03
764.33	1088.82
764.66	1086.48
764.99	1076.88
765.32	1075.24
765.65	1071.26
765.97	1065.65
766.30	1067.05
766.63	1068.69
766.96	1060.73
767.28	1075.48
767.61	1078.52
767.94	1085.54
768.27	1097.48
768.59	1099.12
768.92	1098.88
769.25	1098.88
769.58	1099.35
769.90	1083.20
770.23	1084.60
770.56	1078.52
770.89	1074.07
771.21	1075.01
771.54	1073.84
771.87	1074.54
772.19	1073.14
772.52	1074.31
772.85	1072.90
773.17	1081.33
773.50	1073.14
773.83	1073.37
774.15	1072.43
774.48	1073.37
774.81	1072.67
775.13	1078.05
775.46	1074.54
775.79	1077.35
776.11	1068.45
776.44	1070.56
776.77	1079.46
777.09	1082.03
777.42	1084.84
777.74	1096.54
778.07	1085.07
778.40	1077.58
778.72	1073.60
779.05	1077.11
779.37	1057.92
779.70	1062.60
780.03	1061.20
780.35	1067.52
780.68	1061.43
781.00	1069.39
781.33	1067.28
781.65	1069.16
781.98	1066.82
782.31	1064.71
782.63	1078.52
782.96	1080.39
783.28	1091.16
783.61	1086.71
783.93	1091.63
784.26	1085.77
784.58	1088.12
784.91	1083.43
785.23	1079.69
785.56	1087.41
785.88	1085.07
786.21	1090.92
786.53	1087.65
786.86	1102.86
787.18	1086.71
787.51	1080.63
787.83	1068.22
788.16	1066.11
788.48	1046.45
788.81	1053.71
789.13	1059.33
789.46	1070.56
789.78	1065.88
790.10	1070.56
790.43	1071.50
790.75	1082.26
791.08	1085.54
791.40	1091.39
791.73	1099.82
792.05	1104.97
792.37	1095.14
792.70	1082.73
793.02	1085.77
793.35	1081.56
793.67	1074.31
793.99	1075.24
794.32	1082.26
794.64	1082.73
794.96	1084.60
795.29	1087.41
795.61	1087.41
795.93	1081.09
796.26	1087.65
796.58	1091.39
796.91	1085.77
797.23	1076.88
797.55	1075.24
797.87	1065.18
798.20	1059.56
798.52	1067.75
798.84	1076.18
799.17	1071.50
799.49	1067.05
799.81	1070.09
800.14	1071.73
800.46	1065.18
800.78	1082.73
801.10	1090.69
801.43	1097.01
801.75	1097.24
802.07	1098.41
802.40	1093.73
802.72	1084.14
803.04	1077.35
803.36	1073.37
803.69	1077.11
804.01	1079.22
804.33	1082.50
804.65	1083.90
804.97	1085.77
805.30	1084.84
805.62	1068.22
805.94	1075.71
806.26	1073.84
806.58	1075.71
806.91	1074.07
807.23	1082.97
807.55	1085.31
807.87	1082.97
808.19	1079.22
808.52	1080.63
808.84	1075.94
809.16	1067.52
809.48	1070.09
809.80	1062.14
810.12	1064.71
810.44	1078.05
810.77	1086.48
811.09	1085.54
811.41	1089.52
811.73	1076.65
812.05	1062.14
812.37	1058.39
812.69	1057.45
813.01	1061.90
813.33	1072.20
813.66	1081.56
813.98	1074.07
814.30	1070.09
814.62	1071.97
814.94	1068.22
815.26	1063.54
815.58	1067.52
815.90	1066.11
816.22	1064.24
816.54	1067.28
816.86	1080.39
817.18	1085.77
817.50	1086.24
817.82	1093.03
818.14	1094.67
818.46	1078.99
818.78	1076.65
819.10	1081.33
819.42	1069.86
819.74	1066.11
820.06	1069.62
820.38	1059.79
820.70	1063.54
821.02	1066.35
821.34	1074.31
821.66	1078.28
821.98	1085.77
822.30	1088.35
822.62	1092.33
822.94	1088.82
823.26	1088.35
823.58	1093.03
823.90	1093.97
824.22	1078.05
824.54	1076.18
824.86	1069.62
825.18	1055.58
825.50	1049.26
825.81	1060.96
826.13	1057.22
826.45	1066.11
826.77	1077.82
827.09	1074.54
827.41	1071.97
827.73	1068.22
828.05	1071.73
828.36	1059.33
828.68	1067.99
829.00	1063.31
829.32	1077.58
829.64	1075.24
829.96	1084.84
830.28	1083.43
830.59	1087.88
830.91	1078.75
831.23	1075.94
831.55	1074.07
831.87	1064.94
832.19	1067.28
832.50	1071.03
832.82	1071.26
833.14	1078.99
833.46	1082.03
833.78	1095.60
834.09	1097.95
834.41	1097.24
834.73	1090.46
835.05	1083.90
835.36	1062.14
835.68	1058.86
836.00	1062.14
836.32	1064.24
836.63	1079.22
836.95	1089.52
837.27	1085.31
837.59	1084.14
837.90	1084.37
838.22	1084.37
838.54	1092.56
838.85	1104.03
839.17	1105.90
839.49	1108.01
839.80	1104.97
840.12	1092.33
840.44	1080.86
840.76	1079.92
841.07	1076.41
841.39	1080.63
841.71	1078.05
842.02	1092.09
842.34	1098.18
842.65	1098.18
842.97	1086.01
843.29	1086.71
843.60	1070.56
843.92	1056.99
844.24	1055.82
844.55	1067.28
844.87	1076.41
845.18	1078.28
845.50	1074.54
845.82	1072.90
846.13	1067.52
846.45	1054.88
846.76	1057.92
847.08	1069.16
847.40	1070.80
847.71	1075.48
848.03	1090.22
848.34	1095.37
848.66	1088.12
848.97	1084.60
849.29	1077.35
849.60	1068.69
849.92	1069.62
850.24	1075.71
850.55	1077.82
850.87	1082.03
851.18	1081.09
851.50	1072.67
851.81	1071.03
852.13	1067.05
852.44	1064.71
852.76	1057.45
853.07	1060.50
853.39	1051.37
853.70	1067.52
854.01	1069.62
854.33	1077.58
854.64	1072.43
854.96	1087.18
855.27	1077.35
855.59	1069.62
855.90	1072.43
856.22	1077.58
856.53	1070.09
856.84	1069.16
857.16	1078.75
857.47	1073.14
857.79	1076.18
858.10	1065.88
858.41	1067.28
858.73	1065.65
859.04	1076.65
859.36	1078.75
859.67	1087.65
859.98	1087.65
860.30	1087.65
860.61	1081.80
860.92	1077.82
861.24	1076.18
861.55	1080.63
861.87	1083.67
862.18	1085.31
862.49	1079.69
862.81	1076.41
863.12	1074.77
863.43	1075.24
863.74	1068.69
864.06	1078.99
864.37	1086.01
864.68	1087.41
865.00	1082.50
865.31	1090.46
865.62	1089.05
865.94	1085.07
866.25	1077.35
866.56	1068.22
866.87	1055.35
867.19	1048.56
867.50	1049.73
867.81	1048.09
868.12	1050.43
868.44	1066.35
868.75	1079.22
869.06	1081.33
869.37	1080.63
869.68	1081.09
870.00	1075.48
870.31	1060.73
870.62	1062.37
870.93	1075.94
871.24	1084.14
871.56	1086.71
871.87	1085.54
872.18	1078.28
872.49	1071.03
872.80	1071.03
873.12	1072.20
873.43	1069.16
873.74	1066.82
874.05	1066.35
874.36	1055.82
874.67	1047.39
874.98	1062.84
875.29	1073.37
875.61	1069.86
875.92	1074.54
876.23	1078.28
876.54	1078.75
876.85	1092.80
877.16	1092.56
877.47	1101.46
877.78	1102.16
878.09	1091.86
878.40	1082.50
878.72	1085.77
879.03	1087.88
879.34	1089.05
879.65	1092.33
879.96	1083.43
880.27	1083.43
880.58	1080.16
880.89	1078.75
881.20	1076.88
881.51	1075.48
881.82	1079.92
882.13	1068.22
882.44	1062.37
882.75	1064.01
883.06	1072.67
883.37	1065.41
883.68	1075.94
883.99	1077.58
884.30	1075.01
884.61	1068.92
884.92	1069.86
885.23	1069.86
885.54	1082.26
885.85	1082.50
886.16	1075.01
886.47	1080.63
886.78	1073.14
887.08	1057.92
887.39	1061.43
887.70	1077.11
888.01	1071.26
888.32	1076.88
888.63	1085.77
888.94	1086.94
889.25	1083.20
889.56	1091.63
889.87	1089.05
890.17	1084.60
890.48	1072.43
890.79	1065.65
891.10	1052.30
891.41	1048.79
891.72	1044.58
892.03	1057.69
892.34	1063.31
892.64	1070.56
892.95	1071.26
893.26	1081.33
893.57	1088.82
893.88	1087.88
894.18	1086.24
894.49	1091.63
894.80	1091.16
895.11	1078.05
895.42	1078.28
895.72	1075.01
896.03	1080.86
896.34	1083.67
896.65	1088.82
896.96	1091.39
897.26	1104.26
897.57	1096.31
897.88	1094.43
898.19	1089.75
898.49	1088.58
898.80	1076.65
899.11	1074.31
899.41	1066.11
899.72	1059.79
900.03	1056.52
900.34	1061.90
900.64	1064.71
900.95	1060.73
901.26	1061.43
901.56	1070.80
901.87	1076.41
902.18	1074.31
902.48	1084.37
902.79	1090.92
903.10	1078.99
903.40	1068.45
903.71	1065.41
904.02	1072.67
904.32	1066.58
904.63	1075.94
904.94	1078.99
905.24	1089.99
905.55	1081.09
905.85	1083.20
906.16	1071.50
906.47	1065.18
906.77	1064.94
907.08	1065.18
907.38	1072.90
907.69	1082.26
908.00	1084.37
908.30	1087.18
908.61	1084.37
908.91	1083.90
909.22	1081.80
909.52	1077.35
909.83	1071.50
910.14	1075.48
910.44	1075.94
910.75	1070.56
911.05	1080.39
911.36	1079.22
911.66	1069.62
911.97	1067.99
912.27	1073.37
912.58	1074.31
912.88	1070.09
913.19	1084.37
913.49	1083.20
913.80	1089.29
914.10	1089.75
914.41	1093.26
914.71	1081.80
915.01	1078.99
915.32	1072.20
915.62	1064.94
915.93	1057.22
916.23	1064.24
916.54	1080.86
916.84	1071.97
917.15	1070.56
917.45	1080.86
917.75	1090.92
918.06	1080.86
918.36	1097.71
918.67	1100.29
918.97	1098.65
919.27	1088.12
919.58	1082.97
919.88	1067.52
920.18	1069.62
920.49	1067.05
920.79	1065.41
921.10	1068.22
921.40	1070.56
921.70	1061.20
922.01	1064.71
922.31	1064.71
922.61	1067.05
922.92	1072.90
923.22	1081.56
923.52	1080.16
923.82	1076.18
924.13	1075.71
924.43	1074.54
924.73	1075.24
925.04	1079.92
925.34	1084.14
925.64	1086.01
925.94	1085.54
926.25	1076.41
926.55	1071.97
926.85	1068.22
927.15	1059.33
927.46	1057.22
927.76	1067.99
928.06	1067.52
928.36	1062.37
928.67	1067.28
928.97	1075.01
929.27	1069.16
929.57	1062.14
929.87	1063.54
930.18	1063.31
930.48	1052.30
930.78	1055.82
931.08	1060.73
931.38	1064.94
931.69	1073.37
931.99	1078.05
932.29	1090.69
932.59	1088.58
932.89	1093.50
933.19	1091.86
933.49	1088.58
933.80	1084.14
934.10	1087.41
934.40	1092.33
934.70	1093.97
935.00	1102.39
935.30	1093.73
935.60	1094.20
935.90	1086.01
936.20	1079.92
936.50	1071.73
936.81	1069.62
937.11	1062.37
937.41	1059.56
937.71	1062.14
938.01	1065.41
938.31	1070.56
938.61	1083.90
938.91	1090.69
939.21	1087.65
939.51	1093.50
939.81	1098.65
940.11	1097.71
940.41	1098.18
940.71	1091.39
941.01	1075.71
941.31	1056.99
941.61	1049.03
941.91	1045.05
942.21	1048.79
942.51	1058.86
942.81	1062.37
943.11	1065.88
943.41	1065.18
943.71	1060.73
944.01	1058.16
944.31	1077.82
944.61	1080.16
944.90	1081.09
945.20	1086.48
945.50	1084.37
945.80	1072.67
946.10	1063.07
946.40	1056.52
946.70	1056.05
947.00	1053.94
947.30	1058.62
947.60	1067.28
947.89	1074.07
948.19	1083.90
948.49	1094.43
948.79	1093.97
949.09	1090.92
949.39	1097.01
949.69	1093.26
949.98	1093.97
950.28	1089.05
950.58	1091.16
950.88	1086.01
951.18	1083.90
951.48	1073.60
951.77	1067.05
952.07	1054.65
952.37	1056.99
952.67	1055.35
952.97	1058.62
953.26	1067.52
953.56	1081.09
953.86	1089.99
954.16	1089.29
954.45	1089.75
954.75	1093.03
955.05	1093.26
955.35	1082.26
955.64	1078.52
955.94	1083.20
956.24	1078.28
956.54	1076.18
956.83	1073.14
957.13	1077.58
957.43	1072.20
957.72	1073.84
958.02	1077.11
958.32	1083.20
958.61	1073.60
958.91	1080.63
959.21	1086.94
959.50	1083.43
959.80	1082.50
960.10	1079.46
960.39	1073.84
960.69	1066.11
960.99	1070.33
961.28	1064.48
961.58	1070.09
961.87	1064.01
962.17	1062.14
962.47	1056.28
962.76	1059.09
963.06	1061.67
963.36	1064.24
963.65	1060.73
963.95	1067.05
964.24	1066.11
964.54	1065.41
964.83	1071.26
965.13	1084.14
965.42	1074.07
965.72	1080.16
966.02	1084.84
966.31	1094.90
966.61	1099.58
966.90	1107.31
967.20	1106.37
967.49	1097.01
967.79	1084.84
968.08	1076.18
968.38	1077.58
968.67	1076.88
968.97	1087.88
969.26	1087.65
969.56	1086.24
969.85	1080.39
970.15	1070.56
970.44	1063.54
970.74	1066.82
971.03	1069.62
971.32	1073.60
971.62	1075.48
971.91	1077.35
972.21	1075.71
972.50	1077.82
972.80	1090.92
973.09	1099.82
973.38	1098.41
973.68	1102.16
973.97	1100.05
974.27	1088.35
974.56	1078.05
974.85	1086.94
975.15	1077.35
975.44	1073.14
975.73	1073.60
976.03	1075.48
976.32	1064.71
976.61	1065.65
976.91	1068.69
977.20	1064.94
977.49	1063.77
977.79	1069.39
978.08	1079.92
978.37	1080.63
978.67	1087.41
978.96	1092.80
979.25	1092.33
979.55	1093.50
979.84	1090.46
980.13	1077.11
980.42	1079.92
980.72	1077.82
981.01	1060.73
981.30	1064.01
981.59	1069.39
981.89	1059.56
982.18	1061.90
982.47	1073.37
982.76	1067.75
983.06	1076.65
983.35	1085.77
983.64	1083.43
983.93	1072.20
984.22	1076.41
984.52	1071.97
984.81	1072.43
985.10	1077.35
985.39	1082.03
985.68	1076.88
985.97	1071.73
986.27	1063.31
986.56	1066.35
986.85	1071.03
987.14	1072.43
987.43	1070.56
987.72	1071.03
988.01	1065.18
988.31	1061.43
988.60	1066.82
988.89	1073.60
989.18	1077.35
989.47	1071.50
989.76	1072.43
990.05	1064.94
990.34	1066.35
990.63	1067.99
990.92	1078.99
991.21	1082.50
991.51	1087.18
991.80	1082.50
992.09	1089.52
992.38	1080.63
992.67	1079.46
992.96	1081.09
993.25	1076.41
993.54	1069.86
993.83	1083.43
994.12	1084.60
994.41	1077.58
994.70	1078.28
994.99	1079.92
995.28	1077.58
995.57	1077.11
995.86	1086.24
996.15	1086.48
996.44	1093.97
996.73	1090.22
997.02	1086.94
997.31	1077.82
997.59	1078.52
997.88	1068.22
998.17	1068.45
998.46	1069.62
998.75	1080.16
999.04	1085.77
999.33	1093.03
999.62	1092.56
999.91	1108.48
1000.20	1110.12
1000.49	1109.18
1000.77	1098.41
1001.06	1099.82
1001.35	1087.65
1001.64	1097.71
1001.93	1098.65
1002.22	1100.05
1002.51	1097.95
1002.79	1103.33
1003.08	1086.48
1003.37	1086.24
1003.66	1084.60
1003.95	1088.35
1004.23	1083.20
1004.52	1089.52
1004.81	1081.33
1005.10	1089.29
1005.39	1078.75
1005.67	1072.43
1005.96	1075.01
1006.25	1079.22
1006.54	1080.63
1006.83	1086.94
1007.11	1095.37
1007.40	1093.73
1007.69	1097.24
1007.97	1089.99
1008.26	1091.86
1008.55	1085.77
1008.84	1069.62
1009.12	1065.18
1009.41	1066.11
1009.70	1066.82
1009.98	1069.16
1010.27	1076.65
1010.56	1086.48
1010.85	1087.65
1011.13	1088.82
1011.42	1089.52
1011.71	1091.86
1011.99	1089.75
1012.28	1089.29
1012.56	1092.80
1012.85	1091.63
1013.14	1084.37
1013.42	1078.05
1013.71	1083.90
1014.00	1074.77
1014.28	1085.77
1014.57	1084.14
1014.85	1084.37
1015.14	1075.94
1015.43	1073.60
1015.71	1062.37
1016.00	1065.41
1016.28	1072.20
1016.57	1072.67
1016.85	1075.01
1017.14	1072.67
1017.43	1079.46
1017.71	1072.67
1018.00	1077.82
1018.28	1079.46
1018.57	1088.35
1018.85	1088.82
1019.14	1089.29
1019.42	1079.22
1019.71	1080.63
1019.99	1081.56
1020.28	1085.31
1020.56	1093.03
1020.85	1097.95
1021.13	1095.37
1021.42	1089.99
1021.70	1089.52
1021.99	1085.07
1022.27	1090.69
1022.55	1089.52
1022.84	1090.69
>>>>>End Processed Spectral Data<<<<<
