SpectraSuite Data File
++++++++++++++++++++++++++++++++++++
Date: Mon Aug 26 10:24:34 PDT 2019
User: corrico
Dark Spectrum Present: No
Reference Spectrum Present: No
Number of Sampled Component Spectra: 1
Spectrometers: USB2+H06089
Integration Time (usec): 10000 (USB2+H06089)
Spectra Averaged: 2 (USB2+H06089)
Boxcar Smoothing: 2 (USB2+H06089)
Correct for Electrical Dark: No (USB2+H06089)
Strobe/Lamp Enabled: No (USB2+H06089)
Correct for Detector Non-linearity: No (USB2+H06089)
Correct for Stray Light: No (USB2+H06089)
Number of Pixels in Processed Spectrum: 2048
>>>>>Begin Processed Spectral Data<<<<<
339.70	1026.32
340.07	1026.32
340.45	988.17
340.82	974.37
341.19	949.32
341.57	924.04
341.94	915.38
342.31	901.11
342.69	890.34
343.06	892.45
343.43	887.53
343.81	899.94
344.18	915.15
344.55	913.75
344.93	914.21
345.30	919.83
345.67	915.62
346.04	916.09
346.42	932.00
346.79	946.04
347.16	961.02
347.54	979.98
347.91	992.62
348.28	996.37
348.65	994.26
349.03	1000.11
349.40	1008.77
349.77	1014.86
350.14	1027.03
350.52	1040.84
350.89	1043.18
351.26	1033.11
351.63	1035.69
352.01	1039.67
352.38	1047.39
352.75	1059.33
353.12	1073.14
353.50	1084.37
353.87	1086.48
354.24	1088.35
354.61	1090.22
354.98	1097.71
355.36	1097.71
355.73	1100.52
356.10	1095.60
356.47	1086.94
356.84	1079.22
357.22	1074.07
357.59	1074.07
357.96	1077.82
358.33	1082.50
358.70	1081.80
359.08	1084.60
359.45	1077.82
359.82	1079.46
360.19	1081.56
360.56	1080.39
360.94	1085.54
361.31	1093.50
361.68	1084.84
362.05	1081.09
362.42	1089.99
362.79	1076.65
363.16	1072.20
363.54	1073.60
363.91	1072.67
364.28	1065.18
364.65	1077.82
365.02	1076.41
365.39	1080.63
365.76	1085.31
366.14	1085.54
366.51	1070.56
366.88	1072.20
367.25	1072.43
367.62	1067.05
367.99	1060.73
368.36	1075.01
368.73	1077.11
369.10	1071.97
369.48	1071.97
369.85	1082.03
370.22	1078.05
370.59	1068.22
370.96	1070.56
371.33	1071.73
371.70	1067.05
372.07	1068.92
372.44	1064.24
372.81	1065.41
373.18	1071.73
373.55	1068.92
373.93	1069.16
374.30	1072.67
374.67	1068.45
375.04	1068.69
375.41	1069.16
375.78	1065.18
376.15	1072.43
376.52	1078.52
376.89	1085.07
377.26	1090.46
377.63	1080.16
378.00	1075.71
378.37	1072.20
378.74	1060.03
379.11	1056.05
379.48	1066.11
379.85	1066.11
380.22	1072.43
380.59	1077.58
380.96	1074.54
381.33	1067.52
381.70	1077.82
382.07	1079.22
382.44	1077.58
382.81	1080.63
383.18	1086.48
383.55	1078.05
383.92	1066.82
384.29	1066.11
384.66	1065.88
385.03	1065.41
385.40	1067.99
385.77	1079.69
386.14	1074.07
386.51	1072.90
386.88	1077.35
387.25	1075.94
387.62	1071.03
387.99	1081.09
388.36	1089.75
388.73	1089.99
389.10	1102.63
389.46	1111.99
389.83	1108.95
390.20	1095.60
390.57	1081.33
390.94	1072.20
391.31	1064.24
391.68	1060.96
392.05	1062.37
392.42	1078.52
392.79	1064.94
393.16	1065.18
393.53	1066.58
393.89	1069.16
394.26	1068.92
394.63	1085.77
395.00	1086.94
395.37	1088.35
395.74	1093.73
396.11	1092.56
396.48	1088.12
396.84	1082.73
397.21	1082.03
397.58	1077.82
397.95	1068.22
398.32	1065.65
398.69	1072.43
399.06	1076.41
399.42	1082.26
399.79	1082.26
400.16	1084.84
400.53	1079.46
400.90	1072.90
401.27	1076.41
401.64	1082.97
402.00	1076.88
402.37	1077.11
402.74	1075.71
403.11	1076.88
403.48	1077.82
403.84	1093.97
404.21	1100.99
404.58	1111.05
404.95	1101.22
405.32	1102.39
405.68	1100.05
406.05	1105.67
406.42	1111.05
406.79	1121.12
407.16	1125.56
407.52	1112.46
407.89	1108.01
408.26	1103.09
408.63	1102.63
408.99	1102.16
409.36	1112.46
409.73	1113.39
410.10	1114.10
410.47	1118.07
410.83	1119.24
411.20	1126.97
411.57	1135.63
411.94	1144.99
412.30	1159.50
412.67	1175.65
413.04	1182.91
413.40	1191.57
413.77	1197.18
414.14	1193.44
414.51	1194.38
414.87	1193.67
415.24	1192.97
415.61	1203.27
415.97	1212.87
416.34	1223.87
416.71	1250.08
417.08	1267.63
417.44	1278.17
417.81	1295.49
418.18	1304.85
418.54	1313.74
418.91	1329.89
419.28	1353.53
419.64	1376.24
420.01	1413.68
420.38	1449.73
420.74	1476.64
421.11	1499.11
421.48	1517.37
421.84	1537.97
422.21	1554.58
422.58	1583.61
422.94	1618.95
423.31	1661.31
423.68	1691.27
424.04	1726.15
424.41	1763.36
424.77	1810.17
425.14	1838.96
425.51	1882.96
425.87	1930.94
426.24	1983.14
426.61	2025.27
426.97	2098.52
427.34	2156.10
427.70	2220.47
428.07	2277.34
428.44	2352.00
428.80	2419.65
429.17	2493.61
429.53	2554.93
429.90	2645.51
430.27	2701.21
430.63	2781.02
431.00	2868.79
431.36	2959.61
431.73	3045.51
432.09	3132.57
432.46	3217.53
432.83	3295.94
433.19	3404.78
433.56	3500.27
433.92	3629.00
434.29	3702.49
434.65	3810.63
435.02	3884.12
435.38	3954.80
435.75	3999.27
436.11	4110.68
436.48	4174.11
436.84	4259.31
437.21	4339.35
437.57	4386.16
437.94	4450.29
438.30	4510.91
438.67	4546.02
439.03	4587.92
439.40	4643.62
439.76	4618.81
440.13	4601.49
440.49	4589.09
440.86	4561.00
441.22	4543.92
441.59	4523.32
441.95	4522.62
442.32	4482.59
442.68	4422.91
443.05	4368.14
443.41	4319.93
443.78	4225.60
444.14	4175.98
444.51	4112.56
444.87	4063.64
445.24	3986.40
445.60	3941.23
445.96	3841.29
446.33	3778.33
446.69	3685.17
447.06	3621.74
447.42	3534.21
447.79	3463.76
448.15	3397.99
448.51	3332.92
448.88	3282.60
449.24	3227.13
449.61	3202.79
449.97	3143.57
450.33	3093.95
450.70	3014.14
451.06	2962.18
451.43	2892.90
451.79	2853.11
452.15	2803.73
452.52	2769.79
452.88	2720.64
453.24	2674.06
453.61	2620.93
453.97	2559.14
454.34	2517.48
454.70	2485.88
455.06	2431.11
455.43	2390.39
455.79	2346.62
456.15	2286.00
456.52	2232.87
456.88	2216.72
457.24	2166.87
457.61	2148.14
457.97	2130.82
458.33	2096.65
458.70	2049.14
459.06	2021.99
459.42	1996.71
459.79	1963.94
460.15	1935.86
460.51	1909.88
460.88	1880.39
461.24	1839.66
461.60	1817.89
461.96	1799.17
462.33	1779.04
462.69	1755.17
463.05	1737.15
463.42	1707.19
463.78	1676.29
464.14	1641.18
464.50	1617.08
464.87	1604.67
465.23	1588.76
465.59	1581.50
465.95	1577.52
466.32	1575.41
466.68	1560.67
467.04	1547.09
467.40	1528.14
467.77	1510.82
468.13	1496.07
468.49	1480.15
468.85	1467.05
469.22	1452.07
469.58	1447.39
469.94	1437.32
470.30	1426.09
470.66	1422.81
471.03	1417.19
471.39	1400.81
471.75	1377.64
472.11	1368.51
472.47	1355.87
472.84	1351.66
473.20	1342.53
473.56	1343.47
473.92	1331.30
474.28	1333.87
474.65	1318.66
475.01	1321.47
475.37	1311.64
475.73	1311.17
476.09	1286.36
476.45	1285.89
476.81	1276.53
477.18	1271.61
477.54	1262.25
477.90	1262.25
478.26	1270.91
478.62	1266.00
478.98	1265.76
479.34	1258.97
479.71	1261.08
480.07	1242.12
480.43	1246.57
480.79	1244.70
481.15	1241.65
481.51	1228.78
481.87	1221.53
482.23	1213.10
482.59	1213.10
482.96	1221.99
483.32	1231.12
483.68	1232.99
484.04	1234.63
484.40	1222.93
484.76	1217.78
485.12	1216.14
485.48	1200.23
485.84	1200.23
486.20	1208.65
486.56	1193.44
486.92	1190.86
487.28	1204.91
487.64	1197.42
488.00	1187.12
488.37	1196.48
488.73	1202.80
489.09	1193.21
489.45	1177.76
489.81	1174.01
490.17	1166.99
490.53	1152.01
490.89	1139.84
491.25	1148.97
491.61	1147.56
491.97	1141.48
492.33	1134.22
492.69	1135.86
493.05	1138.44
493.41	1138.44
493.77	1146.16
494.13	1141.95
494.49	1156.93
494.85	1146.39
495.21	1145.46
495.57	1146.86
495.93	1144.52
496.29	1133.99
496.64	1136.10
497.00	1137.97
497.36	1130.71
497.72	1147.10
498.08	1139.14
498.44	1138.44
498.80	1139.61
499.16	1142.42
499.52	1131.88
499.88	1136.10
500.24	1125.56
500.60	1115.73
500.96	1106.61
501.32	1108.48
501.68	1111.05
502.03	1116.90
502.39	1131.65
502.75	1129.78
503.11	1124.39
503.47	1122.52
503.83	1135.63
504.19	1126.50
504.55	1128.84
504.91	1133.99
505.26	1128.61
505.62	1107.31
505.98	1102.39
506.34	1112.69
506.70	1107.54
507.06	1109.65
507.42	1109.88
507.78	1100.99
508.13	1079.92
508.49	1086.01
508.85	1085.54
509.21	1094.67
509.57	1100.75
509.93	1111.05
510.28	1095.14
510.64	1097.24
511.00	1090.22
511.36	1090.92
511.72	1089.75
512.07	1097.01
512.43	1093.73
512.79	1089.05
513.15	1082.73
513.51	1075.48
513.86	1073.60
514.22	1072.67
514.58	1073.14
514.94	1077.11
515.30	1093.26
515.65	1090.22
516.01	1098.18
516.37	1105.44
516.73	1103.09
517.08	1089.99
517.44	1099.58
517.80	1081.80
518.16	1077.58
518.51	1089.52
518.87	1092.33
519.23	1083.43
519.59	1099.58
519.94	1107.31
520.30	1098.18
520.66	1103.80
521.01	1097.48
521.37	1094.67
521.73	1084.60
522.09	1076.41
522.44	1069.86
522.80	1080.86
523.16	1070.80
523.51	1078.75
523.87	1072.67
524.23	1070.56
524.58	1064.94
524.94	1062.37
525.30	1062.84
525.65	1081.33
526.01	1094.20
526.37	1091.16
526.72	1099.58
527.08	1089.52
527.44	1081.56
527.79	1067.28
528.15	1072.67
528.51	1072.90
528.86	1080.16
529.22	1082.26
529.58	1084.84
529.93	1087.18
530.29	1083.43
530.65	1082.97
531.00	1085.07
531.36	1091.63
531.71	1089.99
532.07	1088.82
532.43	1089.99
532.78	1090.46
533.14	1089.75
533.49	1091.86
533.85	1108.95
534.21	1110.58
534.56	1105.44
534.92	1107.78
535.27	1102.86
535.63	1093.73
535.98	1093.50
536.34	1099.58
536.69	1091.86
537.05	1098.88
537.41	1094.20
537.76	1098.18
538.12	1093.26
538.47	1096.54
538.83	1085.31
539.18	1098.18
539.54	1100.05
539.89	1098.88
540.25	1094.90
540.60	1091.39
540.96	1078.28
541.31	1064.01
541.67	1066.11
542.02	1063.31
542.38	1072.67
542.73	1083.43
543.09	1082.03
543.44	1083.20
543.80	1084.84
544.15	1091.86
544.51	1083.90
544.86	1096.78
545.22	1092.56
545.57	1093.73
545.93	1093.73
546.28	1093.03
546.64	1088.58
546.99	1102.39
547.35	1099.58
547.70	1108.48
548.05	1112.22
548.41	1103.80
548.76	1096.54
549.12	1103.56
549.47	1078.05
549.83	1073.84
550.18	1071.97
550.53	1065.18
550.89	1063.31
551.24	1070.33
551.60	1065.18
551.95	1076.18
552.30	1081.80
552.66	1076.88
553.01	1064.48
553.37	1065.18
553.72	1061.90
554.07	1058.86
554.43	1064.48
554.78	1079.22
555.13	1079.46
555.49	1082.97
555.84	1081.56
556.19	1077.35
556.55	1075.94
556.90	1083.90
557.26	1079.46
557.61	1080.63
557.96	1083.20
558.32	1093.73
558.67	1089.05
559.02	1081.09
559.37	1081.56
559.73	1089.75
560.08	1084.37
560.43	1084.37
560.79	1085.54
561.14	1086.01
561.49	1073.84
561.85	1066.11
562.20	1061.90
562.55	1067.05
562.90	1064.24
563.26	1061.67
563.61	1069.39
563.96	1070.80
564.32	1069.86
564.67	1065.65
565.02	1076.65
565.37	1077.82
565.73	1077.58
566.08	1076.88
566.43	1086.71
566.78	1071.97
567.14	1064.48
567.49	1071.73
567.84	1074.31
568.19	1074.77
568.54	1084.37
568.90	1085.07
569.25	1080.63
569.60	1087.65
569.95	1080.16
570.31	1090.22
570.66	1087.88
571.01	1095.14
571.36	1088.12
571.71	1104.73
572.06	1096.78
572.42	1095.37
572.77	1085.07
573.12	1085.54
573.47	1070.56
573.82	1065.65
574.18	1072.90
574.53	1078.99
574.88	1080.63
575.23	1091.16
575.58	1093.73
575.93	1091.63
576.28	1089.99
576.64	1087.41
576.99	1078.28
577.34	1077.11
577.69	1077.58
578.04	1075.48
578.39	1073.84
578.74	1082.50
579.09	1084.84
579.44	1080.16
579.80	1078.52
580.15	1081.33
580.50	1071.73
580.85	1069.62
581.20	1075.71
581.55	1072.90
581.90	1073.37
582.25	1074.31
582.60	1069.39
582.95	1065.65
583.30	1067.99
583.65	1058.16
584.00	1058.62
584.35	1071.03
584.71	1070.80
585.06	1069.62
585.41	1071.50
585.76	1081.56
586.11	1082.73
586.46	1085.31
586.81	1090.92
587.16	1093.73
587.51	1077.82
587.86	1067.52
588.21	1075.24
588.56	1064.48
588.91	1069.62
589.26	1076.65
589.61	1080.16
589.96	1077.35
590.31	1083.67
590.66	1085.54
591.01	1077.11
591.36	1078.75
591.71	1077.58
592.06	1089.99
592.41	1084.84
592.76	1093.73
593.10	1091.86
593.45	1083.43
593.80	1069.16
594.15	1073.14
594.50	1067.52
594.85	1057.45
595.20	1067.99
595.55	1065.88
595.90	1056.99
596.25	1060.03
596.60	1064.24
596.95	1061.43
597.30	1073.60
597.64	1124.16
597.99	1125.33
598.34	1124.86
598.69	1119.01
599.04	1115.50
599.39	1072.90
599.74	1071.26
600.09	1084.84
600.44	1088.12
600.78	1085.31
601.13	1090.22
601.48	1098.18
601.83	1085.77
602.18	1081.09
602.53	1090.22
602.88	1088.82
603.22	1086.94
603.57	1082.03
603.92	1075.71
604.27	1063.07
604.62	1058.16
604.97	1050.67
605.31	1060.26
605.66	1069.62
606.01	1082.03
606.36	1084.60
606.71	1083.90
607.05	1082.03
607.40	1078.75
607.75	1069.62
608.10	1068.92
608.44	1079.22
608.79	1078.75
609.14	1088.35
609.49	1086.48
609.84	1088.35
610.18	1093.50
610.53	1090.69
610.88	1081.09
611.23	1090.69
611.57	1089.52
611.92	1072.20
612.27	1074.07
612.62	1084.37
612.96	1082.03
613.31	1074.31
613.66	1079.46
614.00	1084.14
614.35	1076.65
614.70	1071.26
615.05	1080.86
615.39	1087.18
615.74	1081.33
616.09	1093.73
616.43	1093.97
616.78	1086.48
617.13	1082.50
617.47	1095.14
617.82	1086.24
618.17	1086.48
618.51	1093.97
618.86	1093.73
619.21	1084.60
619.55	1078.05
619.90	1077.35
620.25	1069.86
620.59	1062.84
620.94	1064.48
621.29	1071.97
621.63	1071.26
621.98	1075.48
622.32	1087.65
622.67	1092.33
623.02	1089.52
623.36	1099.82
623.71	1098.18
624.05	1089.29
624.40	1085.07
624.75	1080.63
625.09	1068.69
625.44	1075.94
625.78	1071.73
626.13	1064.71
626.48	1075.94
626.82	1082.73
627.17	1079.46
627.51	1086.71
627.86	1092.80
628.20	1085.31
628.55	1086.24
628.89	1088.58
629.24	1098.41
629.58	1104.73
629.93	1108.01
630.28	1113.39
630.62	1110.35
630.97	1094.20
631.31	1087.88
631.66	1097.01
632.00	1082.50
632.35	1084.37
632.69	1087.88
633.04	1088.12
633.38	1076.88
633.73	1078.99
634.07	1078.75
634.42	1073.60
634.76	1066.35
635.11	1067.52
635.45	1075.71
635.79	1075.94
636.14	1086.94
636.48	1090.92
636.83	1093.97
637.17	1086.01
637.52	1077.82
637.86	1074.54
638.21	1066.82
638.55	1070.56
638.89	1078.75
639.24	1089.05
639.58	1084.60
639.93	1105.44
640.27	1106.37
640.61	1107.07
640.96	1097.48
641.30	1101.22
641.65	1095.14
641.99	1096.31
642.33	1093.50
642.68	1095.84
643.02	1100.52
643.37	1099.12
643.71	1093.03
644.05	1091.63
644.40	1088.82
644.74	1083.20
645.08	1091.16
645.43	1085.07
645.77	1088.35
646.11	1086.71
646.46	1094.20
646.80	1081.56
647.14	1075.94
647.49	1067.99
647.83	1067.75
648.17	1058.39
648.52	1061.67
648.86	1070.33
649.20	1066.11
649.55	1076.88
649.89	1080.16
650.23	1076.65
650.57	1072.67
650.92	1088.35
651.26	1080.63
651.60	1082.26
651.95	1081.56
652.29	1085.77
652.63	1075.01
652.97	1073.60
653.32	1084.14
653.66	1087.18
654.00	1083.43
654.34	1093.73
654.69	1099.35
655.03	1096.07
655.37	1095.14
655.71	1088.35
656.05	1075.01
656.40	1071.50
656.74	1058.16
657.08	1051.37
657.42	1061.90
657.76	1075.94
658.11	1073.14
658.45	1072.20
658.79	1082.26
659.13	1081.56
659.47	1076.18
659.82	1082.03
660.16	1090.69
660.50	1089.52
660.84	1089.29
661.18	1089.05
661.52	1090.22
661.87	1091.63
662.21	1095.14
662.55	1091.16
662.89	1087.41
663.23	1084.37
663.57	1080.63
663.91	1072.67
664.25	1073.60
664.60	1067.05
664.94	1066.58
665.28	1073.14
665.62	1072.90
665.96	1066.11
666.30	1076.65
666.64	1078.52
666.98	1071.03
667.32	1074.54
667.66	1084.37
668.01	1090.92
668.35	1096.78
668.69	1098.88
669.03	1094.43
669.37	1090.22
669.71	1079.69
670.05	1079.22
670.39	1078.75
670.73	1076.88
671.07	1075.94
671.41	1070.33
671.75	1060.50
672.09	1056.28
672.43	1073.37
672.77	1085.31
673.11	1096.78
673.45	1095.84
673.79	1097.24
674.13	1093.97
674.47	1085.07
674.81	1090.46
675.15	1104.03
675.49	1107.78
675.83	1101.46
676.17	1101.92
676.51	1086.71
676.85	1093.03
677.19	1100.29
677.53	1096.07
677.87	1100.05
678.21	1112.69
678.55	1100.05
678.89	1086.71
679.23	1080.86
679.57	1076.88
679.90	1072.90
680.24	1071.26
680.58	1075.71
680.92	1086.48
681.26	1085.77
681.60	1077.11
681.94	1075.24
682.28	1073.60
682.62	1075.71
682.96	1074.54
683.29	1079.69
683.63	1082.03
683.97	1090.46
684.31	1086.24
684.65	1080.16
684.99	1083.43
685.33	1084.14
685.67	1073.60
686.00	1067.05
686.34	1074.77
686.68	1074.31
687.02	1082.26
687.36	1091.39
687.70	1095.14
688.03	1096.07
688.37	1097.01
688.71	1090.46
689.05	1084.37
689.39	1088.58
689.72	1087.18
690.06	1078.75
690.40	1083.90
690.74	1080.63
691.08	1083.43
691.41	1084.37
691.75	1090.69
692.09	1082.50
692.43	1080.86
692.76	1074.31
693.10	1081.56
693.44	1084.60
693.78	1082.73
694.11	1089.52
694.45	1092.80
694.79	1091.39
695.13	1070.56
695.46	1075.24
695.80	1079.46
696.14	1078.05
696.48	1077.58
696.81	1100.05
697.15	1089.75
697.49	1085.07
697.82	1081.80
698.16	1075.01
698.50	1064.48
698.83	1065.65
699.17	1065.88
699.51	1063.31
699.84	1051.37
700.18	1042.47
700.52	1046.45
700.85	1045.28
701.19	1054.65
701.53	1072.20
701.86	1082.97
702.20	1085.54
702.54	1080.63
702.87	1075.01
703.21	1068.92
703.55	1064.01
703.88	1067.99
704.22	1075.94
704.55	1084.84
704.89	1086.01
705.23	1092.56
705.56	1090.69
705.90	1093.50
706.23	1085.31
706.57	1081.09
706.91	1074.54
707.24	1074.31
707.58	1066.35
707.91	1073.84
708.25	1073.60
708.58	1075.48
708.92	1077.82
709.26	1082.50
709.59	1075.01
709.93	1078.28
710.26	1083.67
710.60	1079.92
710.93	1091.63
711.27	1081.09
711.60	1080.63
711.94	1079.69
712.27	1072.67
712.61	1054.41
712.94	1059.79
713.28	1062.14
713.61	1072.90
713.95	1083.20
714.28	1083.67
714.62	1097.48
714.95	1097.95
715.29	1085.31
715.62	1080.39
715.96	1082.50
716.29	1076.65
716.63	1078.28
716.96	1083.90
717.29	1090.92
717.63	1087.18
717.96	1087.41
718.30	1083.90
718.63	1080.63
718.97	1071.03
719.30	1079.46
719.63	1085.31
719.97	1093.03
720.30	1096.07
720.64	1093.73
720.97	1089.29
721.30	1082.97
721.64	1074.54
721.97	1075.01
722.31	1080.86
722.64	1088.12
722.97	1089.52
723.31	1091.86
723.64	1092.09
723.97	1082.97
724.31	1085.54
724.64	1094.67
724.98	1096.54
725.31	1102.16
725.64	1103.09
725.98	1092.56
726.31	1083.20
726.64	1078.52
726.97	1063.31
727.31	1068.69
727.64	1078.28
727.97	1075.24
728.31	1073.14
728.64	1069.39
728.97	1073.84
729.31	1071.50
729.64	1074.54
729.97	1088.35
730.30	1097.24
730.64	1101.69
730.97	1089.29
731.30	1083.67
731.63	1086.48
731.97	1088.58
732.30	1080.16
732.63	1078.52
732.96	1069.39
733.30	1058.16
733.63	1063.77
733.96	1064.94
734.29	1076.41
734.63	1093.73
734.96	1084.14
735.29	1080.63
735.62	1082.73
735.95	1085.54
736.29	1074.77
736.62	1086.24
736.95	1086.01
737.28	1078.99
737.61	1070.09
737.94	1076.88
738.28	1069.86
738.61	1068.69
738.94	1075.94
739.27	1079.46
739.60	1082.50
739.93	1082.50
740.27	1072.43
740.60	1073.60
740.93	1079.46
741.26	1066.82
741.59	1071.50
741.92	1089.05
742.25	1084.37
742.58	1078.75
742.91	1091.16
743.25	1091.16
743.58	1081.80
743.91	1087.41
744.24	1084.60
744.57	1086.24
744.90	1086.48
745.23	1078.75
745.56	1078.52
745.89	1075.48
746.22	1065.18
746.55	1060.50
746.88	1064.01
747.21	1061.20
747.54	1070.33
747.87	1077.11
748.20	1076.88
748.53	1087.41
748.87	1089.29
749.20	1083.90
749.53	1079.92
749.86	1080.16
750.19	1081.56
750.52	1075.01
750.85	1075.94
751.18	1080.16
751.51	1087.88
751.84	1084.60
752.16	1090.69
752.49	1093.03
752.82	1094.20
753.15	1086.71
753.48	1082.50
753.81	1081.09
754.14	1084.60
754.47	1086.24
754.80	1083.90
755.13	1089.75
755.46	1096.54
755.79	1095.60
756.12	1094.90
756.45	1100.99
756.78	1089.99
757.11	1078.75
757.43	1083.43
757.76	1086.01
758.09	1087.88
758.42	1103.80
758.75	1108.24
759.08	1108.24
759.41	1096.54
759.74	1093.03
760.07	1080.86
760.39	1082.97
760.72	1076.65
761.05	1094.67
761.38	1099.82
761.71	1104.50
762.04	1110.58
762.36	1097.48
762.69	1092.33
763.02	1096.78
763.35	1104.03
763.68	1095.84
764.01	1109.65
764.33	1103.09
764.66	1089.99
764.99	1080.16
765.32	1079.22
765.65	1073.60
765.97	1071.50
766.30	1080.16
766.63	1078.99
766.96	1075.48
767.28	1069.86
767.61	1071.03
767.94	1067.52
768.27	1063.31
768.59	1068.22
768.92	1078.52
769.25	1070.56
769.58	1076.65
769.90	1081.09
770.23	1081.09
770.56	1075.01
770.89	1079.92
771.21	1075.01
771.54	1078.52
771.87	1081.80
772.19	1087.65
772.52	1094.43
772.85	1094.67
773.17	1094.20
773.50	1087.88
773.83	1088.82
774.15	1086.24
774.48	1085.07
774.81	1074.54
775.13	1080.39
775.46	1073.84
775.79	1064.94
776.11	1058.86
776.44	1069.39
776.77	1075.71
777.09	1079.46
777.42	1089.29
777.74	1100.05
778.07	1096.54
778.40	1085.31
778.72	1083.67
779.05	1082.73
779.37	1078.52
779.70	1077.35
780.03	1076.88
780.35	1078.52
780.68	1070.80
781.00	1070.09
781.33	1070.80
781.65	1067.99
781.98	1070.56
782.31	1075.94
782.63	1088.12
782.96	1082.50
783.28	1087.41
783.61	1082.03
783.93	1087.88
784.26	1077.11
784.58	1093.73
784.91	1091.39
785.23	1099.82
785.56	1096.54
785.88	1093.03
786.21	1090.92
786.53	1088.12
786.86	1079.22
787.18	1074.31
787.51	1076.65
787.83	1067.28
788.16	1072.43
788.48	1074.31
788.81	1081.80
789.13	1085.54
789.46	1086.48
789.78	1089.75
790.10	1089.29
790.43	1091.16
790.75	1086.71
791.08	1075.71
791.40	1072.67
791.73	1089.75
792.05	1090.92
792.37	1086.48
792.70	1097.71
793.02	1098.65
793.35	1077.82
793.67	1066.82
793.99	1071.03
794.32	1070.33
794.64	1074.07
794.96	1075.71
795.29	1070.56
795.61	1077.58
795.93	1078.99
796.26	1073.37
796.58	1079.22
796.91	1089.29
797.23	1093.03
797.55	1086.24
797.87	1087.65
798.20	1073.60
798.52	1081.09
798.84	1076.65
799.17	1086.71
799.49	1090.22
799.81	1106.61
800.14	1089.52
800.46	1087.65
800.78	1086.24
801.10	1072.43
801.43	1057.69
801.75	1062.60
802.07	1057.45
802.40	1053.94
802.72	1067.99
803.04	1071.26
803.36	1065.41
803.69	1067.75
804.01	1060.96
804.33	1063.77
804.65	1067.28
804.97	1073.60
805.30	1071.73
805.62	1078.75
805.94	1070.09
806.26	1070.09
806.58	1075.24
806.91	1075.24
807.23	1071.97
807.55	1066.11
807.87	1069.62
808.19	1070.33
808.52	1065.65
808.84	1071.26
809.16	1075.48
809.48	1071.50
809.80	1059.79
810.12	1067.52
810.44	1060.26
810.77	1063.54
811.09	1064.24
811.41	1065.88
811.73	1069.39
812.05	1079.92
812.37	1085.54
812.69	1093.73
813.01	1102.16
813.33	1099.58
813.66	1091.16
813.98	1081.80
814.30	1075.01
814.62	1068.69
814.94	1062.60
815.26	1067.52
815.58	1068.92
815.90	1066.35
816.22	1066.35
816.54	1077.58
816.86	1080.39
817.18	1078.99
817.50	1082.50
817.82	1086.94
818.14	1079.22
818.46	1077.82
818.78	1079.69
819.10	1082.03
819.42	1086.24
819.74	1091.16
820.06	1096.31
820.38	1086.24
820.70	1092.80
821.02	1089.52
821.34	1079.92
821.66	1071.50
821.98	1083.90
822.30	1070.09
822.62	1077.11
822.94	1084.60
823.26	1082.50
823.58	1083.90
823.90	1090.69
824.22	1089.29
824.54	1087.41
824.86	1096.54
825.18	1093.26
825.50	1098.88
825.81	1088.82
826.13	1090.92
826.45	1080.86
826.77	1084.14
827.09	1078.99
827.41	1071.73
827.73	1071.26
828.05	1065.88
828.36	1059.79
828.68	1060.73
829.00	1065.88
829.32	1061.67
829.64	1075.48
829.96	1074.31
830.28	1076.65
830.59	1071.73
830.91	1071.97
831.23	1069.62
831.55	1069.16
831.87	1064.71
832.19	1078.28
832.50	1078.28
832.82	1077.35
833.14	1078.52
833.46	1077.11
833.78	1068.92
834.09	1075.24
834.41	1072.67
834.73	1068.45
835.05	1072.67
835.36	1074.54
835.68	1071.50
836.00	1070.56
836.32	1080.16
836.63	1074.31
836.95	1074.54
837.27	1077.82
837.59	1074.77
837.90	1064.24
838.22	1061.90
838.54	1059.79
838.85	1056.75
839.17	1065.18
839.49	1072.43
839.80	1075.01
840.12	1087.65
840.44	1088.12
840.76	1089.99
841.07	1102.86
841.39	1094.90
841.71	1084.14
842.02	1083.20
842.34	1071.26
842.65	1055.35
842.97	1056.52
843.29	1051.37
843.60	1049.03
843.92	1056.75
844.24	1066.58
844.55	1073.37
844.87	1082.97
845.18	1082.73
845.50	1078.99
845.82	1083.43
846.13	1080.63
846.45	1078.28
846.76	1071.26
847.08	1072.90
847.40	1062.14
847.71	1061.67
848.03	1062.84
848.34	1071.26
848.66	1070.33
848.97	1076.65
849.29	1085.07
849.60	1082.26
849.92	1083.43
850.24	1078.52
850.55	1086.01
850.87	1078.05
851.18	1084.37
851.50	1078.99
851.81	1087.18
852.13	1074.31
852.44	1077.58
852.76	1077.11
853.07	1073.84
853.39	1082.03
853.70	1085.07
854.01	1083.20
854.33	1076.41
854.64	1086.94
854.96	1079.69
855.27	1070.56
855.59	1077.58
855.90	1076.88
856.22	1077.11
856.53	1082.50
856.84	1091.63
857.16	1090.69
857.47	1100.52
857.79	1101.22
858.10	1094.90
858.41	1084.14
858.73	1087.41
859.04	1077.82
859.36	1065.88
859.67	1065.41
859.98	1069.39
860.30	1060.73
860.61	1068.22
860.92	1077.11
861.24	1071.73
861.55	1075.48
861.87	1082.03
862.18	1081.80
862.49	1080.63
862.81	1086.48
863.12	1080.39
863.43	1077.58
863.74	1074.31
864.06	1069.86
864.37	1066.82
864.68	1066.82
865.00	1053.94
865.31	1049.73
865.62	1047.62
865.94	1049.26
866.25	1051.13
866.56	1065.18
866.87	1066.58
867.19	1077.11
867.50	1078.05
867.81	1083.67
868.12	1080.16
868.44	1083.20
868.75	1084.60
869.06	1080.86
869.37	1078.99
869.68	1077.11
870.00	1081.56
870.31	1075.01
870.62	1071.73
870.93	1062.60
871.24	1071.26
871.56	1069.39
871.87	1078.75
872.18	1089.29
872.49	1099.82
872.80	1094.67
873.12	1084.84
873.43	1076.41
873.74	1069.16
874.05	1071.73
874.36	1064.24
874.67	1071.73
874.98	1067.99
875.29	1072.43
875.61	1068.92
875.92	1078.75
876.23	1089.75
876.54	1086.48
876.85	1078.99
877.16	1076.41
877.47	1071.26
877.78	1056.52
878.09	1057.22
878.40	1059.56
878.72	1059.33
879.03	1064.24
879.34	1070.33
879.65	1084.37
879.96	1096.07
880.27	1102.86
880.58	1098.18
880.89	1095.37
881.20	1083.67
881.51	1076.41
881.82	1064.48
882.13	1072.20
882.44	1069.16
882.75	1075.94
883.06	1080.16
883.37	1094.43
883.68	1082.03
883.99	1086.01
884.30	1076.88
884.61	1072.67
884.92	1070.80
885.23	1085.77
885.54	1085.54
885.85	1084.60
886.16	1092.33
886.47	1086.48
886.78	1072.67
887.08	1073.84
887.39	1075.24
887.70	1064.01
888.01	1064.01
888.32	1070.09
888.63	1067.75
888.94	1073.37
889.25	1085.07
889.56	1083.90
889.87	1085.07
890.17	1092.80
890.48	1101.46
890.79	1092.56
891.10	1093.03
891.41	1090.69
891.72	1084.37
892.03	1076.18
892.34	1076.41
892.64	1078.28
892.95	1074.77
893.26	1077.35
893.57	1082.50
893.88	1080.16
894.18	1076.18
894.49	1080.16
894.80	1075.94
895.11	1072.20
895.42	1069.86
895.72	1075.94
896.03	1078.75
896.34	1076.41
896.65	1076.41
896.96	1068.69
897.26	1068.22
897.57	1072.90
897.88	1078.05
898.19	1072.43
898.49	1080.86
898.80	1087.65
899.11	1080.39
899.41	1086.24
899.72	1094.90
900.03	1100.52
900.34	1092.56
900.64	1095.60
900.95	1084.84
901.26	1085.31
901.56	1081.09
901.87	1075.94
902.18	1070.33
902.48	1075.71
902.79	1070.09
903.10	1075.48
903.40	1081.56
903.71	1081.33
904.02	1083.20
904.32	1078.99
904.63	1074.07
904.94	1069.86
905.24	1070.56
905.55	1069.86
905.85	1068.45
906.16	1076.65
906.47	1078.28
906.77	1088.12
907.08	1084.14
907.38	1094.20
907.69	1092.33
908.00	1094.90
908.30	1086.71
908.61	1087.18
908.91	1077.11
909.22	1070.80
909.52	1069.62
909.83	1068.22
910.14	1075.01
910.44	1079.92
910.75	1086.48
911.05	1094.90
911.36	1097.95
911.66	1092.33
911.97	1101.92
912.27	1098.65
912.58	1091.86
912.88	1100.29
913.19	1104.73
913.49	1096.78
913.80	1094.67
914.10	1088.58
914.41	1084.84
914.71	1081.09
915.01	1081.09
915.32	1089.29
915.62	1099.12
915.93	1094.43
916.23	1089.29
916.54	1088.82
916.84	1079.69
917.15	1079.46
917.45	1068.92
917.75	1078.99
918.06	1076.88
918.36	1078.99
918.67	1072.20
918.97	1078.05
919.27	1072.67
919.58	1071.50
919.88	1076.41
920.18	1077.11
920.49	1079.92
920.79	1077.35
921.10	1082.97
921.40	1081.33
921.70	1082.26
922.01	1089.29
922.31	1093.73
922.61	1100.05
922.92	1096.78
923.22	1097.95
923.52	1093.26
923.82	1091.63
924.13	1082.97
924.43	1092.80
924.73	1089.52
925.04	1077.35
925.34	1071.03
925.64	1075.24
925.94	1065.88
926.25	1067.75
926.55	1082.03
926.85	1084.37
927.15	1080.63
927.46	1081.33
927.76	1079.46
928.06	1074.31
928.36	1078.99
928.67	1078.28
928.97	1082.26
929.27	1085.77
929.57	1088.35
929.87	1089.29
930.18	1087.65
930.48	1085.77
930.78	1081.09
931.08	1083.43
931.38	1073.84
931.69	1070.33
931.99	1067.99
932.29	1074.07
932.59	1075.48
932.89	1083.90
933.19	1096.78
933.49	1085.31
933.80	1084.37
934.10	1081.09
934.40	1083.20
934.70	1076.41
935.00	1088.82
935.30	1084.14
935.60	1082.50
935.90	1074.54
936.20	1072.90
936.50	1075.01
936.81	1076.65
937.11	1080.39
937.41	1083.67
937.71	1087.41
938.01	1078.75
938.31	1076.41
938.61	1072.43
938.91	1069.62
939.21	1067.75
939.51	1074.07
939.81	1084.60
940.11	1088.35
940.41	1091.63
940.71	1100.75
941.01	1099.12
941.31	1103.56
941.61	1097.71
941.91	1099.58
942.21	1081.56
942.51	1081.33
942.81	1061.90
943.11	1064.94
943.41	1052.30
943.71	1061.90
944.01	1054.65
944.31	1059.09
944.61	1056.52
944.90	1059.33
945.20	1057.92
945.50	1069.62
945.80	1067.75
946.10	1071.03
946.40	1069.86
946.70	1070.33
947.00	1068.45
947.30	1075.01
947.60	1069.16
947.89	1084.37
948.19	1085.07
948.49	1083.43
948.79	1079.69
949.09	1079.92
949.39	1078.28
949.69	1074.77
949.98	1073.60
950.28	1082.50
950.58	1082.97
950.88	1078.28
951.18	1080.39
951.48	1079.69
951.77	1077.82
952.07	1077.35
952.37	1073.14
952.67	1071.03
952.97	1078.75
953.26	1073.37
953.56	1075.24
953.86	1077.11
954.16	1088.12
954.45	1085.31
954.75	1085.54
955.05	1084.60
955.35	1082.26
955.64	1076.65
955.94	1077.58
956.24	1072.67
956.54	1079.69
956.83	1079.69
957.13	1078.99
957.43	1075.01
957.72	1075.94
958.02	1066.82
958.32	1078.99
958.61	1076.18
958.91	1078.99
959.21	1082.03
959.50	1092.80
959.80	1090.46
960.10	1088.58
960.39	1091.86
960.69	1087.65
960.99	1083.90
961.28	1090.22
961.58	1093.26
961.87	1089.05
962.17	1086.24
962.47	1076.88
962.76	1067.28
963.06	1065.88
963.36	1060.50
963.65	1067.05
963.95	1079.69
964.24	1088.12
964.54	1097.01
964.83	1106.84
965.13	1109.41
965.42	1104.50
965.72	1086.71
966.02	1082.97
966.31	1074.77
966.61	1084.37
966.90	1079.69
967.20	1084.84
967.49	1073.37
967.79	1078.75
968.08	1073.14
968.38	1075.71
968.67	1078.99
968.97	1089.29
969.26	1067.05
969.56	1054.41
969.85	1053.01
970.15	1050.20
970.44	1051.37
970.74	1064.48
971.03	1074.07
971.32	1071.26
971.62	1070.56
971.91	1065.88
972.21	1074.54
972.50	1078.28
972.80	1089.52
973.09	1089.75
973.38	1094.90
973.68	1106.14
973.97	1100.52
974.27	1101.46
974.56	1097.01
974.85	1096.07
975.15	1085.31
975.44	1094.43
975.73	1093.03
976.03	1102.86
976.32	1102.39
976.61	1102.86
976.91	1091.16
977.20	1081.80
977.49	1082.26
977.79	1078.75
978.08	1084.37
978.37	1085.54
978.67	1091.16
978.96	1080.63
979.25	1085.07
979.55	1075.94
979.84	1078.75
980.13	1072.43
980.42	1076.65
980.72	1073.37
981.01	1070.56
981.30	1062.84
981.59	1066.82
981.89	1069.16
982.18	1064.24
982.47	1069.86
982.76	1075.48
983.06	1075.48
983.35	1073.37
983.64	1073.14
983.93	1068.22
984.22	1072.43
984.52	1073.37
984.81	1069.16
985.10	1078.28
985.39	1083.67
985.68	1079.92
985.97	1078.75
986.27	1079.46
986.56	1075.71
986.85	1068.69
987.14	1072.20
987.43	1075.94
987.72	1078.52
988.01	1070.56
988.31	1062.37
988.60	1059.56
988.89	1056.28
989.18	1067.28
989.47	1073.37
989.76	1082.03
990.05	1078.28
990.34	1087.41
990.63	1081.56
990.92	1075.94
991.21	1072.67
991.51	1078.99
991.80	1069.62
992.09	1073.14
992.38	1075.71
992.67	1082.50
992.96	1077.58
993.25	1078.52
993.54	1077.11
993.83	1081.56
994.12	1083.20
994.41	1095.37
994.70	1099.35
994.99	1093.73
995.28	1090.46
995.57	1089.52
995.86	1086.48
996.15	1088.35
996.44	1087.18
996.73	1094.67
997.02	1086.24
997.31	1077.35
997.59	1075.24
997.88	1078.05
998.17	1069.16
998.46	1083.67
998.75	1085.77
999.04	1082.26
999.33	1082.97
999.62	1086.01
999.91	1072.90
1000.20	1072.20
1000.49	1065.88
1000.77	1059.56
1001.06	1066.58
1001.35	1073.14
1001.64	1074.54
1001.93	1084.37
1002.22	1087.41
1002.51	1082.73
1002.79	1075.24
1003.08	1078.52
1003.37	1080.16
1003.66	1082.97
1003.95	1090.46
1004.23	1096.31
1004.52	1083.20
1004.81	1070.56
1005.10	1081.09
1005.39	1061.20
1005.67	1055.58
1005.96	1063.77
1006.25	1078.52
1006.54	1067.99
1006.83	1077.82
1007.11	1078.52
1007.40	1078.99
1007.69	1078.28
1007.97	1067.75
1008.26	1075.71
1008.55	1083.43
1008.84	1081.80
1009.12	1083.90
1009.41	1100.29
1009.70	1090.92
1009.98	1086.24
1010.27	1084.37
1010.56	1070.33
1010.85	1055.82
1011.13	1057.45
1011.42	1059.79
1011.71	1070.09
1011.99	1069.39
1012.28	1076.41
1012.56	1080.39
1012.85	1077.35
1013.14	1061.90
1013.42	1067.75
1013.71	1076.41
1014.00	1072.67
1014.28	1070.33
1014.57	1083.20
1014.85	1085.31
1015.14	1083.20
1015.43	1080.16
1015.71	1085.31
1016.00	1081.80
1016.28	1078.28
1016.57	1065.18
1016.85	1066.11
1017.14	1062.37
1017.43	1053.24
1017.71	1058.39
1018.00	1063.77
1018.28	1065.18
1018.57	1076.41
1018.85	1077.35
1019.14	1077.58
1019.42	1086.94
1019.71	1094.20
1019.99	1092.56
1020.28	1094.67
1020.56	1090.46
1020.85	1085.07
1021.13	1078.75
1021.42	1075.94
1021.70	1079.22
1021.99	1079.22
1022.27	1077.35
1022.55	1075.48
1022.84	1075.48
>>>>>End Processed Spectral Data<<<<<
