SpectraSuite Data File
++++++++++++++++++++++++++++++++++++
Date: Mon Aug 26 10:24:30 PDT 2019
User: corrico
Dark Spectrum Present: No
Reference Spectrum Present: No
Number of Sampled Component Spectra: 1
Spectrometers: USB2+H06089
Integration Time (usec): 10000 (USB2+H06089)
Spectra Averaged: 2 (USB2+H06089)
Boxcar Smoothing: 2 (USB2+H06089)
Correct for Electrical Dark: No (USB2+H06089)
Strobe/Lamp Enabled: No (USB2+H06089)
Correct for Detector Non-linearity: No (USB2+H06089)
Correct for Stray Light: No (USB2+H06089)
Number of Pixels in Processed Spectrum: 2048
>>>>>Begin Processed Spectral Data<<<<<
339.70	1013.45
340.07	1013.45
340.45	981.39
340.82	959.62
341.19	938.55
341.57	909.77
341.94	897.83
342.31	895.49
342.69	891.28
343.06	896.66
343.43	906.02
343.81	909.30
344.18	909.77
344.55	920.30
344.93	920.53
345.30	921.94
345.67	922.64
346.04	932.47
346.42	935.98
346.79	951.66
347.16	954.24
347.54	970.39
347.91	972.49
348.28	985.83
348.65	980.45
349.03	997.30
349.40	1001.52
349.77	1009.00
350.14	1009.71
350.52	1014.86
350.89	1009.71
351.26	1013.22
351.63	1021.41
352.01	1021.88
352.38	1038.50
352.75	1055.35
353.12	1063.07
353.50	1069.16
353.87	1086.94
354.24	1078.05
354.61	1072.90
354.98	1069.86
355.36	1080.86
355.73	1069.86
356.10	1075.01
356.47	1068.69
356.84	1074.31
357.22	1060.73
357.59	1059.33
357.96	1059.56
358.33	1071.26
358.70	1058.39
359.08	1063.07
359.45	1067.52
359.82	1063.54
360.19	1059.09
360.56	1071.50
360.94	1066.58
361.31	1063.07
361.68	1073.37
362.05	1078.05
362.42	1082.03
362.79	1089.52
363.16	1078.52
363.54	1074.77
363.91	1070.33
364.28	1065.18
364.65	1051.13
365.02	1067.52
365.39	1061.90
365.76	1065.65
366.14	1067.52
366.51	1076.18
366.88	1077.11
367.25	1079.46
367.62	1081.80
367.99	1086.94
368.36	1084.14
368.73	1078.75
369.10	1069.39
369.48	1062.37
369.85	1055.58
370.22	1060.73
370.59	1060.96
370.96	1064.48
371.33	1066.58
371.70	1056.52
372.07	1060.96
372.44	1059.56
372.81	1066.11
373.18	1074.07
373.55	1081.33
373.93	1075.48
374.30	1071.26
374.67	1068.45
375.04	1065.65
375.41	1067.28
375.78	1066.58
376.15	1068.45
376.52	1075.71
376.89	1059.09
377.26	1051.37
377.63	1043.18
378.00	1058.62
378.37	1051.13
378.74	1061.43
379.11	1072.90
379.48	1081.56
379.85	1070.56
380.22	1069.86
380.59	1077.58
380.96	1075.01
381.33	1073.60
381.70	1077.58
382.07	1076.18
382.44	1062.84
382.81	1061.43
383.18	1061.43
383.55	1059.33
383.92	1073.84
384.29	1086.01
384.66	1086.71
385.03	1086.48
385.40	1090.22
385.77	1078.28
386.14	1072.67
386.51	1077.35
386.88	1083.67
387.25	1083.43
387.62	1087.18
387.99	1091.86
388.36	1093.73
388.73	1084.84
389.10	1082.26
389.46	1078.05
389.83	1075.24
390.20	1065.88
390.57	1066.82
390.94	1066.82
391.31	1077.58
391.68	1082.73
392.05	1096.54
392.42	1100.99
392.79	1094.67
393.16	1084.14
393.53	1076.18
393.89	1069.62
394.26	1063.31
394.63	1073.37
395.00	1074.54
395.37	1080.63
395.74	1078.52
396.11	1088.35
396.48	1079.69
396.84	1089.05
397.21	1090.92
397.58	1097.95
397.95	1090.92
398.32	1093.26
398.69	1092.80
399.06	1091.86
399.42	1081.33
399.79	1093.03
400.16	1093.50
400.53	1086.24
400.90	1072.20
401.27	1066.35
401.64	1056.99
402.00	1063.77
402.37	1070.80
402.74	1080.63
403.11	1083.90
403.48	1089.99
403.84	1089.05
404.21	1081.80
404.58	1083.43
404.95	1085.07
405.32	1077.82
405.68	1082.73
406.05	1078.52
406.42	1073.37
406.79	1082.97
407.16	1079.46
407.52	1072.43
407.89	1073.84
408.26	1084.60
408.63	1083.90
408.99	1090.69
409.36	1079.69
409.73	1083.90
410.10	1075.71
410.47	1070.33
410.83	1072.43
411.20	1090.46
411.57	1089.52
411.94	1093.50
412.30	1100.99
412.67	1107.31
413.04	1105.67
413.40	1112.69
413.77	1118.07
414.14	1113.63
414.51	1118.78
414.87	1105.67
415.24	1106.14
415.61	1099.82
415.97	1112.69
416.34	1103.09
416.71	1109.65
417.08	1119.01
417.44	1128.84
417.81	1124.16
418.18	1132.82
418.54	1148.50
418.91	1153.88
419.28	1159.97
419.64	1166.99
420.01	1176.82
420.38	1174.48
420.74	1175.65
421.11	1176.35
421.48	1178.93
421.84	1173.31
422.21	1192.03
422.58	1200.69
422.94	1212.40
423.31	1217.78
423.68	1240.25
424.04	1249.85
424.41	1250.08
424.77	1257.10
425.14	1280.51
425.51	1281.21
425.87	1288.70
426.24	1306.96
426.61	1319.36
426.97	1321.93
427.34	1344.87
427.70	1358.45
428.07	1380.45
428.44	1403.62
428.80	1424.68
429.17	1440.60
429.53	1456.98
429.90	1478.98
430.27	1497.94
430.63	1520.41
431.00	1539.60
431.36	1558.56
431.73	1570.03
432.09	1581.97
432.46	1598.59
432.83	1623.16
433.19	1648.44
433.56	1668.57
433.92	1690.33
434.29	1716.08
434.65	1748.85
435.02	1776.00
435.38	1794.25
435.75	1810.87
436.11	1824.21
436.48	1827.72
436.84	1834.75
437.21	1851.83
437.57	1877.81
437.94	1899.81
438.30	1912.45
438.67	1915.03
439.03	1923.45
439.40	1917.37
439.76	1904.49
440.13	1888.11
440.49	1888.34
440.86	1869.15
441.22	1870.56
441.59	1872.66
441.95	1876.64
442.32	1868.92
442.68	1866.58
443.05	1849.73
443.41	1831.24
443.78	1798.23
444.14	1774.83
444.51	1762.89
444.87	1757.04
445.24	1745.81
445.60	1732.93
445.96	1720.76
446.33	1701.57
446.69	1676.29
447.06	1658.27
447.42	1651.48
447.79	1629.48
448.15	1608.88
448.51	1590.39
448.88	1576.82
449.24	1555.99
449.61	1549.90
449.97	1523.92
450.33	1502.16
450.70	1483.20
451.06	1469.15
451.43	1460.96
451.79	1468.69
452.15	1466.81
452.52	1445.75
452.88	1441.07
453.24	1423.05
453.61	1406.19
453.97	1397.30
454.34	1395.19
454.70	1393.32
455.06	1385.36
455.43	1376.24
455.79	1359.38
456.15	1353.30
456.52	1333.40
456.88	1317.96
457.24	1309.30
457.61	1314.68
457.97	1294.78
458.33	1283.78
458.70	1285.42
459.06	1276.06
459.42	1264.36
459.79	1266.93
460.15	1265.29
460.51	1253.59
460.88	1256.17
461.24	1239.55
461.60	1239.31
461.96	1240.48
462.33	1232.76
462.69	1229.48
463.05	1229.02
463.42	1215.44
463.78	1199.06
464.14	1203.74
464.50	1193.44
464.87	1191.10
465.23	1192.97
465.59	1185.72
465.95	1176.82
466.32	1172.37
466.68	1161.37
467.04	1145.93
467.40	1148.27
467.77	1156.93
468.13	1149.20
468.49	1158.33
468.85	1169.10
469.22	1168.16
469.58	1154.82
469.94	1170.27
470.30	1167.93
470.66	1163.48
471.03	1154.35
471.39	1157.86
471.75	1148.73
472.11	1153.65
472.47	1154.82
472.84	1158.33
473.20	1155.99
473.56	1156.93
473.92	1156.93
474.28	1145.69
474.65	1148.27
475.01	1137.27
475.37	1132.12
475.73	1115.97
476.09	1119.24
476.45	1125.56
476.81	1133.99
477.18	1130.24
477.54	1136.33
477.90	1135.63
478.26	1121.82
478.62	1109.18
478.98	1099.58
479.34	1096.07
479.71	1090.92
480.07	1094.43
480.43	1110.58
480.79	1115.73
481.15	1106.61
481.51	1115.50
481.87	1114.56
482.23	1102.63
482.59	1102.16
482.96	1101.46
483.32	1093.73
483.68	1092.33
484.04	1090.22
484.40	1092.33
484.76	1094.67
485.12	1100.29
485.48	1110.82
485.84	1115.50
486.20	1113.63
486.56	1126.50
486.92	1133.29
487.28	1130.71
487.64	1127.67
488.00	1119.48
488.37	1117.84
488.73	1106.37
489.09	1104.73
489.45	1095.60
489.81	1105.20
490.17	1093.03
490.53	1099.58
490.89	1097.01
491.25	1098.18
491.61	1084.37
491.97	1085.77
492.33	1082.03
492.69	1076.65
493.05	1089.52
493.41	1089.05
493.77	1098.41
494.13	1091.39
494.49	1088.12
494.85	1074.07
495.21	1075.71
495.57	1077.82
495.93	1086.94
496.29	1097.95
496.64	1102.39
497.00	1106.14
497.36	1093.26
497.72	1080.63
498.08	1077.82
498.44	1082.26
498.80	1080.86
499.16	1081.80
499.52	1086.71
499.88	1080.63
500.24	1082.03
500.60	1092.33
500.96	1090.92
501.32	1094.43
501.68	1098.41
502.03	1095.60
502.39	1091.16
502.75	1088.35
503.11	1085.77
503.47	1082.50
503.83	1087.65
504.19	1087.18
504.55	1093.26
504.91	1093.97
505.26	1082.03
505.62	1076.65
505.98	1077.82
506.34	1073.37
506.70	1070.33
507.06	1080.63
507.42	1081.56
507.78	1075.01
508.13	1083.20
508.49	1090.92
508.85	1097.71
509.21	1092.33
509.57	1089.99
509.93	1086.48
510.28	1083.20
510.64	1068.69
511.00	1076.41
511.36	1078.99
511.72	1073.60
512.07	1075.94
512.43	1084.60
512.79	1079.69
513.15	1077.35
513.51	1083.43
513.86	1082.50
514.22	1084.60
514.58	1088.82
514.94	1101.22
515.30	1090.22
515.65	1086.24
516.01	1077.58
516.37	1068.92
516.73	1053.48
517.08	1056.28
517.44	1063.31
517.80	1069.62
518.16	1067.52
518.51	1082.03
518.87	1082.73
519.23	1083.43
519.59	1080.39
519.94	1085.07
520.30	1071.26
520.66	1080.63
521.01	1073.37
521.37	1072.67
521.73	1067.99
522.09	1079.92
522.44	1071.26
522.80	1066.11
523.16	1064.71
523.51	1074.54
523.87	1069.62
524.23	1075.24
524.58	1074.77
524.94	1073.60
525.30	1074.31
525.65	1075.24
526.01	1064.48
526.37	1065.41
526.72	1064.01
527.08	1059.09
527.44	1052.30
527.79	1064.01
528.15	1069.62
528.51	1069.86
528.86	1073.37
529.22	1082.26
529.58	1080.16
529.93	1072.43
530.29	1077.35
530.65	1076.88
531.00	1078.75
531.36	1072.43
531.71	1080.63
532.07	1082.26
532.43	1078.52
532.78	1071.26
533.14	1081.56
533.49	1078.28
533.85	1084.60
534.21	1081.33
534.56	1086.71
534.92	1088.12
535.27	1088.82
535.63	1087.88
535.98	1094.43
536.34	1096.07
536.69	1099.35
537.05	1099.58
537.41	1093.50
537.76	1093.03
538.12	1081.09
538.47	1072.67
538.83	1074.07
539.18	1078.75
539.54	1073.84
539.89	1077.35
540.25	1077.11
540.60	1063.31
540.96	1060.03
541.31	1069.39
541.67	1074.54
542.02	1070.56
542.38	1087.65
542.73	1096.78
543.09	1093.26
543.44	1089.52
543.80	1089.75
544.15	1080.39
544.51	1071.50
544.86	1067.52
545.22	1066.35
545.57	1067.75
545.93	1074.31
546.28	1073.37
546.64	1077.11
546.99	1088.12
547.35	1077.35
547.70	1076.65
548.05	1085.31
548.41	1086.48
548.76	1081.33
549.12	1097.95
549.47	1086.24
549.83	1079.46
550.18	1081.80
550.53	1083.67
550.89	1075.94
551.24	1087.18
551.60	1087.88
551.95	1088.58
552.30	1072.67
552.66	1072.20
553.01	1072.67
553.37	1067.52
553.72	1068.92
554.07	1072.90
554.43	1083.67
554.78	1088.58
555.13	1092.80
555.49	1078.05
555.84	1083.20
556.19	1075.24
556.55	1065.41
556.90	1061.67
557.26	1076.65
557.61	1084.14
557.96	1076.18
558.32	1085.54
558.67	1084.60
559.02	1079.22
559.37	1076.41
559.73	1083.67
560.08	1085.31
560.43	1089.99
560.79	1074.77
561.14	1067.28
561.49	1058.39
561.85	1053.71
562.20	1046.69
562.55	1054.65
562.90	1060.26
563.26	1078.75
563.61	1070.80
563.96	1071.73
564.32	1076.65
564.67	1082.97
565.02	1075.71
565.37	1089.75
565.73	1098.88
566.08	1096.54
566.43	1097.48
566.78	1091.63
567.14	1080.86
567.49	1082.03
567.84	1081.80
568.19	1067.05
568.54	1072.43
568.90	1078.28
569.25	1069.62
569.60	1067.52
569.95	1075.48
570.31	1066.82
570.66	1064.48
571.01	1072.43
571.36	1078.05
571.71	1080.39
572.06	1084.84
572.42	1078.28
572.77	1070.56
573.12	1068.69
573.47	1068.69
573.82	1075.48
574.18	1077.58
574.53	1078.99
574.88	1083.20
575.23	1082.73
575.58	1087.41
575.93	1090.22
576.28	1088.12
576.64	1079.92
576.99	1074.31
577.34	1066.11
577.69	1064.24
578.04	1066.82
578.39	1068.45
578.74	1076.88
579.09	1072.67
579.44	1069.16
579.80	1070.09
580.15	1077.82
580.50	1066.11
580.85	1073.60
581.20	1078.52
581.55	1068.45
581.90	1062.84
582.25	1066.35
582.60	1064.01
582.95	1065.18
583.30	1081.56
583.65	1082.97
584.00	1089.75
584.35	1083.67
584.71	1084.84
585.06	1078.75
585.41	1077.82
585.76	1073.14
586.11	1081.09
586.46	1073.14
586.81	1068.45
587.16	1064.24
587.51	1070.09
587.86	1077.11
588.21	1087.88
588.56	1088.58
588.91	1090.46
589.26	1084.37
589.61	1071.03
589.96	1068.22
590.31	1075.94
590.66	1082.97
591.01	1078.75
591.36	1079.69
591.71	1075.71
592.06	1074.07
592.41	1068.69
592.76	1072.90
593.10	1079.69
593.45	1074.77
593.80	1073.37
594.15	1067.52
594.50	1074.31
594.85	1060.73
595.20	1066.11
595.55	1066.58
595.90	1068.69
596.25	1065.65
596.60	1083.90
596.95	1093.26
597.30	1100.99
597.64	1159.27
597.99	1160.67
598.34	1153.18
598.69	1145.22
599.04	1131.18
599.39	1075.48
599.74	1078.75
600.09	1084.37
600.44	1087.41
600.78	1089.99
601.13	1094.67
601.48	1086.94
601.83	1072.43
602.18	1064.01
602.53	1067.52
602.88	1063.31
603.22	1063.77
603.57	1071.97
603.92	1082.03
604.27	1081.80
604.62	1079.92
604.97	1083.20
605.31	1089.29
605.66	1086.94
606.01	1080.86
606.36	1085.54
606.71	1080.86
607.05	1071.97
607.40	1073.84
607.75	1082.50
608.10	1074.77
608.44	1075.01
608.79	1080.16
609.14	1073.84
609.49	1075.48
609.84	1087.41
610.18	1088.58
610.53	1098.18
610.88	1101.22
611.23	1097.48
611.57	1096.78
611.92	1096.07
612.27	1076.18
612.62	1082.03
612.96	1086.94
613.31	1082.26
613.66	1087.18
614.00	1094.90
614.35	1091.63
614.70	1080.63
615.05	1077.35
615.39	1078.75
615.74	1082.03
616.09	1086.01
616.43	1095.37
616.78	1104.97
617.13	1095.60
617.47	1091.63
617.82	1080.39
618.17	1066.11
618.51	1070.80
618.86	1080.16
619.21	1079.92
619.55	1082.03
619.90	1085.77
620.25	1080.16
620.59	1075.01
620.94	1073.14
621.29	1075.01
621.63	1076.18
621.98	1064.48
622.32	1066.35
622.67	1067.75
623.02	1065.88
623.36	1074.77
623.71	1089.52
624.05	1090.46
624.40	1087.88
624.75	1093.50
625.09	1097.71
625.44	1090.92
625.78	1089.05
626.13	1093.97
626.48	1088.35
626.82	1079.69
627.17	1075.01
627.51	1069.39
627.86	1063.07
628.20	1065.88
628.55	1056.52
628.89	1057.22
629.24	1059.09
629.58	1066.82
629.93	1064.01
630.28	1076.18
630.62	1070.09
630.97	1078.05
631.31	1070.80
631.66	1074.77
632.00	1070.80
632.35	1076.88
632.69	1069.39
633.04	1082.97
633.38	1084.60
633.73	1084.37
634.07	1073.14
634.42	1076.18
634.76	1064.71
635.11	1055.82
635.45	1058.16
635.79	1074.07
636.14	1073.37
636.48	1072.67
636.83	1078.99
637.17	1076.41
637.52	1071.50
637.86	1069.16
638.21	1075.48
638.55	1078.28
638.89	1083.67
639.24	1091.39
639.58	1093.26
639.93	1091.39
640.27	1086.48
640.61	1077.82
640.96	1077.82
641.30	1080.39
641.65	1066.82
641.99	1064.71
642.33	1068.22
642.68	1061.20
643.02	1060.03
643.37	1073.84
643.71	1076.18
644.05	1075.24
644.40	1080.86
644.74	1089.52
645.08	1084.37
645.43	1077.11
645.77	1072.67
646.11	1071.97
646.46	1067.52
646.80	1076.88
647.14	1093.26
647.49	1114.56
647.83	1118.31
648.17	1106.37
648.52	1095.37
648.86	1084.60
649.20	1063.07
649.55	1062.14
649.89	1072.90
650.23	1080.63
650.57	1085.77
650.92	1092.09
651.26	1081.56
651.60	1084.14
651.95	1080.39
652.29	1075.71
652.63	1076.18
652.97	1084.84
653.32	1071.50
653.66	1074.31
654.00	1082.03
654.34	1086.94
654.69	1078.99
655.03	1090.69
655.37	1089.52
655.71	1083.20
656.05	1081.33
656.40	1095.84
656.74	1088.58
657.08	1093.26
657.42	1091.86
657.76	1092.56
658.11	1085.54
658.45	1088.58
658.79	1087.41
659.13	1085.07
659.47	1077.11
659.82	1068.69
660.16	1066.35
660.50	1061.20
660.84	1064.01
661.18	1065.88
661.52	1065.18
661.87	1065.18
662.21	1062.14
662.55	1064.94
662.89	1065.65
663.23	1068.22
663.57	1066.82
663.91	1068.22
664.25	1063.54
664.60	1060.26
664.94	1068.92
665.28	1068.92
665.62	1072.20
665.96	1076.65
666.30	1076.18
666.64	1063.54
666.98	1063.54
667.32	1061.43
667.66	1046.92
668.01	1043.88
668.35	1053.48
668.69	1069.62
669.03	1075.24
669.37	1079.69
669.71	1082.03
670.05	1080.63
670.39	1064.94
670.73	1061.43
671.07	1068.69
671.41	1070.56
671.75	1074.07
672.09	1073.84
672.43	1077.35
672.77	1084.84
673.11	1089.29
673.45	1087.65
673.79	1086.01
674.13	1080.16
674.47	1072.67
674.81	1064.71
675.15	1059.09
675.49	1064.48
675.83	1067.52
676.17	1072.43
676.51	1083.90
676.85	1099.58
677.19	1099.35
677.53	1099.12
677.87	1097.01
678.21	1097.48
678.55	1075.01
678.89	1074.77
679.23	1074.31
679.57	1076.65
679.90	1066.58
680.24	1080.63
680.58	1080.63
680.92	1095.14
681.26	1099.35
681.60	1098.65
681.94	1092.33
682.28	1087.41
682.62	1070.33
682.96	1055.11
683.29	1056.52
683.63	1060.03
683.97	1069.16
684.31	1076.41
684.65	1083.67
684.99	1091.63
685.33	1095.14
685.67	1102.86
686.00	1096.54
686.34	1098.18
686.68	1089.75
687.02	1076.88
687.36	1063.77
687.70	1060.96
688.03	1058.39
688.37	1062.60
688.71	1068.92
689.05	1076.65
689.39	1074.07
689.72	1085.54
690.06	1082.97
690.40	1085.54
690.74	1081.80
691.08	1094.67
691.41	1080.39
691.75	1076.88
692.09	1076.88
692.43	1073.60
692.76	1067.28
693.10	1072.20
693.44	1082.26
693.78	1078.75
694.11	1077.11
694.45	1073.84
694.79	1070.09
695.13	1056.05
695.46	1055.35
695.80	1056.05
696.14	1066.82
696.48	1070.09
696.81	1078.05
697.15	1083.20
697.49	1079.92
697.82	1068.45
698.16	1064.01
698.50	1062.84
698.83	1053.71
699.17	1053.24
699.51	1060.03
699.84	1064.48
700.18	1075.01
700.52	1086.71
700.85	1091.86
701.19	1090.22
701.53	1089.75
701.86	1092.09
702.20	1075.01
702.54	1074.77
702.87	1071.50
703.21	1075.71
703.55	1063.31
703.88	1074.77
704.22	1070.80
704.55	1073.14
704.89	1062.84
705.23	1059.33
705.56	1059.09
705.90	1059.56
706.23	1060.26
706.57	1068.69
706.91	1079.46
707.24	1073.84
707.58	1076.65
707.91	1076.41
708.25	1071.97
708.58	1069.39
708.92	1073.60
709.26	1068.45
709.59	1068.45
709.93	1068.69
710.26	1071.73
710.60	1077.82
710.93	1089.75
711.27	1091.63
711.60	1084.37
711.94	1081.56
712.27	1074.77
712.61	1072.43
712.94	1072.67
713.28	1082.73
713.61	1085.54
713.95	1089.29
714.28	1082.26
714.62	1080.63
714.95	1079.22
715.29	1076.65
715.62	1079.46
715.96	1085.31
716.29	1093.97
716.63	1095.37
716.96	1097.24
717.29	1100.05
717.63	1097.48
717.96	1087.18
718.30	1088.58
718.63	1091.63
718.97	1089.05
719.30	1085.54
719.63	1095.14
719.97	1091.63
720.30	1087.18
720.64	1078.05
720.97	1082.03
721.30	1075.94
721.64	1083.43
721.97	1089.05
722.31	1089.75
722.64	1086.71
722.97	1082.50
723.31	1078.52
723.64	1066.35
723.97	1075.71
724.31	1074.54
724.64	1083.67
724.98	1079.69
725.31	1084.37
725.64	1084.84
725.98	1086.71
726.31	1072.90
726.64	1071.73
726.97	1070.09
727.31	1074.07
727.64	1075.01
727.97	1075.94
728.31	1071.26
728.64	1076.41
728.97	1071.03
729.31	1062.84
729.64	1066.82
729.97	1082.26
730.30	1069.62
730.64	1065.18
730.97	1077.11
731.30	1076.18
731.63	1067.28
731.97	1081.80
732.30	1082.03
732.63	1082.26
732.96	1085.77
733.30	1088.82
733.63	1084.60
733.96	1087.88
734.29	1083.67
734.63	1080.39
734.96	1082.26
735.29	1083.90
735.62	1074.31
735.95	1071.03
736.29	1075.71
736.62	1064.01
736.95	1065.18
737.28	1072.90
737.61	1079.69
737.94	1081.09
738.28	1090.22
738.61	1085.54
738.94	1076.41
739.27	1073.84
739.60	1063.07
739.93	1068.22
740.27	1078.52
740.60	1085.77
740.93	1085.31
741.26	1099.82
741.59	1092.33
741.92	1083.43
742.25	1078.52
742.58	1074.07
742.91	1063.07
743.25	1065.65
743.58	1066.35
743.91	1064.71
744.24	1067.28
744.57	1064.71
744.90	1064.24
745.23	1057.22
745.56	1068.22
745.89	1074.07
746.22	1066.58
746.55	1067.52
746.88	1079.22
747.21	1078.52
747.54	1067.05
747.87	1081.80
748.20	1070.80
748.53	1060.73
748.87	1059.33
749.20	1062.60
749.53	1057.22
749.86	1058.62
750.19	1062.14
750.52	1056.99
750.85	1066.82
751.18	1075.71
751.51	1081.33
751.84	1087.18
752.16	1089.99
752.49	1080.39
752.82	1074.77
753.15	1080.16
753.48	1076.18
753.81	1077.82
754.14	1080.86
754.47	1088.82
754.80	1083.67
755.13	1087.88
755.46	1085.07
755.79	1088.82
756.12	1074.77
756.45	1081.33
756.78	1078.99
757.11	1085.07
757.43	1082.26
757.76	1083.43
758.09	1078.28
758.42	1075.94
758.75	1071.97
759.08	1066.58
759.41	1072.90
759.74	1073.84
760.07	1077.11
760.39	1082.03
760.72	1085.54
761.05	1087.88
761.38	1097.01
761.71	1093.03
762.04	1081.80
762.36	1084.14
762.69	1076.88
763.02	1064.94
763.35	1065.65
763.68	1079.69
764.01	1069.39
764.33	1065.18
764.66	1063.54
764.99	1056.75
765.32	1048.33
765.65	1061.43
765.97	1064.01
766.30	1077.58
766.63	1086.01
766.96	1084.84
767.28	1079.46
767.61	1087.88
767.94	1080.39
768.27	1073.60
768.59	1083.90
768.92	1096.31
769.25	1100.05
769.58	1100.52
769.90	1105.90
770.23	1086.94
770.56	1070.80
770.89	1068.69
771.21	1068.69
771.54	1068.69
771.87	1070.56
772.19	1073.84
772.52	1064.71
772.85	1064.94
773.17	1066.35
773.50	1070.56
773.83	1074.07
774.15	1078.99
774.48	1079.69
774.81	1079.69
775.13	1082.97
775.46	1075.71
775.79	1075.24
776.11	1069.16
776.44	1070.80
776.77	1069.16
777.09	1077.82
777.42	1076.65
777.74	1081.33
778.07	1077.58
778.40	1075.24
778.72	1064.94
779.05	1075.24
779.37	1072.90
779.70	1073.14
780.03	1075.94
780.35	1091.86
780.68	1087.88
781.00	1075.01
781.33	1071.03
781.65	1074.31
781.98	1072.67
782.31	1067.99
782.63	1079.46
782.96	1088.35
783.28	1094.90
783.61	1086.01
783.93	1082.73
784.26	1085.07
784.58	1076.88
784.91	1066.82
785.23	1067.52
785.56	1078.52
785.88	1080.16
786.21	1076.65
786.53	1076.18
786.86	1075.01
787.18	1069.16
787.51	1066.11
787.83	1072.20
788.16	1077.11
788.48	1082.97
788.81	1093.03
789.13	1085.77
789.46	1081.56
789.78	1082.50
790.10	1084.60
790.43	1073.60
790.75	1071.73
791.08	1078.52
791.40	1071.50
791.73	1071.97
792.05	1067.99
792.37	1071.73
792.70	1066.82
793.02	1066.58
793.35	1056.99
793.67	1057.69
793.99	1059.79
794.32	1064.71
794.64	1061.20
794.96	1069.62
795.29	1064.48
795.61	1065.41
795.93	1071.50
796.26	1076.18
796.58	1066.35
796.91	1075.48
797.23	1074.54
797.55	1059.09
797.87	1065.18
798.20	1074.07
798.52	1069.39
798.84	1075.71
799.17	1083.43
799.49	1088.12
799.81	1090.92
800.14	1097.01
800.46	1086.71
800.78	1094.90
801.10	1081.33
801.43	1073.37
801.75	1077.11
802.07	1081.56
802.40	1077.58
802.72	1083.43
803.04	1076.88
803.36	1063.77
803.69	1071.50
804.01	1068.45
804.33	1056.05
804.65	1070.56
804.97	1071.73
805.30	1074.07
805.62	1069.86
805.94	1087.18
806.26	1077.35
806.58	1075.94
806.91	1065.41
807.23	1073.84
807.55	1071.50
807.87	1079.46
808.19	1088.35
808.52	1097.95
808.84	1098.18
809.16	1089.99
809.48	1087.18
809.80	1086.94
810.12	1089.29
810.44	1084.60
810.77	1086.94
811.09	1086.71
811.41	1079.92
811.73	1071.26
812.05	1070.56
812.37	1075.24
812.69	1069.86
813.01	1081.09
813.33	1089.52
813.66	1079.92
813.98	1079.22
814.30	1084.14
814.62	1081.56
814.94	1065.88
815.26	1065.88
815.58	1060.03
815.90	1064.71
816.22	1051.60
816.54	1050.90
816.86	1059.79
817.18	1067.52
817.50	1059.79
817.82	1070.09
818.14	1072.90
818.46	1067.75
818.78	1059.56
819.10	1062.14
819.42	1064.71
819.74	1065.18
820.06	1075.01
820.38	1092.80
820.70	1095.84
821.02	1092.80
821.34	1098.18
821.66	1100.05
821.98	1088.82
822.30	1086.94
822.62	1084.84
822.94	1079.92
823.26	1071.97
823.58	1076.65
823.90	1078.52
824.22	1078.52
824.54	1077.82
824.86	1073.60
825.18	1074.07
825.50	1077.58
825.81	1073.60
826.13	1082.26
826.45	1082.73
826.77	1075.94
827.09	1073.84
827.41	1083.67
827.73	1073.60
828.05	1091.16
828.36	1099.12
828.68	1096.78
829.00	1088.82
829.32	1095.84
829.64	1081.33
829.96	1077.35
830.28	1088.58
830.59	1086.71
830.91	1089.75
831.23	1094.20
831.55	1084.84
831.87	1070.56
832.19	1070.33
832.50	1064.48
832.82	1060.50
833.14	1065.18
833.46	1070.80
833.78	1071.50
834.09	1068.45
834.41	1066.82
834.73	1064.48
835.05	1058.86
835.36	1061.67
835.68	1061.67
836.00	1062.37
836.32	1066.58
836.63	1077.82
836.95	1075.01
837.27	1079.46
837.59	1080.39
837.90	1084.14
838.22	1076.65
838.54	1085.31
838.85	1076.88
839.17	1078.75
839.49	1080.63
839.80	1079.92
840.12	1071.50
840.44	1080.39
840.76	1080.63
841.07	1080.63
841.39	1085.07
841.71	1093.73
842.02	1094.90
842.34	1091.63
842.65	1077.82
842.97	1072.43
843.29	1070.80
843.60	1061.43
843.92	1058.62
844.24	1061.20
844.55	1059.79
844.87	1061.20
845.18	1076.41
845.50	1079.92
845.82	1086.01
846.13	1091.16
846.45	1082.26
846.76	1079.22
847.08	1074.07
847.40	1070.09
847.71	1061.43
848.03	1058.62
848.34	1056.75
848.66	1068.92
848.97	1082.73
849.29	1077.58
849.60	1096.78
849.92	1091.86
850.24	1078.99
850.55	1066.11
850.87	1076.88
851.18	1056.99
851.50	1055.82
851.81	1060.50
852.13	1060.50
852.44	1064.01
852.76	1074.54
853.07	1071.97
853.39	1070.09
853.70	1086.01
854.01	1082.73
854.33	1080.86
854.64	1081.56
854.96	1091.16
855.27	1076.41
855.59	1077.82
855.90	1077.35
856.22	1086.94
856.53	1070.09
856.84	1064.48
857.16	1057.92
857.47	1068.22
857.79	1071.03
858.10	1086.24
858.41	1097.01
858.73	1103.09
859.04	1095.84
859.36	1086.24
859.67	1073.60
859.98	1069.39
860.30	1057.69
860.61	1056.52
860.92	1050.20
861.24	1053.24
861.55	1048.09
861.87	1046.22
862.18	1044.58
862.49	1056.05
862.81	1062.37
863.12	1069.39
863.43	1083.67
863.74	1076.65
864.06	1067.75
864.37	1066.58
864.68	1072.67
865.00	1067.28
865.31	1075.48
865.62	1090.22
865.94	1093.26
866.25	1088.35
866.56	1092.09
866.87	1096.31
867.19	1086.48
867.50	1077.82
867.81	1068.92
868.12	1070.56
868.44	1061.67
868.75	1068.45
869.06	1074.31
869.37	1078.99
869.68	1079.22
870.00	1084.14
870.31	1081.56
870.62	1085.31
870.93	1083.20
871.24	1080.16
871.56	1083.67
871.87	1089.75
872.18	1082.26
872.49	1080.86
872.80	1079.22
873.12	1073.60
873.43	1070.80
873.74	1082.03
874.05	1075.01
874.36	1074.31
874.67	1071.50
874.98	1064.48
875.29	1053.01
875.61	1064.94
875.92	1060.26
876.23	1065.65
876.54	1070.56
876.85	1067.99
877.16	1067.75
877.47	1074.31
877.78	1080.16
878.09	1080.16
878.40	1088.12
878.72	1090.22
879.03	1089.52
879.34	1079.22
879.65	1075.24
879.96	1073.37
880.27	1068.45
880.58	1064.48
880.89	1067.28
881.20	1064.71
881.51	1063.07
881.82	1072.20
882.13	1080.86
882.44	1074.07
882.75	1074.31
883.06	1081.56
883.37	1072.20
883.68	1065.88
883.99	1068.69
884.30	1066.35
884.61	1054.65
884.92	1054.18
885.23	1057.92
885.54	1059.56
885.85	1061.43
886.16	1067.52
886.47	1078.99
886.78	1075.01
887.08	1076.65
887.39	1072.90
887.70	1074.31
888.01	1066.58
888.32	1062.14
888.63	1059.79
888.94	1068.92
889.25	1068.92
889.56	1072.43
889.87	1081.56
890.17	1089.99
890.48	1073.60
890.79	1068.22
891.10	1065.18
891.41	1065.18
891.72	1055.35
892.03	1077.82
892.34	1090.22
892.64	1087.65
892.95	1087.88
893.26	1088.35
893.57	1085.07
893.88	1085.77
894.18	1079.22
894.49	1076.88
894.80	1084.60
895.11	1081.33
895.42	1065.88
895.72	1066.58
896.03	1062.84
896.34	1063.54
896.65	1062.84
896.96	1070.56
897.26	1077.82
897.57	1082.97
897.88	1075.71
898.19	1072.67
898.49	1081.09
898.80	1083.90
899.11	1075.01
899.41	1087.65
899.72	1101.46
900.03	1090.22
900.34	1089.75
900.64	1099.58
900.95	1089.29
901.26	1073.14
901.56	1079.92
901.87	1081.09
902.18	1081.33
902.48	1077.11
902.79	1081.33
903.10	1078.75
903.40	1071.97
903.71	1069.86
904.02	1072.90
904.32	1080.39
904.63	1078.99
904.94	1081.33
905.24	1077.82
905.55	1075.01
905.85	1060.73
906.16	1058.86
906.47	1057.92
906.77	1061.43
907.08	1065.18
907.38	1076.18
907.69	1085.77
908.00	1091.86
908.30	1087.18
908.61	1085.07
908.91	1070.80
909.22	1068.45
909.52	1061.43
909.83	1064.94
910.14	1068.69
910.44	1078.99
910.75	1073.60
911.05	1077.11
911.36	1084.60
911.66	1089.29
911.97	1097.48
912.27	1091.16
912.58	1098.18
912.88	1089.52
913.19	1084.60
913.49	1072.20
913.80	1078.75
914.10	1069.16
914.41	1072.43
914.71	1072.43
915.01	1084.37
915.32	1078.05
915.62	1072.90
915.93	1078.75
916.23	1075.24
916.54	1070.33
916.84	1078.99
917.15	1078.52
917.45	1065.18
917.75	1069.86
918.06	1063.31
918.36	1062.14
918.67	1077.58
918.97	1085.31
919.27	1075.24
919.58	1086.48
919.88	1082.50
920.18	1081.80
920.49	1089.99
920.79	1103.09
921.10	1100.99
921.40	1114.56
921.70	1111.29
922.01	1101.92
922.31	1090.46
922.61	1085.54
922.92	1079.46
923.22	1074.07
923.52	1073.14
923.82	1079.69
924.13	1073.14
924.43	1066.82
924.73	1069.39
925.04	1062.37
925.34	1052.54
925.64	1058.16
925.94	1062.37
926.25	1052.77
926.55	1062.14
926.85	1070.56
927.15	1074.07
927.46	1068.45
927.76	1074.54
928.06	1070.33
928.36	1066.35
928.67	1061.67
928.97	1067.05
929.27	1082.73
929.57	1088.82
929.87	1090.46
930.18	1087.18
930.48	1089.75
930.78	1074.07
931.08	1066.35
931.38	1058.62
931.69	1056.75
931.99	1047.86
932.29	1048.09
932.59	1044.82
932.89	1060.96
933.19	1066.82
933.49	1074.31
933.80	1077.11
934.10	1075.24
934.40	1077.58
934.70	1080.16
935.00	1082.26
935.30	1082.26
935.60	1095.84
935.90	1083.20
936.20	1081.56
936.50	1081.09
936.81	1078.28
937.11	1077.58
937.41	1073.37
937.71	1067.52
938.01	1063.31
938.31	1064.48
938.61	1053.48
938.91	1055.35
939.21	1061.43
939.51	1058.16
939.81	1053.71
940.11	1062.60
940.41	1071.50
940.71	1070.09
941.01	1075.01
941.31	1086.24
941.61	1087.88
941.91	1086.71
942.21	1088.58
942.51	1085.77
942.81	1074.31
943.11	1074.07
943.41	1069.16
943.71	1062.84
944.01	1063.77
944.31	1076.18
944.61	1069.16
944.90	1084.37
945.20	1087.88
945.50	1092.80
945.80	1089.52
946.10	1091.86
946.40	1074.54
946.70	1075.01
947.00	1067.75
947.30	1066.82
947.60	1062.84
947.89	1076.41
948.19	1079.46
948.49	1079.46
948.79	1086.71
949.09	1087.65
949.39	1081.33
949.69	1076.41
949.98	1080.39
950.28	1075.24
950.58	1079.22
950.88	1072.43
951.18	1073.60
951.48	1080.16
951.77	1079.92
952.07	1087.18
952.37	1094.43
952.67	1094.20
952.97	1088.12
953.26	1079.22
953.56	1070.80
953.86	1067.99
954.16	1064.48
954.45	1056.28
954.75	1064.94
955.05	1070.56
955.35	1069.86
955.64	1081.80
955.94	1089.52
956.24	1076.65
956.54	1078.99
956.83	1086.48
957.13	1074.31
957.43	1074.31
957.72	1080.86
958.02	1069.62
958.32	1068.45
958.61	1071.73
958.91	1071.26
959.21	1079.69
959.50	1087.18
959.80	1079.46
960.10	1082.73
960.39	1086.24
960.69	1080.63
960.99	1072.20
961.28	1070.80
961.58	1065.41
961.87	1060.26
962.17	1055.35
962.47	1058.16
962.76	1067.75
963.06	1074.54
963.36	1082.97
963.65	1088.35
963.95	1096.07
964.24	1094.90
964.54	1095.84
964.83	1077.35
965.13	1078.28
965.42	1075.71
965.72	1073.37
966.02	1067.99
966.31	1087.88
966.61	1094.67
966.90	1089.29
967.20	1087.18
967.49	1093.26
967.79	1079.22
968.08	1078.99
968.38	1087.88
968.67	1092.56
968.97	1086.48
969.26	1093.73
969.56	1091.39
969.85	1093.03
970.15	1085.31
970.44	1083.20
970.74	1082.97
971.03	1075.01
971.32	1062.14
971.62	1063.54
971.91	1073.37
972.21	1071.50
972.50	1079.69
972.80	1089.52
973.09	1095.14
973.38	1085.07
973.68	1082.50
973.97	1075.01
974.27	1066.58
974.56	1060.26
974.85	1062.84
975.15	1063.77
975.44	1061.90
975.73	1069.86
976.03	1068.69
976.32	1073.14
976.61	1072.43
976.91	1067.52
977.20	1058.62
977.49	1068.22
977.79	1069.86
978.08	1070.09
978.37	1081.33
978.67	1078.75
978.96	1075.71
979.25	1076.18
979.55	1075.01
979.84	1071.03
980.13	1078.52
980.42	1073.60
980.72	1070.56
981.01	1070.09
981.30	1070.09
981.59	1072.43
981.89	1081.09
982.18	1076.88
982.47	1081.80
982.76	1087.18
983.06	1081.56
983.35	1079.22
983.64	1095.14
983.93	1089.75
984.22	1075.24
984.52	1080.86
984.81	1085.07
985.10	1078.99
985.39	1079.22
985.68	1088.35
985.97	1086.24
986.27	1081.33
986.56	1071.03
986.85	1086.94
987.14	1092.09
987.43	1095.84
987.72	1091.63
988.01	1100.99
988.31	1086.48
988.60	1083.67
988.89	1075.48
989.18	1082.97
989.47	1083.90
989.76	1086.01
990.05	1087.41
990.34	1091.39
990.63	1078.99
990.92	1067.52
991.21	1075.24
991.51	1057.69
991.80	1059.79
992.09	1066.35
992.38	1068.92
992.67	1059.79
992.96	1071.26
993.25	1074.77
993.54	1074.31
993.83	1078.52
994.12	1084.37
994.41	1078.52
994.70	1072.20
994.99	1076.88
995.28	1074.77
995.57	1072.67
995.86	1079.22
996.15	1078.99
996.44	1077.11
996.73	1071.26
997.02	1065.41
997.31	1067.05
997.59	1077.82
997.88	1074.07
998.17	1085.31
998.46	1092.56
998.75	1095.37
999.04	1088.58
999.33	1086.94
999.62	1077.11
999.91	1074.77
1000.20	1067.75
1000.49	1063.07
1000.77	1070.33
1001.06	1072.43
1001.35	1081.56
1001.64	1089.99
1001.93	1104.50
1002.22	1108.95
1002.51	1110.35
1002.79	1088.12
1003.08	1087.65
1003.37	1078.52
1003.66	1061.67
1003.95	1060.03
1004.23	1069.16
1004.52	1070.33
1004.81	1072.90
1005.10	1085.07
1005.39	1084.14
1005.67	1074.77
1005.96	1070.80
1006.25	1068.45
1006.54	1067.75
1006.83	1068.92
1007.11	1081.33
1007.40	1073.60
1007.69	1062.60
1007.97	1057.22
1008.26	1058.16
1008.55	1062.84
1008.84	1071.73
1009.12	1075.24
1009.41	1085.54
1009.70	1092.33
1009.98	1090.69
1010.27	1093.03
1010.56	1097.95
1010.85	1098.18
1011.13	1088.12
1011.42	1081.09
1011.71	1077.82
1011.99	1079.22
1012.28	1072.20
1012.56	1076.18
1012.85	1074.77
1013.14	1079.46
1013.42	1078.05
1013.71	1072.67
1014.00	1070.56
1014.28	1074.54
1014.57	1066.35
1014.85	1062.14
1015.14	1062.37
1015.43	1066.82
1015.71	1059.33
1016.00	1057.45
1016.28	1071.03
1016.57	1082.03
1016.85	1080.63
1017.14	1094.43
1017.43	1103.80
1017.71	1089.52
1018.00	1080.63
1018.28	1091.39
1018.57	1078.28
1018.85	1071.03
1019.14	1081.33
1019.42	1079.22
1019.71	1069.39
1019.99	1072.20
1020.28	1076.88
1020.56	1066.82
1020.85	1074.07
1021.13	1067.99
1021.42	1065.88
1021.70	1061.90
1021.99	1059.56
1022.27	1063.77
1022.55	1046.22
1022.84	1112.92
>>>>>End Processed Spectral Data<<<<<
