SpectraSuite Data File
++++++++++++++++++++++++++++++++++++
Date: Mon Aug 26 10:24:34 PDT 2019
User: corrico
Dark Spectrum Present: No
Reference Spectrum Present: No
Number of Sampled Component Spectra: 1
Spectrometers: USB2+H06089
Integration Time (usec): 10000 (USB2+H06089)
Spectra Averaged: 2 (USB2+H06089)
Boxcar Smoothing: 2 (USB2+H06089)
Correct for Electrical Dark: No (USB2+H06089)
Strobe/Lamp Enabled: No (USB2+H06089)
Correct for Detector Non-linearity: No (USB2+H06089)
Correct for Stray Light: No (USB2+H06089)
Number of Pixels in Processed Spectrum: 2048
>>>>>Begin Processed Spectral Data<<<<<
339.70	1004.09
340.07	1004.09
340.45	982.32
340.82	967.34
341.19	954.47
341.57	940.19
341.94	920.30
342.31	925.45
342.69	924.04
343.06	917.49
343.43	909.06
343.81	914.92
344.18	907.43
344.55	908.83
344.93	901.57
345.30	912.11
345.67	920.30
346.04	919.60
346.42	927.79
346.79	949.09
347.16	965.47
347.54	974.13
347.91	985.13
348.28	987.47
348.65	996.37
349.03	988.88
349.40	989.58
349.77	992.86
350.14	993.32
350.52	993.79
350.89	1006.90
351.26	1019.54
351.63	1027.50
352.01	1049.50
352.38	1058.86
352.75	1059.56
353.12	1064.48
353.50	1074.77
353.87	1066.11
354.24	1071.03
354.61	1069.62
354.98	1069.62
355.36	1063.31
355.73	1063.31
356.10	1054.88
356.47	1064.48
356.84	1065.65
357.22	1071.03
357.59	1070.09
357.96	1078.28
358.33	1076.41
358.70	1082.26
359.08	1081.33
359.45	1086.01
359.82	1087.41
360.19	1078.52
360.56	1087.41
360.94	1089.05
361.31	1095.14
361.68	1089.75
362.05	1081.33
362.42	1071.50
362.79	1067.05
363.16	1063.07
363.54	1060.03
363.91	1064.94
364.28	1064.24
364.65	1071.03
365.02	1078.05
365.39	1077.82
365.76	1086.24
366.14	1080.63
366.51	1081.56
366.88	1067.05
367.25	1070.09
367.62	1071.03
367.99	1074.77
368.36	1074.54
368.73	1084.37
369.10	1091.63
369.48	1087.88
369.85	1080.16
370.22	1072.20
370.59	1069.62
370.96	1057.92
371.33	1059.09
371.70	1052.77
372.07	1064.01
372.44	1060.96
372.81	1066.35
373.18	1073.14
373.55	1080.16
373.93	1061.67
374.30	1064.24
374.67	1064.24
375.04	1063.77
375.41	1063.31
375.78	1076.18
376.15	1074.07
376.52	1070.56
376.89	1069.62
377.26	1071.97
377.63	1072.20
378.00	1074.54
378.37	1077.82
378.74	1075.01
379.11	1079.22
379.48	1078.05
379.85	1069.39
380.22	1060.50
380.59	1060.26
380.96	1056.99
381.33	1053.71
381.70	1063.77
382.07	1067.99
382.44	1065.41
382.81	1065.41
383.18	1075.24
383.55	1071.26
383.92	1068.22
384.29	1066.82
384.66	1061.90
385.03	1052.77
385.40	1049.03
385.77	1060.50
386.14	1061.67
386.51	1061.90
386.88	1065.18
387.25	1074.31
387.62	1076.88
387.99	1079.69
388.36	1081.56
388.73	1085.31
389.10	1090.22
389.46	1090.69
389.83	1098.41
390.20	1101.92
390.57	1101.22
390.94	1093.73
391.31	1091.86
391.68	1083.43
392.05	1079.92
392.42	1076.18
392.79	1074.77
393.16	1075.24
393.53	1084.60
393.89	1095.14
394.26	1104.73
394.63	1108.01
395.00	1102.86
395.37	1094.90
395.74	1087.18
396.11	1076.18
396.48	1059.79
396.84	1055.35
397.21	1050.20
397.58	1066.58
397.95	1081.33
398.32	1099.58
398.69	1101.69
399.06	1107.31
399.42	1093.73
399.79	1089.05
400.16	1079.69
400.53	1090.69
400.90	1086.71
401.27	1080.86
401.64	1067.28
402.00	1066.11
402.37	1067.75
402.74	1068.45
403.11	1073.60
403.48	1085.54
403.84	1092.80
404.21	1086.24
404.58	1082.73
404.95	1087.65
405.32	1082.97
405.68	1081.80
406.05	1086.01
406.42	1105.20
406.79	1098.18
407.16	1102.86
407.52	1111.99
407.89	1103.80
408.26	1097.24
408.63	1114.10
408.99	1111.75
409.36	1113.39
409.73	1117.84
410.10	1123.93
410.47	1122.52
410.83	1137.03
411.20	1144.52
411.57	1154.35
411.94	1158.10
412.30	1161.61
412.67	1155.52
413.04	1160.20
413.40	1171.67
413.77	1184.55
414.14	1193.67
414.51	1199.52
414.87	1212.16
415.24	1216.61
415.61	1220.36
415.97	1221.53
416.34	1233.70
416.71	1237.21
417.08	1251.48
417.44	1272.55
417.81	1284.25
418.18	1305.55
418.54	1327.32
418.91	1344.40
419.28	1355.17
419.64	1382.09
420.01	1405.49
420.38	1429.37
420.74	1444.81
421.11	1472.20
421.48	1498.88
421.84	1522.75
422.21	1559.03
422.58	1606.08
422.94	1639.78
423.31	1679.57
423.68	1710.46
424.04	1733.40
424.41	1771.08
424.77	1810.17
425.14	1849.96
425.51	1902.15
425.87	1952.24
426.24	1993.67
426.61	2041.65
426.97	2124.27
427.34	2187.70
427.70	2267.75
428.07	2335.62
428.44	2414.26
428.80	2463.41
429.17	2528.01
429.53	2590.74
429.90	2683.66
430.27	2752.00
430.63	2851.01
431.00	2941.82
431.36	3028.89
431.73	3120.87
432.09	3220.58
432.46	3308.82
432.83	3406.42
433.19	3494.42
433.56	3596.00
433.92	3689.62
434.29	3772.24
434.65	3851.82
435.02	3926.48
435.38	3980.08
435.75	4042.57
436.11	4122.39
436.48	4213.20
436.84	4307.99
437.21	4379.38
437.57	4456.38
437.94	4509.98
438.30	4574.34
438.67	4620.45
439.03	4636.84
439.40	4671.48
439.76	4669.37
440.13	4637.30
440.49	4615.30
440.86	4599.15
441.22	4568.96
441.59	4525.43
441.95	4495.70
442.32	4451.93
442.68	4403.02
443.05	4356.91
443.41	4321.57
443.78	4248.54
444.14	4174.81
444.51	4117.70
444.87	4033.68
445.24	3942.40
445.60	3869.14
445.96	3805.95
446.33	3739.71
446.69	3662.00
447.06	3603.72
447.42	3540.29
447.79	3456.04
448.15	3402.90
448.51	3335.97
448.88	3280.26
449.24	3220.34
449.61	3182.19
449.97	3113.38
450.33	3070.55
450.70	3004.31
451.06	2940.88
451.43	2860.84
451.79	2811.22
452.15	2748.96
452.52	2698.40
452.88	2655.10
453.24	2630.06
453.61	2600.10
453.97	2560.78
454.34	2522.16
454.70	2487.52
455.06	2440.24
455.43	2374.47
455.79	2328.60
456.15	2290.45
456.52	2256.28
456.88	2214.85
457.24	2179.97
457.61	2166.17
457.97	2145.10
458.33	2102.74
458.70	2076.76
459.06	2041.88
459.42	2000.69
459.79	1954.82
460.15	1937.26
460.51	1913.62
460.88	1879.22
461.24	1847.85
461.60	1813.45
461.96	1774.83
462.33	1748.15
462.69	1731.53
463.05	1708.59
463.42	1703.91
463.78	1694.78
464.14	1676.99
464.50	1661.31
464.87	1633.69
465.23	1605.84
465.59	1579.16
465.95	1543.35
466.32	1528.84
466.68	1527.90
467.04	1522.99
467.40	1507.54
467.77	1513.16
468.13	1501.22
468.49	1486.71
468.85	1472.43
469.22	1470.79
469.58	1463.07
469.94	1449.26
470.30	1441.07
470.66	1432.64
471.03	1425.39
471.39	1405.02
471.75	1406.90
472.11	1390.98
472.47	1382.79
472.84	1373.66
473.20	1380.45
473.56	1344.17
473.92	1333.40
474.28	1326.62
474.65	1314.44
475.01	1301.81
475.37	1308.59
475.73	1313.27
476.09	1297.12
476.45	1291.98
476.81	1284.95
477.18	1291.74
477.54	1275.59
477.90	1272.08
478.26	1268.80
478.62	1248.21
478.98	1239.55
479.34	1239.55
479.71	1249.85
480.07	1245.40
480.43	1262.25
480.79	1254.29
481.15	1257.80
481.51	1246.80
481.87	1234.87
482.23	1229.48
482.59	1224.80
482.96	1209.59
483.32	1203.04
483.68	1200.93
484.04	1188.52
484.40	1187.12
484.76	1195.55
485.12	1206.78
485.48	1217.55
485.84	1218.48
486.20	1209.35
486.56	1192.50
486.92	1170.50
487.28	1167.93
487.64	1167.23
488.00	1167.46
488.37	1181.27
488.73	1183.37
489.09	1185.01
489.45	1181.50
489.81	1188.99
490.17	1180.33
490.53	1178.69
490.89	1166.99
491.25	1161.61
491.61	1155.52
491.97	1145.93
492.33	1147.80
492.69	1142.65
493.05	1138.90
493.41	1138.67
493.77	1150.84
494.13	1139.37
494.49	1144.29
494.85	1149.20
495.21	1149.20
495.57	1139.61
495.93	1132.59
496.29	1128.14
496.64	1123.22
497.00	1103.56
497.36	1103.09
497.72	1116.20
498.08	1115.27
498.44	1110.35
498.80	1124.63
499.16	1118.31
499.52	1120.65
499.88	1119.71
500.24	1125.56
500.60	1123.46
500.96	1131.88
501.32	1125.33
501.68	1118.78
502.03	1112.92
502.39	1109.18
502.75	1102.16
503.11	1100.52
503.47	1102.86
503.83	1109.88
504.19	1107.78
504.55	1104.97
504.91	1100.75
505.26	1101.46
505.62	1094.20
505.98	1095.14
506.34	1098.18
506.70	1104.50
507.06	1108.95
507.42	1114.80
507.78	1126.97
508.13	1127.20
508.49	1123.69
508.85	1113.39
509.21	1104.73
509.57	1095.14
509.93	1100.29
510.28	1097.48
510.64	1097.01
511.00	1105.44
511.36	1108.48
511.72	1100.29
512.07	1097.01
512.43	1089.05
512.79	1072.43
513.15	1078.75
513.51	1080.63
513.86	1089.52
514.22	1095.60
514.58	1105.67
514.94	1086.71
515.30	1086.24
515.65	1084.14
516.01	1081.80
516.37	1085.31
516.73	1088.58
517.08	1084.60
517.44	1083.43
517.80	1091.86
518.16	1095.60
518.51	1097.24
518.87	1095.84
519.23	1093.50
519.59	1089.52
519.94	1082.50
520.30	1092.09
520.66	1099.82
521.01	1098.41
521.37	1105.67
521.73	1106.37
522.09	1093.97
522.44	1091.39
522.80	1095.60
523.16	1090.46
523.51	1085.54
523.87	1080.16
524.23	1069.39
524.58	1064.71
524.94	1063.77
525.30	1065.18
525.65	1071.03
526.01	1069.16
526.37	1076.41
526.72	1070.33
527.08	1067.28
527.44	1075.01
527.79	1084.84
528.15	1086.71
528.51	1091.39
528.86	1088.35
529.22	1081.33
529.58	1084.84
529.93	1075.01
530.29	1075.24
530.65	1093.73
531.00	1095.37
531.36	1093.97
531.71	1095.14
532.07	1092.09
532.43	1085.54
532.78	1089.52
533.14	1086.71
533.49	1079.22
533.85	1088.58
534.21	1083.90
534.56	1072.20
534.92	1070.33
535.27	1078.05
535.63	1066.35
535.98	1060.50
536.34	1065.88
536.69	1061.43
537.05	1059.33
537.41	1071.50
537.76	1075.94
538.12	1078.28
538.47	1089.05
538.83	1095.60
539.18	1084.60
539.54	1087.18
539.89	1086.24
540.25	1088.12
540.60	1085.77
540.96	1088.58
541.31	1085.31
541.67	1089.29
542.02	1078.52
542.38	1076.41
542.73	1069.62
543.09	1074.54
543.44	1071.03
543.80	1083.43
544.15	1085.54
544.51	1090.69
544.86	1087.65
545.22	1089.99
545.57	1088.12
545.93	1093.26
546.28	1098.65
546.64	1097.71
546.99	1096.54
547.35	1081.33
547.70	1067.05
548.05	1067.52
548.41	1071.73
548.76	1068.45
549.12	1078.75
549.47	1091.16
549.83	1093.50
550.18	1085.07
550.53	1101.69
550.89	1100.99
551.24	1095.14
551.60	1086.71
551.95	1094.43
552.30	1085.77
552.66	1086.24
553.01	1087.18
553.37	1093.50
553.72	1089.05
554.07	1079.92
554.43	1082.50
554.78	1070.09
555.13	1061.43
555.49	1063.77
555.84	1066.35
556.19	1062.60
556.55	1077.11
556.90	1080.63
557.26	1078.99
557.61	1080.39
557.96	1073.84
558.32	1071.97
558.67	1069.86
559.02	1062.60
559.37	1060.26
559.73	1066.35
560.08	1060.26
560.43	1060.26
560.79	1067.99
561.14	1077.58
561.49	1080.39
561.85	1088.58
562.20	1096.31
562.55	1092.80
562.90	1083.67
563.26	1077.82
563.61	1079.69
563.96	1071.97
564.32	1075.01
564.67	1072.20
565.02	1079.22
565.37	1070.56
565.73	1075.24
566.08	1071.03
566.43	1075.71
566.78	1063.77
567.14	1071.03
567.49	1062.14
567.84	1064.01
568.19	1052.77
568.54	1066.82
568.90	1074.07
569.25	1084.37
569.60	1083.20
569.95	1095.37
570.31	1103.09
570.66	1087.41
571.01	1082.73
571.36	1091.16
571.71	1091.86
572.06	1074.07
572.42	1075.71
572.77	1076.65
573.12	1070.56
573.47	1075.94
573.82	1075.94
574.18	1084.84
574.53	1087.65
574.88	1080.16
575.23	1073.60
575.58	1078.75
575.93	1081.33
576.28	1081.09
576.64	1090.69
576.99	1088.82
577.34	1088.35
577.69	1078.75
578.04	1075.24
578.39	1076.65
578.74	1075.71
579.09	1074.77
579.44	1074.77
579.80	1076.65
580.15	1080.39
580.50	1076.18
580.85	1075.24
581.20	1075.24
581.55	1077.82
581.90	1072.20
582.25	1080.86
582.60	1082.03
582.95	1088.82
583.30	1088.12
583.65	1092.09
584.00	1095.14
584.35	1089.29
584.71	1080.63
585.06	1076.65
585.41	1065.65
585.76	1060.03
586.11	1073.37
586.46	1080.16
586.81	1086.48
587.16	1102.16
587.51	1107.31
587.86	1103.80
588.21	1104.03
588.56	1093.73
588.91	1081.56
589.26	1069.62
589.61	1070.56
589.96	1075.71
590.31	1076.18
590.66	1083.90
591.01	1088.82
591.36	1092.09
591.71	1081.80
592.06	1086.24
592.41	1080.16
592.76	1085.07
593.10	1074.54
593.45	1076.88
593.80	1076.65
594.15	1081.56
594.50	1086.48
594.85	1101.92
595.20	1101.22
595.55	1103.80
595.90	1096.31
596.25	1089.05
596.60	1072.43
596.95	1073.14
597.30	1074.54
597.64	1128.61
597.99	1129.54
598.34	1130.71
598.69	1134.93
599.04	1125.56
599.39	1077.82
599.74	1077.35
600.09	1082.50
600.44	1075.24
600.78	1085.31
601.13	1075.71
601.48	1071.73
601.83	1066.35
602.18	1065.41
602.53	1063.77
602.88	1070.56
603.22	1074.54
603.57	1077.82
603.92	1076.65
604.27	1074.07
604.62	1068.22
604.97	1069.86
605.31	1062.60
605.66	1068.45
606.01	1078.52
606.36	1084.37
606.71	1088.35
607.05	1089.99
607.40	1084.60
607.75	1081.80
608.10	1081.56
608.44	1072.43
608.79	1084.84
609.14	1091.63
609.49	1081.33
609.84	1092.80
610.18	1102.63
610.53	1091.16
610.88	1092.33
611.23	1096.07
611.57	1086.71
611.92	1090.46
612.27	1091.86
612.62	1091.63
612.96	1094.43
613.31	1089.05
613.66	1078.05
614.00	1086.01
614.35	1076.65
614.70	1067.52
615.05	1081.33
615.39	1083.20
615.74	1073.14
616.09	1080.63
616.43	1092.33
616.78	1084.84
617.13	1089.75
617.47	1092.56
617.82	1077.58
618.17	1064.94
618.51	1066.35
618.86	1067.75
619.21	1072.90
619.55	1090.22
619.90	1098.18
620.25	1090.22
620.59	1085.07
620.94	1082.50
621.29	1084.14
621.63	1086.94
621.98	1094.20
622.32	1082.26
622.67	1077.82
623.02	1068.22
623.36	1062.37
623.71	1053.24
624.05	1057.22
624.40	1063.54
624.75	1073.84
625.09	1067.05
625.44	1083.20
625.78	1088.35
626.13	1089.99
626.48	1091.86
626.82	1105.67
627.17	1101.69
627.51	1103.56
627.86	1094.67
628.20	1087.41
628.55	1085.54
628.89	1080.16
629.24	1076.41
629.58	1084.37
629.93	1083.43
630.28	1076.41
630.62	1071.97
630.97	1075.94
631.31	1070.33
631.66	1065.65
632.00	1066.58
632.35	1069.16
632.69	1061.67
633.04	1065.65
633.38	1069.86
633.73	1071.97
634.07	1079.22
634.42	1083.20
634.76	1083.90
635.11	1077.82
635.45	1079.69
635.79	1078.05
636.14	1078.99
636.48	1076.65
636.83	1085.54
637.17	1081.56
637.52	1072.43
637.86	1070.09
638.21	1073.60
638.55	1075.01
638.89	1075.01
639.24	1078.52
639.58	1076.88
639.93	1071.73
640.27	1065.65
640.61	1072.20
640.96	1076.88
641.30	1083.67
641.65	1089.05
641.99	1103.09
642.33	1104.73
642.68	1109.65
643.02	1111.52
643.37	1110.58
643.71	1098.41
644.05	1090.69
644.40	1081.56
644.74	1069.86
645.08	1065.88
645.43	1066.11
645.77	1067.05
646.11	1062.37
646.46	1070.56
646.80	1071.50
647.14	1077.11
647.49	1081.56
647.83	1082.73
648.17	1082.26
648.52	1083.43
648.86	1067.52
649.20	1064.24
649.55	1068.45
649.89	1072.20
650.23	1071.73
650.57	1082.26
650.92	1089.52
651.26	1091.86
651.60	1088.82
651.95	1085.31
652.29	1086.24
652.63	1075.94
652.97	1066.58
653.32	1062.37
653.66	1063.07
654.00	1060.96
654.34	1055.58
654.69	1065.18
655.03	1067.05
655.37	1070.56
655.71	1077.35
656.05	1082.50
656.40	1082.50
656.74	1079.46
657.08	1076.65
657.42	1065.65
657.76	1071.50
658.11	1061.20
658.45	1063.31
658.79	1076.65
659.13	1080.63
659.47	1087.88
659.82	1094.20
660.16	1097.48
660.50	1087.18
660.84	1099.82
661.18	1093.03
661.52	1097.71
661.87	1097.95
662.21	1104.50
662.55	1094.20
662.89	1087.88
663.23	1085.31
663.57	1078.75
663.91	1060.26
664.25	1055.58
664.60	1062.60
664.94	1065.88
665.28	1071.50
665.62	1084.14
665.96	1089.99
666.30	1076.18
666.64	1073.84
666.98	1071.73
667.32	1070.09
667.66	1069.16
668.01	1080.63
668.35	1081.56
668.69	1082.97
669.03	1088.58
669.37	1089.75
669.71	1086.94
670.05	1076.65
670.39	1082.73
670.73	1075.71
671.07	1072.67
671.41	1081.09
671.75	1082.26
672.09	1073.37
672.43	1079.22
672.77	1079.22
673.11	1077.82
673.45	1078.99
673.79	1081.33
674.13	1073.14
674.47	1066.58
674.81	1065.18
675.15	1069.16
675.49	1062.14
675.83	1070.09
676.17	1087.65
676.51	1076.88
676.85	1064.48
677.19	1065.65
677.53	1051.60
677.87	1036.86
678.21	1046.92
678.55	1068.22
678.89	1071.73
679.23	1081.80
679.57	1090.92
679.90	1093.26
680.24	1085.31
680.58	1089.52
680.92	1094.43
681.26	1086.01
681.60	1073.14
681.94	1072.90
682.28	1071.50
682.62	1064.24
682.96	1059.09
683.29	1065.18
683.63	1069.86
683.97	1068.22
684.31	1064.71
684.65	1076.65
684.99	1076.18
685.33	1063.54
685.67	1074.31
686.00	1074.77
686.34	1068.22
686.68	1065.18
687.02	1074.77
687.36	1070.56
687.70	1077.35
688.03	1083.67
688.37	1089.05
688.71	1093.26
689.05	1078.05
689.39	1078.05
689.72	1085.54
690.06	1083.20
690.40	1076.88
690.74	1091.63
691.08	1092.09
691.41	1091.16
691.75	1092.56
692.09	1100.05
692.43	1088.12
692.76	1080.16
693.10	1068.69
693.44	1070.80
693.78	1055.11
694.11	1061.20
694.45	1067.52
694.79	1069.86
695.13	1067.75
695.46	1075.71
695.80	1076.65
696.14	1082.03
696.48	1088.58
696.81	1094.20
697.15	1086.24
697.49	1083.43
697.82	1073.14
698.16	1072.67
698.50	1071.73
698.83	1081.80
699.17	1082.50
699.51	1090.69
699.84	1089.29
700.18	1085.31
700.52	1079.46
700.85	1085.31
701.19	1088.58
701.53	1086.71
701.86	1081.09
702.20	1094.20
702.54	1089.29
702.87	1078.52
703.21	1078.05
703.55	1088.12
703.88	1066.82
704.22	1065.65
704.55	1071.26
704.89	1075.01
705.23	1075.01
705.56	1105.44
705.90	1106.14
706.23	1098.18
706.57	1096.54
706.91	1094.90
707.24	1077.82
707.58	1078.52
707.91	1088.58
708.25	1080.16
708.58	1075.71
708.92	1071.97
709.26	1081.33
709.59	1078.99
709.93	1085.54
710.26	1091.39
710.60	1100.05
710.93	1091.16
711.27	1088.58
711.60	1092.56
711.94	1098.18
712.27	1083.43
712.61	1088.82
712.94	1090.92
713.28	1085.54
713.61	1073.37
713.95	1086.94
714.28	1072.90
714.62	1075.94
714.95	1090.46
715.29	1094.43
715.62	1092.33
715.96	1103.33
716.29	1095.60
716.63	1078.05
716.96	1077.58
717.29	1071.97
717.63	1065.41
717.96	1071.97
718.30	1082.03
718.63	1074.07
718.97	1079.92
719.30	1090.69
719.63	1087.41
719.97	1083.20
720.30	1083.43
720.64	1072.43
720.97	1065.41
721.30	1069.86
721.64	1070.56
721.97	1067.99
722.31	1079.69
722.64	1078.99
722.97	1085.31
723.31	1075.71
723.64	1088.58
723.97	1087.88
724.31	1087.88
724.64	1078.05
724.98	1086.48
725.31	1081.80
725.64	1084.84
725.98	1088.35
726.31	1083.67
726.64	1078.05
726.97	1083.43
727.31	1075.71
727.64	1079.46
727.97	1083.90
728.31	1084.84
728.64	1075.94
728.97	1075.94
729.31	1060.73
729.64	1058.16
729.97	1062.60
730.30	1072.20
730.64	1076.41
730.97	1090.22
731.30	1094.67
731.63	1086.24
731.97	1077.11
732.30	1075.71
732.63	1077.58
732.96	1080.16
733.30	1088.35
733.63	1082.26
733.96	1081.09
734.29	1072.67
734.63	1081.56
734.96	1078.05
735.29	1087.18
735.62	1088.82
735.95	1083.43
736.29	1066.35
736.62	1070.56
736.95	1067.52
737.28	1059.33
737.61	1062.84
737.94	1062.84
738.28	1055.58
738.61	1060.73
738.94	1064.71
739.27	1067.52
739.60	1071.50
739.93	1082.50
740.27	1088.12
740.60	1094.20
740.93	1098.88
741.26	1104.03
741.59	1099.82
741.92	1085.54
742.25	1086.71
742.58	1072.43
742.91	1055.58
743.25	1050.67
743.58	1060.26
743.91	1061.67
744.24	1071.73
744.57	1081.09
744.90	1086.24
745.23	1079.92
745.56	1072.67
745.89	1082.50
746.22	1088.12
746.55	1085.77
746.88	1090.92
747.21	1088.35
747.54	1084.37
747.87	1073.60
748.20	1064.01
748.53	1067.28
748.87	1070.09
749.20	1067.52
749.53	1071.97
749.86	1085.54
750.19	1080.86
750.52	1084.37
750.85	1082.73
751.18	1085.31
751.51	1071.97
751.84	1069.62
752.16	1067.99
752.49	1068.92
752.82	1064.48
753.15	1071.03
753.48	1077.35
753.81	1075.48
754.14	1073.60
754.47	1078.75
754.80	1092.56
755.13	1084.84
755.46	1085.31
755.79	1089.99
756.12	1089.52
756.45	1079.92
756.78	1078.99
757.11	1082.97
757.43	1079.22
757.76	1084.37
758.09	1076.41
758.42	1084.60
758.75	1089.29
759.08	1080.63
759.41	1073.14
759.74	1078.52
760.07	1073.37
760.39	1073.84
760.72	1078.99
761.05	1077.11
761.38	1076.18
761.71	1076.88
762.04	1075.24
762.36	1079.46
762.69	1085.54
763.02	1085.54
763.35	1079.22
763.68	1075.24
764.01	1075.94
764.33	1078.28
764.66	1086.71
764.99	1093.97
765.32	1097.01
765.65	1086.94
765.97	1081.33
766.30	1071.26
766.63	1074.07
766.96	1071.50
767.28	1077.35
767.61	1072.20
767.94	1078.99
768.27	1070.56
768.59	1070.09
768.92	1072.90
769.25	1079.92
769.58	1072.20
769.90	1077.82
770.23	1071.73
770.56	1081.56
770.89	1083.67
771.21	1090.22
771.54	1088.58
771.87	1088.35
772.19	1071.03
772.52	1067.52
772.85	1068.45
773.17	1077.11
773.50	1080.86
773.83	1089.75
774.15	1087.18
774.48	1084.60
774.81	1078.28
775.13	1083.43
775.46	1085.77
775.79	1092.09
776.11	1095.14
776.44	1100.75
776.77	1102.86
777.09	1089.75
777.42	1090.69
777.74	1088.35
778.07	1081.09
778.40	1065.18
778.72	1079.92
779.05	1078.75
779.37	1078.52
779.70	1085.07
780.03	1103.33
780.35	1097.24
780.68	1096.78
781.00	1096.07
781.33	1088.82
781.65	1072.90
781.98	1075.71
782.31	1067.75
782.63	1067.99
782.96	1073.14
783.28	1076.41
783.61	1071.03
783.93	1071.73
784.26	1072.43
784.58	1064.24
784.91	1071.03
785.23	1078.99
785.56	1078.05
785.88	1076.65
786.21	1083.90
786.53	1084.84
786.86	1075.01
787.18	1087.18
787.51	1083.20
787.83	1078.99
788.16	1076.41
788.48	1075.48
788.81	1067.05
789.13	1077.58
789.46	1076.18
789.78	1073.14
790.10	1072.20
790.43	1074.77
790.75	1061.90
791.08	1077.82
791.40	1078.52
791.73	1090.92
792.05	1088.58
792.37	1099.82
792.70	1077.82
793.02	1079.69
793.35	1078.05
793.67	1078.28
793.99	1068.92
794.32	1075.48
794.64	1073.84
794.96	1066.35
795.29	1062.84
795.61	1069.16
795.93	1073.60
796.26	1075.01
796.58	1074.31
796.91	1081.09
797.23	1079.69
797.55	1075.71
797.87	1079.69
798.20	1084.14
798.52	1078.28
798.84	1073.37
799.17	1068.22
799.49	1067.52
799.81	1075.24
800.14	1079.22
800.46	1079.22
800.78	1075.94
801.10	1067.99
801.43	1066.58
801.75	1053.94
802.07	1064.48
802.40	1077.82
802.72	1085.54
803.04	1073.60
803.36	1076.65
803.69	1063.07
804.01	1064.94
804.33	1064.01
804.65	1069.62
804.97	1085.07
805.30	1096.54
805.62	1092.80
805.94	1098.88
806.26	1107.54
806.58	1099.12
806.91	1093.26
807.23	1080.86
807.55	1066.82
807.87	1061.67
808.19	1067.99
808.52	1076.18
808.84	1084.37
809.16	1085.07
809.48	1083.90
809.80	1082.50
810.12	1081.80
810.44	1091.39
810.77	1101.22
811.09	1091.39
811.41	1087.41
811.73	1090.92
812.05	1084.84
812.37	1077.11
812.69	1086.71
813.01	1097.24
813.33	1083.67
813.66	1080.86
813.98	1087.65
814.30	1091.86
814.62	1089.75
814.94	1093.97
815.26	1085.07
815.58	1080.39
815.90	1078.75
816.22	1081.33
816.54	1083.43
816.86	1095.14
817.18	1090.46
817.50	1071.97
817.82	1059.56
818.14	1056.05
818.46	1054.18
818.78	1058.39
819.10	1075.01
819.42	1072.20
819.74	1064.01
820.06	1063.77
820.38	1065.65
820.70	1059.33
821.02	1064.71
821.34	1071.03
821.66	1067.05
821.98	1065.41
822.30	1068.45
822.62	1061.43
822.94	1066.35
823.26	1069.39
823.58	1072.43
823.90	1078.75
824.22	1090.22
824.54	1084.14
824.86	1085.07
825.18	1080.16
825.50	1079.92
825.81	1071.03
826.13	1075.71
826.45	1089.52
826.77	1094.43
827.09	1094.43
827.41	1102.39
827.73	1091.86
828.05	1078.05
828.36	1082.73
828.68	1077.58
829.00	1083.43
829.32	1097.71
829.64	1102.16
829.96	1088.35
830.28	1092.80
830.59	1083.43
830.91	1071.97
831.23	1065.65
831.55	1070.80
831.87	1069.39
832.19	1070.09
832.50	1082.26
832.82	1087.41
833.14	1086.71
833.46	1085.77
833.78	1084.60
834.09	1077.58
834.41	1084.60
834.73	1086.01
835.05	1080.63
835.36	1083.20
835.68	1077.35
836.00	1071.26
836.32	1064.94
836.63	1061.67
836.95	1054.41
837.27	1062.60
837.59	1066.35
837.90	1068.69
838.22	1074.54
838.54	1086.94
838.85	1094.43
839.17	1085.77
839.49	1086.48
839.80	1082.50
840.12	1076.41
840.44	1069.62
840.76	1070.56
841.07	1073.37
841.39	1074.77
841.71	1068.45
842.02	1069.62
842.34	1082.97
842.65	1077.58
842.97	1076.41
843.29	1078.05
843.60	1072.43
843.92	1053.94
844.24	1057.45
844.55	1062.60
844.87	1078.99
845.18	1073.14
845.50	1079.92
845.82	1085.31
846.13	1083.67
846.45	1076.88
846.76	1081.80
847.08	1083.20
847.40	1078.05
847.71	1084.37
848.03	1073.84
848.34	1083.43
848.66	1086.01
848.97	1086.94
849.29	1080.63
849.60	1091.39
849.92	1083.67
850.24	1076.18
850.55	1081.09
850.87	1076.65
851.18	1065.88
851.50	1075.71
851.81	1070.56
852.13	1062.14
852.44	1061.43
852.76	1070.33
853.07	1059.09
853.39	1053.48
853.70	1066.35
854.01	1078.28
854.33	1075.48
854.64	1084.14
854.96	1097.48
855.27	1099.58
855.59	1089.29
855.90	1094.20
856.22	1091.63
856.53	1090.92
856.84	1087.65
857.16	1091.39
857.47	1089.05
857.79	1082.26
858.10	1087.88
858.41	1081.80
858.73	1081.80
859.04	1073.37
859.36	1070.09
859.67	1063.54
859.98	1068.45
860.30	1071.73
860.61	1084.60
860.92	1100.75
861.24	1099.35
861.55	1098.41
861.87	1095.84
862.18	1093.50
862.49	1084.37
862.81	1088.12
863.12	1081.33
863.43	1088.35
863.74	1087.88
864.06	1090.92
864.37	1091.16
864.68	1088.35
865.00	1089.52
865.31	1075.94
865.62	1069.39
865.94	1069.16
866.25	1078.05
866.56	1064.94
866.87	1069.16
867.19	1076.65
867.50	1073.84
867.81	1073.84
868.12	1075.94
868.44	1075.48
868.75	1070.80
869.06	1075.01
869.37	1062.60
869.68	1071.97
870.00	1074.31
870.31	1080.39
870.62	1079.92
870.93	1078.75
871.24	1077.11
871.56	1078.75
871.87	1081.56
872.18	1086.24
872.49	1093.97
872.80	1080.39
873.12	1073.37
873.43	1068.45
873.74	1054.18
874.05	1058.39
874.36	1068.22
874.67	1069.16
874.98	1065.65
875.29	1068.22
875.61	1065.88
875.92	1065.88
876.23	1080.39
876.54	1085.31
876.85	1090.22
877.16	1086.94
877.47	1085.77
877.78	1075.94
878.09	1078.99
878.40	1070.80
878.72	1073.84
879.03	1075.94
879.34	1082.03
879.65	1070.09
879.96	1078.52
880.27	1080.86
880.58	1083.43
880.89	1080.86
881.20	1078.75
881.51	1079.22
881.82	1075.24
882.13	1063.31
882.44	1060.26
882.75	1066.35
883.06	1064.24
883.37	1063.31
883.68	1069.62
883.99	1076.65
884.30	1081.56
884.61	1085.77
884.92	1093.03
885.23	1092.80
885.54	1093.26
885.85	1085.77
886.16	1093.26
886.47	1089.52
886.78	1083.20
887.08	1078.05
887.39	1080.86
887.70	1073.84
888.01	1068.45
888.32	1070.33
888.63	1059.56
888.94	1055.35
889.25	1051.37
889.56	1051.84
889.87	1052.54
890.17	1064.48
890.48	1065.18
890.79	1066.35
891.10	1071.73
891.41	1078.05
891.72	1067.52
892.03	1075.48
892.34	1079.69
892.64	1078.75
892.95	1081.33
893.26	1088.12
893.57	1082.50
893.88	1078.75
894.18	1085.07
894.49	1082.73
894.80	1081.80
895.11	1097.24
895.42	1097.95
895.72	1080.16
896.03	1071.50
896.34	1074.07
896.65	1073.84
896.96	1077.35
897.26	1083.90
897.57	1089.29
897.88	1079.69
898.19	1069.62
898.49	1062.60
898.80	1075.94
899.11	1077.82
899.41	1086.71
899.72	1087.88
900.03	1087.88
900.34	1083.90
900.64	1087.88
900.95	1095.37
901.26	1095.37
901.56	1098.18
901.87	1096.78
902.18	1089.75
902.48	1085.54
902.79	1070.33
903.10	1060.26
903.40	1051.84
903.71	1068.45
904.02	1074.07
904.32	1082.03
904.63	1096.31
904.94	1106.84
905.24	1092.09
905.55	1081.33
905.85	1080.63
906.16	1082.03
906.47	1073.37
906.77	1070.09
907.08	1069.39
907.38	1072.67
907.69	1067.05
908.00	1064.24
908.30	1074.54
908.61	1079.69
908.91	1074.54
909.22	1083.43
909.52	1093.03
909.83	1086.01
910.14	1086.94
910.44	1088.58
910.75	1081.33
911.05	1076.18
911.36	1083.43
911.66	1082.97
911.97	1093.50
912.27	1097.01
912.58	1097.01
912.88	1091.63
913.19	1091.39
913.49	1084.84
913.80	1088.82
914.10	1091.16
914.41	1087.65
914.71	1075.24
915.01	1074.31
915.32	1061.20
915.62	1059.09
915.93	1057.69
916.23	1068.69
916.54	1063.54
916.84	1071.50
917.15	1071.26
917.45	1076.41
917.75	1075.24
918.06	1083.43
918.36	1071.26
918.67	1078.75
918.97	1080.16
919.27	1084.60
919.58	1079.46
919.88	1082.50
920.18	1084.84
920.49	1084.84
920.79	1075.48
921.10	1080.86
921.40	1088.35
921.70	1071.50
922.01	1073.14
922.31	1082.50
922.61	1073.84
922.92	1071.50
923.22	1075.24
923.52	1064.01
923.82	1060.26
924.13	1062.14
924.43	1068.45
924.73	1067.52
925.04	1066.82
925.34	1072.20
925.64	1082.03
925.94	1074.77
926.25	1083.20
926.55	1089.29
926.85	1071.26
927.15	1062.14
927.46	1062.14
927.76	1062.14
928.06	1068.22
928.36	1079.92
928.67	1085.31
928.97	1084.37
929.27	1075.01
929.57	1061.67
929.87	1062.14
930.18	1071.03
930.48	1069.86
930.78	1081.33
931.08	1087.18
931.38	1084.37
931.69	1068.69
931.99	1066.11
932.29	1062.37
932.59	1064.01
932.89	1063.07
933.19	1070.80
933.49	1076.18
933.80	1072.20
934.10	1076.88
934.40	1082.73
934.70	1085.54
935.00	1087.41
935.30	1089.29
935.60	1092.09
935.90	1086.24
936.20	1082.73
936.50	1083.20
936.81	1085.77
937.11	1074.54
937.41	1072.67
937.71	1069.39
938.01	1067.99
938.31	1066.82
938.61	1063.31
938.91	1070.33
939.21	1067.52
939.51	1061.90
939.81	1062.84
940.11	1062.84
940.41	1057.92
940.71	1053.71
941.01	1065.88
941.31	1062.84
941.61	1067.52
941.91	1066.11
942.21	1080.86
942.51	1075.94
942.81	1071.73
943.11	1078.05
943.41	1078.52
943.71	1078.28
944.01	1075.01
944.31	1080.39
944.61	1069.86
944.90	1077.82
945.20	1076.65
945.50	1076.18
945.80	1075.24
946.10	1072.90
946.40	1067.75
946.70	1067.52
947.00	1062.84
947.30	1064.01
947.60	1072.90
947.89	1072.90
948.19	1061.67
948.49	1063.31
948.79	1075.71
949.09	1077.35
949.39	1074.54
949.69	1080.86
949.98	1085.31
950.28	1068.92
950.58	1071.26
950.88	1071.97
951.18	1071.97
951.48	1091.39
951.77	1104.26
952.07	1103.80
952.37	1112.69
952.67	1109.41
952.97	1099.12
953.26	1090.69
953.56	1097.48
953.86	1096.78
954.16	1095.84
954.45	1081.33
954.75	1081.80
955.05	1072.20
955.35	1075.94
955.64	1076.18
955.94	1082.26
956.24	1086.48
956.54	1090.69
956.83	1079.92
957.13	1094.90
957.43	1096.54
957.72	1098.88
958.02	1091.16
958.32	1096.31
958.61	1076.18
958.91	1075.48
959.21	1071.50
959.50	1080.86
959.80	1079.92
960.10	1095.84
960.39	1102.39
960.69	1105.20
960.99	1111.75
961.28	1110.58
961.58	1107.31
961.87	1100.29
962.17	1093.26
962.47	1078.05
962.76	1081.33
963.06	1083.67
963.36	1079.69
963.65	1077.82
963.95	1080.63
964.24	1084.37
964.54	1082.03
964.83	1089.52
965.13	1098.18
965.42	1104.50
965.72	1104.50
966.02	1098.18
966.31	1095.60
966.61	1099.35
966.90	1093.97
967.20	1085.77
967.49	1094.90
967.79	1091.86
968.08	1080.63
968.38	1085.07
968.67	1084.84
968.97	1080.63
969.26	1082.03
969.56	1084.14
969.85	1074.31
970.15	1071.03
970.44	1068.69
970.74	1067.99
971.03	1071.26
971.32	1083.90
971.62	1089.99
971.91	1090.69
972.21	1092.56
972.50	1090.22
972.80	1076.18
973.09	1072.67
973.38	1074.31
973.68	1080.86
973.97	1076.65
974.27	1090.22
974.56	1089.99
974.85	1085.54
975.15	1080.39
975.44	1082.03
975.73	1082.97
976.03	1089.75
976.32	1092.33
976.61	1093.26
976.91	1087.41
977.20	1077.82
977.49	1065.88
977.79	1072.20
978.08	1063.07
978.37	1065.88
978.67	1076.18
978.96	1090.69
979.25	1085.54
979.55	1090.46
979.84	1093.26
980.13	1074.31
980.42	1062.84
980.72	1056.75
981.01	1054.65
981.30	1053.48
981.59	1070.09
981.89	1073.37
982.18	1070.56
982.47	1073.60
982.76	1073.14
983.06	1067.52
983.35	1069.86
983.64	1075.24
983.93	1078.28
984.22	1086.94
984.52	1090.92
984.81	1094.20
985.10	1091.16
985.39	1089.29
985.68	1090.22
985.97	1085.31
986.27	1077.35
986.56	1078.52
986.85	1074.77
987.14	1074.31
987.43	1076.18
987.72	1071.26
988.01	1075.48
988.31	1079.46
988.60	1071.73
988.89	1066.35
989.18	1072.20
989.47	1075.01
989.76	1070.80
990.05	1060.96
990.34	1064.01
990.63	1061.20
990.92	1050.43
991.21	1043.18
991.51	1057.92
991.80	1072.20
992.09	1064.48
992.38	1070.56
992.67	1075.24
992.96	1079.46
993.25	1063.77
993.54	1082.03
993.83	1084.14
994.12	1084.84
994.41	1082.73
994.70	1084.14
994.99	1086.01
995.28	1089.05
995.57	1099.58
995.86	1082.50
996.15	1077.35
996.44	1066.11
996.73	1067.75
997.02	1052.07
997.31	1066.11
997.59	1071.26
997.88	1074.54
998.17	1075.01
998.46	1080.63
998.75	1071.50
999.04	1072.20
999.33	1075.71
999.62	1061.67
999.91	1061.20
1000.20	1066.58
1000.49	1064.01
1000.77	1060.96
1001.06	1066.58
1001.35	1073.60
1001.64	1082.26
1001.93	1076.88
1002.22	1069.16
1002.51	1079.69
1002.79	1080.63
1003.08	1074.54
1003.37	1076.88
1003.66	1082.03
1003.95	1072.43
1004.23	1067.05
1004.52	1070.56
1004.81	1081.56
1005.10	1092.80
1005.39	1095.37
1005.67	1099.35
1005.96	1093.50
1006.25	1095.37
1006.54	1089.52
1006.83	1088.82
1007.11	1082.73
1007.40	1087.88
1007.69	1078.05
1007.97	1065.65
1008.26	1057.92
1008.55	1062.14
1008.84	1065.18
1009.12	1075.01
1009.41	1087.88
1009.70	1093.03
1009.98	1091.63
1010.27	1092.33
1010.56	1079.22
1010.85	1071.73
1011.13	1077.82
1011.42	1075.01
1011.71	1064.48
1011.99	1065.88
1012.28	1070.09
1012.56	1062.14
1012.85	1070.56
1013.14	1073.37
1013.42	1073.37
1013.71	1072.67
1014.00	1074.77
1014.28	1068.22
1014.57	1067.75
1014.85	1063.31
1015.14	1062.14
1015.43	1066.82
1015.71	1059.79
1016.00	1060.50
1016.28	1072.20
1016.57	1074.54
1016.85	1068.45
1017.14	1072.43
1017.43	1067.52
1017.71	1059.79
1018.00	1062.84
1018.28	1073.60
1018.57	1084.14
1018.85	1091.63
1019.14	1089.29
1019.42	1087.18
1019.71	1069.62
1019.99	1065.65
1020.28	1063.77
1020.56	1057.92
1020.85	1057.45
1021.13	1072.43
1021.42	1077.11
1021.70	1072.90
1021.99	1081.80
1022.27	1081.09
1022.55	1060.26
1022.84	1078.99
>>>>>End Processed Spectral Data<<<<<
