SpectraSuite Data File
++++++++++++++++++++++++++++++++++++
Date: Mon Aug 26 10:24:32 PDT 2019
User: corrico
Dark Spectrum Present: No
Reference Spectrum Present: No
Number of Sampled Component Spectra: 1
Spectrometers: USB2+H06089
Integration Time (usec): 10000 (USB2+H06089)
Spectra Averaged: 2 (USB2+H06089)
Boxcar Smoothing: 2 (USB2+H06089)
Correct for Electrical Dark: No (USB2+H06089)
Strobe/Lamp Enabled: No (USB2+H06089)
Correct for Detector Non-linearity: No (USB2+H06089)
Correct for Stray Light: No (USB2+H06089)
Number of Pixels in Processed Spectrum: 2048
>>>>>Begin Processed Spectral Data<<<<<
339.70	1036.86
340.07	1036.86
340.45	1000.34
340.82	968.51
341.19	937.85
341.57	914.68
341.94	909.53
342.31	897.13
342.69	898.30
343.06	906.26
343.43	901.57
343.81	904.62
344.18	915.38
344.55	920.30
344.93	917.96
345.30	928.49
345.67	920.77
346.04	923.58
346.42	938.32
346.79	954.47
347.16	959.15
347.54	978.11
347.91	986.07
348.28	994.03
348.65	997.54
349.03	1003.39
349.40	1015.79
349.77	1020.71
350.14	1026.56
350.52	1038.26
350.89	1043.64
351.26	1053.01
351.63	1061.43
352.01	1069.39
352.38	1065.88
352.75	1063.07
353.12	1056.05
353.50	1060.50
353.87	1053.94
354.24	1058.62
354.61	1070.33
354.98	1081.33
355.36	1075.94
355.73	1080.16
356.10	1084.60
356.47	1079.69
356.84	1075.48
357.22	1072.20
357.59	1077.35
357.96	1071.97
358.33	1076.41
358.70	1064.94
359.08	1068.69
359.45	1061.43
359.82	1055.58
360.19	1047.39
360.56	1058.16
360.94	1065.41
361.31	1062.84
361.68	1067.99
362.05	1074.77
362.42	1065.41
362.79	1068.45
363.16	1067.28
363.54	1066.35
363.91	1061.20
364.28	1057.22
364.65	1044.82
365.02	1045.05
365.39	1054.41
365.76	1044.35
366.14	1052.07
366.51	1061.20
366.88	1064.24
367.25	1060.26
367.62	1078.28
367.99	1078.28
368.36	1074.54
368.73	1075.94
369.10	1071.50
369.48	1066.82
369.85	1072.67
370.22	1067.75
370.59	1063.07
370.96	1055.35
371.33	1056.05
371.70	1049.50
372.07	1052.54
372.44	1051.13
372.81	1057.45
373.18	1063.54
373.55	1070.56
373.93	1062.14
374.30	1071.50
374.67	1078.52
375.04	1075.24
375.41	1064.71
375.78	1077.11
376.15	1077.82
376.52	1068.69
376.89	1071.03
377.26	1069.16
377.63	1067.05
378.00	1057.69
378.37	1073.37
378.74	1071.26
379.11	1080.86
379.48	1078.05
379.85	1082.26
380.22	1060.73
380.59	1058.62
380.96	1058.86
381.33	1056.52
381.70	1054.18
382.07	1067.05
382.44	1067.99
382.81	1066.82
383.18	1075.48
383.55	1080.86
383.92	1075.94
384.29	1073.14
384.66	1074.77
385.03	1063.31
385.40	1055.35
385.77	1056.99
386.14	1067.52
386.51	1067.99
386.88	1077.58
387.25	1089.52
387.62	1094.67
387.99	1088.35
388.36	1084.60
388.73	1087.41
389.10	1070.33
389.46	1062.14
389.83	1059.79
390.20	1057.22
390.57	1048.56
390.94	1057.22
391.31	1050.90
391.68	1054.18
392.05	1060.96
392.42	1064.01
392.79	1068.69
393.16	1076.88
393.53	1078.28
393.89	1073.37
394.26	1075.71
394.63	1079.69
395.00	1088.82
395.37	1087.18
395.74	1084.84
396.11	1086.48
396.48	1072.43
396.84	1061.43
397.21	1052.30
397.58	1064.24
397.95	1064.71
398.32	1071.50
398.69	1066.58
399.06	1064.94
399.42	1054.88
399.79	1059.79
400.16	1056.52
400.53	1060.26
400.90	1076.88
401.27	1085.54
401.64	1085.07
402.00	1091.63
402.37	1101.46
402.74	1096.31
403.11	1088.35
403.48	1089.29
403.84	1096.07
404.21	1092.56
404.58	1085.31
404.95	1085.31
405.32	1074.54
405.68	1072.20
406.05	1069.86
406.42	1076.18
406.79	1073.84
407.16	1077.35
407.52	1068.92
407.89	1058.62
408.26	1057.22
408.63	1052.07
408.99	1046.69
409.36	1042.94
409.73	1059.09
410.10	1063.54
410.47	1070.56
410.83	1080.16
411.20	1085.07
411.57	1072.67
411.94	1071.50
412.30	1075.48
412.67	1071.26
413.04	1065.88
413.40	1080.63
413.77	1090.69
414.14	1089.29
414.51	1091.86
414.87	1100.52
415.24	1092.09
415.61	1071.73
415.97	1068.45
416.34	1062.37
416.71	1058.16
417.08	1054.88
417.44	1057.45
417.81	1067.28
418.18	1066.58
418.54	1065.18
418.91	1064.94
419.28	1071.03
419.64	1063.07
420.01	1069.62
420.38	1074.54
420.74	1082.97
421.11	1086.01
421.48	1087.65
421.84	1085.31
422.21	1083.67
422.58	1083.20
422.94	1077.35
423.31	1078.52
423.68	1072.90
424.04	1069.62
424.41	1064.48
424.77	1072.67
425.14	1077.58
425.51	1088.35
425.87	1099.82
426.24	1108.48
426.61	1100.75
426.97	1087.65
427.34	1085.07
427.70	1070.09
428.07	1063.31
428.44	1060.73
428.80	1072.67
429.17	1064.71
429.53	1077.58
429.90	1080.86
430.27	1082.03
430.63	1084.60
431.00	1076.41
431.36	1065.88
431.73	1066.82
432.09	1072.67
432.46	1063.31
432.83	1079.46
433.19	1083.20
433.56	1087.41
433.92	1093.26
434.29	1098.65
434.65	1102.16
435.02	1107.07
435.38	1106.61
435.75	1099.35
436.11	1093.73
436.48	1081.33
436.84	1081.56
437.21	1071.97
437.57	1078.75
437.94	1085.07
438.30	1092.33
438.67	1087.65
439.03	1090.92
439.40	1090.92
439.76	1093.50
440.13	1088.35
440.49	1089.99
440.86	1092.80
441.22	1088.12
441.59	1076.41
441.95	1081.80
442.32	1083.20
442.68	1084.84
443.05	1079.92
443.41	1088.12
443.78	1081.33
444.14	1079.22
444.51	1080.86
444.87	1075.24
445.24	1079.22
445.60	1089.05
445.96	1085.77
446.33	1080.63
446.69	1096.54
447.06	1092.09
447.42	1091.16
447.79	1093.03
448.15	1090.22
448.51	1081.09
448.88	1078.99
449.24	1078.99
449.61	1085.54
449.97	1089.75
450.33	1093.50
450.70	1088.82
451.06	1086.71
451.43	1088.12
451.79	1085.31
452.15	1073.84
452.52	1082.26
452.88	1076.18
453.24	1064.48
453.61	1078.28
453.97	1093.73
454.34	1091.63
454.70	1094.20
455.06	1107.78
455.43	1095.14
455.79	1089.99
456.15	1097.24
456.52	1108.01
456.88	1095.84
457.24	1102.39
457.61	1109.41
457.97	1109.41
458.33	1108.24
458.70	1109.88
459.06	1093.26
459.42	1086.48
459.79	1082.26
460.15	1071.03
460.51	1068.22
460.88	1078.75
461.24	1079.22
461.60	1070.80
461.96	1061.67
462.33	1059.33
462.69	1055.58
463.05	1041.30
463.42	1037.56
463.78	1040.37
464.14	1045.75
464.50	1046.92
464.87	1052.77
465.23	1060.73
465.59	1072.67
465.95	1071.50
466.32	1064.94
466.68	1065.18
467.04	1057.92
467.40	1052.77
467.77	1043.41
468.13	1048.79
468.49	1046.45
468.85	1043.64
469.22	1045.28
469.58	1051.60
469.94	1048.33
470.30	1053.01
470.66	1064.48
471.03	1065.41
471.39	1071.26
471.75	1077.35
472.11	1080.16
472.47	1083.67
472.84	1095.14
473.20	1090.92
473.56	1081.33
473.92	1080.39
474.28	1078.28
474.65	1066.11
475.01	1064.24
475.37	1071.73
475.73	1070.56
476.09	1066.82
476.45	1061.43
476.81	1059.33
477.18	1054.41
477.54	1055.35
477.90	1048.56
478.26	1055.58
478.62	1059.33
478.98	1057.22
479.34	1059.09
479.71	1066.82
480.07	1059.33
480.43	1061.43
480.79	1068.92
481.15	1066.82
481.51	1061.43
481.87	1066.35
482.23	1071.97
482.59	1075.01
482.96	1082.73
483.32	1074.07
483.68	1071.26
484.04	1075.24
484.40	1076.65
484.76	1070.56
485.12	1077.11
485.48	1079.46
485.84	1068.92
486.20	1055.82
486.56	1055.82
486.92	1061.20
487.28	1062.37
487.64	1055.82
488.00	1067.75
488.37	1068.45
488.73	1071.50
489.09	1078.99
489.45	1086.71
489.81	1094.43
490.17	1100.29
490.53	1086.94
490.89	1082.50
491.25	1081.80
491.61	1068.45
491.97	1062.60
492.33	1073.60
492.69	1068.92
493.05	1069.86
493.41	1073.37
493.77	1070.80
494.13	1069.16
494.49	1073.37
494.85	1071.97
495.21	1075.94
495.57	1080.86
495.93	1082.97
496.29	1076.65
496.64	1074.54
497.00	1073.60
497.36	1082.50
497.72	1087.65
498.08	1091.39
498.44	1096.31
498.80	1096.54
499.16	1091.86
499.52	1083.43
499.88	1078.28
500.24	1094.43
500.60	1091.16
500.96	1083.67
501.32	1082.50
501.68	1075.71
502.03	1064.01
502.39	1059.33
502.75	1061.20
503.11	1060.50
503.47	1067.99
503.83	1064.71
504.19	1063.77
504.55	1059.33
504.91	1066.11
505.26	1072.43
505.62	1072.43
505.98	1082.26
506.34	1088.58
506.70	1083.43
507.06	1084.60
507.42	1079.69
507.78	1076.18
508.13	1078.05
508.49	1076.18
508.85	1071.03
509.21	1081.56
509.57	1091.86
509.93	1089.05
510.28	1097.01
510.64	1095.14
511.00	1081.56
511.36	1079.22
511.72	1083.90
512.07	1085.31
512.43	1084.37
512.79	1090.69
513.15	1083.20
513.51	1080.86
513.86	1089.75
514.22	1102.86
514.58	1112.92
514.94	1115.73
515.30	1110.58
515.65	1103.33
516.01	1102.39
516.37	1092.09
516.73	1088.58
517.08	1089.05
517.44	1081.33
517.80	1068.92
518.16	1071.03
518.51	1075.48
518.87	1078.28
519.23	1074.54
519.59	1082.97
519.94	1077.82
520.30	1078.99
520.66	1071.97
521.01	1073.84
521.37	1078.75
521.73	1082.03
522.09	1073.14
522.44	1079.46
522.80	1084.84
523.16	1073.14
523.51	1075.24
523.87	1076.88
524.23	1077.58
524.58	1073.14
524.94	1071.50
525.30	1077.35
525.65	1075.48
526.01	1066.82
526.37	1065.41
526.72	1071.73
527.08	1057.92
527.44	1059.33
527.79	1057.22
528.15	1061.20
528.51	1070.09
528.86	1078.05
529.22	1070.56
529.58	1078.99
529.93	1079.69
530.29	1070.33
530.65	1071.97
531.00	1088.12
531.36	1088.58
531.71	1088.12
532.07	1091.39
532.43	1084.84
532.78	1078.99
533.14	1081.33
533.49	1086.48
533.85	1082.26
534.21	1095.14
534.56	1093.26
534.92	1090.69
535.27	1084.14
535.63	1093.73
535.98	1083.90
536.34	1078.99
536.69	1071.26
537.05	1067.52
537.41	1064.94
537.76	1066.82
538.12	1080.86
538.47	1088.58
538.83	1088.82
539.18	1085.31
539.54	1086.71
539.89	1078.28
540.25	1083.90
540.60	1082.73
540.96	1075.94
541.31	1069.86
541.67	1068.45
542.02	1066.35
542.38	1077.35
542.73	1076.88
543.09	1076.65
543.44	1077.11
543.80	1073.60
544.15	1059.56
544.51	1060.50
544.86	1066.82
545.22	1080.39
545.57	1081.80
545.93	1090.69
546.28	1103.33
546.64	1105.44
546.99	1096.07
547.35	1094.20
547.70	1092.33
548.05	1085.54
548.41	1079.22
548.76	1079.69
549.12	1079.69
549.47	1082.73
549.83	1084.84
550.18	1085.07
550.53	1086.01
550.89	1089.29
551.24	1094.67
551.60	1088.58
551.95	1081.33
552.30	1076.41
552.66	1073.84
553.01	1061.20
553.37	1071.97
553.72	1072.20
554.07	1076.41
554.43	1068.69
554.78	1068.92
555.13	1058.39
555.49	1065.65
555.84	1051.60
556.19	1053.94
556.55	1055.35
556.90	1056.99
557.26	1060.50
557.61	1067.05
557.96	1069.86
558.32	1081.80
558.67	1087.88
559.02	1084.60
559.37	1083.90
559.73	1080.63
560.08	1067.05
560.43	1055.82
560.79	1046.92
561.14	1050.43
561.49	1061.20
561.85	1070.33
562.20	1071.03
562.55	1091.39
562.90	1089.75
563.26	1083.43
563.61	1082.03
563.96	1085.31
564.32	1071.73
564.67	1080.16
565.02	1081.56
565.37	1073.60
565.73	1077.58
566.08	1081.80
566.43	1064.48
566.78	1069.86
567.14	1071.73
567.49	1064.48
567.84	1065.41
568.19	1072.90
568.54	1064.71
568.90	1069.39
569.25	1076.41
569.60	1077.11
569.95	1079.69
570.31	1079.92
570.66	1094.43
571.01	1095.84
571.36	1082.03
571.71	1083.90
572.06	1085.31
572.42	1068.92
572.77	1064.48
573.12	1078.05
573.47	1080.16
573.82	1091.39
574.18	1091.39
574.53	1093.03
574.88	1083.67
575.23	1078.99
575.58	1062.84
575.93	1056.28
576.28	1052.77
576.64	1060.73
576.99	1068.45
577.34	1071.97
577.69	1079.92
578.04	1081.33
578.39	1077.58
578.74	1069.86
579.09	1072.43
579.44	1072.43
579.80	1064.71
580.15	1071.03
580.50	1080.86
580.85	1078.99
581.20	1083.20
581.55	1090.69
581.90	1091.16
582.25	1085.77
582.60	1081.80
582.95	1081.09
583.30	1078.28
583.65	1082.26
584.00	1085.77
584.35	1100.05
584.71	1098.88
585.06	1097.24
585.41	1084.60
585.76	1077.35
586.11	1069.39
586.46	1070.80
586.81	1077.35
587.16	1081.09
587.51	1086.48
587.86	1073.14
588.21	1068.45
588.56	1065.65
588.91	1067.05
589.26	1066.35
589.61	1075.94
589.96	1073.14
590.31	1079.22
590.66	1080.39
591.01	1075.01
591.36	1078.99
591.71	1080.86
592.06	1073.60
592.41	1059.09
592.76	1064.94
593.10	1058.16
593.45	1056.05
593.80	1066.82
594.15	1080.63
594.50	1081.56
594.85	1084.37
595.20	1091.16
595.55	1089.99
595.90	1093.97
596.25	1078.05
596.60	1075.94
596.95	1070.56
597.30	1062.14
597.64	1103.33
597.99	1111.05
598.34	1111.29
598.69	1121.58
599.04	1131.88
599.39	1094.20
599.74	1103.09
600.09	1112.69
600.44	1107.78
600.78	1098.65
601.13	1085.31
601.48	1082.50
601.83	1081.56
602.18	1072.20
602.53	1074.31
602.88	1073.84
603.22	1076.18
603.57	1070.56
603.92	1071.97
604.27	1073.37
604.62	1077.58
604.97	1073.37
605.31	1075.24
605.66	1094.67
606.01	1092.33
606.36	1094.43
606.71	1096.31
607.05	1095.14
607.40	1074.07
607.75	1070.80
608.10	1064.71
608.44	1064.94
608.79	1063.31
609.14	1076.65
609.49	1079.92
609.84	1087.65
610.18	1091.86
610.53	1092.80
610.88	1088.35
611.23	1090.92
611.57	1098.18
611.92	1097.01
612.27	1104.03
612.62	1105.67
612.96	1108.01
613.31	1104.50
613.66	1102.16
614.00	1101.46
614.35	1110.35
614.70	1105.20
615.05	1099.82
615.39	1096.31
615.74	1092.33
616.09	1081.56
616.43	1091.63
616.78	1091.39
617.13	1093.97
617.47	1099.58
617.82	1098.41
618.17	1096.31
618.51	1097.48
618.86	1089.75
619.21	1082.73
619.55	1078.75
619.90	1068.92
620.25	1068.69
620.59	1070.33
620.94	1066.35
621.29	1068.22
621.63	1062.14
621.98	1064.94
622.32	1065.88
622.67	1070.56
623.02	1071.50
623.36	1078.75
623.71	1071.03
624.05	1078.52
624.40	1073.14
624.75	1066.82
625.09	1063.31
625.44	1066.58
625.78	1058.16
626.13	1064.48
626.48	1075.24
626.82	1078.28
627.17	1088.35
627.51	1096.54
627.86	1097.71
628.20	1097.24
628.55	1097.24
628.89	1083.20
629.24	1087.88
629.58	1090.46
629.93	1084.37
630.28	1088.82
630.62	1086.94
630.97	1080.63
631.31	1079.22
631.66	1082.03
632.00	1077.82
632.35	1077.58
632.69	1074.77
633.04	1062.84
633.38	1063.31
633.73	1059.33
634.07	1061.90
634.42	1060.03
634.76	1069.39
635.11	1069.62
635.45	1070.56
635.79	1085.07
636.14	1087.18
636.48	1087.41
636.83	1085.77
637.17	1091.86
637.52	1075.71
637.86	1074.77
638.21	1076.18
638.55	1086.48
638.89	1087.41
639.24	1101.46
639.58	1104.97
639.93	1101.92
640.27	1098.41
640.61	1102.86
640.96	1095.60
641.30	1089.05
641.65	1092.56
641.99	1087.65
642.33	1079.92
642.68	1082.73
643.02	1088.35
643.37	1093.97
643.71	1098.65
644.05	1102.16
644.40	1094.43
644.74	1096.07
645.08	1084.60
645.43	1081.09
645.77	1082.50
646.11	1081.56
646.46	1067.99
646.80	1070.56
647.14	1074.77
647.49	1077.58
647.83	1089.05
648.17	1098.88
648.52	1103.56
648.86	1100.05
649.20	1094.67
649.55	1090.92
649.89	1093.97
650.23	1087.88
650.57	1090.22
650.92	1094.43
651.26	1092.09
651.60	1082.73
651.95	1082.50
652.29	1078.99
652.63	1079.92
652.97	1073.84
653.32	1077.35
653.66	1082.97
654.00	1085.54
654.34	1079.46
654.69	1087.41
655.03	1090.46
655.37	1076.41
655.71	1072.90
656.05	1074.77
656.40	1071.73
656.74	1068.45
657.08	1074.54
657.42	1074.77
657.76	1063.54
658.11	1064.71
658.45	1069.16
658.79	1076.65
659.13	1065.18
659.47	1075.01
659.82	1069.62
660.16	1069.16
660.50	1067.99
660.84	1074.54
661.18	1072.43
661.52	1077.58
661.87	1067.05
662.21	1066.11
662.55	1071.03
662.89	1063.54
663.23	1066.35
663.57	1075.24
663.91	1074.54
664.25	1073.84
664.60	1072.67
664.94	1068.69
665.28	1066.58
665.62	1064.94
665.96	1071.50
666.30	1084.84
666.64	1090.46
666.98	1087.41
667.32	1086.71
667.66	1080.63
668.01	1078.28
668.35	1069.39
668.69	1073.37
669.03	1078.52
669.37	1070.80
669.71	1067.28
670.05	1067.52
670.39	1067.75
670.73	1064.71
671.07	1072.43
671.41	1085.07
671.75	1089.52
672.09	1093.03
672.43	1089.29
672.77	1090.46
673.11	1074.54
673.45	1074.54
673.79	1067.52
674.13	1075.48
674.47	1072.90
674.81	1073.84
675.15	1073.84
675.49	1075.01
675.83	1075.24
676.17	1076.88
676.51	1090.22
676.85	1084.84
677.19	1092.80
677.53	1084.84
677.87	1090.92
678.21	1080.63
678.55	1082.73
678.89	1080.39
679.23	1082.97
679.57	1079.92
679.90	1083.90
680.24	1088.12
680.58	1080.16
680.92	1077.82
681.26	1080.39
681.60	1076.88
681.94	1077.58
682.28	1086.71
682.62	1091.63
682.96	1093.03
683.29	1102.63
683.63	1107.54
683.97	1104.26
684.31	1098.18
684.65	1088.35
684.99	1078.05
685.33	1068.92
685.67	1073.60
686.00	1064.48
686.34	1064.24
686.68	1071.26
687.02	1076.88
687.36	1080.63
687.70	1088.58
688.03	1096.31
688.37	1081.56
688.71	1071.97
689.05	1060.03
689.39	1058.86
689.72	1056.99
690.06	1059.79
690.40	1056.05
690.74	1057.45
691.08	1064.94
691.41	1065.65
691.75	1070.33
692.09	1082.26
692.43	1083.43
692.76	1086.94
693.10	1076.65
693.44	1084.84
693.78	1075.24
694.11	1069.39
694.45	1062.14
694.79	1064.94
695.13	1050.67
695.46	1058.62
695.80	1060.03
696.14	1063.07
696.48	1061.67
696.81	1075.48
697.15	1080.86
697.49	1091.39
697.82	1086.48
698.16	1097.71
698.50	1097.95
698.83	1084.84
699.17	1091.63
699.51	1087.41
699.84	1081.80
700.18	1075.01
700.52	1078.52
700.85	1065.18
701.19	1077.35
701.53	1076.88
701.86	1079.69
702.20	1081.33
702.54	1077.58
702.87	1073.84
703.21	1080.86
703.55	1078.28
703.88	1089.52
704.22	1099.82
704.55	1107.54
704.89	1106.61
705.23	1111.99
705.56	1103.56
705.90	1108.01
706.23	1097.24
706.57	1081.33
706.91	1080.63
707.24	1090.92
707.58	1074.54
707.91	1081.33
708.25	1090.46
708.58	1081.56
708.92	1068.69
709.26	1071.97
709.59	1070.33
709.93	1072.20
710.26	1076.18
710.60	1074.54
710.93	1079.69
711.27	1075.71
711.60	1088.12
711.94	1089.99
712.27	1081.80
712.61	1089.99
712.94	1093.97
713.28	1078.52
713.61	1066.58
713.95	1072.90
714.28	1068.92
714.62	1069.16
714.95	1064.71
715.29	1086.94
715.62	1096.07
715.96	1095.84
716.29	1093.73
716.63	1103.09
716.96	1096.07
717.29	1097.48
717.63	1091.86
717.96	1104.73
718.30	1105.20
718.63	1097.01
718.97	1092.09
719.30	1093.03
719.63	1077.35
719.97	1067.52
720.30	1076.18
720.64	1070.80
720.97	1069.16
721.30	1075.71
721.64	1085.07
721.97	1082.26
722.31	1095.37
722.64	1102.16
722.97	1086.94
723.31	1086.48
723.64	1077.58
723.97	1059.56
724.31	1050.20
724.64	1058.62
724.98	1048.09
725.31	1041.77
725.64	1051.60
725.98	1052.77
726.31	1060.73
726.64	1062.60
726.97	1069.39
727.31	1073.37
727.64	1071.50
727.97	1069.62
728.31	1080.39
728.64	1091.39
728.97	1083.20
729.31	1090.22
729.64	1076.65
729.97	1077.11
730.30	1069.86
730.64	1073.14
730.97	1082.97
731.30	1095.60
731.63	1087.41
731.97	1093.03
732.30	1088.58
732.63	1075.71
732.96	1068.22
733.30	1062.60
733.63	1059.79
733.96	1060.03
734.29	1060.73
734.63	1066.11
734.96	1060.50
735.29	1061.20
735.62	1065.88
735.95	1056.52
736.29	1051.13
736.62	1066.82
736.95	1069.39
737.28	1071.73
737.61	1080.39
737.94	1089.52
738.28	1076.88
738.61	1069.62
738.94	1066.35
739.27	1071.50
739.60	1067.52
739.93	1082.03
740.27	1079.69
740.60	1078.99
740.93	1069.16
741.26	1069.16
741.59	1067.28
741.92	1068.69
742.25	1064.94
742.58	1080.39
742.91	1087.18
743.25	1075.24
743.58	1081.33
743.91	1089.05
744.24	1072.67
744.57	1071.03
744.90	1083.67
745.23	1089.05
745.56	1088.35
745.89	1108.01
746.22	1107.54
746.55	1097.48
746.88	1083.90
747.21	1083.20
747.54	1074.31
747.87	1064.24
748.20	1070.09
748.53	1082.26
748.87	1078.75
749.20	1077.11
749.53	1079.22
749.86	1093.26
750.19	1082.97
750.52	1084.14
750.85	1083.90
751.18	1086.24
751.51	1068.92
751.84	1067.75
752.16	1076.41
752.49	1060.26
752.82	1064.94
753.15	1071.50
753.48	1074.54
753.81	1073.14
754.14	1099.12
754.47	1088.82
754.80	1081.09
755.13	1083.90
755.46	1077.11
755.79	1065.65
756.12	1071.97
756.45	1083.20
756.78	1087.18
757.11	1089.99
757.43	1089.52
757.76	1088.58
758.09	1082.73
758.42	1075.24
758.75	1077.82
759.08	1082.50
759.41	1082.50
759.74	1083.20
760.07	1096.78
760.39	1087.65
760.72	1081.33
761.05	1078.99
761.38	1077.58
761.71	1066.82
762.04	1073.37
762.36	1071.73
762.69	1073.60
763.02	1082.26
763.35	1086.94
763.68	1092.56
764.01	1095.84
764.33	1104.26
764.66	1101.22
764.99	1102.39
765.32	1101.22
765.65	1098.41
765.97	1096.54
766.30	1096.54
766.63	1100.29
766.96	1102.86
767.28	1101.46
767.61	1098.65
767.94	1095.84
768.27	1082.50
768.59	1080.16
768.92	1082.97
769.25	1086.48
769.58	1080.16
769.90	1082.73
770.23	1077.11
770.56	1079.22
770.89	1075.48
771.21	1076.18
771.54	1082.97
771.87	1082.50
772.19	1074.54
772.52	1066.11
772.85	1067.52
773.17	1070.80
773.50	1067.75
773.83	1068.69
774.15	1071.26
774.48	1071.73
774.81	1062.14
775.13	1066.11
775.46	1071.03
775.79	1078.99
776.11	1082.50
776.44	1092.56
776.77	1088.82
777.09	1084.14
777.42	1077.35
777.74	1080.16
778.07	1066.35
778.40	1066.11
778.72	1070.80
779.05	1075.94
779.37	1071.73
779.70	1076.88
780.03	1080.39
780.35	1085.07
780.68	1088.82
781.00	1094.20
781.33	1094.20
781.65	1084.84
781.98	1080.63
782.31	1073.37
782.63	1067.28
782.96	1067.28
783.28	1078.75
783.61	1077.11
783.93	1082.73
784.26	1086.94
784.58	1084.84
784.91	1085.31
785.23	1079.69
785.56	1077.82
785.88	1067.99
786.21	1071.73
786.53	1066.35
786.86	1071.50
787.18	1064.48
787.51	1069.16
787.83	1078.99
788.16	1082.26
788.48	1091.39
788.81	1098.88
789.13	1099.12
789.46	1090.46
789.78	1090.69
790.10	1080.63
790.43	1079.46
790.75	1078.99
791.08	1077.82
791.40	1079.22
791.73	1086.71
792.05	1091.63
792.37	1097.01
792.70	1092.80
793.02	1090.92
793.35	1084.14
793.67	1078.28
793.99	1080.86
794.32	1077.35
794.64	1069.62
794.96	1076.18
795.29	1074.77
795.61	1061.20
795.93	1070.56
796.26	1085.54
796.58	1090.22
796.91	1099.58
797.23	1099.82
797.55	1086.01
797.87	1070.56
798.20	1067.99
798.52	1065.18
798.84	1065.88
799.17	1088.12
799.49	1102.86
799.81	1097.95
800.14	1086.71
800.46	1093.50
800.78	1087.65
801.10	1088.12
801.43	1092.56
801.75	1099.12
802.07	1098.18
802.40	1090.69
802.72	1084.60
803.04	1088.12
803.36	1096.78
803.69	1096.54
804.01	1098.18
804.33	1093.50
804.65	1074.07
804.97	1060.03
805.30	1061.20
805.62	1064.01
805.94	1068.45
806.26	1076.65
806.58	1086.24
806.91	1090.46
807.23	1083.67
807.55	1088.12
807.87	1082.97
808.19	1082.03
808.52	1079.92
808.84	1083.43
809.16	1081.80
809.48	1094.90
809.80	1090.69
810.12	1091.16
810.44	1089.99
810.77	1090.92
811.09	1089.52
811.41	1087.18
811.73	1084.37
812.05	1085.54
812.37	1089.75
812.69	1077.35
813.01	1070.56
813.33	1076.88
813.66	1074.54
813.98	1060.26
814.30	1070.33
814.62	1080.86
814.94	1073.84
815.26	1083.90
815.58	1089.05
815.90	1089.05
816.22	1087.88
816.54	1088.58
816.86	1081.80
817.18	1074.54
817.50	1062.14
817.82	1059.33
818.14	1058.16
818.46	1067.75
818.78	1078.75
819.10	1090.22
819.42	1088.82
819.74	1089.52
820.06	1076.41
820.38	1073.84
820.70	1069.39
821.02	1078.05
821.34	1078.28
821.66	1084.37
821.98	1083.43
822.30	1081.80
822.62	1076.18
822.94	1077.35
823.26	1077.58
823.58	1075.94
823.90	1080.16
824.22	1082.50
824.54	1079.69
824.86	1081.33
825.18	1085.31
825.50	1088.12
825.81	1093.73
826.13	1092.33
826.45	1096.07
826.77	1100.75
827.09	1093.50
827.41	1071.73
827.73	1069.62
828.05	1065.18
828.36	1059.09
828.68	1059.33
829.00	1075.01
829.32	1076.65
829.64	1083.67
829.96	1084.14
830.28	1087.88
830.59	1084.14
830.91	1084.84
831.23	1071.97
831.55	1070.09
831.87	1073.60
832.19	1076.18
832.50	1086.94
832.82	1089.05
833.14	1087.65
833.46	1086.01
833.78	1093.50
834.09	1093.50
834.41	1087.65
834.73	1090.22
835.05	1097.01
835.36	1093.97
835.68	1085.07
836.00	1097.95
836.32	1107.54
836.63	1095.60
836.95	1086.24
837.27	1080.16
837.59	1061.43
837.90	1053.01
838.22	1058.39
838.54	1059.79
838.85	1070.56
839.17	1071.50
839.49	1059.09
839.80	1064.94
840.12	1075.94
840.44	1072.20
840.76	1082.97
841.07	1092.33
841.39	1096.78
841.71	1093.73
842.02	1089.99
842.34	1083.90
842.65	1091.63
842.97	1085.77
843.29	1077.35
843.60	1089.75
843.92	1098.88
844.24	1091.16
844.55	1082.03
844.87	1092.09
845.18	1086.01
845.50	1079.92
845.82	1082.26
846.13	1081.56
846.45	1075.01
846.76	1071.97
847.08	1067.75
847.40	1053.71
847.71	1064.01
848.03	1069.16
848.34	1073.37
848.66	1077.11
848.97	1084.37
849.29	1075.01
849.60	1070.09
849.92	1051.37
850.24	1045.52
850.55	1041.07
850.87	1045.05
851.18	1041.54
851.50	1063.31
851.81	1065.65
852.13	1074.77
852.44	1073.37
852.76	1083.20
853.07	1076.41
853.39	1085.07
853.70	1086.71
854.01	1086.24
854.33	1080.63
854.64	1075.48
854.96	1078.28
855.27	1072.90
855.59	1069.62
855.90	1069.39
856.22	1072.67
856.53	1064.01
856.84	1071.73
857.16	1079.92
857.47	1081.56
857.79	1070.33
858.10	1062.84
858.41	1054.18
858.73	1050.67
859.04	1052.07
859.36	1066.11
859.67	1073.37
859.98	1082.26
860.30	1086.01
860.61	1082.73
860.92	1080.63
861.24	1082.50
861.55	1078.52
861.87	1074.31
862.18	1070.56
862.49	1079.22
862.81	1079.69
863.12	1082.50
863.43	1087.65
863.74	1086.71
864.06	1076.65
864.37	1078.75
864.68	1076.41
865.00	1075.94
865.31	1092.56
865.62	1088.82
865.94	1087.41
866.25	1083.20
866.56	1077.11
866.87	1069.39
867.19	1077.82
867.50	1086.71
867.81	1084.37
868.12	1082.97
868.44	1082.97
868.75	1085.07
869.06	1077.35
869.37	1086.24
869.68	1099.12
870.00	1101.22
870.31	1095.14
870.62	1091.39
870.93	1082.03
871.24	1079.92
871.56	1075.01
871.87	1084.84
872.18	1082.73
872.49	1089.29
872.80	1084.14
873.12	1087.65
873.43	1079.92
873.74	1086.94
874.05	1090.69
874.36	1097.24
874.67	1088.12
874.98	1089.99
875.29	1084.84
875.61	1081.56
875.92	1071.26
876.23	1075.71
876.54	1069.86
876.85	1077.58
877.16	1077.11
877.47	1075.01
877.78	1078.75
878.09	1078.99
878.40	1074.54
878.72	1072.43
879.03	1083.20
879.34	1078.28
879.65	1081.33
879.96	1084.14
880.27	1086.24
880.58	1078.28
880.89	1072.90
881.20	1077.58
881.51	1084.84
881.82	1089.29
882.13	1095.84
882.44	1099.12
882.75	1092.09
883.06	1077.58
883.37	1077.58
883.68	1076.18
883.99	1084.60
884.30	1089.99
884.61	1090.46
884.92	1088.82
885.23	1079.22
885.54	1078.75
885.85	1078.52
886.16	1095.37
886.47	1085.31
886.78	1090.22
887.08	1084.37
887.39	1086.01
887.70	1071.26
888.01	1073.14
888.32	1068.92
888.63	1074.77
888.94	1078.99
889.25	1070.56
889.56	1081.33
889.87	1082.73
890.17	1079.22
890.48	1073.14
890.79	1078.05
891.10	1067.75
891.41	1074.07
891.72	1073.37
892.03	1073.84
892.34	1082.03
892.64	1097.01
892.95	1097.48
893.26	1101.22
893.57	1094.43
893.88	1101.69
894.18	1093.26
894.49	1087.65
894.80	1087.18
895.11	1093.73
895.42	1071.50
895.72	1074.31
896.03	1078.05
896.34	1084.60
896.65	1080.86
896.96	1089.99
897.26	1089.75
897.57	1094.43
897.88	1086.94
898.19	1098.88
898.49	1103.09
898.80	1093.97
899.11	1088.58
899.41	1083.43
899.72	1067.05
900.03	1071.97
900.34	1067.99
900.64	1060.03
900.95	1070.56
901.26	1076.65
901.56	1070.56
901.87	1082.73
902.18	1098.65
902.48	1089.29
902.79	1095.37
903.10	1093.50
903.40	1087.65
903.71	1075.24
904.02	1078.52
904.32	1079.22
904.63	1081.09
904.94	1082.73
905.24	1084.84
905.55	1079.69
905.85	1075.94
906.16	1079.92
906.47	1083.20
906.77	1085.77
907.08	1082.73
907.38	1085.07
907.69	1070.80
908.00	1058.86
908.30	1053.94
908.61	1062.37
908.91	1057.22
909.22	1062.60
909.52	1067.28
909.83	1070.80
910.14	1068.69
910.44	1070.09
910.75	1066.35
911.05	1075.24
911.36	1076.65
911.66	1078.52
911.97	1079.92
912.27	1098.41
912.58	1092.56
912.88	1085.31
913.19	1081.56
913.49	1085.77
913.80	1073.14
914.10	1072.90
914.41	1069.16
914.71	1068.69
915.01	1057.22
915.32	1056.52
915.62	1065.41
915.93	1075.71
916.23	1079.69
916.54	1082.97
916.84	1080.63
917.15	1071.03
917.45	1066.11
917.75	1065.41
918.06	1064.01
918.36	1073.14
918.67	1074.07
918.97	1076.18
919.27	1081.09
919.58	1089.52
919.88	1082.50
920.18	1087.88
920.49	1083.90
920.79	1075.24
921.10	1067.28
921.40	1064.48
921.70	1063.31
922.01	1071.73
922.31	1073.84
922.61	1070.56
922.92	1070.80
923.22	1067.28
923.52	1064.24
923.82	1061.90
924.13	1071.73
924.43	1078.75
924.73	1080.39
925.04	1078.05
925.34	1078.05
925.64	1072.90
925.94	1078.52
926.25	1081.80
926.55	1080.39
926.85	1089.05
927.15	1084.84
927.46	1073.60
927.76	1075.48
928.06	1080.86
928.36	1077.58
928.67	1081.33
928.97	1085.07
929.27	1068.92
929.57	1068.45
929.87	1068.69
930.18	1070.80
930.48	1077.58
930.78	1091.86
931.08	1081.56
931.38	1086.24
931.69	1097.24
931.99	1091.39
932.29	1088.82
932.59	1097.71
932.89	1095.37
933.19	1085.31
933.49	1077.35
933.80	1071.26
934.10	1067.52
934.40	1067.99
934.70	1073.14
935.00	1087.88
935.30	1083.67
935.60	1079.46
935.90	1075.24
936.20	1066.58
936.50	1055.82
936.81	1064.71
937.11	1076.41
937.41	1069.62
937.71	1065.41
938.01	1064.94
938.31	1074.54
938.61	1078.28
938.91	1077.82
939.21	1089.99
939.51	1090.69
939.81	1078.75
940.11	1062.60
940.41	1060.96
940.71	1050.67
941.01	1050.43
941.31	1046.92
941.61	1064.24
941.91	1072.90
942.21	1079.69
942.51	1087.65
942.81	1093.97
943.11	1083.20
943.41	1081.09
943.71	1072.90
944.01	1065.18
944.31	1061.20
944.61	1068.92
944.90	1074.77
945.20	1079.22
945.50	1083.90
945.80	1085.77
946.10	1087.88
946.40	1078.75
946.70	1083.20
947.00	1077.82
947.30	1087.88
947.60	1074.77
947.89	1080.39
948.19	1076.41
948.49	1079.46
948.79	1077.11
949.09	1081.80
949.39	1075.24
949.69	1073.60
949.98	1069.62
950.28	1059.79
950.58	1059.09
950.88	1072.20
951.18	1072.67
951.48	1081.33
951.77	1085.07
952.07	1089.29
952.37	1081.56
952.67	1088.58
952.97	1099.58
953.26	1093.03
953.56	1085.07
953.86	1084.84
954.16	1081.80
954.45	1070.80
954.75	1078.99
955.05	1082.73
955.35	1088.82
955.64	1077.82
955.94	1076.18
956.24	1075.01
956.54	1076.65
956.83	1078.28
957.13	1088.82
957.43	1088.58
957.72	1088.35
958.02	1095.37
958.32	1082.50
958.61	1083.43
958.91	1087.65
959.21	1087.41
959.50	1082.03
959.80	1090.22
960.10	1090.92
960.39	1086.94
960.69	1083.20
960.99	1083.67
961.28	1075.94
961.58	1071.73
961.87	1076.41
962.17	1081.56
962.47	1076.65
962.76	1081.33
963.06	1081.56
963.36	1072.90
963.65	1073.60
963.95	1076.18
964.24	1076.65
964.54	1087.41
964.83	1085.07
965.13	1081.33
965.42	1081.09
965.72	1084.60
966.02	1079.46
966.31	1079.22
966.61	1083.90
966.90	1077.35
967.20	1076.65
967.49	1069.16
967.79	1067.75
968.08	1067.52
968.38	1077.82
968.67	1084.14
968.97	1082.03
969.26	1086.24
969.56	1078.52
969.85	1075.71
970.15	1062.84
970.44	1060.50
970.74	1068.69
971.03	1069.16
971.32	1083.43
971.62	1081.56
971.91	1091.63
972.21	1080.39
972.50	1091.39
972.80	1077.82
973.09	1087.65
973.38	1086.48
973.68	1099.12
973.97	1090.46
974.27	1091.86
974.56	1089.05
974.85	1095.14
975.15	1083.67
975.44	1083.20
975.73	1081.09
976.03	1079.46
976.32	1069.16
976.61	1076.41
976.91	1085.77
977.20	1079.22
977.49	1073.84
977.79	1074.77
978.08	1071.03
978.37	1061.20
978.67	1067.75
978.96	1074.77
979.25	1083.43
979.55	1090.46
979.84	1095.14
980.13	1094.67
980.42	1094.20
980.72	1092.33
981.01	1083.67
981.30	1081.09
981.59	1070.09
981.89	1066.82
982.18	1059.56
982.47	1057.45
982.76	1067.28
983.06	1085.07
983.35	1085.77
983.64	1080.16
983.93	1084.60
984.22	1075.48
984.52	1063.07
984.81	1067.28
985.10	1070.09
985.39	1067.05
985.68	1072.43
985.97	1078.05
986.27	1078.75
986.56	1080.63
986.85	1088.82
987.14	1091.39
987.43	1090.69
987.72	1086.71
988.01	1089.29
988.31	1081.80
988.60	1077.58
988.89	1079.69
989.18	1074.31
989.47	1066.82
989.76	1063.77
990.05	1056.99
990.34	1048.56
990.63	1054.18
990.92	1057.22
991.21	1055.11
991.51	1057.69
991.80	1068.22
992.09	1059.79
992.38	1065.65
992.67	1074.31
992.96	1065.65
993.25	1060.73
993.54	1065.88
993.83	1062.60
994.12	1059.79
994.41	1070.80
994.70	1074.07
994.99	1068.45
995.28	1062.14
995.57	1069.16
995.86	1065.88
996.15	1063.31
996.44	1066.58
996.73	1073.37
997.02	1073.84
997.31	1067.75
997.59	1062.37
997.88	1069.39
998.17	1067.05
998.46	1066.82
998.75	1067.99
999.04	1072.67
999.33	1071.26
999.62	1073.14
999.91	1064.48
1000.20	1068.69
1000.49	1075.48
1000.77	1069.86
1001.06	1074.07
1001.35	1077.11
1001.64	1081.56
1001.93	1072.43
1002.22	1080.16
1002.51	1082.73
1002.79	1078.05
1003.08	1078.99
1003.37	1083.43
1003.66	1078.75
1003.95	1071.97
1004.23	1083.20
1004.52	1078.99
1004.81	1089.52
1005.10	1091.39
1005.39	1079.69
1005.67	1069.86
1005.96	1065.88
1006.25	1050.67
1006.54	1048.79
1006.83	1064.71
1007.11	1073.60
1007.40	1082.50
1007.69	1089.99
1007.97	1091.63
1008.26	1082.03
1008.55	1075.94
1008.84	1076.88
1009.12	1078.99
1009.41	1069.86
1009.70	1082.03
1009.98	1089.99
1010.27	1081.56
1010.56	1073.37
1010.85	1081.80
1011.13	1072.20
1011.42	1058.39
1011.71	1059.33
1011.99	1058.39
1012.28	1060.73
1012.56	1066.11
1012.85	1067.52
1013.14	1069.16
1013.42	1072.43
1013.71	1064.71
1014.00	1071.26
1014.28	1073.84
1014.57	1073.60
1014.85	1076.88
1015.14	1089.75
1015.43	1086.71
1015.71	1088.82
1016.00	1090.92
1016.28	1088.58
1016.57	1080.16
1016.85	1075.48
1017.14	1080.63
1017.43	1086.01
1017.71	1082.26
1018.00	1080.16
1018.28	1083.90
1018.57	1069.86
1018.85	1063.54
1019.14	1067.99
1019.42	1070.09
1019.71	1066.35
1019.99	1082.03
1020.28	1076.88
1020.56	1076.88
1020.85	1076.41
1021.13	1072.43
1021.42	1061.90
1021.70	1066.58
1021.99	1069.86
1022.27	1067.75
1022.55	1098.88
1022.84	1053.24
>>>>>End Processed Spectral Data<<<<<
