SpectraSuite Data File
++++++++++++++++++++++++++++++++++++
Date: Mon Aug 26 10:24:31 PDT 2019
User: corrico
Dark Spectrum Present: No
Reference Spectrum Present: No
Number of Sampled Component Spectra: 1
Spectrometers: USB2+H06089
Integration Time (usec): 10000 (USB2+H06089)
Spectra Averaged: 2 (USB2+H06089)
Boxcar Smoothing: 2 (USB2+H06089)
Correct for Electrical Dark: No (USB2+H06089)
Strobe/Lamp Enabled: No (USB2+H06089)
Correct for Detector Non-linearity: No (USB2+H06089)
Correct for Stray Light: No (USB2+H06089)
Number of Pixels in Processed Spectrum: 2048
>>>>>Begin Processed Spectral Data<<<<<
339.70	1035.69
340.07	1035.69
340.45	1006.66
340.82	983.26
341.19	966.88
341.57	943.00
341.94	929.19
342.31	919.13
342.69	920.06
343.06	904.15
343.43	905.32
343.81	904.85
344.18	897.83
344.55	900.64
344.93	901.57
345.30	899.23
345.67	902.74
346.04	918.89
346.42	922.64
346.79	944.64
347.16	965.47
347.54	980.92
347.91	991.22
348.28	1003.15
348.65	1011.81
349.03	1005.73
349.40	1015.32
349.77	1021.18
350.14	1028.43
350.52	1033.81
350.89	1046.69
351.26	1053.24
351.63	1065.88
352.01	1072.20
352.38	1075.94
352.75	1074.54
353.12	1073.60
353.50	1073.60
353.87	1074.77
354.24	1077.11
354.61	1075.94
354.98	1075.94
355.36	1076.88
355.73	1078.05
356.10	1079.92
356.47	1096.54
356.84	1099.12
357.22	1099.58
357.59	1097.24
357.96	1091.39
358.33	1089.52
358.70	1083.20
359.08	1078.52
359.45	1073.60
359.82	1073.84
360.19	1070.56
360.56	1074.54
360.94	1074.31
361.31	1069.86
361.68	1076.65
362.05	1076.88
362.42	1075.01
362.79	1074.77
363.16	1075.94
363.54	1065.88
363.91	1057.22
364.28	1054.65
364.65	1050.67
365.02	1050.20
365.39	1052.07
365.76	1056.99
366.14	1055.35
366.51	1058.62
366.88	1065.18
367.25	1053.94
367.62	1051.60
367.99	1046.45
368.36	1042.47
368.73	1043.88
369.10	1049.96
369.48	1051.13
369.85	1067.28
370.22	1070.33
370.59	1061.20
370.96	1063.31
371.33	1061.43
371.70	1059.56
372.07	1057.45
372.44	1064.01
372.81	1063.31
373.18	1073.14
373.55	1068.69
373.93	1075.48
374.30	1078.28
374.67	1074.54
375.04	1066.11
375.41	1076.88
375.78	1070.80
376.15	1067.75
376.52	1071.73
376.89	1075.01
377.26	1057.45
377.63	1064.24
378.00	1056.75
378.37	1057.22
378.74	1053.48
379.11	1066.11
379.48	1062.37
379.85	1071.97
380.22	1068.92
380.59	1068.22
380.96	1061.90
381.33	1057.22
381.70	1050.20
382.07	1054.65
382.44	1053.24
382.81	1046.22
383.18	1050.43
383.55	1053.48
383.92	1052.54
384.29	1059.33
384.66	1067.99
385.03	1062.60
385.40	1066.58
385.77	1067.05
386.14	1055.11
386.51	1053.71
386.88	1063.31
387.25	1063.54
387.62	1073.84
387.99	1089.75
388.36	1091.16
388.73	1089.99
389.10	1091.16
389.46	1080.63
389.83	1066.11
390.20	1072.43
390.57	1065.88
390.94	1062.14
391.31	1064.71
391.68	1077.82
392.05	1067.28
392.42	1069.62
392.79	1064.94
393.16	1067.28
393.53	1061.20
393.89	1061.90
394.26	1062.14
394.63	1069.16
395.00	1065.41
395.37	1062.14
395.74	1060.26
396.11	1066.58
396.48	1063.31
396.84	1068.45
397.21	1075.48
397.58	1081.09
397.95	1074.07
398.32	1073.60
398.69	1076.18
399.06	1077.11
399.42	1068.45
399.79	1077.11
400.16	1077.82
400.53	1065.18
400.90	1061.20
401.27	1070.33
401.64	1065.41
402.00	1073.60
402.37	1077.82
402.74	1067.75
403.11	1064.24
403.48	1063.07
403.84	1055.11
404.21	1062.14
404.58	1076.18
404.95	1076.41
405.32	1069.86
405.68	1078.28
406.05	1072.20
406.42	1072.43
406.79	1080.16
407.16	1082.50
407.52	1083.43
407.89	1080.86
408.26	1070.09
408.63	1062.37
408.99	1072.43
409.36	1067.99
409.73	1070.80
410.10	1074.54
410.47	1076.88
410.83	1071.73
411.20	1072.20
411.57	1074.31
411.94	1077.82
412.30	1074.07
412.67	1067.05
413.04	1063.54
413.40	1066.11
413.77	1062.37
414.14	1057.69
414.51	1058.16
414.87	1056.28
415.24	1052.07
415.61	1045.05
415.97	1057.92
416.34	1060.73
416.71	1069.62
417.08	1072.20
417.44	1083.43
417.81	1077.58
418.18	1082.97
418.54	1069.86
418.91	1069.62
419.28	1062.14
419.64	1063.77
420.01	1059.09
420.38	1067.75
420.74	1067.05
421.11	1073.37
421.48	1069.16
421.84	1073.84
422.21	1073.84
422.58	1081.09
422.94	1083.43
423.31	1098.88
423.68	1095.84
424.04	1089.52
424.41	1085.54
424.77	1087.41
425.14	1076.41
425.51	1074.31
425.87	1081.80
426.24	1082.26
426.61	1076.41
426.97	1079.69
427.34	1089.05
427.70	1086.71
428.07	1077.35
428.44	1083.43
428.80	1080.39
429.17	1070.56
429.53	1072.67
429.90	1074.77
430.27	1069.86
430.63	1071.97
431.00	1081.80
431.36	1082.73
431.73	1081.09
432.09	1071.73
432.46	1063.54
432.83	1055.35
433.19	1053.01
433.56	1064.01
433.92	1072.90
434.29	1083.20
434.65	1085.31
435.02	1083.67
435.38	1076.18
435.75	1081.56
436.11	1078.05
436.48	1074.77
436.84	1068.69
437.21	1076.65
437.57	1076.41
437.94	1075.48
438.30	1075.24
438.67	1079.22
439.03	1071.73
439.40	1063.31
439.76	1062.84
440.13	1068.92
440.49	1076.18
440.86	1082.97
441.22	1091.39
441.59	1093.03
441.95	1089.52
442.32	1089.29
442.68	1085.07
443.05	1080.39
443.41	1086.24
443.78	1084.60
444.14	1079.69
444.51	1083.20
444.87	1081.33
445.24	1079.69
445.60	1079.22
445.96	1078.28
446.33	1076.88
446.69	1084.37
447.06	1080.16
447.42	1088.82
447.79	1082.26
448.15	1075.01
448.51	1070.80
448.88	1071.97
449.24	1060.73
449.61	1067.75
449.97	1077.11
450.33	1083.67
450.70	1073.84
451.06	1078.52
451.43	1081.80
451.79	1084.14
452.15	1072.20
452.52	1072.43
452.88	1075.01
453.24	1072.67
453.61	1071.26
453.97	1080.86
454.34	1095.37
454.70	1101.22
455.06	1101.46
455.43	1097.71
455.79	1092.56
456.15	1085.77
456.52	1085.07
456.88	1080.16
457.24	1080.86
457.61	1084.60
457.97	1083.43
458.33	1077.11
458.70	1071.03
459.06	1066.82
459.42	1070.56
459.79	1074.77
460.15	1081.33
460.51	1100.05
460.88	1095.37
461.24	1091.63
461.60	1090.46
461.96	1089.29
462.33	1081.56
462.69	1088.82
463.05	1087.41
463.42	1081.56
463.78	1072.20
464.14	1065.18
464.50	1066.82
464.87	1073.37
465.23	1067.28
465.59	1068.92
465.95	1073.84
466.32	1065.88
466.68	1051.13
467.04	1062.60
467.40	1067.05
467.77	1071.73
468.13	1074.54
468.49	1079.22
468.85	1071.97
469.22	1076.65
469.58	1069.86
469.94	1066.58
470.30	1058.86
470.66	1065.88
471.03	1061.90
471.39	1066.11
471.75	1074.77
472.11	1082.03
472.47	1082.26
472.84	1087.41
473.20	1087.88
473.56	1077.58
473.92	1089.75
474.28	1085.54
474.65	1082.73
475.01	1086.48
475.37	1092.56
475.73	1080.86
476.09	1086.24
476.45	1071.73
476.81	1068.22
477.18	1067.75
477.54	1072.43
477.90	1071.73
478.26	1077.58
478.62	1077.11
478.98	1080.63
479.34	1081.09
479.71	1077.82
480.07	1083.90
480.43	1086.71
480.79	1075.94
481.15	1080.16
481.51	1078.28
481.87	1077.11
482.23	1080.16
482.59	1096.78
482.96	1083.43
483.32	1083.67
483.68	1082.73
484.04	1076.88
484.40	1073.37
484.76	1069.86
485.12	1068.92
485.48	1063.77
485.84	1063.31
486.20	1067.28
486.56	1075.01
486.92	1079.46
487.28	1092.56
487.64	1083.43
488.00	1076.18
488.37	1078.28
488.73	1075.94
489.09	1060.50
489.45	1062.84
489.81	1059.56
490.17	1052.54
490.53	1056.05
490.89	1055.35
491.25	1061.43
491.61	1063.54
491.97	1069.39
492.33	1067.52
492.69	1074.31
493.05	1081.09
493.41	1087.41
493.77	1089.75
494.13	1091.63
494.49	1094.67
494.85	1097.71
495.21	1086.48
495.57	1074.77
495.93	1079.92
496.29	1085.07
496.64	1080.39
497.00	1089.05
497.36	1105.90
497.72	1108.24
498.08	1105.90
498.44	1091.16
498.80	1084.60
499.16	1078.28
499.52	1067.05
499.88	1060.50
500.24	1071.73
500.60	1079.22
500.96	1076.88
501.32	1079.92
501.68	1084.84
502.03	1084.14
502.39	1079.69
502.75	1079.46
503.11	1081.80
503.47	1081.33
503.83	1083.43
504.19	1080.39
504.55	1079.92
504.91	1081.33
505.26	1083.20
505.62	1076.65
505.98	1085.31
506.34	1092.80
506.70	1086.01
507.06	1078.05
507.42	1082.03
507.78	1080.63
508.13	1081.56
508.49	1091.86
508.85	1095.14
509.21	1095.14
509.57	1091.86
509.93	1089.99
510.28	1077.11
510.64	1082.26
511.00	1086.01
511.36	1083.90
511.72	1087.41
512.07	1096.54
512.43	1086.24
512.79	1084.84
513.15	1086.94
513.51	1070.80
513.86	1065.88
514.22	1067.75
514.58	1077.58
514.94	1074.77
515.30	1083.20
515.65	1083.43
516.01	1085.54
516.37	1081.09
516.73	1081.09
517.08	1083.67
517.44	1088.12
517.80	1086.48
518.16	1071.97
518.51	1071.03
518.87	1073.37
519.23	1064.01
519.59	1059.56
519.94	1070.09
520.30	1073.60
520.66	1074.77
521.01	1072.67
521.37	1081.80
521.73	1089.75
522.09	1093.97
522.44	1086.71
522.80	1092.09
523.16	1086.01
523.51	1075.01
523.87	1075.94
524.23	1075.94
524.58	1076.88
524.94	1089.29
525.30	1087.18
525.65	1074.77
526.01	1071.26
526.37	1064.01
526.72	1058.86
527.08	1056.99
527.44	1060.73
527.79	1069.39
528.15	1075.01
528.51	1075.71
528.86	1074.54
529.22	1071.26
529.58	1073.60
529.93	1077.58
530.29	1077.11
530.65	1083.43
531.00	1092.33
531.36	1088.12
531.71	1086.01
532.07	1080.86
532.43	1083.20
532.78	1079.92
533.14	1077.11
533.49	1081.33
533.85	1080.39
534.21	1082.73
534.56	1081.80
534.92	1080.39
535.27	1076.41
535.63	1081.09
535.98	1076.41
536.34	1079.69
536.69	1083.67
537.05	1091.86
537.41	1088.58
537.76	1098.65
538.12	1093.97
538.47	1097.95
538.83	1091.63
539.18	1094.20
539.54	1082.03
539.89	1087.18
540.25	1083.20
540.60	1087.65
540.96	1082.97
541.31	1088.12
541.67	1086.71
542.02	1085.31
542.38	1081.09
542.73	1088.35
543.09	1088.12
543.44	1089.29
543.80	1086.01
544.15	1086.01
544.51	1079.92
544.86	1078.99
545.22	1075.48
545.57	1073.84
545.93	1071.03
546.28	1066.82
546.64	1062.14
546.99	1061.43
547.35	1073.14
547.70	1068.69
548.05	1071.50
548.41	1068.22
548.76	1075.71
549.12	1061.67
549.47	1063.77
549.83	1071.03
550.18	1073.37
550.53	1065.88
550.89	1076.88
551.24	1083.90
551.60	1083.90
551.95	1084.14
552.30	1083.67
552.66	1082.97
553.01	1079.69
553.37	1076.88
553.72	1081.33
554.07	1091.16
554.43	1080.63
554.78	1077.82
555.13	1072.20
555.49	1072.43
555.84	1057.22
556.19	1065.41
556.55	1062.14
556.90	1067.75
557.26	1069.16
557.61	1073.14
557.96	1064.94
558.32	1071.26
558.67	1074.07
559.02	1067.75
559.37	1074.07
559.73	1088.82
560.08	1091.63
560.43	1084.60
560.79	1078.75
561.14	1069.62
561.49	1062.14
561.85	1058.39
562.20	1055.35
562.55	1061.90
562.90	1075.94
563.26	1077.11
563.61	1078.28
563.96	1084.37
564.32	1086.94
564.67	1075.01
565.02	1074.77
565.37	1081.80
565.73	1082.03
566.08	1079.69
566.43	1085.31
566.78	1087.18
567.14	1073.14
567.49	1076.41
567.84	1082.97
568.19	1086.01
568.54	1086.01
568.90	1093.03
569.25	1087.65
569.60	1080.16
569.95	1075.24
570.31	1067.99
570.66	1065.18
571.01	1065.88
571.36	1065.41
571.71	1062.14
572.06	1067.28
572.42	1070.56
572.77	1063.77
573.12	1066.82
573.47	1071.26
573.82	1068.69
574.18	1067.99
574.53	1074.07
574.88	1074.07
575.23	1079.69
575.58	1080.86
575.93	1086.94
576.28	1085.31
576.64	1090.46
576.99	1085.54
577.34	1086.94
577.69	1082.97
578.04	1084.14
578.39	1073.60
578.74	1074.54
579.09	1079.22
579.44	1072.90
579.80	1069.39
580.15	1070.33
580.50	1074.31
580.85	1064.01
581.20	1067.28
581.55	1072.67
581.90	1075.71
582.25	1069.39
582.60	1078.99
582.95	1078.99
583.30	1077.35
583.65	1079.22
584.00	1079.69
584.35	1078.28
584.71	1084.14
585.06	1086.24
585.41	1086.48
585.76	1088.35
586.11	1085.77
586.46	1083.20
586.81	1079.22
587.16	1072.20
587.51	1069.62
587.86	1067.28
588.21	1072.67
588.56	1073.84
588.91	1082.03
589.26	1102.39
589.61	1102.16
589.96	1085.07
590.31	1079.92
590.66	1080.39
591.01	1057.22
591.36	1058.86
591.71	1064.48
592.06	1076.88
592.41	1078.99
592.76	1083.43
593.10	1086.48
593.45	1092.09
593.80	1086.94
594.15	1073.60
594.50	1073.37
594.85	1075.24
595.20	1071.97
595.55	1062.84
595.90	1080.63
596.25	1075.71
596.60	1071.03
596.95	1071.03
597.30	1068.22
597.64	1110.35
597.99	1120.18
598.34	1122.99
598.69	1116.67
599.04	1135.39
599.39	1083.90
599.74	1083.43
600.09	1077.58
600.44	1091.63
600.78	1079.46
601.13	1079.46
601.48	1069.39
601.83	1067.75
602.18	1055.11
602.53	1066.11
602.88	1062.60
603.22	1072.67
603.57	1066.82
603.92	1074.31
604.27	1071.50
604.62	1081.33
604.97	1070.80
605.31	1084.14
605.66	1088.82
606.01	1087.65
606.36	1089.99
606.71	1095.84
607.05	1093.97
607.40	1087.41
607.75	1091.86
608.10	1083.20
608.44	1087.41
608.79	1084.14
609.14	1081.09
609.49	1080.39
609.84	1081.80
610.18	1076.18
610.53	1077.82
610.88	1083.90
611.23	1072.90
611.57	1075.48
611.92	1077.58
612.27	1075.01
612.62	1073.60
612.96	1081.33
613.31	1081.56
613.66	1079.46
614.00	1085.54
614.35	1092.09
614.70	1082.26
615.05	1077.82
615.39	1077.35
615.74	1071.73
616.09	1067.99
616.43	1088.12
616.78	1084.84
617.13	1090.92
617.47	1099.82
617.82	1098.18
618.17	1093.73
618.51	1101.92
618.86	1085.77
619.21	1078.05
619.55	1079.69
619.90	1066.82
620.25	1063.54
620.59	1071.97
620.94	1078.75
621.29	1079.92
621.63	1087.88
621.98	1081.09
622.32	1081.09
622.67	1078.52
623.02	1078.52
623.36	1070.33
623.71	1072.67
624.05	1077.11
624.40	1079.46
624.75	1076.18
625.09	1082.26
625.44	1080.86
625.78	1078.99
626.13	1069.62
626.48	1060.96
626.82	1066.35
627.17	1068.92
627.51	1064.94
627.86	1076.18
628.20	1084.84
628.55	1082.03
628.89	1084.84
629.24	1086.24
629.58	1082.50
629.93	1079.69
630.28	1075.94
630.62	1066.58
630.97	1067.28
631.31	1058.39
631.66	1048.79
632.00	1051.84
632.35	1057.69
632.69	1061.20
633.04	1075.48
633.38	1088.82
633.73	1088.12
634.07	1094.43
634.42	1087.18
634.76	1076.41
635.11	1076.88
635.45	1072.20
635.79	1065.88
636.14	1067.05
636.48	1069.86
636.83	1068.45
637.17	1075.01
637.52	1079.92
637.86	1087.18
638.21	1084.14
638.55	1080.63
638.89	1076.65
639.24	1083.20
639.58	1078.75
639.93	1086.71
640.27	1084.14
640.61	1086.48
640.96	1080.16
641.30	1080.39
641.65	1080.39
641.99	1089.05
642.33	1085.77
642.68	1081.80
643.02	1085.07
643.37	1079.92
643.71	1080.39
644.05	1076.65
644.40	1079.69
644.74	1076.65
645.08	1073.14
645.43	1070.09
645.77	1081.80
646.11	1077.11
646.46	1071.26
646.80	1074.77
647.14	1072.43
647.49	1064.71
647.83	1069.86
648.17	1080.63
648.52	1084.37
648.86	1083.67
649.20	1086.94
649.55	1088.58
649.89	1081.80
650.23	1081.56
650.57	1086.24
650.92	1078.28
651.26	1079.92
651.60	1087.18
651.95	1086.94
652.29	1089.75
652.63	1091.16
652.97	1087.65
653.32	1089.75
653.66	1081.09
654.00	1078.52
654.34	1078.28
654.69	1076.65
655.03	1076.18
655.37	1083.90
655.71	1078.05
656.05	1081.09
656.40	1075.71
656.74	1069.39
657.08	1060.26
657.42	1055.11
657.76	1053.48
658.11	1056.75
658.45	1058.62
658.79	1064.48
659.13	1073.14
659.47	1075.94
659.82	1080.16
660.16	1080.86
660.50	1075.71
660.84	1073.14
661.18	1068.92
661.52	1071.26
661.87	1068.22
662.21	1067.05
662.55	1065.18
662.89	1068.92
663.23	1071.03
663.57	1081.09
663.91	1086.24
664.25	1080.16
664.60	1093.97
664.94	1089.29
665.28	1073.14
665.62	1071.73
665.96	1079.22
666.30	1068.69
666.64	1069.39
666.98	1077.11
667.32	1077.35
667.66	1078.75
668.01	1080.39
668.35	1080.86
668.69	1076.88
669.03	1082.26
669.37	1085.54
669.71	1086.24
670.05	1096.31
670.39	1101.46
670.73	1104.03
671.07	1103.80
671.41	1106.37
671.75	1089.75
672.09	1086.01
672.43	1077.35
672.77	1076.41
673.11	1075.24
673.45	1073.84
673.79	1072.67
674.13	1069.16
674.47	1060.26
674.81	1064.01
675.15	1069.86
675.49	1075.94
675.83	1082.97
676.17	1090.69
676.51	1076.41
676.85	1076.65
677.19	1060.96
677.53	1061.90
677.87	1062.84
678.21	1067.28
678.55	1060.26
678.89	1084.60
679.23	1080.39
679.57	1068.92
679.90	1058.86
680.24	1053.94
680.58	1048.33
680.92	1045.28
681.26	1058.16
681.60	1067.05
681.94	1073.84
682.28	1067.28
682.62	1070.33
682.96	1060.03
683.29	1060.03
683.63	1075.71
683.97	1073.60
684.31	1085.77
684.65	1100.05
684.99	1102.63
685.33	1086.48
685.67	1086.24
686.00	1076.18
686.34	1076.18
686.68	1070.09
687.02	1070.09
687.36	1071.03
687.70	1070.09
688.03	1069.86
688.37	1071.26
688.71	1081.80
689.05	1091.39
689.39	1096.07
689.72	1092.33
690.06	1101.22
690.40	1102.39
690.74	1105.90
691.08	1102.86
691.41	1094.90
691.75	1087.41
692.09	1068.45
692.43	1054.41
692.76	1065.18
693.10	1064.94
693.44	1072.43
693.78	1084.84
694.11	1089.29
694.45	1076.65
694.79	1088.12
695.13	1068.92
695.46	1071.97
695.80	1071.26
696.14	1078.99
696.48	1068.69
696.81	1087.88
697.15	1086.48
697.49	1086.71
697.82	1078.99
698.16	1083.90
698.50	1086.94
698.83	1087.41
699.17	1083.20
699.51	1089.99
699.84	1092.33
700.18	1083.43
700.52	1087.41
700.85	1087.65
701.19	1086.48
701.53	1086.24
701.86	1089.52
702.20	1084.60
702.54	1084.14
702.87	1084.14
703.21	1083.67
703.55	1080.86
703.88	1075.48
704.22	1076.65
704.55	1074.54
704.89	1063.31
705.23	1063.77
705.56	1069.86
705.90	1072.43
706.23	1071.26
706.57	1083.43
706.91	1097.01
707.24	1096.31
707.58	1100.99
707.91	1105.44
708.25	1100.99
708.58	1092.56
708.92	1094.90
709.26	1088.12
709.59	1092.09
709.93	1086.24
710.26	1074.77
710.60	1070.56
710.93	1075.48
711.27	1067.75
711.60	1075.01
711.94	1078.28
712.27	1076.88
712.61	1078.52
712.94	1080.39
713.28	1079.92
713.61	1070.80
713.95	1070.80
714.28	1072.20
714.62	1076.18
714.95	1072.90
715.29	1080.63
715.62	1079.22
715.96	1082.97
716.29	1073.84
716.63	1075.48
716.96	1074.07
717.29	1072.90
717.63	1059.79
717.96	1064.01
718.30	1057.92
718.63	1053.01
718.97	1063.31
719.30	1067.75
719.63	1060.73
719.97	1061.67
720.30	1066.11
720.64	1056.28
720.97	1053.24
721.30	1058.39
721.64	1067.05
721.97	1063.77
722.31	1064.71
722.64	1070.09
722.97	1067.28
723.31	1057.45
723.64	1066.58
723.97	1068.92
724.31	1069.16
724.64	1073.37
724.98	1080.16
725.31	1080.86
725.64	1087.88
725.98	1082.50
726.31	1077.35
726.64	1073.60
726.97	1073.84
727.31	1057.92
727.64	1059.09
727.97	1063.54
728.31	1066.35
728.64	1053.24
728.97	1062.60
729.31	1066.58
729.64	1065.65
729.97	1070.09
730.30	1083.20
730.64	1080.16
730.97	1073.84
731.30	1071.50
731.63	1069.86
731.97	1072.90
732.30	1070.80
732.63	1063.07
732.96	1071.73
733.30	1079.69
733.63	1067.75
733.96	1080.86
734.29	1097.24
734.63	1089.29
734.96	1080.16
735.29	1090.46
735.62	1088.12
735.95	1091.63
736.29	1098.41
736.62	1100.05
736.95	1097.95
737.28	1091.86
737.61	1082.97
737.94	1082.73
738.28	1078.52
738.61	1081.09
738.94	1076.65
739.27	1078.28
739.60	1069.86
739.93	1072.67
740.27	1071.26
740.60	1083.67
740.93	1083.90
741.26	1088.58
741.59	1089.75
741.92	1095.14
742.25	1084.14
742.58	1090.22
742.91	1094.43
743.25	1093.73
743.58	1093.26
743.91	1092.80
744.24	1091.39
744.57	1083.43
744.90	1090.92
745.23	1085.31
745.56	1083.67
745.89	1077.82
746.22	1082.26
746.55	1069.62
746.88	1071.73
747.21	1063.77
747.54	1069.86
747.87	1077.82
748.20	1083.90
748.53	1081.56
748.87	1089.29
749.20	1083.90
749.53	1078.52
749.86	1088.12
750.19	1091.16
750.52	1099.82
750.85	1100.29
751.18	1091.63
751.51	1073.37
751.84	1072.43
752.16	1061.67
752.49	1063.31
752.82	1069.62
753.15	1075.24
753.48	1078.05
753.81	1086.71
754.14	1076.65
754.47	1060.73
754.80	1066.11
755.13	1056.52
755.46	1053.71
755.79	1058.16
756.12	1076.18
756.45	1069.39
756.78	1074.07
757.11	1080.16
757.43	1088.58
757.76	1082.26
758.09	1083.67
758.42	1085.07
758.75	1086.48
759.08	1071.73
759.41	1078.28
759.74	1087.65
760.07	1082.26
760.39	1068.92
760.72	1082.50
761.05	1081.80
761.38	1074.07
761.71	1074.31
762.04	1085.31
762.36	1083.67
762.69	1085.54
763.02	1090.69
763.35	1095.60
763.68	1095.37
764.01	1098.65
764.33	1096.31
764.66	1082.03
764.99	1091.16
765.32	1089.75
765.65	1085.54
765.97	1082.26
766.30	1097.24
766.63	1093.26
766.96	1098.65
767.28	1096.07
767.61	1100.05
767.94	1094.20
768.27	1087.88
768.59	1076.88
768.92	1070.56
769.25	1056.99
769.58	1055.58
769.90	1060.03
770.23	1063.07
770.56	1070.56
770.89	1079.22
771.21	1092.33
771.54	1084.14
771.87	1089.52
772.19	1090.69
772.52	1099.12
772.85	1085.07
773.17	1089.29
773.50	1091.39
773.83	1096.54
774.15	1088.12
774.48	1089.52
774.81	1093.03
775.13	1088.58
775.46	1080.86
775.79	1086.01
776.11	1084.37
776.44	1074.77
776.77	1070.09
777.09	1072.43
777.42	1068.22
777.74	1063.31
778.07	1071.73
778.40	1068.45
778.72	1072.20
779.05	1074.31
779.37	1079.92
779.70	1075.71
780.03	1082.73
780.35	1079.69
780.68	1082.26
781.00	1078.75
781.33	1082.50
781.65	1082.26
781.98	1088.35
782.31	1086.48
782.63	1096.07
782.96	1097.95
783.28	1103.80
783.61	1094.43
783.93	1085.31
784.26	1085.77
784.58	1079.92
784.91	1075.24
785.23	1072.67
785.56	1078.28
785.88	1077.35
786.21	1075.71
786.53	1069.62
786.86	1071.26
787.18	1074.31
787.51	1068.92
787.83	1066.58
788.16	1069.86
788.48	1076.88
788.81	1075.01
789.13	1080.86
789.46	1084.14
789.78	1076.65
790.10	1067.52
790.43	1070.33
790.75	1073.84
791.08	1078.52
791.40	1084.37
791.73	1089.99
792.05	1095.37
792.37	1087.41
792.70	1091.39
793.02	1096.78
793.35	1092.80
793.67	1077.35
793.99	1068.22
794.32	1056.52
794.64	1061.20
794.96	1055.35
795.29	1056.52
795.61	1059.33
795.93	1064.24
796.26	1058.62
796.58	1058.86
796.91	1068.22
797.23	1075.48
797.55	1073.60
797.87	1064.01
798.20	1070.09
798.52	1070.09
798.84	1065.18
799.17	1062.60
799.49	1065.18
799.81	1068.45
800.14	1064.71
800.46	1068.22
800.78	1073.37
801.10	1065.41
801.43	1072.20
801.75	1068.22
802.07	1062.14
802.40	1065.18
802.72	1073.84
803.04	1072.43
803.36	1080.63
803.69	1089.52
804.01	1089.29
804.33	1094.67
804.65	1086.24
804.97	1094.67
805.30	1098.65
805.62	1100.75
805.94	1108.01
806.26	1110.12
806.58	1101.22
806.91	1092.33
807.23	1082.03
807.55	1071.03
807.87	1067.75
808.19	1066.11
808.52	1071.97
808.84	1074.07
809.16	1069.39
809.48	1069.86
809.80	1074.54
810.12	1073.84
810.44	1066.58
810.77	1082.26
811.09	1087.18
811.41	1082.97
811.73	1085.31
812.05	1089.52
812.37	1080.86
812.69	1076.41
813.01	1062.60
813.33	1053.94
813.66	1051.60
813.98	1045.75
814.30	1045.75
814.62	1055.11
814.94	1056.05
815.26	1067.52
815.58	1080.63
815.90	1081.33
816.22	1085.31
816.54	1088.35
816.86	1078.28
817.18	1073.84
817.50	1067.28
817.82	1060.03
818.14	1052.07
818.46	1058.16
818.78	1052.07
819.10	1055.11
819.42	1056.52
819.74	1071.26
820.06	1066.35
820.38	1066.82
820.70	1068.69
821.02	1068.45
821.34	1063.54
821.66	1062.84
821.98	1073.60
822.30	1078.28
822.62	1086.94
822.94	1084.14
823.26	1093.26
823.58	1084.84
823.90	1086.01
824.22	1077.58
824.54	1074.31
824.86	1070.33
825.18	1070.33
825.50	1071.26
825.81	1081.09
826.13	1089.52
826.45	1089.99
826.77	1077.58
827.09	1074.07
827.41	1076.41
827.73	1079.22
828.05	1080.86
828.36	1103.09
828.68	1100.29
829.00	1097.71
829.32	1095.84
829.64	1095.60
829.96	1093.03
830.28	1099.12
830.59	1104.97
830.91	1095.14
831.23	1097.01
831.55	1094.90
831.87	1090.46
832.19	1081.80
832.50	1092.09
832.82	1091.63
833.14	1085.07
833.46	1085.54
833.78	1082.03
834.09	1075.71
834.41	1074.31
834.73	1074.31
835.05	1075.01
835.36	1079.22
835.68	1078.28
836.00	1078.99
836.32	1080.86
836.63	1083.20
836.95	1090.22
837.27	1089.05
837.59	1084.60
837.90	1091.16
838.22	1092.09
838.54	1082.03
838.85	1082.03
839.17	1084.37
839.49	1082.26
839.80	1086.01
840.12	1084.37
840.44	1087.88
840.76	1093.73
841.07	1088.12
841.39	1080.86
841.71	1084.84
842.02	1087.65
842.34	1082.73
842.65	1084.14
842.97	1084.14
843.29	1080.63
843.60	1080.86
843.92	1080.63
844.24	1085.31
844.55	1084.84
844.87	1088.82
845.18	1076.65
845.50	1078.28
845.82	1080.39
846.13	1089.99
846.45	1084.37
846.76	1093.50
847.08	1090.69
847.40	1087.41
847.71	1077.11
848.03	1077.82
848.34	1078.52
848.66	1074.54
848.97	1071.50
849.29	1074.54
849.60	1075.48
849.92	1070.09
850.24	1083.43
850.55	1073.37
850.87	1081.33
851.18	1082.97
851.50	1089.05
851.81	1088.35
852.13	1086.48
852.44	1084.14
852.76	1083.90
853.07	1079.22
853.39	1074.54
853.70	1090.46
854.01	1081.80
854.33	1074.07
854.64	1081.33
854.96	1067.05
855.27	1066.35
855.59	1067.75
855.90	1069.16
856.22	1059.56
856.53	1071.03
856.84	1064.48
857.16	1065.88
857.47	1083.43
857.79	1091.16
858.10	1085.31
858.41	1086.71
858.73	1082.50
859.04	1066.58
859.36	1067.75
859.67	1079.92
859.98	1087.88
860.30	1096.54
860.61	1102.63
860.92	1102.39
861.24	1094.67
861.55	1084.60
861.87	1076.18
862.18	1075.01
862.49	1077.82
862.81	1073.84
863.12	1084.60
863.43	1090.46
863.74	1086.01
864.06	1083.20
864.37	1086.48
864.68	1086.01
865.00	1086.48
865.31	1089.99
865.62	1082.50
865.94	1076.41
866.25	1067.05
866.56	1061.67
866.87	1055.58
867.19	1062.37
867.50	1066.82
867.81	1070.09
868.12	1073.14
868.44	1083.90
868.75	1080.39
869.06	1083.20
869.37	1084.84
869.68	1078.28
870.00	1078.99
870.31	1076.18
870.62	1077.35
870.93	1076.88
871.24	1085.07
871.56	1083.43
871.87	1086.01
872.18	1085.77
872.49	1079.69
872.80	1073.84
873.12	1077.11
873.43	1069.39
873.74	1064.24
874.05	1074.54
874.36	1075.48
874.67	1063.77
874.98	1063.77
875.29	1067.52
875.61	1066.58
875.92	1065.88
876.23	1069.39
876.54	1076.88
876.85	1078.99
877.16	1072.90
877.47	1071.50
877.78	1070.56
878.09	1078.99
878.40	1080.86
878.72	1078.99
879.03	1095.37
879.34	1105.90
879.65	1097.95
879.96	1093.26
880.27	1099.58
880.58	1082.50
880.89	1078.52
881.20	1081.09
881.51	1085.31
881.82	1086.48
882.13	1093.03
882.44	1081.09
882.75	1080.39
883.06	1088.12
883.37	1079.92
883.68	1075.94
883.99	1081.33
884.30	1084.14
884.61	1067.75
884.92	1071.26
885.23	1071.26
885.54	1076.41
885.85	1072.43
886.16	1075.48
886.47	1075.24
886.78	1069.62
887.08	1070.09
887.39	1058.86
887.70	1054.65
888.01	1052.07
888.32	1061.90
888.63	1061.67
888.94	1071.03
889.25	1072.20
889.56	1082.03
889.87	1071.73
890.17	1070.33
890.48	1075.24
890.79	1075.01
891.10	1059.79
891.41	1064.71
891.72	1065.65
892.03	1062.84
892.34	1071.50
892.64	1082.26
892.95	1083.20
893.26	1083.90
893.57	1075.94
893.88	1069.62
894.18	1076.65
894.49	1079.92
894.80	1083.67
895.11	1088.35
895.42	1092.80
895.72	1088.82
896.03	1083.90
896.34	1082.50
896.65	1090.92
896.96	1093.26
897.26	1080.86
897.57	1082.26
897.88	1077.35
898.19	1073.37
898.49	1072.67
898.80	1084.14
899.11	1079.69
899.41	1082.50
899.72	1082.03
900.03	1089.05
900.34	1081.80
900.64	1082.03
900.95	1085.07
901.26	1079.22
901.56	1064.01
901.87	1066.82
902.18	1080.63
902.48	1084.14
902.79	1090.22
903.10	1089.52
903.40	1095.14
903.71	1087.41
904.02	1082.97
904.32	1088.35
904.63	1098.41
904.94	1092.33
905.24	1096.54
905.55	1093.03
905.85	1089.99
906.16	1079.92
906.47	1078.05
906.77	1082.73
907.08	1082.03
907.38	1080.63
907.69	1093.03
908.00	1094.43
908.30	1088.58
908.61	1093.97
908.91	1092.56
909.22	1091.39
909.52	1090.22
909.83	1086.94
910.14	1085.07
910.44	1088.35
910.75	1092.80
911.05	1097.01
911.36	1099.58
911.66	1090.69
911.97	1086.24
912.27	1078.28
912.58	1083.67
912.88	1075.01
913.19	1072.20
913.49	1069.39
913.80	1081.33
914.10	1069.86
914.41	1076.65
914.71	1088.12
915.01	1091.86
915.32	1070.80
915.62	1072.43
915.93	1073.14
916.23	1066.58
916.54	1061.43
916.84	1072.67
917.15	1082.26
917.45	1071.73
917.75	1080.16
918.06	1091.86
918.36	1086.71
918.67	1082.50
918.97	1097.24
919.27	1085.77
919.58	1068.92
919.88	1068.92
920.18	1062.84
920.49	1062.37
920.79	1056.52
921.10	1067.28
921.40	1069.62
921.70	1078.05
922.01	1081.33
922.31	1094.43
922.61	1090.92
922.92	1092.33
923.22	1085.77
923.52	1080.16
923.82	1080.86
924.13	1077.11
924.43	1079.46
924.73	1082.73
925.04	1070.33
925.34	1062.84
925.64	1062.37
925.94	1066.58
926.25	1063.31
926.55	1070.33
926.85	1069.62
927.15	1071.50
927.46	1063.77
927.76	1057.92
928.06	1055.11
928.36	1056.52
928.67	1065.41
928.97	1068.69
929.27	1075.24
929.57	1074.77
929.87	1078.05
930.18	1067.75
930.48	1068.22
930.78	1069.16
931.08	1074.77
931.38	1078.75
931.69	1093.26
931.99	1091.86
932.29	1091.86
932.59	1088.82
932.89	1069.39
933.19	1065.18
933.49	1070.33
933.80	1068.45
934.10	1072.43
934.40	1081.80
934.70	1085.54
935.00	1075.94
935.30	1077.82
935.60	1069.16
935.90	1065.88
936.20	1058.62
936.50	1066.11
936.81	1073.60
937.11	1077.82
937.41	1085.54
937.71	1083.67
938.01	1087.88
938.31	1080.16
938.61	1084.60
938.91	1093.26
939.21	1106.14
939.51	1093.97
939.81	1100.05
940.11	1100.99
940.41	1087.88
940.71	1079.92
941.01	1080.63
941.31	1079.69
941.61	1089.05
941.91	1093.97
942.21	1093.50
942.51	1094.43
942.81	1092.80
943.11	1078.99
943.41	1076.88
943.71	1080.16
944.01	1082.26
944.31	1077.58
944.61	1081.09
944.90	1085.07
945.20	1081.56
945.50	1077.58
945.80	1080.16
946.10	1076.65
946.40	1073.37
946.70	1083.20
947.00	1080.86
947.30	1077.11
947.60	1079.92
947.89	1084.84
948.19	1070.33
948.49	1076.65
948.79	1079.22
949.09	1080.86
949.39	1080.39
949.69	1080.16
949.98	1078.05
950.28	1077.58
950.58	1081.80
950.88	1082.03
951.18	1092.33
951.48	1097.71
951.77	1102.16
952.07	1091.86
952.37	1098.65
952.67	1092.56
952.97	1088.35
953.26	1087.88
953.56	1096.78
953.86	1093.26
954.16	1096.78
954.45	1089.99
954.75	1081.80
955.05	1076.88
955.35	1073.37
955.64	1069.39
955.94	1067.05
956.24	1072.90
956.54	1073.84
956.83	1075.01
957.13	1075.01
957.43	1085.77
957.72	1077.82
958.02	1083.90
958.32	1084.84
958.61	1083.43
958.91	1083.43
959.21	1094.20
959.50	1085.31
959.80	1074.54
960.10	1072.90
960.39	1069.16
960.69	1065.65
960.99	1068.22
961.28	1081.33
961.58	1087.41
961.87	1091.16
962.17	1086.71
962.47	1089.52
962.76	1086.24
963.06	1089.05
963.36	1092.33
963.65	1092.09
963.95	1096.54
964.24	1088.58
964.54	1080.86
964.83	1067.28
965.13	1074.77
965.42	1067.99
965.72	1079.46
966.02	1078.28
966.31	1078.52
966.61	1080.86
966.90	1093.03
967.20	1090.46
967.49	1093.73
967.79	1104.50
968.08	1096.54
968.38	1092.80
968.67	1094.67
968.97	1088.58
969.26	1083.90
969.56	1095.37
969.85	1082.50
970.15	1076.41
970.44	1079.22
970.74	1078.05
971.03	1059.56
971.32	1072.90
971.62	1076.88
971.91	1073.60
972.21	1078.52
972.50	1085.54
972.80	1077.58
973.09	1075.01
973.38	1071.97
973.68	1068.92
973.97	1066.58
974.27	1057.92
974.56	1056.05
974.85	1069.39
975.15	1068.69
975.44	1070.33
975.73	1079.92
976.03	1079.92
976.32	1071.73
976.61	1076.41
976.91	1078.75
977.20	1079.22
977.49	1082.50
977.79	1079.46
978.08	1074.54
978.37	1071.97
978.67	1063.54
978.96	1068.92
979.25	1077.82
979.55	1080.39
979.84	1071.26
980.13	1078.52
980.42	1067.52
980.72	1063.54
981.01	1057.22
981.30	1078.05
981.59	1076.18
981.89	1084.60
982.18	1079.46
982.47	1090.92
982.76	1092.56
983.06	1097.24
983.35	1092.80
983.64	1097.48
983.93	1091.86
984.22	1086.24
984.52	1083.20
984.81	1078.99
985.10	1079.46
985.39	1090.46
985.68	1095.37
985.97	1100.52
986.27	1103.33
986.56	1106.84
986.85	1101.22
987.14	1090.46
987.43	1078.75
987.72	1084.84
988.01	1089.05
988.31	1088.58
988.60	1090.22
988.89	1092.56
989.18	1088.35
989.47	1083.43
989.76	1078.52
990.05	1077.35
990.34	1087.18
990.63	1088.58
990.92	1086.71
991.21	1086.71
991.51	1088.82
991.80	1086.01
992.09	1076.88
992.38	1076.18
992.67	1073.14
992.96	1066.82
993.25	1058.86
993.54	1066.35
993.83	1070.56
994.12	1078.28
994.41	1074.77
994.70	1081.09
994.99	1086.01
995.28	1088.58
995.57	1083.90
995.86	1091.86
996.15	1079.46
996.44	1069.62
996.73	1064.94
997.02	1060.96
997.31	1058.16
997.59	1071.03
997.88	1070.33
998.17	1067.52
998.46	1071.03
998.75	1073.37
999.04	1073.37
999.33	1073.84
999.62	1066.58
999.91	1071.03
1000.20	1079.46
1000.49	1072.43
1000.77	1076.41
1001.06	1080.39
1001.35	1075.48
1001.64	1070.09
1001.93	1079.92
1002.22	1079.69
1002.51	1086.48
1002.79	1099.35
1003.08	1097.01
1003.37	1095.37
1003.66	1104.03
1003.95	1112.92
1004.23	1103.33
1004.52	1108.48
1004.81	1104.03
1005.10	1098.65
1005.39	1088.82
1005.67	1081.33
1005.96	1071.03
1006.25	1082.50
1006.54	1086.94
1006.83	1082.97
1007.11	1084.84
1007.40	1091.39
1007.69	1082.73
1007.97	1070.33
1008.26	1070.33
1008.55	1073.84
1008.84	1078.99
1009.12	1082.03
1009.41	1081.80
1009.70	1082.03
1009.98	1085.07
1010.27	1077.35
1010.56	1080.63
1010.85	1078.99
1011.13	1082.26
1011.42	1083.43
1011.71	1082.97
1011.99	1071.73
1012.28	1075.48
1012.56	1077.82
1012.85	1065.18
1013.14	1062.37
1013.42	1067.99
1013.71	1077.58
1014.00	1070.09
1014.28	1081.56
1014.57	1091.16
1014.85	1092.09
1015.14	1086.71
1015.43	1086.94
1015.71	1083.90
1016.00	1086.48
1016.28	1085.07
1016.57	1092.09
1016.85	1101.22
1017.14	1095.60
1017.43	1083.43
1017.71	1075.48
1018.00	1068.69
1018.28	1064.94
1018.57	1068.22
1018.85	1076.41
1019.14	1079.69
1019.42	1072.90
1019.71	1061.43
1019.99	1061.20
1020.28	1058.86
1020.56	1061.43
1020.85	1064.24
1021.13	1076.65
1021.42	1082.73
1021.70	1084.37
1021.99	1078.05
1022.27	1079.92
1022.55	1048.56
1022.84	1070.80
>>>>>End Processed Spectral Data<<<<<
