SpectraSuite Data File
++++++++++++++++++++++++++++++++++++
Date: Mon Aug 26 10:24:30 PDT 2019
User: corrico
Dark Spectrum Present: No
Reference Spectrum Present: No
Number of Sampled Component Spectra: 1
Spectrometers: USB2+H06089
Integration Time (usec): 10000 (USB2+H06089)
Spectra Averaged: 2 (USB2+H06089)
Boxcar Smoothing: 2 (USB2+H06089)
Correct for Electrical Dark: No (USB2+H06089)
Strobe/Lamp Enabled: No (USB2+H06089)
Correct for Detector Non-linearity: No (USB2+H06089)
Correct for Stray Light: No (USB2+H06089)
Number of Pixels in Processed Spectrum: 2048
>>>>>Begin Processed Spectral Data<<<<<
339.70	978.34
340.07	978.34
340.45	952.60
340.82	945.58
341.19	929.43
341.57	905.09
341.94	911.40
342.31	906.26
342.69	897.83
343.06	901.81
343.43	910.23
343.81	906.49
344.18	904.62
344.55	901.11
344.93	897.13
345.30	896.19
345.67	901.34
346.04	910.23
346.42	913.75
346.79	928.26
347.16	949.79
347.54	961.49
347.91	964.77
348.28	971.56
348.65	978.81
349.03	974.83
349.40	987.00
349.77	1006.43
350.14	1025.86
350.52	1039.20
350.89	1050.90
351.26	1045.52
351.63	1034.28
352.01	1040.37
352.38	1030.30
352.75	1043.64
353.12	1052.54
353.50	1070.33
353.87	1074.31
354.24	1087.88
354.61	1078.52
354.98	1074.77
355.36	1075.94
355.73	1076.65
356.10	1079.92
356.47	1095.60
356.84	1098.41
357.22	1095.60
357.59	1101.46
357.96	1084.84
358.33	1069.86
358.70	1080.16
359.08	1077.58
359.45	1068.92
359.82	1084.60
360.19	1078.05
360.56	1075.24
360.94	1071.50
361.31	1069.16
361.68	1065.18
362.05	1073.37
362.42	1072.43
362.79	1070.09
363.16	1068.22
363.54	1068.69
363.91	1064.48
364.28	1062.60
364.65	1073.84
365.02	1084.60
365.39	1080.63
365.76	1082.03
366.14	1063.31
366.51	1054.88
366.88	1045.99
367.25	1033.81
367.62	1032.64
367.99	1044.82
368.36	1050.43
368.73	1049.50
369.10	1056.28
369.48	1060.03
369.85	1063.07
370.22	1062.14
370.59	1068.45
370.96	1074.07
371.33	1079.46
371.70	1078.28
372.07	1070.56
372.44	1064.24
372.81	1056.75
373.18	1045.52
373.55	1039.43
373.93	1045.52
374.30	1046.92
374.67	1051.84
375.04	1053.48
375.41	1056.99
375.78	1054.65
376.15	1060.03
376.52	1065.65
376.89	1069.16
377.26	1073.84
377.63	1074.54
378.00	1082.97
378.37	1081.09
378.74	1078.52
379.11	1071.97
379.48	1078.99
379.85	1068.45
380.22	1074.77
380.59	1076.65
380.96	1071.97
381.33	1059.09
381.70	1054.41
382.07	1041.30
382.44	1038.96
382.81	1053.01
383.18	1064.94
383.55	1077.82
383.92	1088.35
384.29	1094.67
384.66	1089.52
385.03	1087.18
385.40	1073.37
385.77	1078.52
386.14	1082.73
386.51	1080.16
386.88	1072.43
387.25	1080.39
387.62	1072.67
387.99	1071.73
388.36	1069.39
388.73	1067.99
389.10	1075.94
389.46	1077.82
389.83	1077.58
390.20	1087.65
390.57	1092.56
390.94	1086.48
391.31	1081.09
391.68	1075.94
392.05	1075.71
392.42	1075.48
392.79	1066.11
393.16	1067.75
393.53	1071.50
393.89	1074.31
394.26	1077.82
394.63	1077.11
395.00	1087.65
395.37	1079.22
395.74	1078.52
396.11	1079.69
396.48	1087.18
396.84	1071.73
397.21	1081.80
397.58	1069.39
397.95	1072.43
398.32	1067.28
398.69	1070.80
399.06	1059.09
399.42	1066.58
399.79	1062.84
400.16	1064.94
400.53	1065.65
400.90	1076.41
401.27	1074.31
401.64	1074.07
402.00	1082.97
402.37	1085.77
402.74	1083.67
403.11	1087.18
403.48	1085.77
403.84	1077.82
404.21	1079.46
404.58	1077.58
404.95	1086.24
405.32	1085.77
405.68	1084.14
406.05	1085.77
406.42	1080.63
406.79	1076.41
407.16	1076.65
407.52	1077.58
407.89	1066.35
408.26	1076.18
408.63	1071.73
408.99	1078.28
409.36	1077.35
409.73	1081.33
410.10	1078.28
410.47	1077.11
410.83	1080.39
411.20	1081.33
411.57	1093.26
411.94	1094.20
412.30	1101.22
412.67	1088.58
413.04	1086.48
413.40	1078.52
413.77	1070.33
414.14	1065.41
414.51	1074.54
414.87	1072.43
415.24	1070.56
415.61	1076.41
415.97	1077.35
416.34	1078.28
416.71	1080.63
417.08	1091.63
417.44	1095.60
417.81	1098.18
418.18	1101.22
418.54	1107.54
418.91	1096.78
419.28	1092.80
419.64	1101.46
420.01	1096.07
420.38	1096.54
420.74	1099.12
421.11	1110.12
421.48	1105.44
421.84	1105.90
422.21	1103.56
422.58	1106.61
422.94	1102.63
423.31	1103.33
423.68	1102.63
424.04	1110.12
424.41	1112.69
424.77	1115.73
425.14	1114.56
425.51	1124.16
425.87	1128.37
426.24	1137.03
426.61	1135.86
426.97	1143.82
427.34	1139.84
427.70	1144.52
428.07	1142.42
428.44	1149.91
428.80	1148.97
429.17	1163.48
429.53	1166.99
429.90	1177.76
430.27	1176.59
430.63	1170.27
431.00	1168.16
431.36	1176.35
431.73	1171.67
432.09	1175.42
432.46	1198.12
432.83	1197.42
433.19	1191.80
433.56	1202.33
433.92	1209.35
434.29	1203.97
434.65	1207.95
435.02	1214.04
435.38	1216.84
435.75	1222.46
436.11	1229.72
436.48	1234.40
436.84	1238.61
437.21	1236.51
437.57	1238.61
437.94	1236.04
438.30	1248.68
438.67	1248.91
439.03	1250.55
439.40	1255.93
439.76	1257.34
440.13	1250.78
440.49	1251.48
440.86	1250.55
441.22	1240.72
441.59	1235.57
441.95	1232.53
442.32	1232.29
442.68	1230.42
443.05	1230.65
443.41	1228.78
443.78	1228.08
444.14	1219.89
444.51	1217.31
444.87	1210.76
445.24	1212.40
445.60	1197.18
445.96	1192.74
446.33	1190.40
446.69	1185.95
447.06	1180.10
447.42	1185.72
447.79	1183.14
448.15	1174.25
448.51	1174.71
448.88	1168.86
449.24	1161.37
449.61	1160.67
449.97	1160.20
450.33	1153.88
450.70	1153.18
451.06	1161.84
451.43	1165.59
451.79	1167.46
452.15	1167.46
452.52	1172.37
452.88	1163.01
453.24	1143.59
453.61	1141.25
453.97	1144.52
454.34	1140.54
454.70	1139.61
455.06	1151.08
455.43	1144.29
455.79	1145.22
456.15	1137.97
456.52	1137.73
456.88	1132.12
457.24	1132.82
457.61	1136.10
457.97	1127.90
458.33	1120.41
458.70	1119.48
459.06	1119.01
459.42	1108.01
459.79	1116.90
460.15	1122.29
460.51	1115.73
460.88	1104.97
461.24	1105.44
461.60	1108.95
461.96	1103.80
462.33	1098.65
462.69	1104.97
463.05	1103.33
463.42	1094.67
463.78	1091.16
464.14	1100.05
464.50	1104.50
464.87	1100.05
465.23	1092.33
465.59	1091.16
465.95	1089.52
466.32	1092.56
466.68	1091.86
467.04	1094.90
467.40	1089.75
467.77	1094.20
468.13	1088.58
468.49	1079.46
468.85	1082.50
469.22	1084.60
469.58	1089.05
469.94	1089.99
470.30	1099.82
470.66	1098.41
471.03	1111.05
471.39	1090.46
471.75	1087.41
472.11	1088.12
472.47	1091.86
472.84	1076.88
473.20	1082.03
473.56	1087.18
473.92	1081.80
474.28	1079.46
474.65	1077.58
475.01	1078.28
475.37	1076.18
475.73	1080.39
476.09	1077.82
476.45	1084.14
476.81	1082.50
477.18	1079.92
477.54	1080.63
477.90	1074.54
478.26	1082.50
478.62	1091.86
478.98	1095.84
479.34	1095.60
479.71	1100.52
480.07	1098.88
480.43	1101.46
480.79	1089.29
481.15	1098.18
481.51	1097.48
481.87	1095.84
482.23	1091.16
482.59	1089.99
482.96	1078.28
483.32	1079.92
483.68	1082.50
484.04	1071.73
484.40	1073.84
484.76	1073.84
485.12	1070.56
485.48	1062.60
485.84	1064.71
486.20	1059.56
486.56	1066.11
486.92	1070.33
487.28	1071.50
487.64	1076.88
488.00	1076.41
488.37	1070.56
488.73	1069.16
489.09	1069.39
489.45	1078.05
489.81	1093.26
490.17	1097.48
490.53	1106.84
490.89	1105.67
491.25	1100.52
491.61	1095.84
491.97	1100.05
492.33	1086.48
492.69	1090.22
493.05	1083.90
493.41	1083.90
493.77	1069.62
494.13	1076.18
494.49	1067.99
494.85	1065.41
495.21	1069.39
495.57	1077.58
495.93	1085.77
496.29	1089.29
496.64	1091.16
497.00	1086.01
497.36	1082.97
497.72	1070.80
498.08	1070.09
498.44	1066.11
498.80	1071.73
499.16	1062.84
499.52	1064.48
499.88	1064.01
500.24	1075.94
500.60	1077.58
500.96	1090.69
501.32	1104.97
501.68	1106.37
502.03	1096.78
502.39	1090.69
502.75	1086.71
503.11	1083.43
503.47	1085.07
503.83	1086.01
504.19	1085.77
504.55	1079.92
504.91	1075.24
505.26	1080.63
505.62	1091.63
505.98	1084.60
506.34	1087.41
506.70	1086.48
507.06	1085.31
507.42	1078.52
507.78	1083.20
508.13	1082.50
508.49	1080.63
508.85	1077.58
509.21	1079.22
509.57	1084.84
509.93	1099.82
510.28	1098.65
510.64	1095.37
511.00	1093.26
511.36	1091.63
511.72	1077.35
512.07	1070.56
512.43	1077.58
512.79	1074.77
513.15	1067.99
513.51	1077.58
513.86	1087.65
514.22	1077.82
514.58	1076.88
514.94	1072.20
515.30	1071.03
515.65	1071.50
516.01	1072.20
516.37	1075.01
516.73	1085.07
517.08	1074.31
517.44	1074.54
517.80	1079.46
518.16	1077.35
518.51	1075.48
518.87	1072.90
519.23	1064.48
519.59	1060.03
519.94	1060.26
520.30	1065.88
520.66	1072.90
521.01	1072.20
521.37	1080.39
521.73	1080.16
522.09	1085.54
522.44	1086.48
522.80	1098.41
523.16	1090.92
523.51	1089.99
523.87	1080.63
524.23	1072.43
524.58	1054.41
524.94	1058.86
525.30	1065.41
525.65	1055.58
526.01	1062.37
526.37	1072.20
526.72	1066.11
527.08	1058.86
527.44	1059.09
527.79	1057.45
528.15	1056.05
528.51	1057.69
528.86	1060.26
529.22	1063.77
529.58	1061.20
529.93	1063.54
530.29	1065.65
530.65	1069.39
531.00	1070.33
531.36	1077.82
531.71	1071.26
532.07	1074.54
532.43	1075.24
532.78	1085.07
533.14	1086.01
533.49	1089.05
533.85	1088.35
534.21	1080.86
534.56	1079.22
534.92	1073.84
535.27	1073.84
535.63	1066.82
535.98	1072.67
536.34	1068.69
536.69	1069.62
537.05	1074.07
537.41	1083.67
537.76	1077.11
538.12	1084.14
538.47	1089.05
538.83	1093.73
539.18	1097.01
539.54	1099.58
539.89	1095.37
540.25	1090.69
540.60	1082.03
540.96	1071.97
541.31	1073.84
541.67	1073.14
542.02	1078.05
542.38	1080.63
542.73	1079.22
543.09	1079.69
543.44	1074.54
543.80	1073.37
544.15	1073.84
544.51	1079.69
544.86	1079.92
545.22	1082.73
545.57	1089.99
545.93	1088.12
546.28	1081.56
546.64	1076.41
546.99	1069.16
547.35	1060.73
547.70	1057.45
548.05	1073.60
548.41	1077.82
548.76	1084.60
549.12	1086.01
549.47	1086.01
549.83	1069.62
550.18	1064.94
550.53	1066.82
550.89	1064.01
551.24	1063.54
551.60	1071.26
551.95	1069.62
552.30	1077.35
552.66	1078.05
553.01	1084.37
553.37	1083.43
553.72	1091.63
554.07	1081.33
554.43	1075.94
554.78	1074.31
555.13	1077.58
555.49	1068.69
555.84	1063.07
556.19	1064.01
556.55	1058.16
556.90	1054.65
557.26	1062.84
557.61	1074.07
557.96	1075.24
558.32	1073.37
558.67	1066.58
559.02	1075.94
559.37	1073.84
559.73	1078.52
560.08	1089.75
560.43	1100.99
560.79	1087.41
561.14	1082.50
561.49	1083.20
561.85	1082.73
562.20	1071.97
562.55	1079.92
562.90	1082.50
563.26	1076.41
563.61	1078.75
563.96	1080.63
564.32	1069.16
564.67	1067.75
565.02	1077.35
565.37	1074.54
565.73	1085.31
566.08	1092.33
566.43	1097.95
566.78	1098.18
567.14	1102.16
567.49	1097.95
567.84	1105.90
568.19	1113.16
568.54	1103.56
568.90	1086.94
569.25	1083.67
569.60	1081.56
569.95	1074.54
570.31	1067.05
570.66	1077.11
571.01	1084.14
571.36	1084.84
571.71	1082.50
572.06	1097.01
572.42	1088.35
572.77	1077.11
573.12	1073.84
573.47	1070.09
573.82	1057.92
574.18	1067.52
574.53	1074.77
574.88	1072.67
575.23	1075.01
575.58	1079.92
575.93	1082.50
576.28	1083.67
576.64	1082.50
576.99	1085.77
577.34	1089.75
577.69	1084.14
578.04	1081.33
578.39	1078.99
578.74	1077.35
579.09	1071.26
579.44	1078.75
579.80	1084.84
580.15	1086.01
580.50	1084.37
580.85	1090.69
581.20	1084.84
581.55	1073.60
581.90	1068.22
582.25	1063.77
582.60	1071.50
582.95	1074.54
583.30	1082.73
583.65	1101.69
584.00	1111.99
584.35	1110.58
584.71	1109.65
585.06	1105.90
585.41	1090.92
585.76	1077.82
586.11	1066.35
586.46	1065.88
586.81	1063.07
587.16	1065.18
587.51	1071.73
587.86	1076.41
588.21	1076.18
588.56	1079.22
588.91	1074.31
589.26	1075.94
589.61	1071.26
589.96	1075.24
590.31	1069.16
590.66	1080.16
591.01	1076.18
591.36	1074.31
591.71	1064.01
592.06	1065.18
592.41	1057.45
592.76	1053.71
593.10	1051.84
593.45	1055.58
593.80	1061.20
594.15	1063.77
594.50	1070.56
594.85	1078.99
595.20	1082.73
595.55	1084.37
595.90	1086.71
596.25	1083.20
596.60	1080.39
596.95	1075.01
597.30	1066.82
597.64	1117.37
597.99	1130.71
598.34	1122.52
598.69	1114.10
599.04	1123.93
599.39	1070.56
599.74	1061.67
600.09	1074.77
600.44	1089.52
600.78	1083.67
601.13	1078.28
601.48	1077.82
601.83	1077.82
602.18	1071.73
602.53	1070.33
602.88	1085.31
603.22	1092.56
603.57	1096.31
603.92	1093.03
604.27	1095.14
604.62	1086.94
604.97	1087.65
605.31	1080.63
605.66	1064.24
606.01	1065.88
606.36	1067.05
606.71	1060.50
607.05	1065.65
607.40	1090.92
607.75	1103.33
608.10	1108.01
608.44	1102.86
608.79	1092.80
609.14	1100.05
609.49	1079.92
609.84	1075.01
610.18	1085.31
610.53	1089.29
610.88	1098.41
611.23	1109.18
611.57	1109.18
611.92	1090.69
612.27	1096.07
612.62	1079.22
612.96	1070.56
613.31	1077.11
613.66	1085.77
614.00	1082.50
614.35	1084.14
614.70	1089.29
615.05	1082.26
615.39	1092.56
615.74	1082.03
616.09	1073.14
616.43	1072.20
616.78	1069.39
617.13	1064.48
617.47	1069.62
617.82	1075.94
618.17	1070.56
618.51	1071.97
618.86	1078.99
619.21	1082.97
619.55	1087.65
619.90	1092.80
620.25	1104.73
620.59	1095.14
620.94	1094.20
621.29	1086.71
621.63	1094.67
621.98	1085.77
622.32	1086.94
622.67	1092.80
623.02	1100.99
623.36	1095.60
623.71	1091.63
624.05	1092.33
624.40	1083.67
624.75	1079.46
625.09	1087.41
625.44	1086.71
625.78	1091.86
626.13	1107.78
626.48	1104.73
626.82	1096.07
627.17	1104.97
627.51	1099.58
627.86	1094.43
628.20	1101.22
628.55	1090.46
628.89	1085.31
629.24	1083.67
629.58	1094.67
629.93	1099.58
630.28	1110.12
630.62	1113.16
630.97	1112.69
631.31	1101.69
631.66	1096.54
632.00	1094.67
632.35	1083.43
632.69	1088.35
633.04	1085.31
633.38	1088.35
633.73	1090.69
634.07	1093.50
634.42	1086.24
634.76	1093.03
635.11	1090.69
635.45	1089.99
635.79	1095.84
636.14	1103.80
636.48	1095.60
636.83	1084.14
637.17	1086.01
637.52	1082.97
637.86	1068.92
638.21	1067.28
638.55	1071.03
638.89	1071.97
639.24	1077.11
639.58	1093.03
639.93	1091.86
640.27	1096.78
640.61	1097.24
640.96	1089.05
641.30	1080.16
641.65	1084.37
641.99	1070.80
642.33	1077.82
642.68	1074.54
643.02	1081.80
643.37	1081.56
643.71	1090.22
644.05	1080.16
644.40	1092.56
644.74	1086.48
645.08	1093.26
645.43	1097.01
645.77	1095.60
646.11	1092.56
646.46	1084.14
646.80	1083.20
647.14	1083.90
647.49	1082.73
647.83	1078.28
648.17	1084.37
648.52	1078.28
648.86	1082.03
649.20	1085.07
649.55	1089.05
649.89	1095.60
650.23	1101.22
650.57	1100.99
650.92	1096.54
651.26	1095.37
651.60	1086.24
651.95	1080.16
652.29	1072.43
652.63	1078.52
652.97	1086.71
653.32	1098.18
653.66	1101.69
654.00	1106.14
654.34	1105.90
654.69	1095.60
655.03	1087.41
655.37	1080.86
655.71	1080.63
656.05	1084.84
656.40	1095.60
656.74	1103.56
657.08	1107.07
657.42	1109.65
657.76	1094.20
658.11	1085.07
658.45	1079.22
658.79	1079.69
659.13	1076.88
659.47	1087.18
659.82	1086.48
660.16	1081.09
660.50	1070.33
660.84	1068.92
661.18	1060.03
661.52	1060.03
661.87	1064.48
662.21	1075.71
662.55	1070.80
662.89	1074.77
663.23	1073.60
663.57	1064.01
663.91	1062.84
664.25	1065.88
664.60	1076.65
664.94	1077.58
665.28	1089.99
665.62	1090.46
665.96	1095.60
666.30	1081.09
666.64	1080.63
666.98	1077.11
667.32	1074.31
667.66	1076.18
668.01	1085.07
668.35	1092.09
668.69	1092.09
669.03	1094.43
669.37	1085.54
669.71	1082.97
670.05	1072.43
670.39	1066.11
670.73	1059.33
671.07	1060.96
671.41	1064.24
671.75	1069.39
672.09	1077.35
672.43	1083.90
672.77	1081.80
673.11	1080.63
673.45	1077.82
673.79	1077.82
674.13	1079.22
674.47	1080.86
674.81	1069.16
675.15	1074.07
675.49	1075.71
675.83	1079.46
676.17	1075.01
676.51	1084.84
676.85	1077.35
677.19	1078.99
677.53	1077.11
677.87	1084.60
678.21	1082.03
678.55	1089.52
678.89	1083.43
679.23	1073.37
679.57	1066.35
679.90	1063.07
680.24	1051.37
680.58	1055.82
680.92	1052.07
681.26	1057.45
681.60	1060.50
681.94	1068.45
682.28	1053.01
682.62	1058.16
682.96	1057.69
683.29	1060.50
683.63	1064.94
683.97	1073.84
684.31	1078.28
684.65	1074.77
684.99	1073.84
685.33	1075.01
685.67	1083.43
686.00	1073.14
686.34	1085.31
686.68	1085.07
687.02	1069.39
687.36	1066.82
687.70	1079.46
688.03	1075.24
688.37	1075.48
688.71	1075.71
689.05	1063.77
689.39	1062.14
689.72	1058.62
690.06	1064.01
690.40	1077.35
690.74	1079.92
691.08	1072.43
691.41	1066.11
691.75	1063.54
692.09	1062.60
692.43	1089.29
692.76	1094.20
693.10	1104.03
693.44	1100.99
693.78	1103.56
694.11	1078.05
694.45	1078.05
694.79	1068.92
695.13	1061.20
695.46	1067.05
695.80	1067.28
696.14	1066.82
696.48	1069.62
696.81	1081.80
697.15	1070.33
697.49	1068.22
697.82	1076.41
698.16	1088.58
698.50	1081.33
698.83	1078.28
699.17	1094.43
699.51	1082.97
699.84	1078.05
700.18	1086.71
700.52	1094.90
700.85	1082.73
701.19	1085.07
701.53	1077.82
701.86	1073.37
702.20	1067.99
702.54	1082.73
702.87	1077.82
703.21	1079.46
703.55	1080.63
703.88	1085.77
704.22	1081.33
704.55	1088.82
704.89	1086.71
705.23	1080.86
705.56	1089.99
705.90	1082.97
706.23	1083.67
706.57	1085.77
706.91	1086.94
707.24	1086.24
707.58	1092.09
707.91	1097.01
708.25	1106.37
708.58	1103.33
708.92	1088.58
709.26	1086.48
709.59	1084.84
709.93	1079.22
710.26	1082.97
710.60	1092.80
710.93	1088.12
711.27	1083.67
711.60	1082.97
711.94	1089.52
712.27	1082.73
712.61	1089.52
712.94	1084.14
713.28	1083.90
713.61	1083.90
713.95	1086.48
714.28	1069.39
714.62	1085.31
714.95	1089.29
715.29	1083.20
715.62	1083.67
715.96	1104.73
716.29	1097.01
716.63	1090.92
716.96	1087.88
717.29	1079.69
717.63	1072.90
717.96	1065.88
718.30	1063.31
718.63	1069.39
718.97	1078.52
719.30	1077.82
719.63	1077.82
719.97	1083.20
720.30	1076.65
720.64	1070.56
720.97	1077.35
721.30	1086.94
721.64	1081.80
721.97	1089.29
722.31	1086.24
722.64	1074.07
722.97	1076.65
723.31	1078.28
723.64	1065.18
723.97	1077.82
724.31	1088.12
724.64	1069.86
724.98	1073.60
725.31	1086.24
725.64	1074.54
725.98	1064.24
726.31	1067.05
726.64	1058.39
726.97	1054.18
727.31	1060.96
727.64	1071.73
727.97	1082.97
728.31	1087.41
728.64	1086.48
728.97	1089.29
729.31	1082.73
729.64	1067.75
729.97	1068.92
730.30	1076.41
730.64	1069.16
730.97	1075.01
731.30	1087.88
731.63	1097.01
731.97	1093.26
732.30	1098.41
732.63	1085.31
732.96	1086.01
733.30	1074.77
733.63	1081.33
733.96	1079.22
734.29	1087.65
734.63	1089.75
734.96	1087.18
735.29	1074.54
735.62	1079.69
735.95	1078.05
736.29	1064.94
736.62	1067.28
736.95	1073.14
737.28	1055.11
737.61	1051.60
737.94	1064.71
738.28	1071.26
738.61	1073.84
738.94	1084.60
739.27	1093.97
739.60	1091.16
739.93	1089.52
740.27	1083.20
740.60	1085.31
740.93	1078.75
741.26	1078.28
741.59	1080.63
741.92	1083.20
742.25	1085.07
742.58	1089.05
742.91	1086.24
743.25	1078.28
743.58	1081.56
743.91	1068.22
744.24	1068.45
744.57	1071.97
744.90	1086.94
745.23	1086.71
745.56	1108.01
745.89	1095.37
746.22	1088.12
746.55	1075.71
746.88	1072.67
747.21	1061.20
747.54	1079.69
747.87	1085.31
748.20	1078.05
748.53	1080.39
748.87	1089.52
749.20	1083.67
749.53	1082.50
749.86	1098.88
750.19	1099.58
750.52	1081.56
750.85	1074.77
751.18	1074.54
751.51	1063.54
751.84	1060.73
752.16	1076.41
752.49	1087.88
752.82	1088.82
753.15	1095.60
753.48	1093.50
753.81	1080.86
754.14	1078.05
754.47	1075.01
754.80	1069.16
755.13	1071.73
755.46	1078.75
755.79	1079.22
756.12	1076.88
756.45	1073.14
756.78	1078.52
757.11	1077.58
757.43	1065.41
757.76	1062.60
758.09	1072.67
758.42	1061.20
758.75	1064.48
759.08	1063.77
759.41	1071.73
759.74	1069.62
760.07	1076.65
760.39	1068.45
760.72	1078.75
761.05	1080.16
761.38	1073.37
761.71	1073.60
762.04	1089.05
762.36	1085.54
762.69	1087.18
763.02	1083.20
763.35	1083.20
763.68	1077.58
764.01	1085.77
764.33	1080.86
764.66	1086.24
764.99	1083.43
765.32	1081.56
765.65	1074.31
765.97	1072.20
766.30	1076.18
766.63	1078.28
766.96	1067.99
767.28	1071.50
767.61	1072.90
767.94	1084.60
768.27	1080.86
768.59	1081.09
768.92	1077.58
769.25	1075.71
769.58	1056.05
769.90	1052.77
770.23	1057.45
770.56	1058.39
770.89	1058.16
771.21	1061.90
771.54	1071.97
771.87	1070.56
772.19	1068.22
772.52	1070.09
772.85	1076.41
773.17	1069.16
773.50	1079.69
773.83	1089.29
774.15	1089.29
774.48	1083.67
774.81	1092.80
775.13	1078.05
775.46	1067.75
775.79	1076.88
776.11	1077.35
776.44	1062.37
776.77	1073.37
777.09	1078.05
777.42	1061.43
777.74	1075.94
778.07	1089.75
778.40	1083.67
778.72	1083.43
779.05	1091.86
779.37	1075.01
779.70	1063.31
780.03	1072.20
780.35	1068.22
780.68	1065.88
781.00	1080.39
781.33	1089.29
781.65	1076.18
781.98	1076.18
782.31	1075.01
782.63	1067.75
782.96	1070.56
783.28	1080.16
783.61	1082.50
783.93	1094.90
784.26	1089.75
784.58	1091.16
784.91	1087.88
785.23	1088.12
785.56	1094.43
785.88	1099.12
786.21	1087.65
786.53	1085.31
786.86	1080.63
787.18	1072.20
787.51	1075.48
787.83	1081.33
788.16	1088.82
788.48	1094.90
788.81	1091.39
789.13	1086.24
789.46	1093.26
789.78	1077.35
790.10	1069.16
790.43	1067.05
790.75	1070.80
791.08	1069.39
791.40	1090.92
791.73	1101.46
792.05	1099.12
792.37	1094.20
792.70	1091.39
793.02	1088.12
793.35	1087.18
793.67	1093.97
793.99	1085.31
794.32	1083.67
794.64	1077.35
794.96	1070.80
795.29	1060.03
795.61	1067.28
795.93	1068.92
796.26	1071.97
796.58	1075.94
796.91	1084.84
797.23	1077.58
797.55	1075.48
797.87	1077.82
798.20	1073.60
798.52	1077.58
798.84	1090.46
799.17	1087.18
799.49	1077.82
799.81	1079.92
800.14	1070.80
800.46	1072.20
800.78	1077.35
801.10	1082.50
801.43	1088.35
801.75	1092.33
802.07	1088.35
802.40	1085.31
802.72	1088.82
803.04	1081.80
803.36	1086.48
803.69	1089.75
804.01	1085.07
804.33	1085.07
804.65	1089.52
804.97	1082.03
805.30	1077.35
805.62	1089.99
805.94	1081.80
806.26	1078.75
806.58	1076.65
806.91	1072.20
807.23	1068.22
807.55	1067.99
807.87	1075.94
808.19	1080.86
808.52	1083.90
808.84	1077.82
809.16	1079.69
809.48	1071.26
809.80	1066.35
810.12	1073.84
810.44	1077.35
810.77	1074.77
811.09	1071.50
811.41	1070.33
811.73	1056.75
812.05	1056.52
812.37	1067.75
812.69	1069.39
813.01	1080.86
813.33	1088.82
813.66	1094.90
813.98	1093.03
814.30	1093.97
814.62	1086.94
814.94	1091.39
815.26	1085.54
815.58	1089.75
815.90	1094.90
816.22	1100.52
816.54	1092.09
816.86	1083.20
817.18	1082.26
817.50	1079.69
817.82	1073.84
818.14	1078.75
818.46	1084.37
818.78	1097.24
819.10	1101.69
819.42	1105.90
819.74	1102.16
820.06	1100.29
820.38	1082.26
820.70	1072.67
821.02	1066.58
821.34	1062.14
821.66	1065.65
821.98	1063.07
822.30	1063.07
822.62	1067.75
822.94	1079.92
823.26	1078.75
823.58	1081.80
823.90	1083.20
824.22	1082.26
824.54	1080.63
824.86	1080.86
825.18	1072.90
825.50	1075.94
825.81	1080.39
826.13	1074.77
826.45	1077.35
826.77	1086.48
827.09	1082.26
827.41	1082.73
827.73	1085.07
828.05	1097.48
828.36	1094.20
828.68	1098.41
829.00	1096.31
829.32	1102.63
829.64	1088.82
829.96	1082.50
830.28	1085.54
830.59	1086.24
830.91	1083.20
831.23	1087.18
831.55	1094.20
831.87	1091.16
832.19	1082.03
832.50	1071.97
832.82	1071.97
833.14	1071.50
833.46	1075.24
833.78	1079.22
834.09	1085.07
834.41	1085.31
834.73	1088.58
835.05	1087.18
835.36	1090.69
835.68	1087.88
836.00	1084.84
836.32	1081.80
836.63	1076.88
836.95	1073.14
837.27	1070.80
837.59	1075.71
837.90	1074.07
838.22	1080.39
838.54	1078.28
838.85	1090.22
839.17	1091.86
839.49	1093.73
839.80	1090.22
840.12	1097.48
840.44	1088.35
840.76	1087.18
841.07	1082.26
841.39	1081.33
841.71	1084.37
842.02	1084.84
842.34	1080.39
842.65	1076.18
842.97	1080.86
843.29	1073.14
843.60	1086.01
843.92	1092.09
844.24	1107.07
844.55	1101.22
844.87	1098.88
845.18	1084.60
845.50	1070.09
845.82	1064.48
846.13	1068.22
846.45	1072.43
846.76	1079.22
847.08	1086.71
847.40	1087.88
847.71	1087.18
848.03	1075.48
848.34	1070.09
848.66	1068.92
848.97	1062.37
849.29	1062.37
849.60	1069.86
849.92	1078.05
850.24	1085.77
850.55	1097.48
850.87	1099.82
851.18	1098.18
851.50	1093.03
851.81	1088.58
852.13	1063.77
852.44	1055.58
852.76	1058.86
853.07	1059.56
853.39	1057.45
853.70	1066.82
854.01	1072.67
854.33	1074.31
854.64	1073.37
854.96	1069.62
855.27	1065.65
855.59	1059.33
855.90	1059.33
856.22	1060.96
856.53	1067.52
856.84	1082.73
857.16	1081.80
857.47	1079.22
857.79	1077.82
858.10	1066.58
858.41	1068.69
858.73	1076.65
859.04	1080.86
859.36	1071.26
859.67	1079.46
859.98	1075.71
860.30	1077.11
860.61	1081.80
860.92	1093.03
861.24	1097.71
861.55	1097.01
861.87	1083.67
862.18	1070.09
862.49	1064.71
862.81	1054.65
863.12	1056.28
863.43	1064.71
863.74	1068.22
864.06	1068.22
864.37	1074.77
864.68	1070.33
865.00	1068.69
865.31	1069.86
865.62	1072.90
865.94	1063.77
866.25	1061.20
866.56	1069.16
866.87	1075.24
867.19	1081.33
867.50	1086.24
867.81	1086.01
868.12	1076.88
868.44	1078.52
868.75	1067.05
869.06	1066.35
869.37	1071.97
869.68	1077.11
870.00	1064.48
870.31	1062.60
870.62	1056.28
870.93	1062.14
871.24	1070.56
871.56	1080.86
871.87	1080.16
872.18	1086.71
872.49	1066.35
872.80	1055.11
873.12	1053.94
873.43	1064.48
873.74	1074.77
874.05	1084.84
874.36	1095.60
874.67	1108.95
874.98	1106.14
875.29	1103.09
875.61	1112.22
875.92	1102.39
876.23	1097.48
876.54	1099.58
876.85	1107.54
877.16	1104.26
877.47	1114.80
877.78	1104.97
878.09	1108.71
878.40	1093.03
878.72	1090.92
879.03	1082.03
879.34	1086.01
879.65	1078.52
879.96	1085.31
880.27	1083.67
880.58	1083.90
880.89	1082.03
881.20	1086.24
881.51	1078.99
881.82	1075.01
882.13	1071.03
882.44	1061.90
882.75	1058.86
883.06	1058.86
883.37	1061.43
883.68	1067.52
883.99	1075.94
884.30	1081.80
884.61	1077.35
884.92	1070.09
885.23	1071.97
885.54	1063.07
885.85	1065.41
886.16	1076.18
886.47	1074.07
886.78	1065.18
887.08	1070.09
887.39	1070.56
887.70	1061.20
888.01	1078.99
888.32	1079.46
888.63	1082.73
888.94	1067.75
889.25	1073.60
889.56	1064.01
889.87	1057.69
890.17	1060.03
890.48	1066.35
890.79	1068.45
891.10	1076.88
891.41	1087.88
891.72	1084.14
892.03	1091.63
892.34	1085.77
892.64	1085.31
892.95	1082.50
893.26	1079.69
893.57	1073.37
893.88	1086.01
894.18	1075.48
894.49	1070.09
894.80	1081.33
895.11	1072.43
895.42	1062.84
895.72	1065.88
896.03	1076.18
896.34	1070.09
896.65	1081.33
896.96	1078.05
897.26	1079.22
897.57	1072.20
897.88	1072.43
898.19	1070.56
898.49	1078.05
898.80	1084.37
899.11	1086.01
899.41	1083.43
899.72	1084.14
900.03	1081.80
900.34	1070.56
900.64	1065.65
900.95	1070.33
901.26	1074.54
901.56	1079.92
901.87	1087.65
902.18	1095.84
902.48	1093.26
902.79	1089.52
903.10	1094.67
903.40	1099.82
903.71	1101.22
904.02	1104.03
904.32	1103.09
904.63	1097.95
904.94	1093.50
905.24	1094.67
905.55	1100.52
905.85	1093.97
906.16	1088.58
906.47	1080.16
906.77	1076.18
907.08	1074.31
907.38	1080.39
907.69	1075.71
908.00	1077.82
908.30	1078.75
908.61	1074.07
908.91	1082.73
909.22	1090.92
909.52	1090.92
909.83	1091.39
910.14	1091.16
910.44	1084.14
910.75	1084.37
911.05	1090.46
911.36	1089.29
911.66	1088.35
911.97	1077.11
912.27	1068.69
912.58	1065.65
912.88	1066.82
913.19	1063.77
913.49	1071.03
913.80	1068.92
914.10	1076.88
914.41	1075.48
914.71	1074.07
915.01	1076.18
915.32	1081.33
915.62	1070.09
915.93	1074.07
916.23	1078.75
916.54	1081.56
916.84	1088.12
917.15	1088.82
917.45	1092.56
917.75	1092.56
918.06	1093.97
918.36	1088.82
918.67	1082.97
918.97	1074.77
919.27	1075.48
919.58	1069.16
919.88	1069.62
920.18	1079.69
920.49	1078.28
920.79	1074.31
921.10	1077.11
921.40	1083.20
921.70	1080.63
922.01	1089.99
922.31	1085.31
922.61	1085.77
922.92	1079.69
923.22	1081.33
923.52	1077.58
923.82	1077.82
924.13	1077.35
924.43	1078.99
924.73	1081.80
925.04	1076.88
925.34	1093.03
925.64	1094.20
925.94	1090.22
926.25	1086.48
926.55	1088.12
926.85	1072.67
927.15	1066.58
927.46	1064.01
927.76	1076.88
928.06	1085.31
928.36	1096.31
928.67	1102.86
928.97	1103.33
929.27	1086.48
929.57	1084.37
929.87	1075.48
930.18	1074.07
930.48	1085.54
930.78	1091.86
931.08	1079.22
931.38	1089.29
931.69	1099.12
931.99	1094.67
932.29	1096.78
932.59	1099.35
932.89	1091.39
933.19	1082.26
933.49	1086.48
933.80	1084.37
934.10	1097.71
934.40	1100.75
934.70	1091.86
935.00	1091.39
935.30	1081.80
935.60	1075.71
935.90	1062.60
936.20	1067.75
936.50	1066.82
936.81	1072.20
937.11	1071.26
937.41	1078.99
937.71	1077.82
938.01	1080.16
938.31	1075.94
938.61	1085.07
938.91	1087.88
939.21	1097.48
939.51	1098.41
939.81	1104.97
940.11	1089.75
940.41	1087.18
940.71	1081.56
941.01	1075.48
941.31	1075.94
941.61	1077.58
941.91	1072.67
942.21	1071.97
942.51	1072.67
942.81	1066.35
943.11	1066.58
943.41	1068.92
943.71	1064.94
944.01	1067.99
944.31	1085.31
944.61	1085.54
944.90	1096.78
945.20	1094.67
945.50	1080.63
945.80	1073.60
946.10	1077.58
946.40	1072.20
946.70	1081.56
947.00	1098.88
947.30	1095.84
947.60	1089.99
947.89	1077.35
948.19	1072.43
948.49	1064.94
948.79	1059.33
949.09	1064.01
949.39	1069.16
949.69	1068.45
949.98	1067.05
950.28	1076.88
950.58	1077.35
950.88	1091.39
951.18	1098.18
951.48	1094.67
951.77	1086.48
952.07	1085.31
952.37	1084.37
952.67	1080.16
952.97	1083.90
953.26	1086.71
953.56	1088.35
953.86	1080.16
954.16	1083.67
954.45	1070.09
954.75	1077.58
955.05	1077.11
955.35	1071.97
955.64	1061.67
955.94	1075.94
956.24	1071.26
956.54	1063.31
956.83	1071.26
957.13	1082.03
957.43	1085.77
957.72	1083.67
958.02	1093.03
958.32	1091.16
958.61	1094.67
958.91	1086.71
959.21	1091.63
959.50	1087.88
959.80	1086.71
960.10	1079.92
960.39	1072.43
960.69	1065.88
960.99	1071.26
961.28	1071.73
961.58	1068.69
961.87	1074.54
962.17	1086.24
962.47	1068.22
962.76	1063.54
963.06	1069.86
963.36	1079.22
963.65	1071.97
963.95	1083.90
964.24	1087.88
964.54	1087.88
964.83	1085.07
965.13	1082.26
965.42	1081.56
965.72	1084.37
966.02	1084.60
966.31	1084.84
966.61	1076.88
966.90	1074.54
967.20	1072.43
967.49	1060.03
967.79	1053.71
968.08	1058.16
968.38	1061.67
968.67	1061.43
968.97	1073.37
969.26	1078.75
969.56	1079.22
969.85	1085.31
970.15	1085.77
970.44	1076.18
970.74	1068.22
971.03	1072.43
971.32	1070.56
971.62	1076.65
971.91	1077.82
972.21	1092.09
972.50	1081.56
972.80	1074.31
973.09	1059.79
973.38	1063.77
973.68	1053.24
973.97	1056.99
974.27	1068.45
974.56	1078.52
974.85	1084.60
975.15	1084.37
975.44	1084.37
975.73	1070.80
976.03	1055.58
976.32	1045.05
976.61	1053.94
976.91	1062.84
977.20	1073.14
977.49	1086.71
977.79	1090.22
978.08	1091.39
978.37	1092.80
978.67	1086.94
978.96	1089.29
979.25	1093.97
979.55	1083.43
979.84	1081.56
980.13	1080.39
980.42	1080.86
980.72	1074.31
981.01	1076.88
981.30	1073.37
981.59	1073.84
981.89	1073.37
982.18	1072.43
982.47	1081.56
982.76	1064.48
983.06	1056.28
983.35	1059.56
983.64	1061.67
983.93	1051.84
984.22	1069.86
984.52	1082.97
984.81	1075.94
985.10	1079.69
985.39	1082.50
985.68	1082.50
985.97	1081.33
986.27	1076.18
986.56	1076.18
986.85	1074.54
987.14	1085.77
987.43	1086.24
987.72	1091.63
988.01	1099.35
988.31	1097.71
988.60	1091.86
988.89	1087.18
989.18	1093.26
989.47	1077.58
989.76	1085.07
990.05	1083.20
990.34	1082.03
990.63	1080.16
990.92	1094.90
991.21	1098.65
991.51	1095.37
991.80	1104.73
992.09	1103.09
992.38	1101.69
992.67	1090.46
992.96	1100.75
993.25	1092.56
993.54	1097.48
993.83	1090.69
994.12	1094.43
994.41	1084.60
994.70	1091.63
994.99	1082.50
995.28	1092.09
995.57	1092.33
995.86	1092.09
996.15	1085.31
996.44	1081.56
996.73	1070.80
997.02	1063.54
997.31	1063.07
997.59	1062.60
997.88	1063.77
998.17	1066.58
998.46	1086.01
998.75	1077.82
999.04	1080.16
999.33	1080.86
999.62	1077.82
999.91	1067.05
1000.20	1083.20
1000.49	1077.35
1000.77	1089.05
1001.06	1082.97
1001.35	1078.52
1001.64	1063.54
1001.93	1068.69
1002.22	1066.58
1002.51	1075.94
1002.79	1079.22
1003.08	1075.48
1003.37	1083.67
1003.66	1078.28
1003.95	1071.03
1004.23	1078.28
1004.52	1096.78
1004.81	1089.99
1005.10	1093.03
1005.39	1090.22
1005.67	1084.84
1005.96	1072.67
1006.25	1071.03
1006.54	1072.67
1006.83	1081.56
1007.11	1085.77
1007.40	1084.60
1007.69	1082.97
1007.97	1071.97
1008.26	1068.69
1008.55	1058.39
1008.84	1065.18
1009.12	1071.73
1009.41	1086.01
1009.70	1090.92
1009.98	1098.65
1010.27	1092.56
1010.56	1086.94
1010.85	1081.56
1011.13	1083.20
1011.42	1080.39
1011.71	1079.22
1011.99	1092.09
1012.28	1082.03
1012.56	1083.67
1012.85	1084.37
1013.14	1088.35
1013.42	1069.16
1013.71	1075.01
1014.00	1071.26
1014.28	1074.31
1014.57	1077.58
1014.85	1088.58
1015.14	1089.52
1015.43	1085.07
1015.71	1083.43
1016.00	1072.43
1016.28	1070.56
1016.57	1072.43
1016.85	1073.14
1017.14	1064.94
1017.43	1070.09
1017.71	1067.28
1018.00	1072.90
1018.28	1072.90
1018.57	1075.24
1018.85	1078.28
1019.14	1075.48
1019.42	1073.60
1019.71	1076.88
1019.99	1072.43
1020.28	1082.73
1020.56	1095.14
1020.85	1094.90
1021.13	1094.43
1021.42	1094.67
1021.70	1093.50
1021.99	1083.90
1022.27	1080.39
1022.55	1068.45
1022.84	1077.82
>>>>>End Processed Spectral Data<<<<<
