SpectraSuite Data File
++++++++++++++++++++++++++++++++++++
Date: Mon Aug 26 10:24:37 PDT 2019
User: corrico
Dark Spectrum Present: No
Reference Spectrum Present: No
Number of Sampled Component Spectra: 1
Spectrometers: USB2+H06089
Integration Time (usec): 10000 (USB2+H06089)
Spectra Averaged: 2 (USB2+H06089)
Boxcar Smoothing: 2 (USB2+H06089)
Correct for Electrical Dark: No (USB2+H06089)
Strobe/Lamp Enabled: No (USB2+H06089)
Correct for Detector Non-linearity: No (USB2+H06089)
Correct for Stray Light: No (USB2+H06089)
Number of Pixels in Processed Spectrum: 2048
>>>>>Begin Processed Spectral Data<<<<<
339.70	1018.13
340.07	1018.13
340.45	983.96
340.82	971.79
341.19	957.28
341.57	934.81
341.94	934.58
342.31	934.11
342.69	922.64
343.06	918.66
343.43	913.04
343.81	910.47
344.18	902.28
344.55	908.60
344.93	904.15
345.30	912.11
345.67	915.38
346.04	932.24
346.42	946.04
346.79	954.70
347.16	972.96
347.54	983.26
347.91	991.45
348.28	996.13
348.65	1016.73
349.03	1030.30
349.40	1042.94
349.77	1047.39
350.14	1053.24
350.52	1042.24
350.89	1047.62
351.26	1049.26
351.63	1059.09
352.01	1056.28
352.38	1077.58
352.75	1074.31
353.12	1088.58
353.50	1092.56
353.87	1092.80
354.24	1089.75
354.61	1087.65
354.98	1084.84
355.36	1087.88
355.73	1099.12
356.10	1104.03
356.47	1111.29
356.84	1109.18
357.22	1107.07
357.59	1109.41
357.96	1105.44
358.33	1107.31
358.70	1105.44
359.08	1098.65
359.45	1101.69
359.82	1098.18
360.19	1094.90
360.56	1090.69
360.94	1080.39
361.31	1085.07
361.68	1084.84
362.05	1088.35
362.42	1097.71
362.79	1102.86
363.16	1087.18
363.54	1091.86
363.91	1078.28
364.28	1077.11
364.65	1090.46
365.02	1099.58
365.39	1103.09
365.76	1114.56
366.14	1114.80
366.51	1105.67
366.88	1104.03
367.25	1099.12
367.62	1092.33
367.99	1090.22
368.36	1088.12
368.73	1082.03
369.10	1082.26
369.48	1082.50
369.85	1087.18
370.22	1096.54
370.59	1097.01
370.96	1102.16
371.33	1097.01
371.70	1092.80
372.07	1088.82
372.44	1090.92
372.81	1079.22
373.18	1091.86
373.55	1102.39
373.93	1101.69
374.30	1100.75
374.67	1118.54
375.04	1123.22
375.41	1105.44
375.78	1097.01
376.15	1102.86
376.52	1093.50
376.89	1084.14
377.26	1100.99
377.63	1113.86
378.00	1113.63
378.37	1118.78
378.74	1121.58
379.11	1110.12
379.48	1113.86
379.85	1120.41
380.22	1125.80
380.59	1120.65
380.96	1120.41
381.33	1115.50
381.70	1113.39
382.07	1111.75
382.44	1123.22
382.81	1126.73
383.18	1120.18
383.55	1117.61
383.92	1116.90
384.29	1114.56
384.66	1113.63
385.03	1116.44
385.40	1104.97
385.77	1098.65
386.14	1094.20
386.51	1094.90
386.88	1100.29
387.25	1115.03
387.62	1118.31
387.99	1125.33
388.36	1124.86
388.73	1120.65
389.10	1121.12
389.46	1117.84
389.83	1118.07
390.20	1125.33
390.57	1130.95
390.94	1121.35
391.31	1117.14
391.68	1108.95
392.05	1099.58
392.42	1096.78
392.79	1104.97
393.16	1117.37
393.53	1119.24
393.89	1125.80
394.26	1123.46
394.63	1123.46
395.00	1122.29
395.37	1127.67
395.74	1130.95
396.11	1140.07
396.48	1141.48
396.84	1133.29
397.21	1136.10
397.58	1143.12
397.95	1135.16
398.32	1134.69
398.69	1144.29
399.06	1145.46
399.42	1140.54
399.79	1168.63
400.16	1174.95
400.53	1178.69
400.90	1182.91
401.27	1192.27
401.64	1185.95
402.00	1185.72
402.37	1182.91
402.74	1192.27
403.11	1194.61
403.48	1198.12
403.84	1220.59
404.21	1240.72
404.58	1250.78
404.95	1262.95
405.32	1278.63
405.68	1288.23
406.05	1307.66
406.42	1330.59
406.79	1357.28
407.16	1375.77
407.52	1398.70
407.89	1412.51
408.26	1440.83
408.63	1464.47
408.99	1500.28
409.36	1547.56
409.73	1602.33
410.10	1631.82
410.47	1675.12
410.83	1727.55
411.20	1780.91
411.57	1832.41
411.94	1900.28
412.30	1976.11
412.67	2037.20
413.04	2091.03
413.40	2171.08
413.77	2254.64
414.14	2331.88
414.51	2429.01
414.87	2557.04
415.24	2668.91
415.61	2779.15
415.97	2918.88
416.34	3061.65
416.71	3188.28
417.08	3349.77
417.44	3518.29
417.81	3705.07
418.18	3891.37
418.54	4108.34
418.91	4332.33
419.28	4584.88
419.64	4828.53
420.01	5095.35
420.38	5363.34
420.74	5630.16
421.11	5950.81
421.48	6271.00
421.84	6623.72
422.21	6963.09
422.58	7371.05
422.94	7752.09
423.31	8168.00
423.68	8608.49
424.04	9101.41
424.41	9588.71
424.77	10075.77
425.14	10581.56
425.51	11118.48
425.87	11713.91
426.24	12287.81
426.61	13006.83
426.97	13829.06
427.34	14578.49
427.70	15369.83
428.07	16232.32
428.44	17033.48
428.80	17838.39
429.17	18717.03
429.53	19614.86
429.90	20690.80
430.27	21635.91
430.63	22581.49
431.00	23654.62
431.36	24793.29
431.73	25691.59
432.09	26736.64
432.46	27827.10
432.83	28936.04
433.19	29909.24
433.56	31141.30
433.92	32420.40
434.29	33515.30
434.65	34580.48
435.02	35603.76
435.38	36530.15
435.75	37179.41
436.11	38274.78
436.48	39183.14
436.84	40131.29
437.21	41016.72
437.57	41946.38
437.94	42509.28
438.30	43109.39
438.67	43497.92
439.03	43667.84
439.40	43905.17
439.76	43856.26
440.13	43562.05
440.49	43471.47
440.86	43133.73
441.22	42783.82
441.59	42252.05
441.95	41781.61
442.32	40931.52
442.68	40325.32
443.05	39469.62
443.41	38708.48
443.78	37858.40
444.14	37118.09
444.51	36040.27
444.87	35231.85
445.24	34251.17
445.60	33239.59
445.96	32201.56
446.33	31454.93
446.69	30415.96
447.06	29637.50
447.42	28838.91
447.79	27937.10
448.15	27146.24
448.51	26358.18
448.88	25626.99
449.24	24863.74
449.61	24373.87
449.97	23713.84
450.33	23116.30
450.70	22420.46
451.06	21889.63
451.43	21193.78
451.79	20690.10
452.15	20260.15
452.52	19826.21
452.88	19375.19
453.24	18996.26
453.61	18511.06
453.97	17942.78
454.34	17389.24
454.70	16912.71
455.06	16372.75
455.43	15824.83
455.79	15248.82
456.15	14846.25
456.52	14311.21
456.88	13903.25
457.24	13438.65
457.61	13121.51
457.97	12674.00
458.33	12250.60
458.70	11798.17
459.06	11411.98
459.42	11044.52
459.79	10659.74
460.15	10346.81
460.51	10008.60
460.88	9624.28
461.24	9235.05
461.60	8946.70
461.96	8644.53
462.33	8401.59
462.69	8180.41
463.05	7949.16
463.42	7718.38
463.78	7496.74
464.14	7243.49
464.50	7038.46
464.87	6840.92
465.23	6636.82
465.59	6455.67
465.95	6305.87
466.32	6122.14
466.68	5961.34
467.04	5801.72
467.40	5666.44
467.77	5511.96
468.13	5396.81
468.49	5271.82
468.85	5170.71
469.22	5068.20
469.58	4939.93
469.94	4831.57
470.30	4739.82
470.66	4642.45
471.03	4534.79
471.39	4480.25
471.75	4391.55
472.11	4293.71
472.47	4195.64
472.84	4113.26
473.20	4032.51
473.56	3954.57
473.92	3852.29
474.28	3786.28
474.65	3703.66
475.01	3613.79
475.37	3543.34
475.73	3504.48
476.09	3437.31
476.45	3391.20
476.81	3318.88
477.18	3249.60
477.54	3183.13
477.90	3103.32
478.26	3022.57
478.62	2994.01
478.98	2963.12
479.34	2907.41
479.71	2883.54
480.07	2868.79
480.43	2825.73
480.79	2767.68
481.15	2736.09
481.51	2682.72
481.87	2622.57
482.23	2566.16
482.59	2524.50
482.96	2482.61
483.32	2456.16
483.68	2423.62
484.04	2402.56
484.40	2372.13
484.76	2357.86
485.12	2326.49
485.48	2299.34
485.84	2266.81
486.20	2229.36
486.56	2177.87
486.92	2151.65
487.28	2128.95
487.64	2104.61
488.00	2079.80
488.37	2052.88
488.73	2041.18
489.09	2017.07
489.45	1987.11
489.81	1966.75
490.17	1954.11
490.53	1924.39
490.89	1901.69
491.25	1877.58
491.61	1856.04
491.97	1823.98
492.33	1795.89
492.69	1783.96
493.05	1767.34
493.41	1757.74
493.77	1746.27
494.13	1729.42
494.49	1699.46
494.85	1690.33
495.21	1659.21
495.57	1651.72
495.93	1636.74
496.29	1609.59
496.64	1588.52
497.00	1586.18
497.36	1574.48
497.72	1556.46
498.08	1553.65
498.44	1540.07
498.80	1524.39
499.16	1496.77
499.52	1484.84
499.88	1469.86
500.24	1460.49
500.60	1436.62
500.96	1423.05
501.32	1412.05
501.68	1401.28
502.03	1387.24
502.39	1391.68
502.75	1386.53
503.11	1378.11
503.47	1381.38
503.83	1375.06
504.19	1368.75
504.55	1376.00
504.91	1368.28
505.26	1357.28
505.62	1347.21
505.98	1342.77
506.34	1325.45
506.70	1322.64
507.06	1308.59
507.42	1303.21
507.78	1288.70
508.13	1287.29
508.49	1275.59
508.85	1270.44
509.21	1269.74
509.57	1264.36
509.93	1264.36
510.28	1264.36
510.64	1258.74
511.00	1247.27
511.36	1253.82
511.72	1242.12
512.07	1249.38
512.43	1249.38
512.79	1251.02
513.15	1237.21
513.51	1229.25
513.86	1211.23
514.22	1211.46
514.58	1208.42
514.94	1204.91
515.30	1205.61
515.65	1213.10
516.01	1200.69
516.37	1201.63
516.73	1190.40
517.08	1189.69
517.44	1164.18
517.80	1182.67
518.16	1184.78
518.51	1192.50
518.87	1192.03
519.23	1191.10
519.59	1181.27
519.94	1170.97
520.30	1175.42
520.66	1172.37
521.01	1186.89
521.37	1177.29
521.73	1185.01
522.09	1179.63
522.44	1174.25
522.80	1164.88
523.16	1170.27
523.51	1157.86
523.87	1155.99
524.23	1158.10
524.58	1159.74
524.94	1144.05
525.30	1151.08
525.65	1157.39
526.01	1144.99
526.37	1153.65
526.72	1162.31
527.08	1155.29
527.44	1155.29
527.79	1169.33
528.15	1160.20
528.51	1155.52
528.86	1157.63
529.22	1153.18
529.58	1141.95
529.93	1141.01
530.29	1136.10
530.65	1129.31
531.00	1128.61
531.36	1130.48
531.71	1131.18
532.07	1137.03
532.43	1139.14
532.78	1140.31
533.14	1132.35
533.49	1140.54
533.85	1150.61
534.21	1157.39
534.56	1148.50
534.92	1158.33
535.27	1152.48
535.63	1141.48
535.98	1137.97
536.34	1141.25
536.69	1141.25
537.05	1126.50
537.41	1133.76
537.76	1130.24
538.12	1122.05
538.47	1114.56
538.83	1122.29
539.18	1120.18
539.54	1116.90
539.89	1119.48
540.25	1123.46
540.60	1133.52
540.96	1144.29
541.31	1148.73
541.67	1151.54
542.02	1158.57
542.38	1146.86
542.73	1132.12
543.09	1129.07
543.44	1124.39
543.80	1121.82
544.15	1128.14
544.51	1134.22
544.86	1128.14
545.22	1129.78
545.57	1123.46
545.93	1115.50
546.28	1113.16
546.64	1124.63
546.99	1132.12
547.35	1135.86
547.70	1153.18
548.05	1152.48
548.41	1150.14
548.76	1145.69
549.12	1139.61
549.47	1127.44
549.83	1122.52
550.18	1103.09
550.53	1089.52
550.89	1092.56
551.24	1097.71
551.60	1096.78
551.95	1114.09
552.30	1124.86
552.66	1123.22
553.01	1109.88
553.37	1114.33
553.72	1115.03
554.07	1116.44
554.43	1121.82
554.78	1133.52
555.13	1126.03
555.49	1117.14
555.84	1113.86
556.19	1109.65
556.55	1108.95
556.90	1112.69
557.26	1111.52
557.61	1108.48
557.96	1109.88
558.32	1102.63
558.67	1102.16
559.02	1104.73
559.37	1110.58
559.73	1113.63
560.08	1115.03
560.43	1110.35
560.79	1119.71
561.14	1116.67
561.49	1104.73
561.85	1107.54
562.20	1107.54
562.55	1099.12
562.90	1100.52
563.26	1107.78
563.61	1098.88
563.96	1104.97
564.32	1109.18
564.67	1110.82
565.02	1109.65
565.37	1110.82
565.73	1110.82
566.08	1105.44
566.43	1103.33
566.78	1104.50
567.14	1101.92
567.49	1104.03
567.84	1098.18
568.19	1094.20
568.54	1097.24
568.90	1119.01
569.25	1117.37
569.60	1120.41
569.95	1117.14
570.31	1115.97
570.66	1095.60
571.01	1096.07
571.36	1097.71
571.71	1099.58
572.06	1109.18
572.42	1116.90
572.77	1109.65
573.12	1105.90
573.47	1107.07
573.82	1093.26
574.18	1089.05
574.53	1088.82
574.88	1089.75
575.23	1095.84
575.58	1097.01
575.93	1089.52
576.28	1089.29
576.64	1080.63
576.99	1078.28
577.34	1075.24
577.69	1083.20
578.04	1088.12
578.39	1103.09
578.74	1104.73
579.09	1101.46
579.44	1106.61
579.80	1102.63
580.15	1100.05
580.50	1099.35
580.85	1114.10
581.20	1113.63
581.55	1108.48
581.90	1111.75
582.25	1109.41
582.60	1102.16
582.95	1097.24
583.30	1104.50
583.65	1097.24
584.00	1098.88
584.35	1098.18
584.71	1087.41
585.06	1089.99
585.41	1092.80
585.76	1092.33
586.11	1092.33
586.46	1104.97
586.81	1100.99
587.16	1104.73
587.51	1105.67
587.86	1106.84
588.21	1103.33
588.56	1107.78
588.91	1102.39
589.26	1094.43
589.61	1088.35
589.96	1089.29
590.31	1083.43
590.66	1082.73
591.01	1090.22
591.36	1102.86
591.71	1109.41
592.06	1111.05
592.41	1108.01
592.76	1098.41
593.10	1088.82
593.45	1082.03
593.80	1089.29
594.15	1089.99
594.50	1094.43
594.85	1090.69
595.20	1090.92
595.55	1086.94
595.90	1084.84
596.25	1088.58
596.60	1098.65
596.95	1101.69
597.30	1102.63
597.64	1153.65
597.99	1157.63
598.34	1150.61
598.69	1150.14
599.04	1154.35
599.39	1118.78
599.74	1118.31
600.09	1117.37
600.44	1116.90
600.78	1113.16
601.13	1111.29
601.48	1107.54
601.83	1108.24
602.18	1103.56
602.53	1107.54
602.88	1094.67
603.22	1088.12
603.57	1083.20
603.92	1082.73
604.27	1071.03
604.62	1074.31
604.97	1084.84
605.31	1097.95
605.66	1094.67
606.01	1099.58
606.36	1096.78
606.71	1089.75
607.05	1079.22
607.40	1086.01
607.75	1081.56
608.10	1089.52
608.44	1082.73
608.79	1079.46
609.14	1072.20
609.49	1079.92
609.84	1082.97
610.18	1101.46
610.53	1111.52
610.88	1119.48
611.23	1120.18
611.57	1117.14
611.92	1108.24
612.27	1107.31
612.62	1114.80
612.96	1115.03
613.31	1119.24
613.66	1112.22
614.00	1111.29
614.35	1101.46
614.70	1095.84
615.05	1086.24
615.39	1099.58
615.74	1094.20
616.09	1097.48
616.43	1102.63
616.78	1102.86
617.13	1098.18
617.47	1104.97
617.82	1108.01
618.17	1105.90
618.51	1111.75
618.86	1114.56
619.21	1112.22
619.55	1096.54
619.90	1100.99
620.25	1095.37
620.59	1084.37
620.94	1076.88
621.29	1089.05
621.63	1076.88
621.98	1087.41
622.32	1100.75
622.67	1109.88
623.02	1108.71
623.36	1116.20
623.71	1122.52
624.05	1118.54
624.40	1118.54
624.75	1110.12
625.09	1099.82
625.44	1089.99
625.78	1082.50
626.13	1082.97
626.48	1081.33
626.82	1087.41
627.17	1082.73
627.51	1089.05
627.86	1077.82
628.20	1090.69
628.55	1100.75
628.89	1095.14
629.24	1093.97
629.58	1113.16
629.93	1106.37
630.28	1091.86
630.62	1101.22
630.97	1097.24
631.31	1085.07
631.66	1085.77
632.00	1090.92
632.35	1086.24
632.69	1088.82
633.04	1090.92
633.38	1093.73
633.73	1088.82
634.07	1095.14
634.42	1091.63
634.76	1088.58
635.11	1081.56
635.45	1089.29
635.79	1088.82
636.14	1094.20
636.48	1096.31
636.83	1096.31
637.17	1097.24
637.52	1101.22
637.86	1092.09
638.21	1088.12
638.55	1095.84
638.89	1097.01
639.24	1089.29
639.58	1098.88
639.93	1100.05
640.27	1101.69
640.61	1104.97
640.96	1107.31
641.30	1105.44
641.65	1115.50
641.99	1110.35
642.33	1098.18
642.68	1095.37
643.02	1094.20
643.37	1086.48
643.71	1087.88
644.05	1090.69
644.40	1094.20
644.74	1085.31
645.08	1077.11
645.43	1075.94
645.77	1076.41
646.11	1067.75
646.46	1078.52
646.80	1086.71
647.14	1085.31
647.49	1083.90
647.83	1082.50
648.17	1071.50
648.52	1073.60
648.86	1078.52
649.20	1082.73
649.55	1085.54
649.89	1089.52
650.23	1090.69
650.57	1085.07
650.92	1080.86
651.26	1085.54
651.60	1082.97
651.95	1082.97
652.29	1100.52
652.63	1100.29
652.97	1104.26
653.32	1113.63
653.66	1112.22
654.00	1093.97
654.34	1093.26
654.69	1088.58
655.03	1082.97
655.37	1084.14
655.71	1097.01
656.05	1095.84
656.40	1097.01
656.74	1098.41
657.08	1099.12
657.42	1090.22
657.76	1093.97
658.11	1092.33
658.45	1093.50
658.79	1083.20
659.13	1081.09
659.47	1078.28
659.82	1070.80
660.16	1072.90
660.50	1071.50
660.84	1066.58
661.18	1071.73
661.52	1068.45
661.87	1066.58
662.21	1076.41
662.55	1087.18
662.89	1080.39
663.23	1088.58
663.57	1089.75
663.91	1086.24
664.25	1083.20
664.60	1085.77
664.94	1093.26
665.28	1094.90
665.62	1096.31
665.96	1108.01
666.30	1112.69
666.64	1098.65
666.98	1088.12
667.32	1094.20
667.66	1084.14
668.01	1082.97
668.35	1099.58
668.69	1108.24
669.03	1095.37
669.37	1097.24
669.71	1099.12
670.05	1089.29
670.39	1086.48
670.73	1095.37
671.07	1091.16
671.41	1085.77
671.75	1097.95
672.09	1103.80
672.43	1100.99
672.77	1092.80
673.11	1099.82
673.45	1082.50
673.79	1075.94
674.13	1079.92
674.47	1092.33
674.81	1084.84
675.15	1092.33
675.49	1085.54
675.83	1086.48
676.17	1088.35
676.51	1091.16
676.85	1090.69
677.19	1102.86
677.53	1097.01
677.87	1098.65
678.21	1098.88
678.55	1092.80
678.89	1088.82
679.23	1086.01
679.57	1087.65
679.90	1085.07
680.24	1093.73
680.58	1094.43
680.92	1102.16
681.26	1090.22
681.60	1084.84
681.94	1077.58
682.28	1067.05
682.62	1057.69
682.96	1056.52
683.29	1067.75
683.63	1062.14
683.97	1081.56
684.31	1088.12
684.65	1096.78
684.99	1097.24
685.33	1104.73
685.67	1086.94
686.00	1090.46
686.34	1078.75
686.68	1082.03
687.02	1074.77
687.36	1075.48
687.70	1071.26
688.03	1076.18
688.37	1075.01
688.71	1084.60
689.05	1092.09
689.39	1087.88
689.72	1097.71
690.06	1085.54
690.40	1081.56
690.74	1078.52
691.08	1085.07
691.41	1073.14
691.75	1072.90
692.09	1079.69
692.43	1086.01
692.76	1083.20
693.10	1081.56
693.44	1089.52
693.78	1088.35
694.11	1089.05
694.45	1085.77
694.79	1092.56
695.13	1092.09
695.46	1092.56
695.80	1087.65
696.14	1088.58
696.48	1096.31
696.81	1090.46
697.15	1087.65
697.49	1088.58
697.82	1088.35
698.16	1076.41
698.50	1077.58
698.83	1082.03
699.17	1083.43
699.51	1080.39
699.84	1086.01
700.18	1095.37
700.52	1097.01
700.85	1099.35
701.19	1106.61
701.53	1099.82
701.86	1093.73
702.20	1089.99
702.54	1081.80
702.87	1075.94
703.21	1081.80
703.55	1073.84
703.88	1065.88
704.22	1070.80
704.55	1076.41
704.89	1061.67
705.23	1078.99
705.56	1088.35
705.90	1100.75
706.23	1095.84
706.57	1105.44
706.91	1093.26
707.24	1079.22
707.58	1064.24
707.91	1071.03
708.25	1078.28
708.58	1082.97
708.92	1098.65
709.26	1110.12
709.59	1115.03
709.93	1116.20
710.26	1115.03
710.60	1111.29
710.93	1110.12
711.27	1101.92
711.60	1090.22
711.94	1101.22
712.27	1101.92
712.61	1099.82
712.94	1097.48
713.28	1104.73
713.61	1099.12
713.95	1099.35
714.28	1086.71
714.62	1082.73
714.95	1078.75
715.29	1067.52
715.62	1061.90
715.96	1071.73
716.29	1071.03
716.63	1063.54
716.96	1067.52
717.29	1068.69
717.63	1067.52
717.96	1084.84
718.30	1093.03
718.63	1091.63
718.97	1104.73
719.30	1108.95
719.63	1104.73
719.97	1116.67
720.30	1124.39
720.64	1125.80
720.97	1121.58
721.30	1110.82
721.64	1103.80
721.97	1099.12
722.31	1082.97
722.64	1080.39
722.97	1082.97
723.31	1085.31
723.64	1086.71
723.97	1098.18
724.31	1105.67
724.64	1102.16
724.98	1097.01
725.31	1102.63
725.64	1096.78
725.98	1090.69
726.31	1104.03
726.64	1098.18
726.97	1085.54
727.31	1074.77
727.64	1067.05
727.97	1062.14
728.31	1061.90
728.64	1077.82
728.97	1085.07
729.31	1094.67
729.64	1091.86
729.97	1093.73
730.30	1089.29
730.64	1096.31
730.97	1095.84
731.30	1105.90
731.63	1105.67
731.97	1095.14
732.30	1099.12
732.63	1090.92
732.96	1086.48
733.30	1095.14
733.63	1105.90
733.96	1100.52
734.29	1104.73
734.63	1106.14
734.96	1100.75
735.29	1094.90
735.62	1091.39
735.95	1090.22
736.29	1082.97
736.62	1089.75
736.95	1082.03
737.28	1080.16
737.61	1085.07
737.94	1085.54
738.28	1081.80
738.61	1086.94
738.94	1088.82
739.27	1083.43
739.60	1080.39
739.93	1081.09
740.27	1082.50
740.60	1079.22
740.93	1079.46
741.26	1074.54
741.59	1073.84
741.92	1074.31
742.25	1080.16
742.58	1086.71
742.91	1096.07
743.25	1088.82
743.58	1085.77
743.91	1089.05
744.24	1089.75
744.57	1085.54
744.90	1086.94
745.23	1088.58
745.56	1088.35
745.89	1088.35
746.22	1088.58
746.55	1091.86
746.88	1096.07
747.21	1092.33
747.54	1089.29
747.87	1086.94
748.20	1081.09
748.53	1073.84
748.87	1084.60
749.20	1086.71
749.53	1098.41
749.86	1108.24
750.19	1110.58
750.52	1094.67
750.85	1089.99
751.18	1081.09
751.51	1081.80
751.84	1084.84
752.16	1088.58
752.49	1083.90
752.82	1091.16
753.15	1090.22
753.48	1081.80
753.81	1082.26
754.14	1097.48
754.47	1088.35
754.80	1083.20
755.13	1090.92
755.46	1087.18
755.79	1079.46
756.12	1087.88
756.45	1085.07
756.78	1089.05
757.11	1087.88
757.43	1089.29
757.76	1079.22
758.09	1084.37
758.42	1079.46
758.75	1090.92
759.08	1078.99
759.41	1088.35
759.74	1090.69
760.07	1091.86
760.39	1082.03
760.72	1092.09
761.05	1082.03
761.38	1073.37
761.71	1071.26
762.04	1068.45
762.36	1068.69
762.69	1070.80
763.02	1073.60
763.35	1070.09
763.68	1074.77
764.01	1076.88
764.33	1078.05
764.66	1082.03
764.99	1092.56
765.32	1084.37
765.65	1090.22
765.97	1094.20
766.30	1091.63
766.63	1086.01
766.96	1101.69
767.28	1095.14
767.61	1087.18
767.94	1088.12
768.27	1087.18
768.59	1084.14
768.92	1082.97
769.25	1087.88
769.58	1083.43
769.90	1084.37
770.23	1086.48
770.56	1089.75
770.89	1092.80
771.21	1105.67
771.54	1103.09
771.87	1102.86
772.19	1090.69
772.52	1087.41
772.85	1078.05
773.17	1086.71
773.50	1074.54
773.83	1075.94
774.15	1074.07
774.48	1070.56
774.81	1058.16
775.13	1065.18
775.46	1064.94
775.79	1077.58
776.11	1079.69
776.44	1086.24
776.77	1093.50
777.09	1093.26
777.42	1081.56
777.74	1086.71
778.07	1086.24
778.40	1083.20
778.72	1090.22
779.05	1092.33
779.37	1100.05
779.70	1092.09
780.03	1089.29
780.35	1083.90
780.68	1091.16
781.00	1079.22
781.33	1085.77
781.65	1085.07
781.98	1087.88
782.31	1074.77
782.63	1075.24
782.96	1079.22
783.28	1074.54
783.61	1076.41
783.93	1078.05
784.26	1077.11
784.58	1078.52
784.91	1067.28
785.23	1072.90
785.56	1078.28
785.88	1071.97
786.21	1067.05
786.53	1089.52
786.86	1082.26
787.18	1075.24
787.51	1086.01
787.83	1093.97
788.16	1082.73
788.48	1086.01
788.81	1093.73
789.13	1084.84
789.46	1081.80
789.78	1082.50
790.10	1076.88
790.43	1070.33
790.75	1073.37
791.08	1067.52
791.40	1067.05
791.73	1076.18
792.05	1073.37
792.37	1074.07
792.70	1079.22
793.02	1079.22
793.35	1079.22
793.67	1080.63
793.99	1086.71
794.32	1079.22
794.64	1082.73
794.96	1071.50
795.29	1080.86
795.61	1080.16
795.93	1076.65
796.26	1077.35
796.58	1079.92
796.91	1073.60
797.23	1069.16
797.55	1062.14
797.87	1063.31
798.20	1068.45
798.52	1076.65
798.84	1072.43
799.17	1086.94
799.49	1079.92
799.81	1074.77
800.14	1072.67
800.46	1076.18
800.78	1077.35
801.10	1088.35
801.43	1088.82
801.75	1085.77
802.07	1087.88
802.40	1082.97
802.72	1073.60
803.04	1078.99
803.36	1070.80
803.69	1067.75
804.01	1069.39
804.33	1080.63
804.65	1081.33
804.97	1083.43
805.30	1084.14
805.62	1083.67
805.94	1079.46
806.26	1076.18
806.58	1082.26
806.91	1079.69
807.23	1082.73
807.55	1083.67
807.87	1087.41
808.19	1091.39
808.52	1099.12
808.84	1097.24
809.16	1092.56
809.48	1090.46
809.80	1093.73
810.12	1097.71
810.44	1093.97
810.77	1077.35
811.09	1080.86
811.41	1071.97
811.73	1066.35
812.05	1068.22
812.37	1081.09
812.69	1082.73
813.01	1086.48
813.33	1089.52
813.66	1086.71
813.98	1089.75
814.30	1081.33
814.62	1081.33
814.94	1079.69
815.26	1090.92
815.58	1092.09
815.90	1091.39
816.22	1090.69
816.54	1085.54
816.86	1077.11
817.18	1080.63
817.50	1081.33
817.82	1080.86
818.14	1083.43
818.46	1082.73
818.78	1077.58
819.10	1078.99
819.42	1072.90
819.74	1072.90
820.06	1080.39
820.38	1088.35
820.70	1089.99
821.02	1088.35
821.34	1086.48
821.66	1072.20
821.98	1063.77
822.30	1059.09
822.62	1063.31
822.94	1062.60
823.26	1075.24
823.58	1062.84
823.90	1067.28
824.22	1063.54
824.54	1058.62
824.86	1058.16
825.18	1075.24
825.50	1069.16
825.81	1076.65
826.13	1079.69
826.45	1070.33
826.77	1062.14
827.09	1071.26
827.41	1070.33
827.73	1078.28
828.05	1081.09
828.36	1088.12
828.68	1080.16
829.00	1085.54
829.32	1085.54
829.64	1089.29
829.96	1082.50
830.28	1092.80
830.59	1087.41
830.91	1093.03
831.23	1089.99
831.55	1092.80
831.87	1082.50
832.19	1085.54
832.50	1084.14
832.82	1086.01
833.14	1081.80
833.46	1076.41
833.78	1071.26
834.09	1057.92
834.41	1056.52
834.73	1063.07
835.05	1073.14
835.36	1073.37
835.68	1089.75
836.00	1094.20
836.32	1097.71
836.63	1097.01
836.95	1101.22
837.27	1094.90
837.59	1089.75
837.90	1089.05
838.22	1081.56
838.54	1082.73
838.85	1085.54
839.17	1088.12
839.49	1078.99
839.80	1088.82
840.12	1078.75
840.44	1073.14
840.76	1078.52
841.07	1079.22
841.39	1065.88
841.71	1051.37
842.02	1045.75
842.34	1040.13
842.65	1044.82
842.97	1055.35
843.29	1071.73
843.60	1073.84
843.92	1069.86
844.24	1069.16
844.55	1074.54
844.87	1070.33
845.18	1078.75
845.50	1082.03
845.82	1083.43
846.13	1077.11
846.45	1076.88
846.76	1070.09
847.08	1066.11
847.40	1062.84
847.71	1065.65
848.03	1076.88
848.34	1075.24
848.66	1076.88
848.97	1089.05
849.29	1089.99
849.60	1089.29
849.92	1089.05
850.24	1098.65
850.55	1091.63
850.87	1091.86
851.18	1086.48
851.50	1089.75
851.81	1084.37
852.13	1073.84
852.44	1065.41
852.76	1060.50
853.07	1054.41
853.39	1055.58
853.70	1074.77
854.01	1077.58
854.33	1080.16
854.64	1075.48
854.96	1076.41
855.27	1066.11
855.59	1064.01
855.90	1085.07
856.22	1095.14
856.53	1097.71
856.84	1098.18
857.16	1101.69
857.47	1093.50
857.79	1087.41
858.10	1077.58
858.41	1075.48
858.73	1077.11
859.04	1064.94
859.36	1074.54
859.67	1082.26
859.98	1078.99
860.30	1079.46
860.61	1073.84
860.92	1073.37
861.24	1069.16
861.55	1075.01
861.87	1070.33
862.18	1076.88
862.49	1068.69
862.81	1064.01
863.12	1058.39
863.43	1070.56
863.74	1074.07
864.06	1073.84
864.37	1078.99
864.68	1079.69
865.00	1079.69
865.31	1073.84
865.62	1082.50
865.94	1091.39
866.25	1093.03
866.56	1091.63
866.87	1099.35
867.19	1095.14
867.50	1085.54
867.81	1087.18
868.12	1080.16
868.44	1075.94
868.75	1078.99
869.06	1080.86
869.37	1078.28
869.68	1077.82
870.00	1076.65
870.31	1069.62
870.62	1058.86
870.93	1057.45
871.24	1058.62
871.56	1057.69
871.87	1062.60
872.18	1071.73
872.49	1074.07
872.80	1081.80
873.12	1091.39
873.43	1093.03
873.74	1093.73
874.05	1096.78
874.36	1094.20
874.67	1088.58
874.98	1084.14
875.29	1085.07
875.61	1073.14
875.92	1072.43
876.23	1063.77
876.54	1062.84
876.85	1065.41
877.16	1074.07
877.47	1069.16
877.78	1080.39
878.09	1081.56
878.40	1080.39
878.72	1090.69
879.03	1092.56
879.34	1104.50
879.65	1103.80
879.96	1097.71
880.27	1093.03
880.58	1087.88
880.89	1072.43
881.20	1070.80
881.51	1077.58
881.82	1071.73
882.13	1078.52
882.44	1080.16
882.75	1084.60
883.06	1084.84
883.37	1090.69
883.68	1091.39
883.99	1086.71
884.30	1089.05
884.61	1083.67
884.92	1073.84
885.23	1078.52
885.54	1082.03
885.85	1085.77
886.16	1094.20
886.47	1093.03
886.78	1078.75
887.08	1082.97
887.39	1076.88
887.70	1071.50
888.01	1070.33
888.32	1081.09
888.63	1082.73
888.94	1085.54
889.25	1093.26
889.56	1097.95
889.87	1102.16
890.17	1102.39
890.48	1096.31
890.79	1095.84
891.10	1092.56
891.41	1083.43
891.72	1078.99
892.03	1085.77
892.34	1086.71
892.64	1094.90
892.95	1096.78
893.26	1097.95
893.57	1099.12
893.88	1086.71
894.18	1082.50
894.49	1071.50
894.80	1059.09
895.11	1052.30
895.42	1055.35
895.72	1061.43
896.03	1071.26
896.34	1081.80
896.65	1089.75
896.96	1092.09
897.26	1091.86
897.57	1082.97
897.88	1072.43
898.19	1064.48
898.49	1070.33
898.80	1062.60
899.11	1074.07
899.41	1089.52
899.72	1093.73
900.03	1088.12
900.34	1088.82
900.64	1084.84
900.95	1085.31
901.26	1088.35
901.56	1087.88
901.87	1088.82
902.18	1077.11
902.48	1070.33
902.79	1066.58
903.10	1068.69
903.40	1073.84
903.71	1089.75
904.02	1084.14
904.32	1081.80
904.63	1083.90
904.94	1075.94
905.24	1075.01
905.55	1082.97
905.85	1085.77
906.16	1085.77
906.47	1092.56
906.77	1092.09
907.08	1088.35
907.38	1088.58
907.69	1089.99
908.00	1084.37
908.30	1081.56
908.61	1085.54
908.91	1088.58
909.22	1079.92
909.52	1078.75
909.83	1086.01
910.14	1077.11
910.44	1069.39
910.75	1072.20
911.05	1081.33
911.36	1073.60
911.66	1082.03
911.97	1085.31
912.27	1080.39
912.58	1074.07
912.88	1074.77
913.19	1076.18
913.49	1075.24
913.80	1086.24
914.10	1084.60
914.41	1081.09
914.71	1073.60
915.01	1077.11
915.32	1062.60
915.62	1058.62
915.93	1062.84
916.23	1070.09
916.54	1071.03
916.84	1073.84
917.15	1080.63
917.45	1078.28
917.75	1066.35
918.06	1054.41
918.36	1052.54
918.67	1051.60
918.97	1050.20
919.27	1056.28
919.58	1065.88
919.88	1072.67
920.18	1084.37
920.49	1089.75
920.79	1095.14
921.10	1094.43
921.40	1088.35
921.70	1076.88
922.01	1079.92
922.31	1077.82
922.61	1078.05
922.92	1080.86
923.22	1080.39
923.52	1080.86
923.82	1084.84
924.13	1081.80
924.43	1087.18
924.73	1093.03
925.04	1090.46
925.34	1089.52
925.64	1089.29
925.94	1077.82
926.25	1068.45
926.55	1064.24
926.85	1060.50
927.15	1074.31
927.46	1088.82
927.76	1094.43
928.06	1108.24
928.36	1108.71
928.67	1090.46
928.97	1095.14
929.27	1111.05
929.57	1102.63
929.87	1101.22
930.18	1102.86
930.48	1091.63
930.78	1072.67
931.08	1074.31
931.38	1075.94
931.69	1076.18
931.99	1072.43
932.29	1081.09
932.59	1077.58
932.89	1072.43
933.19	1071.26
933.49	1078.99
933.80	1069.62
934.10	1059.33
934.40	1071.26
934.70	1075.94
935.00	1071.50
935.30	1064.94
935.60	1080.63
935.90	1074.31
936.20	1076.65
936.50	1079.46
936.81	1101.22
937.11	1102.39
937.41	1095.14
937.71	1089.99
938.01	1078.28
938.31	1065.41
938.61	1055.82
938.91	1070.33
939.21	1080.16
939.51	1089.75
939.81	1089.52
940.11	1085.31
940.41	1077.35
940.71	1068.22
941.01	1070.09
941.31	1072.90
941.61	1084.60
941.91	1087.41
942.21	1097.24
942.51	1093.73
942.81	1100.05
943.11	1098.18
943.41	1106.14
943.71	1099.35
944.01	1100.99
944.31	1096.31
944.61	1090.92
944.90	1074.07
945.20	1077.11
945.50	1076.88
945.80	1078.52
946.10	1075.24
946.40	1080.39
946.70	1076.41
947.00	1084.14
947.30	1073.37
947.60	1073.14
947.89	1082.26
948.19	1088.58
948.49	1082.50
948.79	1093.50
949.09	1101.22
949.39	1097.95
949.69	1090.46
949.98	1088.35
950.28	1090.92
950.58	1086.94
950.88	1087.18
951.18	1101.69
951.48	1107.07
951.77	1094.90
952.07	1096.31
952.37	1091.63
952.67	1083.90
952.97	1091.39
953.26	1095.60
953.56	1089.75
953.86	1093.50
954.16	1090.46
954.45	1079.46
954.75	1072.20
955.05	1074.77
955.35	1076.65
955.64	1082.26
955.94	1076.65
956.24	1082.73
956.54	1086.94
956.83	1080.63
957.13	1079.22
957.43	1076.65
957.72	1075.24
958.02	1075.24
958.32	1078.52
958.61	1076.41
958.91	1086.94
959.21	1097.48
959.50	1099.12
959.80	1096.78
960.10	1100.05
960.39	1104.03
960.69	1100.99
960.99	1092.80
961.28	1089.52
961.58	1077.58
961.87	1071.73
962.17	1072.20
962.47	1078.75
962.76	1086.24
963.06	1093.26
963.36	1093.03
963.65	1080.63
963.95	1086.71
964.24	1084.60
964.54	1082.97
964.83	1086.71
965.13	1095.37
965.42	1087.18
965.72	1087.41
966.02	1090.46
966.31	1086.48
966.61	1084.37
966.90	1079.69
967.20	1073.60
967.49	1064.48
967.79	1064.01
968.08	1052.07
968.38	1055.82
968.67	1052.77
968.97	1059.79
969.26	1062.60
969.56	1074.77
969.85	1078.28
970.15	1088.12
970.44	1086.24
970.74	1087.88
971.03	1086.24
971.32	1083.90
971.62	1083.43
971.91	1068.69
972.21	1060.73
972.50	1058.39
972.80	1061.90
973.09	1056.52
973.38	1068.22
973.68	1068.92
973.97	1069.16
974.27	1070.80
974.56	1078.75
974.85	1082.26
975.15	1074.31
975.44	1069.16
975.73	1073.14
976.03	1074.77
976.32	1077.35
976.61	1094.43
976.91	1103.56
977.20	1096.31
977.49	1086.24
977.79	1081.56
978.08	1073.60
978.37	1074.54
978.67	1084.37
978.96	1089.52
979.25	1091.39
979.55	1093.97
979.84	1100.05
980.13	1083.43
980.42	1082.73
980.72	1086.71
981.01	1082.26
981.30	1080.63
981.59	1084.14
981.89	1080.63
982.18	1066.82
982.47	1062.14
982.76	1057.22
983.06	1062.37
983.35	1064.94
983.64	1077.35
983.93	1091.86
984.22	1095.14
984.52	1085.54
984.81	1089.05
985.10	1085.07
985.39	1084.37
985.68	1088.58
985.97	1097.48
986.27	1090.69
986.56	1097.48
986.85	1089.29
987.14	1080.86
987.43	1074.77
987.72	1085.77
988.01	1083.43
988.31	1089.52
988.60	1090.22
988.89	1090.92
989.18	1087.65
989.47	1089.75
989.76	1083.90
990.05	1088.12
990.34	1085.31
990.63	1078.99
990.92	1062.14
991.21	1063.77
991.51	1056.28
991.80	1065.18
992.09	1067.05
992.38	1076.88
992.67	1071.73
992.96	1073.37
993.25	1072.67
993.54	1075.94
993.83	1075.94
994.12	1081.33
994.41	1077.58
994.70	1068.45
994.99	1072.67
995.28	1075.48
995.57	1080.63
995.86	1084.37
996.15	1083.20
996.44	1071.03
996.73	1075.24
997.02	1074.31
997.31	1078.52
997.59	1081.80
997.88	1072.90
998.17	1062.84
998.46	1064.94
998.75	1056.75
999.04	1060.26
999.33	1074.07
999.62	1076.41
999.91	1067.75
1000.20	1077.58
1000.49	1078.99
1000.77	1073.37
1001.06	1066.35
1001.35	1069.39
1001.64	1081.80
1001.93	1088.35
1002.22	1090.92
1002.51	1099.35
1002.79	1100.52
1003.08	1082.97
1003.37	1075.94
1003.66	1077.11
1003.95	1076.41
1004.23	1075.01
1004.52	1080.63
1004.81	1075.01
1005.10	1083.20
1005.39	1080.39
1005.67	1074.77
1005.96	1064.48
1006.25	1074.77
1006.54	1072.67
1006.83	1075.71
1007.11	1082.97
1007.40	1089.52
1007.69	1075.71
1007.97	1072.43
1008.26	1070.56
1008.55	1068.45
1008.84	1072.43
1009.12	1070.09
1009.41	1076.88
1009.70	1082.03
1009.98	1083.43
1010.27	1080.86
1010.56	1089.05
1010.85	1084.14
1011.13	1091.39
1011.42	1081.09
1011.71	1067.75
1011.99	1081.56
1012.28	1078.28
1012.56	1059.33
1012.85	1065.88
1013.14	1075.48
1013.42	1066.82
1013.71	1075.48
1014.00	1077.58
1014.28	1081.09
1014.57	1091.16
1014.85	1084.84
1015.14	1076.41
1015.43	1083.90
1015.71	1078.52
1016.00	1064.01
1016.28	1073.60
1016.57	1070.09
1016.85	1068.22
1017.14	1075.01
1017.43	1076.88
1017.71	1065.18
1018.00	1072.43
1018.28	1074.54
1018.57	1074.31
1018.85	1088.82
1019.14	1092.09
1019.42	1087.18
1019.71	1088.82
1019.99	1082.73
1020.28	1062.84
1020.56	1067.99
1020.85	1074.07
1021.13	1073.84
1021.42	1081.33
1021.70	1089.05
1021.99	1088.35
1022.27	1082.97
1022.55	1089.52
1022.84	1076.65
>>>>>End Processed Spectral Data<<<<<
