SpectraSuite Data File
++++++++++++++++++++++++++++++++++++
Date: Mon Aug 26 10:24:37 PDT 2019
User: corrico
Dark Spectrum Present: No
Reference Spectrum Present: No
Number of Sampled Component Spectra: 1
Spectrometers: USB2+H06089
Integration Time (usec): 10000 (USB2+H06089)
Spectra Averaged: 2 (USB2+H06089)
Boxcar Smoothing: 2 (USB2+H06089)
Correct for Electrical Dark: No (USB2+H06089)
Strobe/Lamp Enabled: No (USB2+H06089)
Correct for Detector Non-linearity: No (USB2+H06089)
Correct for Stray Light: No (USB2+H06089)
Number of Pixels in Processed Spectrum: 2048
>>>>>Begin Processed Spectral Data<<<<<
339.70	1040.37
340.07	1040.37
340.45	1010.88
340.82	991.45
341.19	963.83
341.57	943.94
341.94	924.04
342.31	919.60
342.69	918.43
343.06	915.85
343.43	904.15
343.81	905.09
344.18	901.57
344.55	899.47
344.93	913.04
345.30	923.81
345.67	926.85
346.04	943.70
346.42	958.92
346.79	973.90
347.16	990.51
347.54	1009.24
347.91	1022.11
348.28	1031.71
348.65	1028.20
349.03	1032.18
349.40	1032.64
349.77	1019.77
350.14	1019.07
350.52	1029.13
350.89	1032.41
351.26	1040.60
351.63	1060.26
352.01	1062.14
352.38	1067.52
352.75	1080.39
353.12	1084.14
353.50	1086.71
353.87	1092.56
354.24	1086.71
354.61	1084.14
354.98	1089.75
355.36	1093.26
355.73	1100.29
356.10	1110.82
356.47	1110.35
356.84	1106.61
357.22	1100.52
357.59	1093.50
357.96	1082.03
358.33	1084.60
358.70	1080.16
359.08	1090.92
359.45	1086.71
359.82	1096.78
360.19	1086.94
360.56	1093.03
360.94	1084.60
361.31	1082.73
361.68	1074.31
362.05	1078.52
362.42	1072.43
362.79	1073.37
363.16	1078.52
363.54	1076.88
363.91	1082.97
364.28	1084.37
364.65	1079.46
365.02	1075.48
365.39	1075.24
365.76	1069.86
366.14	1066.82
366.51	1078.75
366.88	1083.20
367.25	1093.03
367.62	1086.48
367.99	1098.65
368.36	1097.24
368.73	1100.05
369.10	1086.24
369.48	1106.14
369.85	1100.05
370.22	1098.18
370.59	1087.65
370.96	1097.71
371.33	1079.92
371.70	1078.99
372.07	1072.90
372.44	1087.88
372.81	1095.60
373.18	1103.09
373.55	1105.20
373.93	1106.37
374.30	1107.07
374.67	1106.84
375.04	1100.29
375.41	1104.73
375.78	1096.54
376.15	1087.65
376.52	1082.97
376.89	1082.97
377.26	1091.16
377.63	1100.52
378.00	1097.24
378.37	1097.24
378.74	1097.71
379.11	1085.54
379.48	1078.28
379.85	1082.50
380.22	1092.33
380.59	1092.33
380.96	1097.95
381.33	1103.56
381.70	1110.12
382.07	1099.12
382.44	1101.46
382.81	1099.12
383.18	1102.63
383.55	1092.80
383.92	1101.92
384.29	1104.03
384.66	1100.52
385.03	1097.24
385.40	1099.82
385.77	1094.20
386.14	1094.20
386.51	1097.48
386.88	1103.09
387.25	1108.01
387.62	1105.90
387.99	1102.39
388.36	1112.22
388.73	1113.86
389.10	1111.05
389.46	1117.84
389.83	1124.16
390.20	1099.82
390.57	1104.97
390.94	1115.50
391.31	1110.12
391.68	1113.86
392.05	1130.71
392.42	1140.07
392.79	1123.46
393.16	1133.52
393.53	1131.18
393.89	1132.35
394.26	1114.33
394.63	1123.93
395.00	1126.50
395.37	1120.88
395.74	1116.90
396.11	1126.73
396.48	1133.76
396.84	1124.39
397.21	1137.27
397.58	1151.08
397.95	1148.03
398.32	1138.67
398.69	1143.35
399.06	1134.46
399.42	1127.90
399.79	1127.67
400.16	1147.33
400.53	1153.88
400.90	1163.01
401.27	1162.54
401.64	1170.50
402.00	1172.84
402.37	1180.80
402.74	1194.84
403.11	1203.74
403.48	1205.61
403.84	1207.25
404.21	1211.93
404.58	1218.48
404.95	1239.78
405.32	1255.46
405.68	1277.00
406.05	1295.72
406.42	1316.55
406.79	1324.98
407.16	1348.15
407.52	1369.45
407.89	1390.98
408.26	1410.17
408.63	1441.77
408.99	1467.75
409.36	1495.13
409.73	1523.45
410.10	1558.33
410.47	1598.35
410.83	1646.80
411.20	1696.65
411.57	1763.36
411.94	1822.11
412.30	1869.15
412.67	1917.37
413.04	1976.35
413.40	2032.29
413.77	2107.42
414.14	2202.91
414.51	2302.62
414.87	2390.86
415.24	2480.27
415.61	2585.12
415.97	2692.55
416.34	2802.79
416.71	2943.93
417.08	3089.04
417.44	3223.62
417.81	3398.93
418.18	3581.96
418.54	3764.52
418.91	3942.63
419.28	4146.02
419.64	4327.42
420.01	4547.43
420.38	4751.76
420.74	4996.34
421.11	5269.01
421.48	5563.22
421.84	5855.32
422.21	6171.06
422.58	6512.07
422.94	6859.88
423.31	7228.28
423.68	7607.21
424.04	8035.53
424.41	8441.61
424.77	8868.52
425.14	9289.12
425.51	9724.46
425.87	10201.22
426.24	10702.33
426.61	11282.55
426.97	11964.82
427.34	12643.34
427.70	13363.76
428.07	14101.73
428.44	14852.57
428.80	15556.84
429.17	16340.22
429.53	17069.76
429.90	17968.53
430.27	18685.67
430.63	19490.34
431.00	20415.79
431.36	21439.31
431.73	22268.09
432.09	23282.01
432.46	24259.89
432.83	25102.01
433.19	25869.71
433.56	26830.50
433.92	27820.78
434.29	28706.44
434.65	29699.29
435.02	30622.63
435.38	31556.97
435.75	32203.20
436.11	33138.24
436.48	33861.93
436.84	34670.82
437.21	35354.26
437.57	36052.91
437.94	36639.92
438.30	37176.13
438.67	37499.36
439.03	37632.07
439.40	37835.70
439.76	37687.77
440.13	37471.51
440.49	37429.61
440.86	37082.28
441.22	36689.77
441.59	36199.90
441.95	35784.22
442.32	35090.25
442.68	34583.29
443.05	33908.75
443.41	33244.97
443.78	32395.82
444.14	31587.87
444.51	30686.53
444.87	30034.92
445.24	29256.93
445.60	28533.94
445.96	27764.37
446.33	27186.96
446.69	26341.56
447.06	25661.40
447.42	24947.77
447.79	24184.99
448.15	23489.38
448.51	22842.69
448.88	22264.81
449.24	21637.08
449.61	21219.30
449.97	20668.10
450.33	20072.20
450.70	19491.98
451.06	18992.98
451.43	18411.12
451.79	17930.38
452.15	17539.04
452.52	17098.78
452.88	16711.66
453.24	16298.79
453.61	15833.26
453.97	15395.11
454.34	14926.53
454.70	14514.36
455.06	14131.45
455.43	13726.54
455.79	13220.52
456.15	12860.31
456.52	12439.48
456.88	12060.78
457.24	11678.57
457.61	11374.30
457.97	11010.82
458.33	10632.35
458.70	10235.16
459.06	9852.02
459.42	9565.77
459.79	9232.95
460.15	8962.61
460.51	8665.37
460.88	8393.86
461.24	8086.08
461.60	7853.20
461.96	7586.85
462.33	7363.79
462.69	7156.89
463.05	6984.39
463.42	6800.89
463.78	6616.23
464.14	6421.96
464.50	6258.36
464.87	6064.56
465.23	5862.57
465.59	5698.74
465.95	5558.77
466.32	5420.45
466.68	5289.84
467.04	5167.43
467.40	5035.90
467.77	4923.32
468.13	4789.20
468.49	4670.07
468.85	4561.00
469.22	4494.06
469.58	4401.61
469.94	4319.22
470.30	4240.58
470.66	4173.64
471.03	4083.30
471.39	4006.53
471.75	3936.31
472.11	3849.95
472.47	3774.58
472.84	3698.51
473.20	3611.45
473.56	3537.49
473.92	3472.18
474.28	3389.56
474.65	3327.54
475.01	3277.45
475.37	3203.02
475.73	3136.32
476.09	3101.91
476.45	3041.06
476.81	2986.06
477.18	2947.90
477.54	2916.54
477.90	2861.30
478.26	2813.32
478.62	2771.90
478.98	2746.38
479.34	2716.19
479.71	2672.66
480.07	2640.59
480.43	2609.23
480.79	2548.61
481.15	2499.69
481.51	2465.29
481.87	2430.18
482.23	2396.71
482.59	2366.75
482.96	2332.81
483.32	2291.85
483.68	2268.92
484.04	2227.96
484.40	2215.32
484.76	2190.98
485.12	2183.25
485.48	2152.12
485.84	2124.27
486.20	2089.16
486.56	2062.25
486.92	2027.61
487.28	2010.75
487.64	1983.37
488.00	1964.65
488.37	1928.60
488.73	1900.28
489.09	1870.79
489.45	1860.96
489.81	1834.28
490.17	1837.09
490.53	1828.89
490.89	1809.23
491.25	1786.06
491.61	1762.89
491.97	1743.70
492.33	1718.66
492.69	1706.48
493.05	1686.82
493.41	1680.74
493.77	1652.18
494.13	1643.99
494.49	1623.16
494.85	1612.63
495.21	1591.10
495.57	1574.71
495.93	1554.58
496.29	1544.52
496.64	1525.09
497.00	1513.39
497.36	1504.73
497.72	1487.88
498.08	1471.73
498.44	1461.90
498.80	1449.26
499.16	1437.09
499.52	1427.73
499.88	1420.00
500.24	1418.13
500.60	1416.26
500.96	1416.49
501.32	1417.19
501.68	1399.64
502.03	1385.13
502.39	1371.32
502.75	1354.23
503.11	1335.51
503.47	1340.89
503.83	1339.72
504.19	1329.66
504.55	1317.49
504.91	1317.02
505.26	1301.57
505.62	1299.00
505.98	1291.51
506.34	1294.32
506.70	1288.70
507.06	1278.40
507.42	1258.97
507.78	1254.06
508.13	1255.23
508.49	1245.40
508.85	1243.76
509.21	1255.70
509.57	1253.12
509.93	1241.65
510.28	1238.85
510.64	1242.59
511.00	1239.78
511.36	1232.76
511.72	1222.23
512.07	1222.93
512.43	1229.02
512.79	1224.57
513.15	1232.76
513.51	1234.40
513.86	1223.87
514.22	1204.21
514.58	1190.63
514.94	1184.55
515.30	1192.27
515.65	1202.57
516.01	1211.23
516.37	1209.59
516.73	1207.72
517.08	1190.16
517.44	1195.31
517.80	1189.69
518.16	1185.95
518.51	1174.95
518.87	1169.10
519.23	1152.48
519.59	1155.29
519.94	1160.67
520.30	1164.42
520.66	1175.18
521.01	1173.08
521.37	1166.52
521.73	1161.84
522.09	1162.54
522.44	1165.35
522.80	1161.61
523.16	1154.35
523.51	1154.35
523.87	1153.18
524.23	1145.22
524.58	1149.67
524.94	1154.12
525.30	1141.71
525.65	1137.97
526.01	1136.80
526.37	1127.44
526.72	1122.05
527.08	1137.97
527.44	1140.07
527.79	1140.78
528.15	1144.05
528.51	1150.84
528.86	1148.73
529.22	1155.05
529.58	1154.82
529.93	1160.20
530.29	1153.88
530.65	1142.88
531.00	1133.76
531.36	1128.61
531.71	1124.63
532.07	1111.52
532.43	1114.33
532.78	1116.20
533.14	1118.31
533.49	1125.10
533.85	1150.84
534.21	1145.46
534.56	1140.78
534.92	1146.16
535.27	1144.76
535.63	1133.29
535.98	1141.48
536.34	1138.44
536.69	1139.61
537.05	1127.20
537.41	1125.56
537.76	1125.80
538.12	1129.07
538.47	1119.95
538.83	1134.69
539.18	1136.33
539.54	1130.24
539.89	1126.03
540.25	1134.69
540.60	1122.05
540.96	1119.48
541.31	1124.16
541.67	1121.58
542.02	1108.24
542.38	1110.35
542.73	1118.07
543.09	1118.07
543.44	1134.22
543.80	1135.63
544.15	1141.01
544.51	1132.12
544.86	1136.80
545.22	1130.01
545.57	1141.71
545.93	1138.67
546.28	1135.63
546.64	1125.80
546.99	1116.67
547.35	1102.16
547.70	1105.67
548.05	1107.54
548.41	1107.31
548.76	1108.71
549.12	1117.61
549.47	1117.84
549.83	1122.99
550.18	1123.46
550.53	1122.99
550.89	1126.03
551.24	1111.05
551.60	1104.73
551.95	1111.52
552.30	1118.07
552.66	1115.27
553.01	1123.69
553.37	1122.52
553.72	1116.67
554.07	1113.16
554.43	1116.20
554.78	1126.50
555.13	1129.31
555.49	1125.80
555.84	1122.05
556.19	1110.82
556.55	1104.26
556.90	1111.99
557.26	1118.54
557.61	1120.41
557.96	1124.63
558.32	1114.09
558.67	1098.88
559.02	1090.69
559.37	1088.58
559.73	1094.90
560.08	1099.58
560.43	1104.50
560.79	1111.75
561.14	1113.86
561.49	1105.44
561.85	1106.84
562.20	1104.26
562.55	1094.43
562.90	1087.41
563.26	1092.56
563.61	1096.07
563.96	1103.56
564.32	1110.58
564.67	1110.58
565.02	1106.14
565.37	1109.41
565.73	1106.84
566.08	1110.35
566.43	1119.01
566.78	1119.95
567.14	1111.99
567.49	1113.39
567.84	1109.65
568.19	1102.86
568.54	1106.84
568.90	1103.33
569.25	1098.41
569.60	1093.03
569.95	1094.67
570.31	1091.39
570.66	1088.82
571.01	1097.95
571.36	1096.78
571.71	1104.50
572.06	1104.50
572.42	1104.73
572.77	1102.16
573.12	1110.12
573.47	1110.12
573.82	1114.56
574.18	1124.86
574.53	1123.22
574.88	1122.29
575.23	1114.10
575.58	1104.97
575.93	1101.69
576.28	1110.12
576.64	1110.35
576.99	1111.99
577.34	1115.97
577.69	1112.22
578.04	1101.46
578.39	1098.88
578.74	1100.52
579.09	1095.37
579.44	1094.20
579.80	1095.60
580.15	1099.35
580.50	1104.26
580.85	1107.07
581.20	1110.82
581.55	1109.41
581.90	1112.92
582.25	1108.71
582.60	1102.16
582.95	1094.20
583.30	1098.88
583.65	1089.05
584.00	1082.97
584.35	1091.39
584.71	1096.07
585.06	1095.37
585.41	1096.07
585.76	1108.24
586.11	1109.18
586.46	1115.50
586.81	1108.95
587.16	1103.56
587.51	1094.67
587.86	1094.90
588.21	1088.82
588.56	1093.73
588.91	1101.46
589.26	1100.99
589.61	1098.65
589.96	1097.71
590.31	1103.80
590.66	1103.56
591.01	1108.48
591.36	1108.24
591.71	1104.97
592.06	1097.95
592.41	1099.58
592.76	1091.16
593.10	1083.20
593.45	1091.39
593.80	1094.20
594.15	1089.75
594.50	1092.56
594.85	1104.50
595.20	1105.90
595.55	1107.07
595.90	1111.99
596.25	1113.16
596.60	1109.18
596.95	1105.44
597.30	1091.63
597.64	1128.14
597.99	1135.86
598.34	1142.18
598.69	1135.86
599.04	1142.88
599.39	1101.46
599.74	1092.56
600.09	1095.84
600.44	1103.80
600.78	1107.07
601.13	1109.18
601.48	1111.99
601.83	1097.24
602.18	1097.71
602.53	1097.01
602.88	1099.58
603.22	1098.18
603.57	1101.69
603.92	1105.44
604.27	1103.33
604.62	1097.01
604.97	1106.61
605.31	1116.67
605.66	1111.52
606.01	1115.97
606.36	1120.88
606.71	1113.63
607.05	1104.03
607.40	1115.73
607.75	1118.07
608.10	1119.01
608.44	1116.90
608.79	1120.88
609.14	1110.82
609.49	1100.05
609.84	1098.65
610.18	1103.09
610.53	1095.84
610.88	1093.03
611.23	1097.01
611.57	1104.50
611.92	1103.56
612.27	1111.52
612.62	1110.58
612.96	1119.24
613.31	1108.48
613.66	1102.63
614.00	1093.50
614.35	1092.33
614.70	1091.63
615.05	1093.03
615.39	1092.09
615.74	1104.73
616.09	1103.33
616.43	1101.92
616.78	1101.46
617.13	1098.88
617.47	1096.31
617.82	1106.14
618.17	1101.69
618.51	1097.48
618.86	1092.80
619.21	1088.82
619.55	1076.88
619.90	1078.75
620.25	1089.99
620.59	1099.82
620.94	1096.07
621.29	1104.26
621.63	1102.86
621.98	1091.16
622.32	1085.31
622.67	1078.28
623.02	1075.24
623.36	1076.41
623.71	1084.60
624.05	1084.37
624.40	1084.14
624.75	1093.26
625.09	1089.05
625.44	1091.39
625.78	1097.71
626.13	1113.16
626.48	1101.46
626.82	1105.67
627.17	1109.41
627.51	1110.82
627.86	1107.54
628.20	1110.58
628.55	1114.10
628.89	1094.90
629.24	1093.26
629.58	1086.01
629.93	1100.29
630.28	1096.07
630.62	1104.97
630.97	1098.65
631.31	1103.33
631.66	1087.88
632.00	1084.14
632.35	1078.28
632.69	1084.14
633.04	1088.58
633.38	1086.01
633.73	1086.24
634.07	1098.41
634.42	1101.69
634.76	1091.86
635.11	1094.90
635.45	1088.58
635.79	1091.39
636.14	1093.73
636.48	1095.60
636.83	1091.16
637.17	1108.95
637.52	1106.14
637.86	1106.84
638.21	1119.24
638.55	1127.67
638.89	1112.22
639.24	1106.14
639.58	1104.97
639.93	1095.84
640.27	1088.12
640.61	1093.03
640.96	1091.86
641.30	1094.67
641.65	1096.07
641.99	1099.35
642.33	1101.46
642.68	1093.26
643.02	1082.03
643.37	1077.35
643.71	1082.97
644.05	1081.33
644.40	1093.73
644.74	1097.01
645.08	1098.88
645.43	1096.31
645.77	1089.29
646.11	1085.31
646.46	1073.37
646.80	1073.84
647.14	1072.43
647.49	1078.52
647.83	1078.75
648.17	1098.88
648.52	1088.82
648.86	1079.92
649.20	1077.82
649.55	1077.82
649.89	1063.77
650.23	1070.33
650.57	1075.48
650.92	1080.86
651.26	1083.90
651.60	1089.29
651.95	1102.63
652.29	1104.97
652.63	1093.50
652.97	1093.03
653.32	1094.43
653.66	1089.99
654.00	1091.63
654.34	1093.03
654.69	1098.65
655.03	1104.97
655.37	1107.54
655.71	1109.41
656.05	1117.61
656.40	1109.18
656.74	1095.37
657.08	1083.43
657.42	1078.75
657.76	1074.77
658.11	1070.56
658.45	1078.05
658.79	1088.82
659.13	1081.09
659.47	1076.41
659.82	1082.26
660.16	1068.22
660.50	1057.45
660.84	1063.07
661.18	1074.54
661.52	1083.67
661.87	1096.54
662.21	1101.92
662.55	1102.86
662.89	1095.37
663.23	1072.90
663.57	1076.18
663.91	1067.05
664.25	1072.20
664.60	1080.39
664.94	1091.63
665.28	1081.33
665.62	1088.12
665.96	1083.20
666.30	1067.52
666.64	1073.37
666.98	1075.24
667.32	1074.77
667.66	1071.26
668.01	1077.35
668.35	1081.56
668.69	1088.82
669.03	1094.90
669.37	1110.35
669.71	1109.41
670.05	1102.63
670.39	1099.35
670.73	1091.63
671.07	1086.24
671.41	1093.97
671.75	1097.01
672.09	1104.26
672.43	1105.44
672.77	1098.65
673.11	1097.48
673.45	1095.84
673.79	1080.16
674.13	1083.90
674.47	1087.41
674.81	1088.58
675.15	1086.48
675.49	1091.63
675.83	1085.77
676.17	1080.86
676.51	1075.01
676.85	1071.73
677.19	1065.18
677.53	1071.73
677.87	1080.16
678.21	1083.90
678.55	1086.94
678.89	1101.22
679.23	1093.73
679.57	1088.58
679.90	1083.20
680.24	1083.67
680.58	1075.24
680.92	1075.71
681.26	1084.60
681.60	1087.65
681.94	1087.18
682.28	1092.09
682.62	1100.75
682.96	1089.75
683.29	1088.58
683.63	1100.75
683.97	1102.39
684.31	1095.37
684.65	1092.56
684.99	1089.29
685.33	1072.90
685.67	1073.60
686.00	1079.92
686.34	1089.29
686.68	1096.78
687.02	1098.88
687.36	1089.52
687.70	1096.31
688.03	1088.82
688.37	1086.01
688.71	1091.86
689.05	1102.39
689.39	1090.92
689.72	1092.33
690.06	1093.73
690.40	1089.99
690.74	1074.31
691.08	1071.26
691.41	1072.43
691.75	1075.24
692.09	1085.07
692.43	1098.41
692.76	1104.73
693.10	1110.35
693.44	1107.78
693.78	1097.01
694.11	1108.95
694.45	1108.95
694.79	1101.46
695.13	1099.35
695.46	1096.54
695.80	1086.71
696.14	1084.14
696.48	1086.01
696.81	1085.54
697.15	1094.90
697.49	1093.73
697.82	1081.56
698.16	1077.58
698.50	1079.22
698.83	1074.77
699.17	1072.90
699.51	1068.22
699.84	1073.37
700.18	1074.54
700.52	1073.60
700.85	1072.67
701.19	1083.90
701.53	1075.01
701.86	1061.90
702.20	1058.62
702.54	1059.79
702.87	1061.67
703.21	1063.54
703.55	1069.86
703.88	1075.24
704.22	1072.67
704.55	1076.65
704.89	1084.84
705.23	1088.35
705.56	1088.82
705.90	1093.50
706.23	1094.67
706.57	1089.99
706.91	1076.65
707.24	1073.14
707.58	1069.86
707.91	1071.26
708.25	1070.33
708.58	1079.46
708.92	1081.09
709.26	1086.24
709.59	1077.35
709.93	1072.43
710.26	1079.46
710.60	1072.43
710.93	1064.48
711.27	1074.77
711.60	1080.16
711.94	1074.07
712.27	1079.46
712.61	1080.63
712.94	1076.65
713.28	1075.94
713.61	1072.43
713.95	1078.75
714.28	1080.86
714.62	1076.65
714.95	1087.18
715.29	1100.52
715.62	1097.01
715.96	1101.69
716.29	1109.18
716.63	1099.82
716.96	1094.20
717.29	1091.86
717.63	1096.78
717.96	1094.20
718.30	1099.12
718.63	1103.80
718.97	1095.14
719.30	1086.24
719.63	1084.14
719.97	1095.14
720.30	1086.01
720.64	1100.05
720.97	1087.18
721.30	1090.46
721.64	1088.58
721.97	1092.80
722.31	1082.73
722.64	1093.03
722.97	1094.90
723.31	1078.75
723.64	1072.67
723.97	1074.31
724.31	1078.75
724.64	1077.58
724.98	1084.60
725.31	1090.22
725.64	1090.92
725.98	1087.65
726.31	1087.41
726.64	1085.31
726.97	1086.24
727.31	1084.37
727.64	1083.67
727.97	1080.86
728.31	1064.24
728.64	1068.92
728.97	1078.75
729.31	1075.94
729.64	1068.45
729.97	1082.97
730.30	1083.20
730.64	1088.12
730.97	1090.22
731.30	1094.67
731.63	1099.35
731.97	1086.48
732.30	1086.48
732.63	1089.29
732.96	1094.43
733.30	1087.88
733.63	1100.99
733.96	1094.43
734.29	1095.60
734.63	1086.94
734.96	1091.86
735.29	1088.58
735.62	1075.24
735.95	1078.52
736.29	1086.71
736.62	1081.33
736.95	1083.20
737.28	1087.18
737.61	1075.48
737.94	1074.07
738.28	1081.09
738.61	1075.48
738.94	1081.56
739.27	1085.07
739.60	1089.99
739.93	1078.75
740.27	1077.58
740.60	1081.09
740.93	1090.46
741.26	1081.56
741.59	1094.90
741.92	1099.35
742.25	1091.63
742.58	1090.69
742.91	1093.03
743.25	1093.26
743.58	1088.58
743.91	1085.31
744.24	1084.60
744.57	1078.99
744.90	1073.60
745.23	1078.28
745.56	1083.20
745.89	1069.86
746.22	1077.58
746.55	1070.33
746.88	1055.35
747.21	1057.92
747.54	1063.07
747.87	1057.45
748.20	1057.45
748.53	1071.03
748.87	1063.31
749.20	1075.94
749.53	1079.46
749.86	1086.71
750.19	1089.99
750.52	1095.84
750.85	1088.12
751.18	1097.71
751.51	1090.92
751.84	1087.88
752.16	1084.37
752.49	1080.63
752.82	1075.48
753.15	1081.56
753.48	1085.77
753.81	1078.05
754.14	1089.29
754.47	1088.58
754.80	1082.97
755.13	1073.84
755.46	1075.94
755.79	1068.92
756.12	1068.92
756.45	1078.99
756.78	1095.37
757.11	1106.14
757.43	1108.01
757.76	1104.50
758.09	1097.71
758.42	1086.71
758.75	1087.88
759.08	1078.28
759.41	1077.35
759.74	1084.84
760.07	1081.09
760.39	1077.35
760.72	1090.22
761.05	1090.46
761.38	1085.31
761.71	1090.92
762.04	1089.29
762.36	1074.07
762.69	1080.86
763.02	1078.99
763.35	1077.58
763.68	1082.26
764.01	1090.69
764.33	1088.35
764.66	1087.65
764.99	1095.37
765.32	1091.39
765.65	1091.86
765.97	1085.07
766.30	1091.16
766.63	1082.50
766.96	1080.63
767.28	1079.22
767.61	1079.92
767.94	1083.43
768.27	1089.29
768.59	1080.86
768.92	1082.26
769.25	1082.26
769.58	1076.65
769.90	1068.92
770.23	1080.39
770.56	1076.88
770.89	1081.09
771.21	1076.41
771.54	1071.26
771.87	1067.99
772.19	1069.86
772.52	1068.92
772.85	1071.50
773.17	1082.03
773.50	1093.97
773.83	1094.67
774.15	1091.16
774.48	1086.71
774.81	1082.03
775.13	1071.26
775.46	1065.88
775.79	1054.41
776.11	1057.22
776.44	1052.07
776.77	1047.86
777.09	1049.03
777.42	1066.58
777.74	1066.11
778.07	1075.01
778.40	1076.65
778.72	1078.52
779.05	1081.80
779.37	1083.90
779.70	1072.43
780.03	1076.65
780.35	1079.46
780.68	1068.69
781.00	1078.52
781.33	1095.84
781.65	1095.37
781.98	1089.75
782.31	1089.99
782.63	1072.67
782.96	1064.24
783.28	1064.48
783.61	1069.86
783.93	1075.94
784.26	1084.37
784.58	1078.75
784.91	1078.75
785.23	1069.39
785.56	1072.20
785.88	1071.26
786.21	1082.26
786.53	1098.18
786.86	1102.63
787.18	1095.14
787.51	1099.35
787.83	1093.50
788.16	1081.56
788.48	1087.88
788.81	1093.97
789.13	1090.22
789.46	1090.22
789.78	1089.52
790.10	1085.07
790.43	1089.29
790.75	1082.26
791.08	1076.65
791.40	1079.46
791.73	1083.20
792.05	1072.90
792.37	1080.63
792.70	1079.69
793.02	1076.88
793.35	1071.97
793.67	1073.37
793.99	1083.67
794.32	1092.33
794.64	1097.95
794.96	1096.07
795.29	1095.60
795.61	1077.58
795.93	1074.77
796.26	1069.86
796.58	1076.18
796.91	1088.82
797.23	1086.01
797.55	1092.56
797.87	1093.50
798.20	1082.26
798.52	1071.97
798.84	1076.65
799.17	1064.71
799.49	1060.26
799.81	1069.86
800.14	1066.82
800.46	1071.73
800.78	1080.16
801.10	1074.54
801.43	1074.07
801.75	1082.03
802.07	1080.39
802.40	1074.31
802.72	1081.33
803.04	1085.54
803.36	1067.28
803.69	1071.97
804.01	1080.63
804.33	1073.60
804.65	1061.90
804.97	1087.18
805.30	1079.69
805.62	1078.28
805.94	1086.01
806.26	1092.56
806.58	1072.67
806.91	1076.41
807.23	1075.01
807.55	1077.11
807.87	1081.09
808.19	1098.41
808.52	1098.88
808.84	1093.03
809.16	1091.39
809.48	1086.71
809.80	1068.22
810.12	1071.73
810.44	1070.80
810.77	1058.16
811.09	1055.82
811.41	1060.96
811.73	1054.41
812.05	1064.48
812.37	1071.26
812.69	1077.35
813.01	1080.86
813.33	1082.73
813.66	1070.80
813.98	1072.90
814.30	1079.69
814.62	1081.80
814.94	1087.88
815.26	1088.58
815.58	1097.01
815.90	1102.39
816.22	1089.99
816.54	1087.41
816.86	1086.01
817.18	1075.24
817.50	1069.39
817.82	1079.22
818.14	1072.67
818.46	1077.58
818.78	1080.86
819.10	1069.39
819.42	1078.28
819.74	1084.84
820.06	1085.77
820.38	1085.07
820.70	1085.07
821.02	1068.22
821.34	1062.84
821.66	1067.05
821.98	1066.35
822.30	1072.90
822.62	1076.41
822.94	1080.63
823.26	1076.88
823.58	1075.48
823.90	1071.03
824.22	1074.54
824.54	1068.92
824.86	1077.35
825.18	1093.73
825.50	1089.29
825.81	1089.29
826.13	1092.33
826.45	1082.97
826.77	1071.73
827.09	1076.88
827.41	1076.41
827.73	1074.77
828.05	1068.45
828.36	1064.24
828.68	1060.50
829.00	1068.45
829.32	1067.05
829.64	1077.35
829.96	1076.65
830.28	1082.50
830.59	1077.35
830.91	1081.56
831.23	1079.92
831.55	1091.86
831.87	1086.94
832.19	1091.86
832.50	1092.56
832.82	1093.97
833.14	1082.50
833.46	1082.50
833.78	1077.82
834.09	1076.88
834.41	1078.05
834.73	1080.16
835.05	1082.73
835.36	1083.67
835.68	1071.50
836.00	1068.92
836.32	1082.03
836.63	1087.41
836.95	1080.39
837.27	1090.92
837.59	1085.54
837.90	1078.05
838.22	1075.24
838.54	1078.52
838.85	1082.26
839.17	1087.18
839.49	1080.63
839.80	1072.20
840.12	1075.94
840.44	1069.39
840.76	1060.50
841.07	1062.37
841.39	1070.09
841.71	1078.75
842.02	1090.46
842.34	1101.46
842.65	1113.63
842.97	1111.05
843.29	1094.90
843.60	1085.31
843.92	1085.77
844.24	1077.82
844.55	1085.31
844.87	1098.88
845.18	1098.88
845.50	1099.35
845.82	1100.05
846.13	1092.80
846.45	1093.73
846.76	1098.41
847.08	1094.90
847.40	1090.69
847.71	1093.50
848.03	1082.97
848.34	1083.67
848.66	1087.88
848.97	1095.37
849.29	1099.35
849.60	1103.56
849.92	1106.37
850.24	1102.39
850.55	1089.52
850.87	1084.14
851.18	1076.18
851.50	1067.52
851.81	1072.67
852.13	1082.26
852.44	1089.52
852.76	1090.69
853.07	1094.67
853.39	1085.31
853.70	1078.28
854.01	1072.20
854.33	1075.48
854.64	1077.58
854.96	1084.37
855.27	1088.82
855.59	1089.29
855.90	1092.09
856.22	1097.95
856.53	1099.12
856.84	1094.90
857.16	1088.58
857.47	1082.03
857.79	1068.45
858.10	1056.99
858.41	1057.45
858.73	1066.58
859.04	1073.37
859.36	1077.11
859.67	1087.65
859.98	1100.29
860.30	1105.90
860.61	1099.82
860.92	1094.43
861.24	1092.56
861.55	1079.69
861.87	1067.05
862.18	1075.24
862.49	1078.75
862.81	1073.37
863.12	1080.16
863.43	1081.09
863.74	1089.99
864.06	1094.90
864.37	1088.58
864.68	1088.82
865.00	1096.54
865.31	1088.12
865.62	1081.80
865.94	1089.52
866.25	1086.01
866.56	1082.50
866.87	1084.60
867.19	1090.69
867.50	1094.90
867.81	1089.75
868.12	1094.43
868.44	1088.82
868.75	1082.97
869.06	1091.63
869.37	1094.90
869.68	1092.56
870.00	1090.92
870.31	1093.03
870.62	1078.99
870.93	1071.97
871.24	1069.86
871.56	1069.86
871.87	1071.73
872.18	1073.37
872.49	1082.26
872.80	1072.90
873.12	1071.03
873.43	1069.16
873.74	1072.20
874.05	1067.99
874.36	1073.14
874.67	1067.52
874.98	1073.60
875.29	1075.01
875.61	1075.94
875.92	1069.86
876.23	1067.99
876.54	1053.71
876.85	1063.07
877.16	1059.79
877.47	1063.54
877.78	1069.39
878.09	1086.01
878.40	1071.73
878.72	1078.52
879.03	1075.94
879.34	1080.39
879.65	1071.50
879.96	1077.11
880.27	1072.90
880.58	1082.73
880.89	1078.75
881.20	1082.50
881.51	1070.33
881.82	1077.35
882.13	1075.01
882.44	1071.26
882.75	1072.20
883.06	1092.09
883.37	1095.84
883.68	1094.43
883.99	1104.73
884.30	1113.63
884.61	1094.90
884.92	1089.05
885.23	1088.58
885.54	1095.37
885.85	1093.73
886.16	1100.29
886.47	1091.16
886.78	1088.58
887.08	1072.20
887.39	1059.79
887.70	1070.09
888.01	1080.63
888.32	1083.20
888.63	1091.16
888.94	1098.65
889.25	1096.07
889.56	1084.60
889.87	1076.88
890.17	1071.50
890.48	1067.28
890.79	1067.05
891.10	1084.14
891.41	1104.97
891.72	1114.33
892.03	1118.78
892.34	1116.20
892.64	1106.14
892.95	1090.22
893.26	1093.73
893.57	1093.50
893.88	1084.37
894.18	1079.22
894.49	1085.31
894.80	1076.41
895.11	1077.82
895.42	1080.63
895.72	1084.84
896.03	1078.52
896.34	1075.48
896.65	1072.90
896.96	1077.58
897.26	1084.14
897.57	1086.24
897.88	1091.63
898.19	1082.97
898.49	1081.56
898.80	1072.90
899.11	1081.56
899.41	1078.99
899.72	1091.86
900.03	1090.22
900.34	1090.69
900.64	1079.92
900.95	1077.82
901.26	1072.67
901.56	1064.24
901.87	1074.31
902.18	1081.33
902.48	1079.69
902.79	1077.58
903.10	1087.65
903.40	1078.52
903.71	1079.92
904.02	1088.35
904.32	1103.09
904.63	1102.39
904.94	1107.07
905.24	1095.84
905.55	1095.84
905.85	1078.05
906.16	1076.65
906.47	1073.60
906.77	1078.99
907.08	1067.99
907.38	1078.28
907.69	1069.86
908.00	1068.22
908.30	1063.77
908.61	1068.69
908.91	1062.60
909.22	1067.28
909.52	1063.31
909.83	1073.60
910.14	1077.11
910.44	1068.69
910.75	1069.86
911.05	1071.73
911.36	1067.52
911.66	1072.43
911.97	1086.24
912.27	1084.60
912.58	1080.39
912.88	1069.86
913.19	1059.09
913.49	1050.43
913.80	1052.07
914.10	1055.35
914.41	1068.69
914.71	1071.50
915.01	1073.37
915.32	1073.14
915.62	1073.14
915.93	1067.75
916.23	1068.45
916.54	1064.48
916.84	1068.22
917.15	1067.52
917.45	1079.22
917.75	1067.28
918.06	1070.33
918.36	1060.26
918.67	1065.65
918.97	1053.24
919.27	1063.77
919.58	1058.86
919.88	1061.67
920.18	1069.62
920.49	1081.56
920.79	1081.09
921.10	1081.80
921.40	1088.35
921.70	1076.18
922.01	1060.50
922.31	1058.39
922.61	1066.82
922.92	1065.65
923.22	1064.01
923.52	1073.37
923.82	1084.37
924.13	1088.35
924.43	1089.52
924.73	1092.80
925.04	1092.09
925.34	1089.75
925.64	1072.90
925.94	1071.97
926.25	1071.97
926.55	1069.62
926.85	1071.50
927.15	1081.80
927.46	1079.46
927.76	1084.60
928.06	1077.35
928.36	1077.35
928.67	1072.90
928.97	1074.07
929.27	1062.60
929.57	1080.63
929.87	1072.43
930.18	1083.67
930.48	1091.86
930.78	1100.05
931.08	1093.26
931.38	1089.05
931.69	1078.05
931.99	1070.80
932.29	1061.20
932.59	1057.92
932.89	1069.86
933.19	1075.94
933.49	1081.80
933.80	1094.20
934.10	1088.82
934.40	1075.94
934.70	1076.65
935.00	1070.56
935.30	1067.99
935.60	1074.54
935.90	1083.43
936.20	1073.84
936.50	1090.46
936.81	1082.97
937.11	1085.31
937.41	1080.63
937.71	1092.09
938.01	1084.37
938.31	1094.90
938.61	1095.37
938.91	1100.29
939.21	1097.01
939.51	1086.24
939.81	1090.92
940.11	1081.56
940.41	1084.60
940.71	1082.03
941.01	1092.33
941.31	1090.92
941.61	1106.14
941.91	1103.80
942.21	1102.16
942.51	1101.69
942.81	1093.73
943.11	1087.18
943.41	1082.26
943.71	1092.56
944.01	1089.52
944.31	1091.16
944.61	1092.80
944.90	1106.61
945.20	1102.86
945.50	1102.63
945.80	1104.73
946.10	1100.52
946.40	1094.90
946.70	1093.03
947.00	1091.63
947.30	1089.29
947.60	1086.01
947.89	1075.01
948.19	1078.28
948.49	1076.18
948.79	1078.28
949.09	1088.35
949.39	1097.24
949.69	1098.65
949.98	1101.22
950.28	1102.86
950.58	1096.54
950.88	1092.09
951.18	1088.82
951.48	1092.33
951.77	1086.94
952.07	1084.84
952.37	1094.67
952.67	1098.18
952.97	1090.92
953.26	1094.20
953.56	1094.67
953.86	1077.82
954.16	1072.67
954.45	1073.60
954.75	1061.67
955.05	1060.26
955.35	1066.11
955.64	1062.84
955.94	1065.88
956.24	1075.24
956.54	1075.71
956.83	1077.35
957.13	1076.88
957.43	1082.73
957.72	1075.24
958.02	1088.82
958.32	1092.33
958.61	1095.14
958.91	1094.67
959.21	1099.12
959.50	1087.88
959.80	1089.29
960.10	1093.97
960.39	1087.65
960.69	1097.24
960.99	1096.78
961.28	1082.26
961.58	1068.45
961.87	1066.58
962.17	1053.24
962.47	1049.50
962.76	1057.92
963.06	1062.60
963.36	1067.75
963.65	1080.86
963.95	1077.11
964.24	1076.88
964.54	1078.28
964.83	1077.35
965.13	1077.11
965.42	1074.07
965.72	1078.75
966.02	1089.05
966.31	1085.07
966.61	1077.58
966.90	1089.05
967.20	1082.50
967.49	1066.11
967.79	1064.94
968.08	1067.75
968.38	1070.80
968.67	1084.14
968.97	1089.29
969.26	1086.71
969.56	1091.86
969.85	1083.90
970.15	1072.90
970.44	1079.22
970.74	1084.37
971.03	1065.88
971.32	1060.26
971.62	1055.35
971.91	1050.90
972.21	1061.20
972.50	1071.97
972.80	1076.65
973.09	1082.50
973.38	1082.26
973.68	1077.82
973.97	1083.43
974.27	1087.18
974.56	1087.18
974.85	1090.22
975.15	1075.48
975.44	1068.45
975.73	1066.35
976.03	1066.11
976.32	1067.99
976.61	1075.01
976.91	1076.65
977.20	1075.24
977.49	1067.28
977.79	1064.01
978.08	1073.14
978.37	1079.46
978.67	1085.07
978.96	1099.12
979.25	1103.33
979.55	1102.86
979.84	1098.18
980.13	1096.31
980.42	1095.37
980.72	1099.58
981.01	1099.58
981.30	1099.12
981.59	1097.48
981.89	1090.92
982.18	1082.97
982.47	1076.65
982.76	1087.41
983.06	1086.71
983.35	1088.82
983.64	1089.29
983.93	1094.20
984.22	1089.99
984.52	1104.03
984.81	1097.01
985.10	1099.35
985.39	1088.12
985.68	1078.99
985.97	1069.62
986.27	1074.77
986.56	1078.28
986.85	1083.67
987.14	1082.26
987.43	1080.39
987.72	1089.75
988.01	1079.22
988.31	1082.03
988.60	1078.99
988.89	1075.71
989.18	1058.86
989.47	1059.09
989.76	1057.92
990.05	1061.67
990.34	1069.86
990.63	1080.16
990.92	1081.56
991.21	1080.63
991.51	1078.99
991.80	1079.69
992.09	1078.99
992.38	1076.41
992.67	1074.77
992.96	1081.09
993.25	1077.35
993.54	1077.82
993.83	1078.75
994.12	1080.63
994.41	1082.26
994.70	1076.18
994.99	1069.62
995.28	1072.20
995.57	1065.65
995.86	1066.35
996.15	1072.20
996.44	1083.67
996.73	1085.77
997.02	1096.78
997.31	1090.46
997.59	1076.88
997.88	1070.33
998.17	1064.71
998.46	1056.28
998.75	1061.20
999.04	1076.41
999.33	1084.84
999.62	1095.14
999.91	1093.50
1000.20	1094.43
1000.49	1089.29
1000.77	1081.80
1001.06	1078.05
1001.35	1082.50
1001.64	1087.18
1001.93	1084.60
1002.22	1085.31
1002.51	1084.37
1002.79	1087.41
1003.08	1086.24
1003.37	1095.14
1003.66	1090.46
1003.95	1095.60
1004.23	1094.20
1004.52	1096.31
1004.81	1091.86
1005.10	1094.20
1005.39	1084.84
1005.67	1085.54
1005.96	1071.26
1006.25	1069.62
1006.54	1069.39
1006.83	1068.45
1007.11	1066.11
1007.40	1074.54
1007.69	1082.50
1007.97	1089.29
1008.26	1101.22
1008.55	1107.78
1008.84	1110.58
1009.12	1100.52
1009.41	1098.65
1009.70	1094.90
1009.98	1091.39
1010.27	1089.29
1010.56	1096.31
1010.85	1094.67
1011.13	1079.92
1011.42	1067.28
1011.71	1061.90
1011.99	1055.11
1012.28	1054.41
1012.56	1055.82
1012.85	1066.58
1013.14	1061.90
1013.42	1066.11
1013.71	1065.18
1014.00	1075.24
1014.28	1081.09
1014.57	1094.20
1014.85	1090.92
1015.14	1086.71
1015.43	1087.41
1015.71	1076.88
1016.00	1079.46
1016.28	1083.90
1016.57	1096.31
1016.85	1095.37
1017.14	1099.58
1017.43	1097.48
1017.71	1090.92
1018.00	1078.28
1018.28	1071.97
1018.57	1075.71
1018.85	1076.65
1019.14	1076.65
1019.42	1082.97
1019.71	1093.26
1019.99	1089.99
1020.28	1084.14
1020.56	1085.31
1020.85	1080.63
1021.13	1076.88
1021.42	1084.60
1021.70	1088.58
1021.99	1094.43
1022.27	1098.65
1022.55	1093.03
1022.84	1089.52
>>>>>End Processed Spectral Data<<<<<
