SpectraSuite Data File
++++++++++++++++++++++++++++++++++++
Date: Mon Aug 26 10:24:35 PDT 2019
User: corrico
Dark Spectrum Present: No
Reference Spectrum Present: No
Number of Sampled Component Spectra: 1
Spectrometers: USB2+H06089
Integration Time (usec): 10000 (USB2+H06089)
Spectra Averaged: 2 (USB2+H06089)
Boxcar Smoothing: 2 (USB2+H06089)
Correct for Electrical Dark: No (USB2+H06089)
Strobe/Lamp Enabled: No (USB2+H06089)
Correct for Detector Non-linearity: No (USB2+H06089)
Correct for Stray Light: No (USB2+H06089)
Number of Pixels in Processed Spectrum: 2048
>>>>>Begin Processed Spectral Data<<<<<
339.70	1018.13
340.07	1018.13
340.45	992.62
340.82	976.71
341.19	955.87
341.57	937.38
341.94	928.49
342.31	924.04
342.69	917.72
343.06	907.89
343.43	900.40
343.81	897.83
344.18	894.32
344.55	902.28
344.93	920.06
345.30	934.81
345.67	945.58
346.04	948.62
346.42	953.30
346.79	954.94
347.16	957.51
347.54	957.98
347.91	973.66
348.28	979.98
348.65	989.81
349.03	1009.00
349.40	1028.67
349.77	1041.77
350.14	1046.92
350.52	1059.09
350.89	1058.86
351.26	1062.84
351.63	1073.60
352.01	1086.71
352.38	1084.84
352.75	1091.86
353.12	1086.71
353.50	1084.37
353.87	1080.86
354.24	1086.24
354.61	1084.60
354.98	1090.46
355.36	1088.82
355.73	1103.09
356.10	1106.61
356.47	1110.82
356.84	1116.20
357.22	1109.88
357.59	1103.56
357.96	1102.16
358.33	1110.12
358.70	1113.63
359.08	1120.88
359.45	1115.03
359.82	1104.97
360.19	1105.20
360.56	1094.90
360.94	1089.29
361.31	1092.56
361.68	1108.95
362.05	1093.97
362.42	1095.84
362.79	1110.82
363.16	1110.82
363.54	1115.50
363.91	1112.22
364.28	1116.90
364.65	1106.37
365.02	1104.50
365.39	1097.71
365.76	1102.86
366.14	1104.97
366.51	1105.67
366.88	1111.29
367.25	1112.69
367.62	1123.69
367.99	1113.63
368.36	1112.46
368.73	1108.71
369.10	1106.14
369.48	1098.41
369.85	1103.56
370.22	1100.05
370.59	1104.97
370.96	1097.01
371.33	1093.97
371.70	1088.58
372.07	1093.03
372.44	1087.41
372.81	1083.43
373.18	1078.99
373.55	1070.56
373.93	1067.28
374.30	1066.82
374.67	1071.03
375.04	1076.88
375.41	1096.31
375.78	1098.88
376.15	1102.86
376.52	1112.22
376.89	1114.10
377.26	1113.86
377.63	1117.14
378.00	1121.58
378.37	1122.29
378.74	1118.07
379.11	1118.54
379.48	1115.50
379.85	1110.82
380.22	1114.56
380.59	1114.10
380.96	1109.65
381.33	1109.88
381.70	1110.82
382.07	1101.22
382.44	1096.31
382.81	1095.60
383.18	1100.05
383.55	1097.24
383.92	1099.12
384.29	1105.20
384.66	1115.50
385.03	1104.73
385.40	1110.58
385.77	1121.82
386.14	1126.03
386.51	1122.75
386.88	1131.88
387.25	1131.88
387.62	1119.95
387.99	1122.99
388.36	1130.71
388.73	1136.10
389.10	1135.63
389.46	1138.20
389.83	1140.31
390.20	1127.20
390.57	1128.61
390.94	1122.99
391.31	1129.54
391.68	1130.95
392.05	1127.67
392.42	1133.76
392.79	1146.63
393.16	1140.78
393.53	1128.37
393.89	1140.31
394.26	1128.84
394.63	1127.20
395.00	1132.12
395.37	1141.71
395.74	1142.18
396.11	1137.73
396.48	1123.22
396.84	1122.75
397.21	1129.31
397.58	1129.31
397.95	1141.48
398.32	1154.35
398.69	1161.37
399.06	1160.91
399.42	1158.57
399.79	1162.08
400.16	1162.78
400.53	1165.82
400.90	1168.63
401.27	1187.12
401.64	1203.97
402.00	1212.63
402.37	1227.38
402.74	1244.23
403.11	1249.38
403.48	1240.72
403.84	1256.87
404.21	1270.44
404.58	1282.61
404.95	1298.53
405.32	1336.68
405.68	1357.74
406.05	1372.26
406.42	1392.38
406.79	1407.13
407.16	1423.75
407.52	1453.94
407.89	1478.28
408.26	1506.84
408.63	1554.58
408.99	1590.39
409.36	1634.16
409.73	1675.59
410.10	1732.46
410.47	1778.81
410.83	1834.28
411.20	1886.47
411.57	1961.84
411.94	2036.97
412.30	2118.18
412.67	2202.21
413.04	2302.62
413.40	2400.45
413.77	2501.10
414.14	2624.68
414.51	2755.98
414.87	2885.41
415.24	3024.91
415.61	3156.21
415.97	3287.75
416.34	3442.93
416.71	3593.66
417.08	3782.31
417.44	3974.00
417.81	4205.24
418.18	4434.38
418.54	4699.80
418.91	4972.70
419.28	5275.80
419.64	5560.18
420.01	5891.60
420.38	6218.57
420.74	6549.52
421.11	6954.43
421.48	7351.86
421.84	7747.41
422.21	8168.94
422.58	8679.41
422.94	9149.86
423.31	9677.18
423.68	10249.67
424.04	10857.98
424.41	11389.28
424.77	11976.52
425.14	12593.25
425.51	13251.18
425.87	14019.81
426.24	14770.42
426.61	15629.16
426.97	16647.76
427.34	17591.70
427.70	18567.94
428.07	19643.88
428.44	20794.49
428.80	21824.56
429.17	22912.91
429.53	23973.41
429.90	25247.12
430.27	26281.88
430.63	27304.22
431.00	28514.98
431.36	29850.02
431.73	30900.92
432.09	32202.26
432.46	33643.56
432.83	34995.22
433.19	36192.87
433.56	37637.92
433.92	39086.48
434.29	40400.22
434.65	41737.37
435.02	42966.62
435.38	44266.79
435.75	45087.61
436.11	46246.65
436.48	47201.58
436.84	48417.02
437.21	49313.68
437.57	50218.30
437.94	50734.39
438.30	51253.75
438.67	51318.82
439.03	51267.56
439.40	51369.14
439.76	51264.75
440.13	51006.12
440.49	50846.03
440.86	50458.67
441.22	50033.40
441.59	49408.47
441.95	48885.13
442.32	48080.22
442.68	47495.56
443.05	46610.60
443.41	45796.79
443.78	44677.55
444.14	43691.95
444.51	42540.87
444.87	41729.41
445.24	40666.81
445.60	39739.96
445.96	38727.44
446.33	37715.39
446.69	36315.05
447.06	35306.98
447.42	34249.53
447.79	33185.75
448.15	32307.12
448.51	31544.57
448.88	30796.07
449.24	29920.47
449.61	29244.29
449.97	28445.00
450.33	27681.52
450.70	26729.62
451.06	26061.63
451.43	25243.85
451.79	24560.65
452.15	23898.51
452.52	23402.31
452.88	22812.50
453.24	22252.41
453.61	21638.02
453.97	21038.61
454.34	20381.85
454.70	19827.85
455.06	19281.10
455.43	18683.56
455.79	18032.89
456.15	17500.89
456.52	16890.71
456.88	16373.45
457.24	15873.28
457.61	15499.03
457.97	14956.49
458.33	14423.32
458.70	13886.16
459.06	13321.86
459.42	12775.35
459.79	12310.28
460.15	11897.65
460.51	11454.11
460.88	11058.33
461.24	10718.95
461.60	10404.85
461.96	10078.58
462.33	9775.25
462.69	9490.40
463.05	9171.62
463.42	8909.48
463.78	8623.47
464.14	8372.56
464.50	8115.34
464.87	7885.26
465.23	7632.25
465.59	7449.93
465.95	7249.81
466.32	7052.50
466.68	6864.56
467.04	6683.63
467.40	6490.31
467.77	6298.62
468.13	6122.37
468.49	5958.07
468.85	5817.64
469.22	5665.50
469.58	5542.86
469.94	5448.06
470.30	5365.68
470.66	5263.40
471.03	5172.12
471.39	5078.96
471.75	4953.98
472.11	4800.91
472.47	4692.31
472.84	4591.90
473.20	4469.96
473.56	4391.31
473.92	4311.27
474.28	4210.62
474.65	4110.21
475.01	4050.53
475.37	3959.48
475.73	3887.16
476.09	3801.73
476.45	3725.43
476.81	3645.62
477.18	3575.40
477.54	3507.29
477.90	3472.65
478.26	3391.44
478.62	3330.35
478.98	3275.11
479.34	3219.87
479.71	3144.98
480.07	3116.19
480.43	3057.44
480.79	3012.04
481.15	2972.25
481.51	2929.41
481.87	2881.90
482.23	2850.30
482.59	2805.37
482.96	2769.56
483.32	2729.30
483.68	2700.04
484.04	2672.66
484.40	2637.32
484.76	2602.21
485.12	2561.72
485.48	2531.06
485.84	2494.78
486.20	2462.95
486.56	2416.37
486.92	2401.86
487.28	2369.32
487.64	2328.83
488.00	2295.36
488.37	2262.83
488.73	2229.13
489.09	2186.29
489.45	2155.63
489.81	2117.95
490.17	2087.52
490.53	2066.46
490.89	2050.54
491.25	2021.99
491.61	2003.03
491.97	1990.63
492.33	1942.41
492.69	1903.32
493.05	1877.11
493.41	1850.43
493.77	1818.60
494.13	1805.96
494.49	1793.08
494.85	1776.00
495.21	1765.70
495.57	1750.95
495.93	1752.83
496.29	1728.02
496.64	1717.95
497.00	1695.72
497.36	1676.29
497.72	1639.08
498.08	1621.76
498.44	1601.16
498.80	1586.88
499.16	1576.12
499.52	1546.39
499.88	1532.58
500.24	1516.67
500.60	1499.11
500.96	1484.37
501.32	1485.77
501.68	1483.43
502.03	1477.35
502.39	1465.88
502.75	1450.43
503.11	1449.26
503.47	1438.03
503.83	1428.66
504.19	1421.41
504.55	1413.68
504.91	1397.07
505.26	1385.36
505.62	1379.28
505.98	1375.53
506.34	1363.60
506.70	1363.83
507.06	1364.30
507.42	1346.04
507.78	1326.38
508.13	1327.08
508.49	1320.06
508.85	1310.23
509.21	1311.64
509.57	1304.38
509.93	1311.40
510.28	1308.59
510.64	1300.17
511.00	1294.55
511.36	1301.34
511.72	1274.89
512.07	1261.31
512.43	1259.44
512.79	1258.51
513.15	1257.34
513.51	1264.36
513.86	1270.21
514.22	1273.25
514.58	1270.44
514.94	1259.68
515.30	1238.61
515.65	1215.91
516.01	1202.80
516.37	1196.72
516.73	1200.69
517.08	1220.82
517.44	1231.82
517.80	1229.72
518.16	1231.82
518.51	1229.48
518.87	1221.76
519.23	1218.72
519.59	1214.74
519.94	1204.21
520.30	1198.59
520.66	1194.14
521.01	1189.69
521.37	1187.59
521.73	1183.84
522.09	1180.80
522.44	1185.48
522.80	1187.12
523.16	1174.25
523.51	1171.91
523.87	1166.05
524.23	1151.78
524.58	1148.03
524.94	1162.54
525.30	1172.37
525.65	1177.06
526.01	1178.23
526.37	1177.76
526.72	1175.42
527.08	1165.12
527.44	1152.71
527.79	1152.01
528.15	1149.67
528.51	1150.37
528.86	1143.35
529.22	1151.31
529.58	1151.78
529.93	1148.27
530.29	1138.90
530.65	1148.50
531.00	1142.42
531.36	1140.54
531.71	1138.20
532.07	1142.18
532.43	1139.37
532.78	1149.91
533.14	1149.20
533.49	1155.52
533.85	1149.44
534.21	1148.73
534.56	1152.71
534.92	1158.57
535.27	1167.46
535.63	1174.25
535.98	1172.61
536.34	1162.78
536.69	1157.16
537.05	1141.71
537.41	1137.27
537.76	1138.67
538.12	1131.41
538.47	1138.90
538.83	1145.93
539.18	1146.86
539.54	1144.52
539.89	1140.78
540.25	1127.90
540.60	1120.41
540.96	1117.61
541.31	1111.29
541.67	1114.56
542.02	1122.99
542.38	1123.22
542.73	1121.12
543.09	1124.86
543.44	1129.54
543.80	1131.88
544.15	1130.95
544.51	1138.20
544.86	1141.25
545.22	1136.56
545.57	1132.82
545.93	1133.99
546.28	1128.61
546.64	1129.07
546.99	1141.25
547.35	1141.71
547.70	1135.86
548.05	1137.97
548.41	1134.46
548.76	1126.03
549.12	1127.44
549.47	1137.50
549.83	1134.69
550.18	1133.52
550.53	1133.99
550.89	1131.88
551.24	1125.33
551.60	1123.46
551.95	1128.61
552.30	1119.01
552.66	1120.65
553.01	1115.73
553.37	1114.10
553.72	1106.61
554.07	1113.39
554.43	1105.44
554.78	1098.65
555.13	1097.01
555.49	1088.82
555.84	1089.52
556.19	1086.94
556.55	1100.29
556.90	1110.12
557.26	1122.75
557.61	1116.67
557.96	1120.18
558.32	1122.75
558.67	1119.24
559.02	1118.31
559.37	1132.59
559.73	1136.10
560.08	1139.84
560.43	1141.01
560.79	1138.20
561.14	1129.07
561.49	1126.50
561.85	1124.86
562.20	1123.93
562.55	1120.18
562.90	1116.20
563.26	1118.31
563.61	1107.31
563.96	1118.31
564.32	1118.31
564.67	1127.67
565.02	1117.84
565.37	1127.20
565.73	1117.37
566.08	1120.88
566.43	1121.82
566.78	1129.54
567.14	1127.67
567.49	1128.37
567.84	1123.93
568.19	1116.67
568.54	1110.12
568.90	1104.73
569.25	1095.37
569.60	1097.01
569.95	1093.50
570.31	1096.78
570.66	1097.95
571.01	1111.75
571.36	1108.71
571.71	1112.22
572.06	1108.48
572.42	1102.39
572.77	1087.65
573.12	1086.71
573.47	1087.41
573.82	1080.63
574.18	1076.41
574.53	1074.31
574.88	1071.97
575.23	1065.65
575.58	1082.73
575.93	1089.75
576.28	1086.71
576.64	1090.22
576.99	1097.95
577.34	1100.52
577.69	1098.18
578.04	1098.41
578.39	1098.65
578.74	1085.07
579.09	1080.16
579.44	1094.90
579.80	1099.35
580.15	1099.12
580.50	1114.33
580.85	1110.35
581.20	1100.05
581.55	1110.58
581.90	1115.97
582.25	1115.27
582.60	1117.14
582.95	1125.80
583.30	1119.71
583.65	1116.20
584.00	1115.73
584.35	1111.05
584.71	1107.31
585.06	1104.26
585.41	1101.46
585.76	1104.73
586.11	1112.22
586.46	1111.75
586.81	1115.50
587.16	1113.63
587.51	1108.24
587.86	1106.37
588.21	1103.09
588.56	1104.26
588.91	1108.95
589.26	1094.90
589.61	1088.35
589.96	1086.48
590.31	1082.50
590.66	1086.01
591.01	1095.60
591.36	1102.16
591.71	1110.35
592.06	1122.29
592.41	1121.58
592.76	1122.05
593.10	1112.69
593.45	1104.26
593.80	1099.58
594.15	1099.82
594.50	1098.88
594.85	1102.16
595.20	1097.48
595.55	1088.82
595.90	1085.54
596.25	1084.84
596.60	1090.46
596.95	1097.71
597.30	1102.39
597.64	1160.67
597.99	1170.97
598.34	1167.93
598.69	1167.93
599.04	1175.65
599.39	1112.46
599.74	1110.12
600.09	1108.24
600.44	1108.71
600.78	1112.69
601.13	1116.20
601.48	1108.24
601.83	1113.86
602.18	1114.33
602.53	1098.88
602.88	1099.35
603.22	1105.44
603.57	1098.88
603.92	1105.90
604.27	1101.69
604.62	1106.84
604.97	1100.99
605.31	1105.20
605.66	1093.73
606.01	1097.48
606.36	1098.18
606.71	1097.24
607.05	1085.77
607.40	1079.22
607.75	1075.94
608.10	1062.60
608.44	1067.05
608.79	1072.67
609.14	1081.09
609.49	1088.58
609.84	1101.22
610.18	1111.52
610.53	1119.71
610.88	1129.31
611.23	1129.78
611.57	1127.90
611.92	1119.71
612.27	1114.80
612.62	1108.24
612.96	1111.29
613.31	1117.84
613.66	1117.61
614.00	1106.84
614.35	1110.35
614.70	1101.92
615.05	1088.12
615.39	1079.92
615.74	1088.35
616.09	1077.58
616.43	1077.82
616.78	1088.58
617.13	1085.07
617.47	1085.07
617.82	1097.24
618.17	1097.71
618.51	1091.63
618.86	1098.88
619.21	1101.69
619.55	1096.31
619.90	1099.58
620.25	1102.16
620.59	1108.95
620.94	1102.86
621.29	1093.73
621.63	1096.31
621.98	1095.60
622.32	1084.60
622.67	1089.05
623.02	1099.82
623.36	1095.37
623.71	1101.22
624.05	1104.50
624.40	1110.35
624.75	1109.65
625.09	1112.69
625.44	1105.20
625.78	1116.44
626.13	1107.54
626.48	1094.90
626.82	1092.33
627.17	1093.97
627.51	1091.39
627.86	1096.31
628.20	1095.14
628.55	1089.75
628.89	1077.58
629.24	1066.58
629.58	1068.22
629.93	1071.50
630.28	1083.67
630.62	1100.75
630.97	1095.60
631.31	1098.18
631.66	1102.16
632.00	1103.80
632.35	1097.24
632.69	1104.03
633.04	1093.03
633.38	1094.20
633.73	1074.77
634.07	1076.65
634.42	1084.84
634.76	1092.09
635.11	1090.22
635.45	1100.29
635.79	1098.88
636.14	1104.50
636.48	1108.48
636.83	1111.75
637.17	1112.22
637.52	1112.46
637.86	1091.86
638.21	1085.54
638.55	1076.65
638.89	1079.22
639.24	1084.37
639.58	1095.84
639.93	1097.71
640.27	1104.73
640.61	1101.46
640.96	1101.92
641.30	1107.31
641.65	1106.61
641.99	1105.90
642.33	1104.97
642.68	1104.50
643.02	1101.22
643.37	1107.78
643.71	1112.46
644.05	1114.33
644.40	1104.50
644.74	1108.01
645.08	1095.14
645.43	1093.50
645.77	1094.90
646.11	1105.90
646.46	1094.20
646.80	1100.99
647.14	1097.95
647.49	1096.31
647.83	1088.35
648.17	1091.16
648.52	1080.63
648.86	1082.97
649.20	1096.78
649.55	1098.18
649.89	1110.35
650.23	1112.92
650.57	1111.99
650.92	1095.60
651.26	1099.58
651.60	1087.18
651.95	1099.58
652.29	1100.52
652.63	1108.95
652.97	1102.63
653.32	1098.18
653.66	1083.20
654.00	1085.77
654.34	1088.35
654.69	1097.24
655.03	1106.84
655.37	1113.86
655.71	1108.71
656.05	1106.84
656.40	1093.97
656.74	1085.31
657.08	1088.58
657.42	1083.90
657.76	1077.58
658.11	1077.35
658.45	1082.26
658.79	1085.07
659.13	1088.12
659.47	1091.86
659.82	1094.67
660.16	1097.24
660.50	1093.73
660.84	1099.58
661.18	1098.65
661.52	1105.67
661.87	1095.37
662.21	1093.03
662.55	1088.12
662.89	1084.14
663.23	1085.54
663.57	1089.52
663.91	1092.09
664.25	1097.71
664.60	1094.43
664.94	1084.37
665.28	1087.41
665.62	1086.94
665.96	1088.35
666.30	1099.12
666.64	1100.75
666.98	1101.92
667.32	1103.56
667.66	1092.09
668.01	1087.41
668.35	1090.22
668.69	1089.05
669.03	1086.24
669.37	1081.80
669.71	1080.39
670.05	1086.94
670.39	1093.50
670.73	1097.01
671.07	1114.33
671.41	1116.20
671.75	1120.41
672.09	1111.05
672.43	1111.75
672.77	1108.01
673.11	1110.12
673.45	1105.90
673.79	1110.35
674.13	1108.71
674.47	1105.67
674.81	1115.03
675.15	1106.61
675.49	1113.16
675.83	1109.41
676.17	1109.65
676.51	1103.80
676.85	1107.78
677.19	1095.37
677.53	1107.54
677.87	1113.39
678.21	1108.71
678.55	1107.54
678.89	1109.41
679.23	1093.97
679.57	1090.22
679.90	1083.90
680.24	1086.71
680.58	1093.73
680.92	1096.07
681.26	1089.29
681.60	1082.97
681.94	1078.99
682.28	1064.24
682.62	1068.22
682.96	1081.56
683.29	1089.29
683.63	1089.75
683.97	1109.41
684.31	1109.88
684.65	1099.82
684.99	1105.20
685.33	1105.44
685.67	1098.41
686.00	1091.63
686.34	1096.78
686.68	1093.26
687.02	1092.56
687.36	1094.20
687.70	1098.18
688.03	1097.24
688.37	1097.01
688.71	1101.69
689.05	1096.54
689.39	1097.48
689.72	1097.71
690.06	1092.09
690.40	1084.60
690.74	1082.26
691.08	1084.37
691.41	1076.41
691.75	1075.48
692.09	1078.99
692.43	1079.69
692.76	1068.45
693.10	1070.09
693.44	1078.05
693.78	1070.09
694.11	1069.39
694.45	1078.05
694.79	1081.33
695.13	1078.05
695.46	1086.94
695.80	1083.20
696.14	1079.22
696.48	1080.86
696.81	1083.90
697.15	1081.80
697.49	1087.18
697.82	1088.82
698.16	1081.33
698.50	1087.65
698.83	1098.65
699.17	1101.22
699.51	1104.73
699.84	1114.33
700.18	1105.20
700.52	1088.12
700.85	1091.39
701.19	1087.41
701.53	1069.86
701.86	1067.75
702.20	1070.56
702.54	1059.79
702.87	1060.73
703.21	1080.86
703.55	1089.29
703.88	1087.65
704.22	1093.50
704.55	1101.22
704.89	1090.22
705.23	1084.84
705.56	1088.58
705.90	1093.26
706.23	1087.41
706.57	1097.71
706.91	1106.84
707.24	1119.01
707.58	1113.16
707.91	1110.12
708.25	1100.99
708.58	1102.86
708.92	1094.43
709.26	1089.52
709.59	1090.22
709.93	1100.52
710.26	1090.92
710.60	1089.52
710.93	1093.26
711.27	1094.90
711.60	1084.60
711.94	1079.46
712.27	1083.43
712.61	1088.12
712.94	1087.41
713.28	1087.65
713.61	1092.33
713.95	1084.60
714.28	1087.65
714.62	1096.54
714.95	1092.33
715.29	1089.99
715.62	1094.90
715.96	1095.60
716.29	1088.12
716.63	1089.52
716.96	1094.67
717.29	1091.86
717.63	1082.03
717.96	1081.09
718.30	1086.71
718.63	1078.52
718.97	1076.65
719.30	1080.39
719.63	1079.69
719.97	1078.52
720.30	1092.33
720.64	1089.05
720.97	1088.12
721.30	1087.41
721.64	1082.97
721.97	1075.71
722.31	1073.14
722.64	1074.54
722.97	1075.48
723.31	1076.18
723.64	1073.14
723.97	1080.63
724.31	1085.31
724.64	1092.80
724.98	1092.33
725.31	1102.63
725.64	1107.54
725.98	1105.90
726.31	1097.01
726.64	1097.24
726.97	1086.24
727.31	1078.05
727.64	1079.92
727.97	1084.14
728.31	1089.99
728.64	1089.75
728.97	1100.52
729.31	1099.82
729.64	1099.12
729.97	1092.09
730.30	1085.31
730.64	1085.07
730.97	1081.33
731.30	1077.82
731.63	1086.01
731.97	1095.84
732.30	1081.09
732.63	1081.80
732.96	1082.97
733.30	1087.18
733.63	1091.16
733.96	1090.69
734.29	1089.29
734.63	1087.88
734.96	1086.24
735.29	1082.26
735.62	1092.80
735.95	1091.16
736.29	1097.01
736.62	1089.52
736.95	1081.80
737.28	1076.18
737.61	1078.99
737.94	1081.56
738.28	1086.94
738.61	1088.12
738.94	1094.43
739.27	1091.86
739.60	1089.99
739.93	1085.07
740.27	1079.92
740.60	1069.39
740.93	1062.84
741.26	1053.24
741.59	1060.50
741.92	1064.48
742.25	1074.07
742.58	1079.46
742.91	1080.86
743.25	1078.52
743.58	1078.05
743.91	1071.73
744.24	1077.11
744.57	1079.69
744.90	1069.62
745.23	1076.41
745.56	1082.97
745.89	1082.50
746.22	1093.50
746.55	1103.09
746.88	1100.05
747.21	1092.33
747.54	1087.65
747.87	1067.28
748.20	1069.39
748.53	1069.39
748.87	1079.92
749.20	1089.52
749.53	1100.52
749.86	1101.22
750.19	1098.41
750.52	1096.07
750.85	1081.33
751.18	1078.05
751.51	1067.75
751.84	1071.26
752.16	1066.35
752.49	1071.50
752.82	1075.24
753.15	1074.77
753.48	1078.28
753.81	1080.39
754.14	1085.54
754.47	1089.05
754.80	1095.14
755.13	1090.22
755.46	1087.65
755.79	1087.41
756.12	1088.58
756.45	1094.20
756.78	1094.20
757.11	1093.97
757.43	1093.50
757.76	1083.90
758.09	1077.35
758.42	1077.82
758.75	1073.14
759.08	1067.52
759.41	1065.18
759.74	1069.16
760.07	1068.69
760.39	1068.92
760.72	1073.60
761.05	1078.52
761.38	1078.52
761.71	1077.35
762.04	1085.54
762.36	1077.58
762.69	1079.22
763.02	1077.82
763.35	1082.03
763.68	1082.03
764.01	1083.20
764.33	1081.56
764.66	1079.92
764.99	1081.33
765.32	1074.07
765.65	1077.35
765.97	1085.77
766.30	1075.48
766.63	1075.24
766.96	1084.14
767.28	1086.01
767.61	1079.69
767.94	1091.86
768.27	1086.01
768.59	1086.48
768.92	1086.01
769.25	1079.92
769.58	1078.75
769.90	1078.99
770.23	1074.07
770.56	1074.31
770.89	1075.24
771.21	1069.39
771.54	1076.65
771.87	1073.60
772.19	1066.58
772.52	1075.71
772.85	1074.77
773.17	1074.54
773.50	1078.05
773.83	1084.37
774.15	1075.94
774.48	1073.37
774.81	1073.60
775.13	1065.65
775.46	1064.01
775.79	1064.24
776.11	1065.18
776.44	1055.11
776.77	1076.88
777.09	1072.90
777.42	1073.84
777.74	1078.52
778.07	1084.14
778.40	1067.28
778.72	1071.50
779.05	1071.73
779.37	1066.82
779.70	1067.75
780.03	1074.07
780.35	1075.71
780.68	1080.39
781.00	1085.31
781.33	1093.73
781.65	1104.03
781.98	1107.31
782.31	1100.75
782.63	1106.37
782.96	1101.92
783.28	1083.67
783.61	1074.31
783.93	1078.52
784.26	1073.60
784.58	1068.92
784.91	1076.18
785.23	1078.05
785.56	1075.01
785.88	1071.03
786.21	1070.09
786.53	1064.48
786.86	1070.09
787.18	1072.20
787.51	1072.43
787.83	1073.37
788.16	1080.39
788.48	1080.39
788.81	1082.26
789.13	1074.07
789.46	1067.28
789.78	1068.45
790.10	1068.45
790.43	1066.11
790.75	1079.22
791.08	1091.39
791.40	1085.54
791.73	1086.71
792.05	1096.54
792.37	1097.01
792.70	1093.50
793.02	1094.90
793.35	1090.22
793.67	1084.60
793.99	1085.77
794.32	1072.90
794.64	1079.46
794.96	1080.63
795.29	1075.94
795.61	1064.48
795.93	1072.20
796.26	1068.22
796.58	1071.50
796.91	1075.01
797.23	1089.99
797.55	1094.67
797.87	1087.18
798.20	1076.41
798.52	1071.73
798.84	1075.71
799.17	1074.07
799.49	1083.67
799.81	1092.56
800.14	1094.90
800.46	1087.18
800.78	1086.71
801.10	1084.37
801.43	1083.20
801.75	1084.37
802.07	1082.73
802.40	1089.52
802.72	1089.52
803.04	1094.90
803.36	1097.24
803.69	1099.35
804.01	1088.58
804.33	1087.65
804.65	1073.14
804.97	1070.56
805.30	1059.56
805.62	1068.69
805.94	1067.75
806.26	1077.82
806.58	1074.54
806.91	1086.94
807.23	1075.48
807.55	1085.54
807.87	1082.03
808.19	1071.50
808.52	1068.45
808.84	1076.18
809.16	1066.58
809.48	1072.90
809.80	1084.37
810.12	1089.52
810.44	1097.01
810.77	1099.35
811.09	1095.14
811.41	1100.75
811.73	1094.43
812.05	1078.75
812.37	1075.71
812.69	1072.43
813.01	1066.11
813.33	1064.24
813.66	1071.50
813.98	1067.99
814.30	1070.33
814.62	1077.58
814.94	1078.52
815.26	1082.26
815.58	1087.41
815.90	1083.20
816.22	1087.88
816.54	1093.73
816.86	1086.01
817.18	1086.94
817.50	1090.46
817.82	1080.39
818.14	1077.35
818.46	1088.58
818.78	1094.90
819.10	1096.54
819.42	1096.31
819.74	1086.24
820.06	1086.24
820.38	1074.07
820.70	1067.99
821.02	1068.92
821.34	1066.58
821.66	1067.99
821.98	1070.33
822.30	1078.28
822.62	1074.77
822.94	1095.60
823.26	1086.94
823.58	1088.35
823.90	1086.71
824.22	1087.18
824.54	1078.28
824.86	1081.80
825.18	1082.73
825.50	1083.20
825.81	1080.86
826.13	1085.07
826.45	1082.50
826.77	1090.22
827.09	1087.88
827.41	1089.99
827.73	1088.12
828.05	1090.69
828.36	1084.60
828.68	1085.31
829.00	1083.67
829.32	1081.56
829.64	1086.94
829.96	1091.39
830.28	1096.78
830.59	1106.14
830.91	1111.52
831.23	1109.18
831.55	1094.67
831.87	1085.54
832.19	1075.24
832.50	1069.39
832.82	1058.39
833.14	1073.37
833.46	1078.75
833.78	1082.03
834.09	1081.80
834.41	1089.99
834.73	1084.60
835.05	1092.09
835.36	1097.48
835.68	1093.97
836.00	1098.88
836.32	1102.86
836.63	1101.69
836.95	1094.43
837.27	1098.65
837.59	1086.48
837.90	1077.82
838.22	1059.79
838.54	1056.99
838.85	1050.43
839.17	1056.52
839.49	1054.88
839.80	1065.88
840.12	1065.41
840.44	1070.56
840.76	1071.73
841.07	1089.29
841.39	1096.54
841.71	1107.07
842.02	1104.50
842.34	1105.44
842.65	1096.07
842.97	1090.46
843.29	1079.22
843.60	1081.80
843.92	1079.22
844.24	1078.52
844.55	1075.24
844.87	1081.80
845.18	1072.67
845.50	1066.82
845.82	1068.69
846.13	1071.03
846.45	1067.28
846.76	1081.56
847.08	1084.60
847.40	1078.28
847.71	1080.39
848.03	1088.82
848.34	1084.37
848.66	1082.97
848.97	1080.39
849.29	1076.18
849.60	1069.39
849.92	1069.86
850.24	1076.65
850.55	1083.90
850.87	1085.07
851.18	1090.92
851.50	1086.94
851.81	1077.82
852.13	1078.75
852.44	1073.60
852.76	1071.97
853.07	1066.82
853.39	1073.84
853.70	1070.56
854.01	1072.90
854.33	1063.77
854.64	1070.80
854.96	1076.88
855.27	1073.84
855.59	1085.54
855.90	1099.58
856.22	1100.05
856.53	1091.16
856.84	1094.20
857.16	1096.07
857.47	1085.77
857.79	1080.86
858.10	1082.97
858.41	1081.33
858.73	1066.82
859.04	1069.39
859.36	1073.84
859.67	1072.43
859.98	1075.48
860.30	1075.01
860.61	1074.77
860.92	1071.03
861.24	1065.65
861.55	1060.96
861.87	1071.26
862.18	1072.90
862.49	1076.41
862.81	1074.07
863.12	1072.67
863.43	1074.07
863.74	1068.92
864.06	1065.18
864.37	1071.26
864.68	1071.26
865.00	1063.31
865.31	1078.99
865.62	1082.73
865.94	1079.92
866.25	1092.80
866.56	1086.48
866.87	1079.22
867.19	1073.37
867.50	1081.33
867.81	1064.48
868.12	1069.86
868.44	1068.69
868.75	1075.24
869.06	1077.35
869.37	1082.26
869.68	1093.50
870.00	1090.46
870.31	1088.82
870.62	1087.88
870.93	1099.12
871.24	1085.31
871.56	1092.33
871.87	1092.80
872.18	1087.41
872.49	1079.46
872.80	1085.31
873.12	1082.50
873.43	1084.14
873.74	1087.18
874.05	1078.75
874.36	1074.54
874.67	1065.41
874.98	1067.05
875.29	1057.69
875.61	1064.71
875.92	1067.75
876.23	1078.05
876.54	1075.01
876.85	1085.54
877.16	1095.14
877.47	1090.69
877.78	1093.50
878.09	1097.71
878.40	1091.63
878.72	1074.07
879.03	1078.99
879.34	1067.52
879.65	1064.94
879.96	1065.65
880.27	1070.56
880.58	1084.60
880.89	1082.03
881.20	1087.88
881.51	1088.12
881.82	1086.48
882.13	1074.77
882.44	1087.41
882.75	1081.09
883.06	1086.48
883.37	1086.24
883.68	1078.75
883.99	1073.60
884.30	1074.31
884.61	1070.80
884.92	1074.31
885.23	1072.67
885.54	1074.54
885.85	1071.97
886.16	1068.22
886.47	1062.37
886.78	1064.01
887.08	1056.28
887.39	1053.94
887.70	1063.07
888.01	1066.11
888.32	1068.92
888.63	1071.97
888.94	1076.65
889.25	1076.18
889.56	1086.24
889.87	1084.14
890.17	1090.69
890.48	1088.58
890.79	1087.65
891.10	1082.50
891.41	1076.18
891.72	1072.20
892.03	1066.35
892.34	1056.75
892.64	1056.99
892.95	1067.75
893.26	1064.48
893.57	1065.18
893.88	1070.56
894.18	1069.62
894.49	1068.69
894.80	1076.18
895.11	1086.71
895.42	1082.50
895.72	1085.77
896.03	1089.99
896.34	1090.69
896.65	1079.22
896.96	1084.14
897.26	1071.97
897.57	1069.62
897.88	1059.09
898.19	1064.24
898.49	1061.43
898.80	1075.01
899.11	1069.62
899.41	1078.99
899.72	1079.22
900.03	1085.07
900.34	1078.52
900.64	1076.41
900.95	1073.60
901.26	1067.52
901.56	1067.28
901.87	1064.71
902.18	1070.09
902.48	1066.35
902.79	1076.88
903.10	1075.71
903.40	1086.01
903.71	1079.92
904.02	1077.35
904.32	1085.77
904.63	1080.16
904.94	1070.56
905.24	1077.11
905.55	1078.52
905.85	1070.80
906.16	1069.86
906.47	1075.24
906.77	1074.07
907.08	1072.20
907.38	1071.50
907.69	1076.41
908.00	1079.46
908.30	1077.35
908.61	1075.24
908.91	1067.52
909.22	1071.50
909.52	1067.99
909.83	1069.16
910.14	1076.18
910.44	1075.94
910.75	1068.45
911.05	1070.33
911.36	1068.92
911.66	1064.71
911.97	1065.65
912.27	1067.75
912.58	1064.24
912.88	1067.52
913.19	1078.52
913.49	1079.92
913.80	1079.92
914.10	1076.88
914.41	1081.09
914.71	1079.46
915.01	1079.46
915.32	1076.18
915.62	1087.88
915.93	1075.94
916.23	1070.33
916.54	1067.52
916.84	1073.84
917.15	1061.43
917.45	1063.07
917.75	1073.60
918.06	1086.01
918.36	1084.14
918.67	1079.92
918.97	1080.39
919.27	1071.97
919.58	1066.82
919.88	1067.52
920.18	1078.99
920.49	1088.35
920.79	1095.84
921.10	1090.92
921.40	1080.86
921.70	1068.45
922.01	1063.07
922.31	1052.54
922.61	1054.41
922.92	1065.41
923.22	1073.14
923.52	1074.07
923.82	1070.80
924.13	1077.58
924.43	1071.26
924.73	1073.60
925.04	1079.22
925.34	1084.37
925.64	1083.43
925.94	1084.37
926.25	1074.31
926.55	1062.60
926.85	1057.45
927.15	1058.39
927.46	1062.14
927.76	1075.94
928.06	1083.43
928.36	1088.35
928.67	1092.09
928.97	1089.52
929.27	1092.09
929.57	1100.29
929.87	1103.09
930.18	1095.60
930.48	1097.24
930.78	1087.41
931.08	1075.24
931.38	1073.14
931.69	1073.60
931.99	1071.26
932.29	1080.39
932.59	1085.54
932.89	1079.69
933.19	1078.75
933.49	1084.37
933.80	1078.52
934.10	1083.90
934.40	1086.01
934.70	1089.05
935.00	1082.97
935.30	1084.84
935.60	1075.01
935.90	1082.50
936.20	1070.56
936.50	1075.24
936.81	1069.86
937.11	1076.41
937.41	1071.50
937.71	1084.14
938.01	1082.50
938.31	1087.65
938.61	1086.48
938.91	1093.50
939.21	1095.60
939.51	1088.12
939.81	1089.75
940.11	1094.90
940.41	1089.99
940.71	1079.92
941.01	1086.24
941.31	1088.58
941.61	1083.20
941.91	1075.94
942.21	1071.97
942.51	1068.22
942.81	1073.37
943.11	1068.45
943.41	1075.24
943.71	1082.50
944.01	1089.29
944.31	1077.35
944.61	1082.26
944.90	1079.69
945.20	1077.58
945.50	1086.01
945.80	1091.86
946.10	1088.82
946.40	1082.73
946.70	1081.33
947.00	1069.16
947.30	1058.39
947.60	1063.77
947.89	1072.20
948.19	1080.16
948.49	1083.67
948.79	1098.18
949.09	1088.58
949.39	1085.77
949.69	1085.54
949.98	1084.14
950.28	1080.63
950.58	1074.07
950.88	1069.62
951.18	1061.67
951.48	1061.43
951.77	1063.77
952.07	1077.11
952.37	1093.73
952.67	1097.48
952.97	1098.65
953.26	1088.82
953.56	1088.58
953.86	1087.88
954.16	1084.84
954.45	1088.58
954.75	1089.99
955.05	1082.73
955.35	1075.71
955.64	1076.88
955.94	1078.99
956.24	1081.33
956.54	1091.16
956.83	1088.12
957.13	1084.60
957.43	1078.99
957.72	1066.11
958.02	1069.62
958.32	1076.41
958.61	1081.33
958.91	1081.09
959.21	1093.50
959.50	1079.22
959.80	1067.05
960.10	1066.11
960.39	1064.01
960.69	1060.26
960.99	1075.94
961.28	1090.69
961.58	1102.63
961.87	1104.73
962.17	1106.84
962.47	1092.33
962.76	1077.82
963.06	1075.24
963.36	1083.43
963.65	1085.54
963.95	1090.69
964.24	1098.88
964.54	1090.46
964.83	1078.99
965.13	1081.80
965.42	1082.97
965.72	1085.77
966.02	1088.58
966.31	1089.99
966.61	1090.22
966.90	1091.16
967.20	1089.75
967.49	1083.20
967.79	1080.16
968.08	1074.77
968.38	1076.88
968.67	1078.28
968.97	1074.54
969.26	1065.88
969.56	1069.62
969.85	1068.69
970.15	1060.50
970.44	1074.31
970.74	1086.24
971.03	1080.39
971.32	1075.94
971.62	1076.18
971.91	1068.45
972.21	1064.94
972.50	1065.65
972.80	1071.50
973.09	1072.20
973.38	1070.56
973.68	1071.97
973.97	1073.37
974.27	1066.58
974.56	1071.50
974.85	1072.43
975.15	1080.63
975.44	1078.99
975.73	1080.16
976.03	1075.01
976.32	1081.56
976.61	1077.11
976.91	1080.63
977.20	1076.65
977.49	1083.43
977.79	1085.31
978.08	1092.33
978.37	1091.39
978.67	1100.75
978.96	1094.43
979.25	1090.69
979.55	1081.80
979.84	1073.14
980.13	1063.77
980.42	1072.20
980.72	1078.28
981.01	1081.09
981.30	1095.84
981.59	1107.54
981.89	1099.58
982.18	1085.54
982.47	1080.16
982.76	1080.39
983.06	1067.28
983.35	1070.56
983.64	1082.50
983.93	1090.22
984.22	1083.67
984.52	1095.37
984.81	1085.07
985.10	1073.37
985.39	1069.39
985.68	1074.54
985.97	1071.03
986.27	1079.92
986.56	1096.31
986.85	1090.46
987.14	1084.60
987.43	1078.99
987.72	1082.50
988.01	1072.67
988.31	1084.14
988.60	1085.07
988.89	1094.20
989.18	1087.41
989.47	1088.35
989.76	1078.28
990.05	1082.03
990.34	1077.35
990.63	1078.99
990.92	1070.80
991.21	1073.84
991.51	1064.24
991.80	1063.77
992.09	1067.99
992.38	1078.05
992.67	1077.82
992.96	1089.29
993.25	1088.12
993.54	1085.07
993.83	1077.82
994.12	1072.43
994.41	1062.84
994.70	1061.43
994.99	1054.65
995.28	1066.35
995.57	1072.20
995.86	1080.39
996.15	1071.26
996.44	1080.16
996.73	1067.52
997.02	1066.11
997.31	1061.20
997.59	1068.69
997.88	1062.14
998.17	1065.88
998.46	1072.67
998.75	1071.97
999.04	1075.48
999.33	1080.16
999.62	1082.50
999.91	1083.67
1000.20	1084.60
1000.49	1081.80
1000.77	1082.73
1001.06	1077.35
1001.35	1066.11
1001.64	1065.41
1001.93	1071.26
1002.22	1072.67
1002.51	1079.46
1002.79	1078.75
1003.08	1075.24
1003.37	1071.97
1003.66	1062.37
1003.95	1058.86
1004.23	1059.33
1004.52	1066.11
1004.81	1072.20
1005.10	1080.16
1005.39	1081.33
1005.67	1094.20
1005.96	1097.71
1006.25	1094.20
1006.54	1097.24
1006.83	1099.35
1007.11	1084.84
1007.40	1083.20
1007.69	1079.46
1007.97	1075.48
1008.26	1069.86
1008.55	1078.28
1008.84	1073.37
1009.12	1071.97
1009.41	1071.50
1009.70	1075.94
1009.98	1079.69
1010.27	1080.16
1010.56	1086.48
1010.85	1085.07
1011.13	1087.65
1011.42	1088.12
1011.71	1086.01
1011.99	1082.03
1012.28	1082.03
1012.56	1073.84
1012.85	1071.03
1013.14	1070.80
1013.42	1071.50
1013.71	1081.09
1014.00	1086.94
1014.28	1087.41
1014.57	1092.56
1014.85	1084.37
1015.14	1076.41
1015.43	1075.94
1015.71	1079.46
1016.00	1079.69
1016.28	1082.03
1016.57	1085.54
1016.85	1091.63
1017.14	1082.26
1017.43	1080.39
1017.71	1093.97
1018.00	1095.14
1018.28	1089.29
1018.57	1092.56
1018.85	1096.78
1019.14	1083.90
1019.42	1085.07
1019.71	1087.65
1019.99	1079.92
1020.28	1077.11
1020.56	1084.60
1020.85	1083.67
1021.13	1092.33
1021.42	1108.01
1021.70	1096.54
1021.99	1096.54
1022.27	1092.80
1022.55	1088.35
1022.84	1082.50
>>>>>End Processed Spectral Data<<<<<
