SpectraSuite Data File
++++++++++++++++++++++++++++++++++++
Date: Mon Aug 26 10:24:36 PDT 2019
User: corrico
Dark Spectrum Present: No
Reference Spectrum Present: No
Number of Sampled Component Spectra: 1
Spectrometers: USB2+H06089
Integration Time (usec): 10000 (USB2+H06089)
Spectra Averaged: 2 (USB2+H06089)
Boxcar Smoothing: 2 (USB2+H06089)
Correct for Electrical Dark: No (USB2+H06089)
Strobe/Lamp Enabled: No (USB2+H06089)
Correct for Detector Non-linearity: No (USB2+H06089)
Correct for Stray Light: No (USB2+H06089)
Number of Pixels in Processed Spectrum: 2048
>>>>>Begin Processed Spectral Data<<<<<
339.70	1028.67
340.07	1028.67
340.45	993.09
340.82	972.96
341.19	940.19
341.57	920.30
341.94	913.51
342.31	908.83
342.69	910.00
343.06	921.70
343.43	910.94
343.81	906.26
344.18	899.94
344.55	899.23
344.93	895.49
345.30	908.83
345.67	921.23
346.04	933.17
346.42	940.66
346.79	944.41
347.16	947.21
347.54	953.30
347.91	962.19
348.28	966.17
348.65	986.30
349.03	1005.26
349.40	1016.73
349.77	1024.45
350.14	1030.30
350.52	1033.81
350.89	1032.18
351.26	1037.33
351.63	1043.41
352.01	1058.39
352.38	1052.77
352.75	1058.16
353.12	1056.28
353.50	1057.92
353.87	1060.96
354.24	1072.67
354.61	1082.73
354.98	1100.52
355.36	1110.58
355.73	1102.39
356.10	1115.27
356.47	1115.50
356.84	1097.71
357.22	1088.35
357.59	1097.95
357.96	1090.46
358.33	1085.31
358.70	1092.09
359.08	1096.07
359.45	1094.90
359.82	1094.90
360.19	1094.67
360.56	1100.99
360.94	1103.09
361.31	1106.84
361.68	1110.58
362.05	1110.58
362.42	1104.97
362.79	1097.24
363.16	1089.52
363.54	1082.26
363.91	1075.71
364.28	1078.75
364.65	1074.54
365.02	1066.82
365.39	1062.37
365.76	1072.43
366.14	1078.52
366.51	1074.77
366.88	1085.07
367.25	1088.12
367.62	1089.99
367.99	1090.92
368.36	1097.71
368.73	1096.54
369.10	1106.61
369.48	1104.50
369.85	1097.01
370.22	1100.99
370.59	1106.14
370.96	1098.88
371.33	1099.12
371.70	1090.69
372.07	1096.31
372.44	1101.46
372.81	1101.69
373.18	1095.84
373.55	1109.65
373.93	1104.97
374.30	1096.78
374.67	1104.50
375.04	1116.67
375.41	1115.03
375.78	1122.99
376.15	1124.86
376.52	1121.12
376.89	1111.99
377.26	1109.41
377.63	1101.46
378.00	1102.16
378.37	1101.46
378.74	1107.07
379.11	1104.03
379.48	1107.07
379.85	1100.75
380.22	1099.58
380.59	1101.46
380.96	1099.58
381.33	1093.97
381.70	1096.54
382.07	1097.71
382.44	1088.58
382.81	1096.31
383.18	1097.24
383.55	1097.24
383.92	1102.86
384.29	1108.01
384.66	1106.14
385.03	1114.33
385.40	1105.67
385.77	1111.52
386.14	1117.37
386.51	1115.27
386.88	1107.78
387.25	1117.14
387.62	1104.50
387.99	1098.88
388.36	1095.60
388.73	1099.35
389.10	1090.92
389.46	1092.33
389.83	1093.03
390.20	1103.33
390.57	1109.41
390.94	1127.90
391.31	1129.07
391.68	1120.65
392.05	1130.01
392.42	1128.84
392.79	1119.95
393.16	1127.67
393.53	1142.42
393.89	1126.97
394.26	1125.56
394.63	1129.78
395.00	1127.90
395.37	1121.58
395.74	1134.22
396.11	1142.65
396.48	1149.67
396.84	1152.25
397.21	1163.25
397.58	1171.67
397.95	1165.59
398.32	1165.35
398.69	1174.25
399.06	1170.74
399.42	1165.35
399.79	1171.20
400.16	1172.14
400.53	1165.35
400.90	1175.42
401.27	1178.23
401.64	1189.93
402.00	1193.91
402.37	1207.25
402.74	1219.65
403.11	1231.82
403.48	1229.95
403.84	1244.23
404.21	1262.95
404.58	1265.29
404.95	1277.23
405.32	1299.47
405.68	1315.85
406.05	1318.42
406.42	1336.45
406.79	1350.72
407.16	1362.43
407.52	1383.49
407.89	1417.90
408.26	1450.20
408.63	1474.54
408.99	1515.03
409.36	1544.75
409.73	1579.86
410.10	1609.12
410.47	1657.10
410.83	1717.02
411.20	1783.02
411.57	1831.70
411.94	1907.30
412.30	1975.41
412.67	2027.84
413.04	2093.61
413.40	2176.23
413.77	2265.17
414.14	2373.77
414.51	2462.95
414.87	2556.80
415.24	2648.32
415.61	2747.09
415.97	2857.09
416.34	3001.50
416.71	3157.15
417.08	3321.69
417.44	3485.99
417.81	3651.47
418.18	3845.03
418.54	4022.68
418.91	4221.16
419.28	4424.31
419.64	4671.94
420.01	4925.66
420.38	5200.20
420.74	5481.30
421.11	5824.89
421.48	6144.61
421.84	6483.05
422.21	6840.22
422.58	7242.32
422.94	7632.25
423.31	8032.25
423.68	8463.38
424.04	8937.10
424.41	9417.15
424.77	9878.93
425.14	10395.49
425.51	10948.79
425.87	11514.03
426.24	12162.83
426.61	12886.29
426.97	13681.84
427.34	14375.10
427.70	15183.76
428.07	15920.79
428.44	16692.00
428.80	17474.21
429.17	18404.33
429.53	19291.16
429.90	20335.04
430.27	21262.13
430.63	22153.87
431.00	23184.88
431.36	24321.21
431.73	25279.66
432.09	26370.58
432.46	27446.99
432.83	28497.66
433.19	29412.58
433.56	30620.06
433.92	31866.63
434.29	33069.43
434.65	34169.71
435.02	35179.42
435.38	36048.23
435.75	36766.31
436.11	37745.35
436.48	38549.79
436.84	39438.73
437.21	40254.87
437.57	40974.12
437.94	41515.49
438.30	42110.68
438.67	42489.85
439.03	42779.61
439.40	43057.67
439.76	43005.47
440.13	42824.78
440.49	42773.29
440.86	42399.74
441.22	42026.43
441.59	41602.79
441.95	41139.60
442.32	40355.52
442.68	39799.17
443.05	39031.48
443.41	38253.95
443.78	37395.44
444.14	36674.32
444.51	35577.78
444.87	34735.42
445.24	33754.97
445.60	32797.69
445.96	31784.48
446.33	31041.82
446.69	30066.52
447.06	29310.76
447.42	28464.89
447.79	27535.93
448.15	26697.55
448.51	25900.60
448.88	25195.16
449.24	24412.49
449.61	23922.38
449.97	23383.36
450.33	22796.58
450.70	22078.51
451.06	21590.74
451.43	20924.16
451.79	20344.64
452.15	19941.36
452.52	19507.43
452.88	19059.92
453.24	18669.99
453.61	18210.54
453.97	17658.64
454.34	17136.70
454.70	16690.36
455.06	16192.76
455.43	15647.65
455.79	15068.84
456.15	14619.45
456.52	14103.37
456.88	13694.94
457.24	13251.88
457.61	12919.52
457.97	12502.44
458.33	12068.27
458.70	11597.35
459.06	11170.91
459.42	10769.98
459.79	10406.26
460.15	10075.77
460.51	9735.22
460.88	9444.53
461.24	9119.66
461.60	8788.24
461.96	8495.91
462.33	8238.22
462.69	7949.63
463.05	7705.75
463.42	7518.27
463.78	7288.66
464.14	7064.67
464.50	6886.32
464.87	6696.04
465.23	6477.43
465.59	6322.02
465.95	6174.10
466.32	6031.79
466.68	5886.45
467.04	5742.27
467.40	5573.52
467.77	5432.62
468.13	5279.55
468.49	5167.20
468.85	5050.88
469.22	4964.74
469.58	4841.87
469.94	4754.10
470.30	4632.39
470.66	4539.94
471.03	4431.57
471.39	4357.61
471.75	4273.12
472.11	4198.22
472.47	4143.45
472.84	4043.04
473.20	3947.08
473.56	3871.01
473.92	3778.56
474.28	3668.09
474.65	3604.19
475.01	3534.21
475.37	3444.80
475.73	3391.44
476.09	3353.75
476.45	3313.03
476.81	3260.37
477.18	3209.34
477.54	3137.96
477.90	3086.93
478.26	3029.59
478.62	2976.46
478.98	2931.99
479.34	2908.58
479.71	2854.52
480.07	2819.41
480.43	2778.92
480.79	2727.89
481.15	2683.19
481.51	2642.23
481.87	2600.10
482.23	2563.12
482.59	2525.67
482.96	2483.78
483.32	2449.60
483.68	2405.84
484.04	2372.13
484.40	2349.20
484.76	2329.07
485.12	2288.11
485.48	2272.89
485.84	2241.53
486.20	2201.04
486.56	2151.89
486.92	2138.55
487.28	2099.46
487.64	2084.01
488.00	2075.59
488.37	2052.88
488.73	2012.86
489.09	1995.54
489.45	1965.35
489.81	1937.96
490.17	1916.66
490.53	1902.86
490.89	1882.73
491.25	1851.60
491.61	1827.96
491.97	1797.06
492.33	1778.10
492.69	1755.17
493.05	1748.85
493.41	1736.91
493.77	1737.15
494.13	1721.93
494.49	1706.48
494.85	1684.02
495.21	1662.25
495.57	1648.91
495.93	1622.23
496.29	1608.42
496.64	1599.05
497.00	1574.24
497.36	1546.63
497.72	1543.35
498.08	1528.84
498.44	1521.58
498.80	1518.77
499.16	1513.39
499.52	1492.56
499.88	1482.03
500.24	1456.05
500.60	1446.92
500.96	1431.24
501.32	1424.45
501.68	1415.56
502.03	1413.22
502.39	1398.24
502.75	1396.36
503.11	1387.24
503.47	1377.64
503.83	1372.02
504.19	1363.36
504.55	1361.02
504.91	1356.57
505.26	1345.34
505.62	1338.32
505.98	1339.02
506.34	1324.28
506.70	1320.76
507.06	1319.59
507.42	1308.36
507.78	1299.00
508.13	1296.89
508.49	1296.66
508.85	1283.08
509.21	1280.74
509.57	1270.68
509.93	1275.12
510.28	1257.80
510.64	1258.97
511.00	1255.70
511.36	1255.00
511.72	1238.14
512.07	1244.23
512.43	1239.78
512.79	1234.16
513.15	1227.61
513.51	1226.44
513.86	1217.08
514.22	1207.01
514.58	1202.33
514.94	1197.18
515.30	1200.23
515.65	1194.14
516.01	1197.42
516.37	1196.95
516.73	1203.74
517.08	1197.42
517.44	1208.18
517.80	1214.04
518.16	1215.67
518.51	1208.18
518.87	1194.14
519.23	1175.65
519.59	1176.82
519.94	1170.50
520.30	1168.16
520.66	1171.67
521.01	1175.18
521.37	1161.61
521.73	1180.10
522.09	1188.99
522.44	1182.44
522.80	1183.37
523.16	1184.31
523.51	1160.91
523.87	1160.91
524.23	1165.59
524.58	1164.42
524.94	1164.65
525.30	1176.59
525.65	1166.99
526.01	1175.65
526.37	1175.42
526.72	1167.93
527.08	1158.57
527.44	1168.16
527.79	1150.14
528.15	1140.78
528.51	1142.88
528.86	1142.88
529.22	1128.84
529.58	1127.67
529.93	1145.22
530.29	1136.80
530.65	1131.18
531.00	1137.97
531.36	1152.25
531.71	1136.10
532.07	1135.86
532.43	1133.99
532.78	1134.69
533.14	1122.52
533.49	1130.71
533.85	1142.42
534.21	1149.20
534.56	1148.27
534.92	1154.35
535.27	1134.69
535.63	1122.75
535.98	1121.82
536.34	1113.39
536.69	1101.92
537.05	1118.78
537.41	1123.46
537.76	1117.61
538.12	1113.39
538.47	1122.29
538.83	1114.56
539.18	1118.54
539.54	1120.41
539.89	1122.29
540.25	1127.90
540.60	1138.44
540.96	1136.10
541.31	1141.25
541.67	1146.16
542.02	1140.07
542.38	1128.61
542.73	1117.84
543.09	1119.48
543.44	1112.69
543.80	1114.80
544.15	1112.46
544.51	1111.52
544.86	1111.05
545.22	1115.73
545.57	1099.82
545.93	1105.90
546.28	1111.29
546.64	1108.01
546.99	1110.35
547.35	1117.37
547.70	1113.16
548.05	1117.61
548.41	1109.41
548.76	1104.03
549.12	1113.39
549.47	1110.35
549.83	1109.65
550.18	1120.41
550.53	1121.35
550.89	1125.56
551.24	1134.69
551.60	1136.10
551.95	1122.29
552.30	1122.99
552.66	1118.07
553.01	1110.12
553.37	1100.52
553.72	1111.75
554.07	1115.27
554.43	1116.20
554.78	1124.16
555.13	1133.52
555.49	1131.65
555.84	1127.44
556.19	1121.12
556.55	1122.52
556.90	1107.78
557.26	1102.63
557.61	1089.29
557.96	1089.52
558.32	1086.01
558.67	1102.63
559.02	1107.31
559.37	1121.12
559.73	1122.29
560.08	1118.78
560.43	1117.37
560.79	1116.67
561.14	1119.48
561.49	1125.56
561.85	1126.50
562.20	1131.18
562.55	1127.44
562.90	1125.33
563.26	1114.10
563.61	1110.35
563.96	1111.29
564.32	1110.58
564.67	1104.26
565.02	1115.97
565.37	1123.69
565.73	1111.99
566.08	1107.07
566.43	1119.48
566.78	1108.71
567.14	1104.26
567.49	1107.07
567.84	1117.14
568.19	1105.44
568.54	1117.61
568.90	1116.90
569.25	1119.24
569.60	1122.29
569.95	1131.65
570.31	1122.29
570.66	1118.31
571.01	1114.80
571.36	1111.75
571.71	1097.95
572.06	1102.63
572.42	1106.84
572.77	1109.41
573.12	1113.63
573.47	1119.71
573.82	1117.37
574.18	1112.69
574.53	1112.46
574.88	1105.67
575.23	1113.86
575.58	1107.31
575.93	1105.20
576.28	1110.35
576.64	1116.44
576.99	1114.10
577.34	1115.73
577.69	1127.20
578.04	1122.99
578.39	1110.35
578.74	1104.97
579.09	1111.05
579.44	1107.78
579.80	1104.73
580.15	1116.44
580.50	1119.24
580.85	1115.73
581.20	1107.31
581.55	1097.48
581.90	1078.52
582.25	1075.48
582.60	1078.05
582.95	1089.75
583.30	1094.90
583.65	1110.35
584.00	1108.24
584.35	1111.52
584.71	1106.14
585.06	1109.88
585.41	1102.63
585.76	1110.12
586.11	1107.31
586.46	1112.46
586.81	1109.18
587.16	1111.99
587.51	1107.78
587.86	1107.78
588.21	1110.35
588.56	1109.41
588.91	1101.22
589.26	1095.84
589.61	1088.82
589.96	1088.12
590.31	1083.20
590.66	1086.01
591.01	1089.05
591.36	1091.16
591.71	1076.88
592.06	1091.39
592.41	1093.73
592.76	1099.12
593.10	1096.78
593.45	1093.03
593.80	1078.75
594.15	1077.35
594.50	1071.73
594.85	1078.75
595.20	1098.88
595.55	1107.54
595.90	1116.67
596.25	1125.56
596.60	1126.97
596.95	1121.82
597.30	1118.54
597.64	1151.78
597.99	1149.91
598.34	1156.22
598.69	1152.71
599.04	1150.14
599.39	1113.39
599.74	1102.16
600.09	1086.48
600.44	1081.56
600.78	1085.54
601.13	1081.33
601.48	1093.50
601.83	1100.29
602.18	1097.24
602.53	1104.26
602.88	1115.73
603.22	1106.61
603.57	1104.03
603.92	1115.97
604.27	1117.61
604.62	1108.01
604.97	1110.12
605.31	1110.58
605.66	1095.60
606.01	1079.92
606.36	1084.37
606.71	1091.16
607.05	1093.50
607.40	1102.86
607.75	1116.90
608.10	1099.58
608.44	1097.01
608.79	1084.37
609.14	1086.71
609.49	1088.12
609.84	1099.58
610.18	1097.71
610.53	1109.88
610.88	1114.33
611.23	1104.03
611.57	1112.92
611.92	1117.14
612.27	1118.78
612.62	1106.37
612.96	1108.48
613.31	1099.35
613.66	1090.92
614.00	1088.35
614.35	1087.65
614.70	1080.86
615.05	1082.03
615.39	1086.71
615.74	1082.26
616.09	1078.99
616.43	1085.77
616.78	1082.73
617.13	1084.60
617.47	1088.82
617.82	1098.41
618.17	1094.20
618.51	1093.03
618.86	1090.22
619.21	1096.07
619.55	1101.92
619.90	1114.33
620.25	1125.56
620.59	1120.18
620.94	1103.33
621.29	1097.01
621.63	1095.14
621.98	1087.65
622.32	1088.82
622.67	1104.97
623.02	1100.99
623.36	1098.41
623.71	1098.18
624.05	1102.86
624.40	1092.80
624.75	1100.29
625.09	1096.07
625.44	1105.90
625.78	1103.33
626.13	1102.86
626.48	1099.12
626.82	1107.78
627.17	1097.71
627.51	1101.69
627.86	1102.39
628.20	1097.95
628.55	1085.07
628.89	1085.77
629.24	1077.11
629.58	1087.88
629.93	1092.09
630.28	1090.92
630.62	1090.69
630.97	1096.07
631.31	1086.01
631.66	1088.58
632.00	1090.22
632.35	1095.84
632.69	1086.01
633.04	1086.01
633.38	1082.73
633.73	1083.67
634.07	1075.94
634.42	1085.07
634.76	1090.92
635.11	1087.41
635.45	1086.71
635.79	1090.92
636.14	1091.86
636.48	1075.48
636.83	1082.26
637.17	1089.99
637.52	1103.80
637.86	1098.18
638.21	1110.35
638.55	1115.73
638.89	1111.29
639.24	1097.01
639.58	1102.16
639.93	1099.35
640.27	1088.35
640.61	1087.65
640.96	1094.67
641.30	1089.29
641.65	1091.16
641.99	1100.29
642.33	1104.97
642.68	1103.80
643.02	1110.82
643.37	1112.69
643.71	1108.95
644.05	1108.01
644.40	1099.58
644.74	1099.58
645.08	1096.31
645.43	1093.03
645.77	1092.56
646.11	1089.75
646.46	1084.60
646.80	1092.80
647.14	1096.78
647.49	1092.33
647.83	1096.31
648.17	1104.03
648.52	1092.09
648.86	1090.69
649.20	1093.73
649.55	1089.29
649.89	1084.60
650.23	1099.35
650.57	1100.05
650.92	1099.82
651.26	1108.71
651.60	1107.78
651.95	1094.43
652.29	1092.33
652.63	1081.33
652.97	1069.62
653.32	1075.94
653.66	1083.90
654.00	1082.26
654.34	1095.84
654.69	1098.41
655.03	1088.12
655.37	1089.52
655.71	1092.56
656.05	1091.39
656.40	1096.31
656.74	1102.16
657.08	1093.26
657.42	1091.86
657.76	1090.92
658.11	1092.33
658.45	1091.39
658.79	1096.31
659.13	1090.22
659.47	1092.56
659.82	1088.82
660.16	1090.92
660.50	1086.01
660.84	1087.18
661.18	1082.73
661.52	1079.22
661.87	1066.58
662.21	1068.92
662.55	1073.60
662.89	1080.39
663.23	1078.75
663.57	1085.54
663.91	1085.77
664.25	1084.84
664.60	1073.37
664.94	1081.80
665.28	1078.28
665.62	1083.20
665.96	1084.37
666.30	1087.41
666.64	1085.31
666.98	1086.94
667.32	1087.65
667.66	1093.97
668.01	1098.65
668.35	1100.05
668.69	1105.20
669.03	1092.33
669.37	1089.29
669.71	1088.12
670.05	1078.99
670.39	1088.12
670.73	1098.41
671.07	1093.73
671.41	1086.01
671.75	1089.29
672.09	1077.58
672.43	1077.11
672.77	1074.07
673.11	1079.69
673.45	1080.16
673.79	1083.90
674.13	1085.07
674.47	1092.80
674.81	1094.43
675.15	1104.03
675.49	1097.95
675.83	1094.20
676.17	1096.78
676.51	1098.65
676.85	1091.63
677.19	1090.69
677.53	1098.41
677.87	1091.63
678.21	1089.99
678.55	1092.09
678.89	1094.90
679.23	1083.43
679.57	1086.01
679.90	1086.24
680.24	1091.86
680.58	1095.84
680.92	1095.60
681.26	1084.14
681.60	1083.20
681.94	1071.03
682.28	1069.16
682.62	1062.60
682.96	1063.77
683.29	1061.67
683.63	1067.99
683.97	1064.94
684.31	1077.11
684.65	1078.52
684.99	1080.86
685.33	1075.71
685.67	1077.58
686.00	1073.60
686.34	1080.39
686.68	1075.24
687.02	1076.65
687.36	1072.90
687.70	1074.54
688.03	1083.43
688.37	1084.37
688.71	1086.24
689.05	1085.07
689.39	1079.69
689.72	1063.54
690.06	1064.48
690.40	1059.56
690.74	1072.43
691.08	1080.86
691.41	1082.73
691.75	1073.84
692.09	1072.90
692.43	1071.26
692.76	1072.43
693.10	1080.86
693.44	1088.35
693.78	1090.22
694.11	1086.01
694.45	1087.41
694.79	1092.56
695.13	1097.95
695.46	1107.31
695.80	1110.12
696.14	1104.73
696.48	1098.88
696.81	1092.80
697.15	1081.56
697.49	1074.07
697.82	1066.82
698.16	1062.37
698.50	1065.65
698.83	1068.69
699.17	1066.82
699.51	1068.69
699.84	1077.35
700.18	1083.43
700.52	1091.86
700.85	1095.84
701.19	1101.22
701.53	1094.67
701.86	1093.03
702.20	1084.60
702.54	1085.31
702.87	1084.60
703.21	1086.01
703.55	1079.92
703.88	1085.07
704.22	1081.56
704.55	1083.67
704.89	1082.50
705.23	1081.09
705.56	1083.20
705.90	1085.31
706.23	1080.16
706.57	1075.71
706.91	1077.82
707.24	1071.03
707.58	1075.48
707.91	1079.92
708.25	1086.71
708.58	1086.94
708.92	1087.18
709.26	1082.97
709.59	1094.43
709.93	1088.58
710.26	1084.14
710.60	1081.33
710.93	1084.37
711.27	1077.58
711.60	1080.86
711.94	1083.90
712.27	1085.77
712.61	1083.43
712.94	1078.52
713.28	1080.16
713.61	1083.20
713.95	1087.41
714.28	1086.01
714.62	1091.39
714.95	1085.77
715.29	1081.33
715.62	1087.18
715.96	1089.05
716.29	1085.31
716.63	1083.20
716.96	1078.99
717.29	1062.60
717.63	1059.56
717.96	1062.84
718.30	1056.28
718.63	1067.99
718.97	1075.01
719.30	1079.46
719.63	1076.18
719.97	1087.88
720.30	1083.20
720.64	1077.35
720.97	1080.16
721.30	1083.20
721.64	1083.90
721.97	1093.97
722.31	1100.05
722.64	1089.52
722.97	1084.14
723.31	1084.37
723.64	1072.90
723.97	1071.50
724.31	1070.80
724.64	1064.71
724.98	1065.18
725.31	1062.84
725.64	1067.28
725.98	1078.99
726.31	1087.65
726.64	1076.88
726.97	1087.18
727.31	1084.37
727.64	1075.71
727.97	1076.18
728.31	1074.31
728.64	1069.39
728.97	1074.77
729.31	1076.18
729.64	1075.24
729.97	1084.60
730.30	1080.39
730.64	1078.28
730.97	1075.94
731.30	1068.92
731.63	1074.54
731.97	1073.14
732.30	1065.65
732.63	1069.39
732.96	1064.24
733.30	1056.75
733.63	1067.99
733.96	1070.56
734.29	1071.26
734.63	1080.39
734.96	1082.26
735.29	1079.46
735.62	1076.41
735.95	1072.43
736.29	1068.92
736.62	1071.03
736.95	1061.43
737.28	1063.54
737.61	1067.05
737.94	1066.35
738.28	1067.52
738.61	1071.50
738.94	1080.39
739.27	1089.99
739.60	1092.09
739.93	1102.63
740.27	1108.71
740.60	1103.09
740.93	1099.82
741.26	1109.18
741.59	1099.82
741.92	1102.86
742.25	1102.86
742.58	1102.86
742.91	1097.24
743.25	1090.69
743.58	1077.82
743.91	1077.35
744.24	1064.94
744.57	1057.69
744.90	1055.58
745.23	1056.52
745.56	1052.54
745.89	1060.73
746.22	1062.37
746.55	1062.14
746.88	1061.20
747.21	1072.90
747.54	1066.11
747.87	1078.99
748.20	1085.07
748.53	1090.22
748.87	1083.43
749.20	1088.58
749.53	1081.80
749.86	1091.86
750.19	1094.67
750.52	1094.20
750.85	1094.90
751.18	1099.12
751.51	1087.88
751.84	1094.90
752.16	1097.48
752.49	1104.50
752.82	1094.20
753.15	1097.71
753.48	1088.82
753.81	1083.43
754.14	1074.31
754.47	1075.01
754.80	1064.48
755.13	1058.39
755.46	1064.01
755.79	1067.75
756.12	1072.67
756.45	1087.18
756.78	1092.80
757.11	1093.50
757.43	1095.37
757.76	1097.01
758.09	1088.82
758.42	1089.99
758.75	1094.20
759.08	1088.82
759.41	1088.12
759.74	1097.01
760.07	1103.33
760.39	1098.41
760.72	1092.09
761.05	1088.12
761.38	1089.29
761.71	1085.07
762.04	1082.03
762.36	1081.09
762.69	1086.71
763.02	1072.90
763.35	1067.05
763.68	1071.97
764.01	1084.60
764.33	1078.99
764.66	1084.37
764.99	1087.88
765.32	1075.94
765.65	1072.43
765.97	1071.26
766.30	1073.60
766.63	1072.90
766.96	1081.80
767.28	1081.56
767.61	1088.82
767.94	1084.37
768.27	1079.69
768.59	1078.75
768.92	1081.09
769.25	1074.54
769.58	1088.82
769.90	1093.73
770.23	1097.01
770.56	1093.50
770.89	1094.90
771.21	1090.92
771.54	1089.99
771.87	1097.48
772.19	1104.50
772.52	1096.31
772.85	1095.14
773.17	1098.88
773.50	1085.07
773.83	1078.52
774.15	1086.24
774.48	1085.54
774.81	1075.48
775.13	1086.01
775.46	1083.43
775.79	1094.43
776.11	1087.41
776.44	1097.24
776.77	1096.07
777.09	1098.41
777.42	1093.26
777.74	1087.18
778.07	1085.07
778.40	1075.24
778.72	1076.88
779.05	1072.90
779.37	1078.05
779.70	1073.84
780.03	1090.46
780.35	1091.63
780.68	1091.63
781.00	1081.33
781.33	1081.33
781.65	1069.16
781.98	1056.28
782.31	1061.67
782.63	1081.80
782.96	1086.24
783.28	1086.24
783.61	1093.03
783.93	1094.67
784.26	1087.65
784.58	1087.18
784.91	1090.92
785.23	1092.33
785.56	1078.28
785.88	1078.52
786.21	1072.90
786.53	1079.69
786.86	1080.39
787.18	1089.05
787.51	1079.22
787.83	1090.22
788.16	1082.50
788.48	1084.14
788.81	1081.33
789.13	1088.12
789.46	1085.31
789.78	1080.39
790.10	1089.05
790.43	1096.54
790.75	1103.09
791.08	1105.67
791.40	1103.09
791.73	1103.56
792.05	1094.20
792.37	1087.65
792.70	1078.99
793.02	1082.03
793.35	1080.39
793.67	1081.09
793.99	1074.77
794.32	1079.92
794.64	1088.35
794.96	1075.48
795.29	1076.88
795.61	1079.92
795.93	1080.86
796.26	1077.11
796.58	1082.26
796.91	1082.97
797.23	1094.67
797.55	1090.69
797.87	1084.14
798.20	1084.60
798.52	1088.82
798.84	1087.65
799.17	1088.58
799.49	1088.58
799.81	1091.39
800.14	1096.54
800.46	1086.01
800.78	1076.88
801.10	1080.39
801.43	1074.31
801.75	1064.24
802.07	1071.73
802.40	1080.16
802.72	1076.18
803.04	1077.82
803.36	1071.50
803.69	1072.67
804.01	1077.82
804.33	1086.01
804.65	1093.97
804.97	1105.44
805.30	1104.73
805.62	1094.90
805.94	1094.43
806.26	1088.35
806.58	1086.48
806.91	1078.52
807.23	1078.05
807.55	1078.05
807.87	1074.77
808.19	1070.80
808.52	1075.48
808.84	1086.94
809.16	1087.41
809.48	1091.63
809.80	1095.84
810.12	1100.99
810.44	1093.03
810.77	1089.29
811.09	1088.58
811.41	1091.63
811.73	1082.73
812.05	1085.07
812.37	1094.20
812.69	1099.58
813.01	1096.07
813.33	1102.39
813.66	1093.50
813.98	1085.07
814.30	1079.22
814.62	1075.48
814.94	1077.82
815.26	1081.33
815.58	1087.65
815.90	1082.97
816.22	1095.84
816.54	1093.26
816.86	1094.90
817.18	1087.18
817.50	1094.67
817.82	1086.71
818.14	1087.65
818.46	1092.33
818.78	1099.82
819.10	1096.07
819.42	1089.99
819.74	1082.50
820.06	1080.39
820.38	1071.26
820.70	1071.73
821.02	1074.54
821.34	1072.67
821.66	1064.24
821.98	1063.77
822.30	1067.05
822.62	1069.16
822.94	1073.37
823.26	1079.69
823.58	1087.88
823.90	1086.24
824.22	1089.29
824.54	1088.58
824.86	1087.65
825.18	1080.16
825.50	1070.33
825.81	1071.03
826.13	1076.65
826.45	1078.75
826.77	1083.67
827.09	1086.94
827.41	1089.99
827.73	1081.80
828.05	1079.22
828.36	1065.18
828.68	1067.75
829.00	1058.16
829.32	1060.73
829.64	1064.71
829.96	1077.11
830.28	1071.26
830.59	1070.09
830.91	1065.41
831.23	1069.62
831.55	1063.54
831.87	1067.75
832.19	1067.28
832.50	1071.50
832.82	1071.03
833.14	1070.33
833.46	1078.28
833.78	1074.07
834.09	1079.22
834.41	1074.54
834.73	1076.88
835.05	1078.99
835.36	1082.73
835.68	1089.52
836.00	1097.95
836.32	1104.73
836.63	1100.75
836.95	1102.39
837.27	1087.18
837.59	1084.60
837.90	1079.92
838.22	1072.43
838.54	1067.52
838.85	1072.90
839.17	1066.35
839.49	1066.82
839.80	1075.71
840.12	1085.77
840.44	1093.26
840.76	1093.26
841.07	1093.03
841.39	1087.88
841.71	1078.75
842.02	1075.48
842.34	1074.31
842.65	1071.03
842.97	1073.37
843.29	1077.35
843.60	1085.54
843.92	1096.31
844.24	1102.63
844.55	1106.14
844.87	1105.67
845.18	1093.73
845.50	1084.60
845.82	1080.39
846.13	1081.09
846.45	1076.65
846.76	1080.16
847.08	1083.20
847.40	1088.35
847.71	1083.90
848.03	1093.50
848.34	1084.60
848.66	1085.54
848.97	1078.52
849.29	1089.52
849.60	1085.77
849.92	1091.16
850.24	1089.75
850.55	1097.48
850.87	1084.14
851.18	1086.24
851.50	1088.12
851.81	1090.69
852.13	1088.35
852.44	1083.67
852.76	1076.88
853.07	1082.97
853.39	1074.31
853.70	1072.20
854.01	1072.43
854.33	1077.82
854.64	1056.75
854.96	1064.94
855.27	1067.05
855.59	1075.48
855.90	1075.01
856.22	1081.33
856.53	1082.97
856.84	1088.12
857.16	1091.86
857.47	1092.09
857.79	1104.97
858.10	1105.44
858.41	1092.56
858.73	1083.90
859.04	1090.22
859.36	1088.12
859.67	1076.88
859.98	1077.82
860.30	1086.71
860.61	1079.69
860.92	1073.60
861.24	1091.63
861.55	1098.88
861.87	1093.26
862.18	1108.95
862.49	1111.05
862.81	1103.80
863.12	1099.35
863.43	1100.99
863.74	1093.03
864.06	1094.67
864.37	1096.78
864.68	1098.65
865.00	1089.52
865.31	1083.67
865.62	1080.86
865.94	1072.43
866.25	1065.18
866.56	1071.26
866.87	1072.20
867.19	1074.07
867.50	1072.67
867.81	1079.69
868.12	1086.71
868.44	1081.56
868.75	1078.05
869.06	1093.26
869.37	1091.39
869.68	1086.01
870.00	1082.97
870.31	1097.24
870.62	1082.03
870.93	1087.18
871.24	1082.26
871.56	1084.37
871.87	1080.86
872.18	1081.80
872.49	1082.73
872.80	1090.69
873.12	1094.43
873.43	1080.63
873.74	1078.75
874.05	1073.84
874.36	1075.24
874.67	1074.54
874.98	1076.18
875.29	1074.77
875.61	1072.20
875.92	1069.62
876.23	1066.11
876.54	1078.05
876.85	1081.09
877.16	1075.24
877.47	1071.73
877.78	1072.20
878.09	1058.62
878.40	1059.79
878.72	1072.90
879.03	1072.43
879.34	1080.63
879.65	1089.05
879.96	1096.07
880.27	1100.52
880.58	1110.12
880.89	1108.24
881.20	1105.20
881.51	1101.69
881.82	1105.44
882.13	1102.16
882.44	1098.18
882.75	1099.58
883.06	1094.20
883.37	1080.39
883.68	1075.48
883.99	1080.16
884.30	1086.71
884.61	1092.09
884.92	1097.24
885.23	1092.09
885.54	1082.26
885.85	1069.86
886.16	1062.37
886.47	1060.73
886.78	1064.94
887.08	1069.62
887.39	1078.28
887.70	1082.26
888.01	1085.31
888.32	1092.56
888.63	1099.82
888.94	1090.69
889.25	1106.61
889.56	1101.69
889.87	1100.29
890.17	1088.35
890.48	1096.07
890.79	1082.03
891.10	1074.54
891.41	1065.18
891.72	1062.84
892.03	1054.41
892.34	1052.77
892.64	1060.03
892.95	1071.97
893.26	1077.58
893.57	1085.77
893.88	1089.75
894.18	1093.73
894.49	1088.35
894.80	1095.84
895.11	1089.52
895.42	1084.60
895.72	1082.97
896.03	1074.31
896.34	1066.82
896.65	1071.26
896.96	1072.20
897.26	1067.99
897.57	1076.18
897.88	1074.07
898.19	1074.31
898.49	1079.69
898.80	1091.16
899.11	1086.71
899.41	1082.73
899.72	1083.90
900.03	1083.90
900.34	1067.99
900.64	1070.09
900.95	1080.63
901.26	1079.92
901.56	1072.43
901.87	1079.22
902.18	1086.01
902.48	1076.65
902.79	1072.20
903.10	1082.03
903.40	1084.60
903.71	1085.07
904.02	1097.95
904.32	1102.86
904.63	1093.26
904.94	1089.99
905.24	1085.07
905.55	1082.50
905.85	1088.12
906.16	1085.31
906.47	1081.09
906.77	1075.94
907.08	1069.16
907.38	1057.92
907.69	1061.67
908.00	1064.01
908.30	1065.41
908.61	1075.48
908.91	1081.33
909.22	1089.29
909.52	1096.78
909.83	1099.35
910.14	1099.82
910.44	1099.35
910.75	1089.29
911.05	1076.88
911.36	1074.31
911.66	1071.03
911.97	1071.50
912.27	1075.01
912.58	1090.22
912.88	1089.29
913.19	1085.77
913.49	1081.33
913.80	1078.28
914.10	1063.54
914.41	1069.16
914.71	1071.97
915.01	1074.31
915.32	1078.05
915.62	1084.60
915.93	1078.28
916.23	1082.97
916.54	1086.01
916.84	1085.07
917.15	1083.90
917.45	1089.29
917.75	1083.20
918.06	1084.37
918.36	1090.69
918.67	1085.07
918.97	1082.50
919.27	1087.18
919.58	1084.14
919.88	1077.35
920.18	1079.46
920.49	1077.11
920.79	1066.35
921.10	1066.35
921.40	1064.24
921.70	1056.99
922.01	1055.35
922.31	1057.22
922.61	1052.54
922.92	1051.13
923.22	1063.07
923.52	1074.54
923.82	1081.33
924.13	1086.01
924.43	1090.22
924.73	1086.71
925.04	1084.84
925.34	1075.24
925.64	1066.11
925.94	1066.82
926.25	1063.54
926.55	1056.99
926.85	1065.18
927.15	1078.75
927.46	1081.80
927.76	1096.07
928.06	1094.67
928.36	1082.03
928.67	1084.14
928.97	1086.71
929.27	1076.18
929.57	1075.01
929.87	1085.77
930.18	1079.22
930.48	1069.86
930.78	1088.82
931.08	1098.18
931.38	1099.35
931.69	1111.52
931.99	1119.24
932.29	1097.24
932.59	1087.41
932.89	1081.56
933.19	1071.73
933.49	1073.84
933.80	1083.20
934.10	1096.31
934.40	1097.01
934.70	1100.99
935.00	1092.80
935.30	1093.50
935.60	1087.18
935.90	1091.16
936.20	1096.07
936.50	1098.18
936.81	1095.14
937.11	1097.48
937.41	1099.82
937.71	1079.92
938.01	1078.75
938.31	1070.09
938.61	1067.75
938.91	1058.16
939.21	1063.07
939.51	1064.94
939.81	1070.33
940.11	1064.01
940.41	1071.03
940.71	1081.09
941.01	1072.90
941.31	1079.92
941.61	1081.56
941.91	1078.52
942.21	1067.28
942.51	1069.62
942.81	1064.01
943.11	1065.88
943.41	1067.52
943.71	1074.07
944.01	1080.63
944.31	1072.90
944.61	1087.88
944.90	1091.39
945.20	1085.77
945.50	1077.82
945.80	1085.77
946.10	1070.80
946.40	1065.18
946.70	1065.88
947.00	1069.86
947.30	1070.09
947.60	1074.77
947.89	1079.46
948.19	1074.77
948.49	1078.05
948.79	1079.92
949.09	1078.28
949.39	1088.12
949.69	1096.31
949.98	1102.39
950.28	1094.20
950.58	1094.67
950.88	1083.90
951.18	1079.69
951.48	1073.84
951.77	1085.31
952.07	1089.29
952.37	1088.58
952.67	1098.65
952.97	1105.90
953.26	1114.10
953.56	1101.46
953.86	1106.84
954.16	1101.92
954.45	1098.88
954.75	1090.92
955.05	1095.60
955.35	1092.33
955.64	1089.75
955.94	1085.77
956.24	1077.35
956.54	1075.48
956.83	1077.58
957.13	1078.05
957.43	1077.11
957.72	1084.60
958.02	1084.84
958.32	1080.16
958.61	1085.07
958.91	1090.22
959.21	1077.58
959.50	1074.07
959.80	1076.88
960.10	1075.71
960.39	1074.31
960.69	1083.67
960.99	1088.58
961.28	1082.97
961.58	1086.01
961.87	1081.09
962.17	1077.58
962.47	1084.84
962.76	1089.05
963.06	1089.05
963.36	1090.22
963.65	1092.56
963.95	1080.86
964.24	1083.67
964.54	1079.22
964.83	1077.35
965.13	1075.71
965.42	1077.82
965.72	1075.24
966.02	1078.28
966.31	1078.52
966.61	1079.92
966.90	1085.54
967.20	1089.52
967.49	1087.18
967.79	1091.16
968.08	1092.33
968.38	1086.71
968.67	1084.60
968.97	1077.35
969.26	1080.39
969.56	1074.31
969.85	1065.88
970.15	1059.79
970.44	1063.77
970.74	1056.75
971.03	1065.18
971.32	1079.69
971.62	1085.54
971.91	1087.65
972.21	1089.29
972.50	1087.88
972.80	1080.86
973.09	1076.18
973.38	1069.86
973.68	1068.69
973.97	1064.48
974.27	1071.73
974.56	1076.88
974.85	1086.94
975.15	1084.60
975.44	1072.20
975.73	1071.97
976.03	1068.22
976.32	1065.88
976.61	1067.05
976.91	1078.99
977.20	1069.16
977.49	1076.65
977.79	1071.26
978.08	1074.77
978.37	1087.41
978.67	1092.56
978.96	1085.77
979.25	1096.07
979.55	1094.90
979.84	1083.90
980.13	1076.65
980.42	1074.31
980.72	1062.60
981.01	1071.03
981.30	1064.48
981.59	1076.41
981.89	1082.97
982.18	1095.14
982.47	1086.01
982.76	1086.24
983.06	1077.58
983.35	1070.56
983.64	1060.96
983.93	1055.35
984.22	1060.73
984.52	1068.92
984.81	1067.99
985.10	1074.54
985.39	1083.20
985.68	1088.58
985.97	1094.90
986.27	1104.03
986.56	1102.16
986.85	1098.18
987.14	1097.95
987.43	1086.71
987.72	1074.77
988.01	1077.11
988.31	1074.31
988.60	1074.77
988.89	1080.63
989.18	1089.52
989.47	1077.11
989.76	1084.14
990.05	1079.22
990.34	1082.50
990.63	1078.52
990.92	1085.07
991.21	1080.86
991.51	1076.88
991.80	1071.97
992.09	1077.11
992.38	1084.14
992.67	1085.54
992.96	1096.54
993.25	1089.05
993.54	1079.92
993.83	1074.07
994.12	1072.90
994.41	1065.41
994.70	1075.24
994.99	1081.09
995.28	1074.31
995.57	1077.58
995.86	1086.71
996.15	1084.84
996.44	1088.58
996.73	1091.63
997.02	1090.92
997.31	1090.22
997.59	1086.94
997.88	1088.58
998.17	1096.07
998.46	1089.29
998.75	1092.33
999.04	1097.24
999.33	1100.29
999.62	1094.20
999.91	1100.05
1000.20	1094.43
1000.49	1092.80
1000.77	1089.75
1001.06	1097.71
1001.35	1086.24
1001.64	1079.69
1001.93	1082.50
1002.22	1082.50
1002.51	1080.86
1002.79	1095.37
1003.08	1099.82
1003.37	1085.31
1003.66	1085.77
1003.95	1078.52
1004.23	1071.03
1004.52	1065.18
1004.81	1081.80
1005.10	1073.60
1005.39	1066.58
1005.67	1075.24
1005.96	1090.22
1006.25	1081.09
1006.54	1084.14
1006.83	1088.82
1007.11	1088.82
1007.40	1082.26
1007.69	1084.84
1007.97	1084.14
1008.26	1092.80
1008.55	1083.20
1008.84	1081.56
1009.12	1081.56
1009.41	1077.58
1009.70	1075.01
1009.98	1079.46
1010.27	1076.41
1010.56	1080.63
1010.85	1088.35
1011.13	1092.56
1011.42	1090.46
1011.71	1094.43
1011.99	1094.67
1012.28	1093.97
1012.56	1083.43
1012.85	1077.82
1013.14	1070.56
1013.42	1065.88
1013.71	1063.07
1014.00	1067.52
1014.28	1074.77
1014.57	1076.41
1014.85	1077.58
1015.14	1076.88
1015.43	1074.31
1015.71	1075.24
1016.00	1080.63
1016.28	1077.58
1016.57	1073.37
1016.85	1073.37
1017.14	1069.16
1017.43	1065.18
1017.71	1068.69
1018.00	1065.65
1018.28	1071.03
1018.57	1073.37
1018.85	1075.24
1019.14	1071.26
1019.42	1075.94
1019.71	1079.46
1019.99	1083.43
1020.28	1076.41
1020.56	1082.97
1020.85	1093.26
1021.13	1089.05
1021.42	1091.63
1021.70	1097.95
1021.99	1093.73
1022.27	1086.94
1022.55	1076.65
1022.84	1083.67
>>>>>End Processed Spectral Data<<<<<
