SpectraSuite Data File
++++++++++++++++++++++++++++++++++++
Date: Mon Aug 26 10:24:38 PDT 2019
User: corrico
Dark Spectrum Present: No
Reference Spectrum Present: No
Number of Sampled Component Spectra: 1
Spectrometers: USB2+H06089
Integration Time (usec): 10000 (USB2+H06089)
Spectra Averaged: 2 (USB2+H06089)
Boxcar Smoothing: 2 (USB2+H06089)
Correct for Electrical Dark: No (USB2+H06089)
Strobe/Lamp Enabled: No (USB2+H06089)
Correct for Detector Non-linearity: No (USB2+H06089)
Correct for Stray Light: No (USB2+H06089)
Number of Pixels in Processed Spectrum: 2048
>>>>>Begin Processed Spectral Data<<<<<
339.70	1014.62
340.07	1014.62
340.45	991.22
340.82	972.49
341.19	944.17
341.57	915.85
341.94	909.30
342.31	907.43
342.69	906.26
343.06	912.81
343.43	916.55
343.81	921.23
344.18	906.96
344.55	908.13
344.93	913.75
345.30	916.32
345.67	902.28
346.04	913.28
346.42	916.55
346.79	928.96
347.16	939.02
347.54	961.49
347.91	975.54
348.28	993.56
348.65	998.00
349.03	1011.11
349.40	1017.66
349.77	1024.45
350.14	1027.26
350.52	1030.07
350.89	1040.13
351.26	1042.94
351.63	1047.62
352.01	1055.11
352.38	1066.82
352.75	1074.54
353.12	1089.75
353.50	1094.43
353.87	1100.05
354.24	1101.22
354.61	1088.82
354.98	1088.82
355.36	1096.78
355.73	1100.75
356.10	1094.67
356.47	1104.97
356.84	1108.71
357.22	1101.69
357.59	1100.52
357.96	1104.03
358.33	1094.20
358.70	1092.80
359.08	1093.26
359.45	1086.24
359.82	1092.09
360.19	1111.52
360.56	1104.73
360.94	1099.82
361.31	1106.14
361.68	1109.88
362.05	1108.48
362.42	1100.99
362.79	1113.39
363.16	1113.63
363.54	1101.22
363.91	1096.07
364.28	1098.65
364.65	1096.07
365.02	1098.18
365.39	1100.05
365.76	1094.20
366.14	1098.88
366.51	1099.12
366.88	1093.03
367.25	1103.09
367.62	1112.46
367.99	1111.05
368.36	1102.63
368.73	1098.65
369.10	1093.26
369.48	1076.65
369.85	1078.75
370.22	1078.99
370.59	1077.35
370.96	1064.71
371.33	1073.84
371.70	1077.82
372.07	1076.41
372.44	1081.56
372.81	1091.86
373.18	1095.37
373.55	1096.07
373.93	1112.92
374.30	1116.90
374.67	1109.88
375.04	1102.16
375.41	1101.92
375.78	1086.71
376.15	1086.94
376.52	1100.05
376.89	1104.73
377.26	1107.78
377.63	1117.37
378.00	1117.37
378.37	1108.48
378.74	1107.31
379.11	1091.16
379.48	1090.22
379.85	1093.73
380.22	1098.41
380.59	1097.48
380.96	1110.82
381.33	1112.92
381.70	1107.78
382.07	1108.95
382.44	1109.88
382.81	1106.84
383.18	1108.01
383.55	1100.05
383.92	1104.03
384.29	1104.50
384.66	1103.56
385.03	1102.86
385.40	1112.69
385.77	1115.50
386.14	1122.52
386.51	1133.29
386.88	1126.97
387.25	1130.71
387.62	1136.10
387.99	1134.22
388.36	1122.29
388.73	1120.88
389.10	1114.56
389.46	1097.24
389.83	1096.31
390.20	1102.16
390.57	1109.88
390.94	1118.78
391.31	1122.99
391.68	1126.73
392.05	1135.16
392.42	1129.78
392.79	1127.90
393.16	1131.88
393.53	1138.44
393.89	1134.22
394.26	1132.82
394.63	1129.07
395.00	1134.69
395.37	1133.29
395.74	1135.16
396.11	1141.01
396.48	1143.82
396.84	1149.44
397.21	1149.44
397.58	1141.01
397.95	1140.78
398.32	1138.67
398.69	1138.90
399.06	1142.65
399.42	1156.46
399.79	1162.78
400.16	1183.61
400.53	1184.31
400.90	1191.10
401.27	1204.44
401.64	1224.10
402.00	1224.57
402.37	1236.51
402.74	1247.04
403.11	1251.72
403.48	1261.31
403.84	1273.95
404.21	1287.06
404.58	1304.85
404.95	1323.81
405.32	1333.87
405.68	1350.72
406.05	1367.58
406.42	1376.70
406.79	1388.64
407.16	1419.30
407.52	1439.90
407.89	1478.28
408.26	1517.37
408.63	1562.31
408.99	1603.27
409.36	1657.57
409.73	1709.06
410.10	1763.59
410.47	1815.55
410.83	1860.96
411.20	1919.71
411.57	1975.65
411.94	2043.99
412.30	2122.40
412.67	2212.74
413.04	2303.32
413.40	2400.92
413.77	2514.91
414.14	2623.04
414.51	2742.17
414.87	2880.73
415.24	3034.97
415.61	3172.60
415.97	3336.67
416.34	3514.78
416.71	3693.83
417.08	3894.65
417.44	4102.02
417.81	4344.03
418.18	4594.47
418.54	4873.46
418.91	5138.18
419.28	5452.75
419.64	5747.19
420.01	6071.35
420.38	6408.85
420.74	6770.94
421.11	7190.13
421.48	7599.49
421.84	8025.23
422.21	8478.36
422.58	8974.55
422.94	9488.53
423.31	10023.11
423.68	10592.56
424.04	11216.55
424.41	11807.30
424.77	12387.05
425.14	13057.38
425.51	13718.11
425.87	14466.85
426.24	15279.25
426.61	16181.53
426.97	17209.73
427.34	18222.24
427.70	19256.29
428.07	20274.66
428.44	21354.11
428.80	22413.44
429.17	23506.47
429.53	24581.01
429.90	25813.77
430.27	26974.91
430.63	28094.15
431.00	29449.79
431.36	30931.82
431.73	32295.18
432.09	33636.31
432.46	35025.18
432.83	36364.20
433.19	37544.30
433.56	39041.77
433.92	40585.83
434.29	42096.41
434.65	43578.43
435.02	44926.82
435.38	46115.34
435.75	46961.44
436.11	48164.25
436.48	49173.72
436.84	50219.00
437.21	51122.22
437.57	52191.61
437.94	52846.02
438.30	53361.87
438.67	53599.91
439.03	53722.08
439.40	53846.13
439.76	53722.78
440.13	53578.84
440.49	53623.55
440.86	53264.04
441.22	52842.04
441.59	52217.35
441.95	51550.07
442.32	50538.02
442.68	49835.15
443.05	48902.92
443.41	48089.11
443.78	47087.83
444.14	46314.99
444.51	45104.93
444.87	44184.17
445.24	42952.81
445.60	41772.01
445.96	40409.58
446.33	39426.56
446.69	38092.22
447.06	37122.07
447.42	36172.04
447.79	35118.80
448.15	34130.39
448.51	33183.18
448.88	32288.86
449.24	31200.51
449.61	30498.12
449.97	29699.06
450.33	28893.45
450.70	27878.12
451.06	27266.77
451.43	26401.48
451.79	25777.72
452.15	25252.04
452.52	24783.70
452.88	24159.48
453.24	23705.41
453.61	23055.92
453.97	22415.54
454.34	21742.87
454.70	21199.87
455.06	20565.35
455.43	19870.68
455.79	19102.52
456.15	18556.94
456.52	17860.39
456.88	17288.60
457.24	16725.94
457.61	16265.32
457.97	15668.25
458.33	15181.65
458.70	14621.09
459.06	14012.32
459.42	13515.66
459.79	13051.76
460.15	12569.38
460.51	12127.95
460.88	11772.43
461.24	11374.54
461.60	10975.01
461.96	10595.84
462.33	10256.70
462.69	9929.96
463.05	9583.79
463.42	9310.89
463.78	9043.36
464.14	8741.67
464.50	8512.29
464.87	8254.37
465.23	7972.57
465.59	7755.60
465.95	7526.93
466.32	7269.24
466.68	7066.31
467.04	6914.64
467.40	6706.34
467.77	6536.18
468.13	6376.56
468.49	6250.87
468.85	6113.01
469.22	6007.45
469.58	5877.32
469.94	5775.04
470.30	5650.29
470.66	5537.24
471.03	5398.68
471.39	5298.97
471.75	5170.95
472.11	5052.75
472.47	4940.40
472.84	4842.57
473.20	4733.50
473.56	4636.84
473.92	4514.19
474.28	4409.80
474.65	4311.97
475.01	4228.18
475.37	4129.88
475.73	4065.28
476.09	3981.49
476.45	3910.57
476.81	3816.24
477.18	3745.56
477.54	3673.00
477.90	3619.87
478.26	3533.04
478.62	3468.91
478.98	3402.44
479.34	3350.94
479.71	3274.18
480.07	3242.81
480.43	3217.53
480.79	3172.60
481.15	3115.96
481.51	3061.89
481.87	2997.29
482.23	2933.63
482.59	2891.73
482.96	2845.86
483.32	2814.03
483.68	2789.68
484.04	2755.75
484.40	2711.51
484.76	2684.83
485.12	2648.32
485.48	2603.85
485.84	2563.59
486.20	2537.84
486.56	2482.84
486.92	2446.09
487.28	2423.39
487.64	2401.62
488.00	2352.24
488.37	2327.19
488.73	2294.43
489.09	2251.13
489.45	2209.23
489.81	2174.83
490.17	2150.02
490.53	2123.10
490.89	2099.23
491.25	2077.23
491.61	2054.05
491.97	2021.75
492.33	2000.92
492.69	1974.48
493.05	1941.24
493.41	1927.67
493.77	1906.83
494.13	1868.68
494.49	1841.53
494.85	1816.72
495.21	1787.94
495.57	1763.83
495.93	1752.36
496.29	1729.66
496.64	1711.63
497.00	1687.76
497.36	1673.01
497.72	1641.42
498.08	1631.12
498.44	1621.52
498.80	1617.08
499.16	1590.63
499.52	1579.63
499.88	1569.10
500.24	1552.24
500.60	1537.97
500.96	1541.94
501.32	1532.82
501.68	1517.60
502.03	1506.13
502.39	1493.26
502.75	1480.86
503.11	1467.05
503.47	1448.09
503.83	1438.96
504.19	1423.28
504.55	1412.51
504.91	1403.85
505.26	1406.66
505.62	1406.66
505.98	1405.49
506.34	1398.47
506.70	1402.92
507.06	1388.17
507.42	1376.94
507.78	1364.53
508.13	1350.96
508.49	1336.91
508.85	1319.83
509.21	1308.13
509.57	1301.57
509.93	1295.25
510.28	1293.15
510.64	1302.74
511.00	1296.19
511.36	1288.70
511.72	1289.40
512.07	1283.78
512.43	1269.04
512.79	1265.06
513.15	1269.27
513.51	1265.76
513.86	1250.55
514.22	1253.82
514.58	1247.97
514.94	1245.87
515.30	1238.38
515.65	1240.02
516.01	1235.33
516.37	1243.76
516.73	1241.42
517.08	1237.68
517.44	1243.06
517.80	1245.63
518.16	1229.25
518.51	1216.61
518.87	1209.82
519.23	1197.65
519.59	1185.72
519.94	1183.14
520.30	1191.80
520.66	1196.25
521.01	1191.57
521.37	1191.57
521.73	1193.91
522.09	1183.84
522.44	1179.40
522.80	1190.86
523.16	1199.52
523.51	1195.55
523.87	1195.08
524.23	1188.29
524.58	1170.97
524.94	1152.95
525.30	1149.44
525.65	1149.67
526.01	1150.61
526.37	1154.59
526.72	1162.78
527.08	1165.12
527.44	1168.40
527.79	1167.46
528.15	1168.16
528.51	1161.61
528.86	1156.93
529.22	1149.44
529.58	1159.50
529.93	1156.69
530.29	1160.91
530.65	1158.80
531.00	1153.88
531.36	1138.20
531.71	1147.10
532.07	1153.18
532.43	1154.82
532.78	1157.16
533.14	1162.31
533.49	1150.14
533.85	1132.82
534.21	1129.07
534.56	1125.10
534.92	1126.97
535.27	1127.67
535.63	1128.61
535.98	1121.35
536.34	1124.63
536.69	1126.27
537.05	1129.54
537.41	1134.69
537.76	1151.78
538.12	1150.37
538.47	1146.39
538.83	1128.84
539.18	1125.33
539.54	1122.05
539.89	1121.35
540.25	1118.31
540.60	1141.71
540.96	1153.42
541.31	1145.46
541.67	1141.71
542.02	1131.88
542.38	1120.41
542.73	1114.09
543.09	1126.73
543.44	1133.05
543.80	1140.07
544.15	1145.69
544.51	1135.86
544.86	1125.56
545.22	1129.31
545.57	1137.03
545.93	1135.86
546.28	1141.95
546.64	1147.33
546.99	1138.44
547.35	1132.59
547.70	1123.69
548.05	1123.22
548.41	1128.61
548.76	1130.48
549.12	1122.05
549.47	1132.35
549.83	1130.48
550.18	1114.33
550.53	1112.92
550.89	1115.50
551.24	1118.31
551.60	1121.35
551.95	1128.84
552.30	1128.14
552.66	1132.82
553.01	1116.90
553.37	1119.24
553.72	1119.48
554.07	1115.73
554.43	1114.10
554.78	1122.52
555.13	1114.33
555.49	1112.69
555.84	1115.50
556.19	1124.86
556.55	1123.46
556.90	1126.50
557.26	1119.71
557.61	1111.99
557.96	1097.24
558.32	1089.29
558.67	1093.26
559.02	1100.75
559.37	1110.82
559.73	1113.86
560.08	1130.01
560.43	1122.29
560.79	1121.82
561.14	1116.67
561.49	1113.86
561.85	1106.37
562.20	1104.26
562.55	1103.80
562.90	1118.31
563.26	1115.27
563.61	1110.58
563.96	1113.39
564.32	1118.31
564.67	1115.27
565.02	1124.39
565.37	1120.88
565.73	1118.78
566.08	1106.61
566.43	1101.46
566.78	1095.60
567.14	1102.63
567.49	1099.35
567.84	1113.16
568.19	1121.12
568.54	1119.01
568.90	1117.61
569.25	1126.73
569.60	1113.39
569.95	1096.78
570.31	1105.44
570.66	1101.92
571.01	1107.54
571.36	1111.05
571.71	1110.35
572.06	1107.31
572.42	1099.35
572.77	1091.63
573.12	1086.71
573.47	1092.09
573.82	1089.99
574.18	1101.22
574.53	1099.58
574.88	1109.41
575.23	1108.95
575.58	1117.14
575.93	1116.90
576.28	1116.90
576.64	1108.71
576.99	1112.22
577.34	1107.54
577.69	1110.58
578.04	1118.07
578.39	1124.39
578.74	1123.93
579.09	1122.52
579.44	1123.22
579.80	1121.12
580.15	1124.39
580.50	1121.58
580.85	1114.56
581.20	1107.07
581.55	1095.60
581.90	1091.16
582.25	1090.46
582.60	1102.86
582.95	1103.80
583.30	1117.84
583.65	1112.92
584.00	1123.22
584.35	1119.95
584.71	1121.58
585.06	1110.58
585.41	1116.90
585.76	1097.01
586.11	1093.73
586.46	1100.52
586.81	1096.07
587.16	1089.29
587.51	1106.61
587.86	1103.33
588.21	1102.16
588.56	1114.33
588.91	1124.63
589.26	1113.16
589.61	1117.84
589.96	1118.54
590.31	1118.31
590.66	1105.90
591.01	1106.37
591.36	1110.35
591.71	1108.95
592.06	1097.24
592.41	1092.33
592.76	1092.80
593.10	1089.29
593.45	1085.77
593.80	1089.05
594.15	1093.97
594.50	1093.97
594.85	1088.82
595.20	1089.29
595.55	1085.07
595.90	1082.73
596.25	1079.69
596.60	1084.84
596.95	1079.22
597.30	1090.69
597.64	1152.01
597.99	1155.05
598.34	1152.48
598.69	1160.67
599.04	1160.20
599.39	1115.73
599.74	1115.97
600.09	1107.31
600.44	1105.90
600.78	1099.12
601.13	1092.33
601.48	1099.35
601.83	1108.71
602.18	1110.35
602.53	1121.12
602.88	1120.41
603.22	1110.35
603.57	1107.78
603.92	1102.16
604.27	1087.88
604.62	1087.41
604.97	1086.01
605.31	1079.22
605.66	1082.26
606.01	1088.82
606.36	1091.16
606.71	1094.20
607.05	1109.65
607.40	1107.78
607.75	1106.14
608.10	1100.29
608.44	1097.01
608.79	1085.31
609.14	1072.20
609.49	1084.37
609.84	1090.69
610.18	1099.35
610.53	1115.03
610.88	1121.58
611.23	1101.69
611.57	1098.88
611.92	1090.92
612.27	1082.73
612.62	1082.03
612.96	1086.01
613.31	1078.28
613.66	1079.92
614.00	1075.24
614.35	1090.69
614.70	1103.09
615.05	1111.99
615.39	1110.58
615.74	1111.52
616.09	1103.33
616.43	1090.92
616.78	1087.41
617.13	1093.97
617.47	1093.97
617.82	1098.41
618.17	1109.18
618.51	1117.61
618.86	1114.33
619.21	1117.84
619.55	1106.61
619.90	1102.16
620.25	1092.33
620.59	1096.78
620.94	1096.31
621.29	1110.12
621.63	1108.95
621.98	1111.29
622.32	1108.24
622.67	1092.80
623.02	1084.60
623.36	1086.71
623.71	1078.75
624.05	1077.58
624.40	1098.41
624.75	1100.99
625.09	1093.73
625.44	1101.69
625.78	1101.46
626.13	1098.88
626.48	1093.50
626.82	1108.01
627.17	1100.99
627.51	1104.50
627.86	1089.99
628.20	1098.65
628.55	1086.71
628.89	1092.09
629.24	1088.12
629.58	1102.16
629.93	1106.84
630.28	1107.31
630.62	1102.63
630.97	1110.58
631.31	1100.29
631.66	1089.29
632.00	1083.20
632.35	1091.86
632.69	1082.73
633.04	1098.41
633.38	1097.24
633.73	1110.58
634.07	1109.41
634.42	1118.78
634.76	1102.39
635.11	1098.65
635.45	1094.90
635.79	1102.63
636.14	1091.16
636.48	1097.48
636.83	1107.31
637.17	1111.75
637.52	1099.82
637.86	1103.56
638.21	1104.73
638.55	1101.46
638.89	1097.48
639.24	1093.26
639.58	1099.58
639.93	1096.31
640.27	1105.67
640.61	1102.86
640.96	1111.99
641.30	1109.65
641.65	1114.80
641.99	1107.54
642.33	1104.73
642.68	1099.82
643.02	1097.24
643.37	1093.03
643.71	1083.43
644.05	1088.58
644.40	1089.05
644.74	1088.82
645.08	1089.29
645.43	1102.39
645.77	1097.48
646.11	1101.46
646.46	1104.03
646.80	1101.22
647.14	1097.48
647.49	1100.29
647.83	1104.03
648.17	1097.48
648.52	1101.22
648.86	1099.12
649.20	1105.90
649.55	1095.37
649.89	1097.95
650.23	1105.44
650.57	1104.97
650.92	1094.43
651.26	1102.39
651.60	1098.65
651.95	1089.52
652.29	1093.26
652.63	1090.92
652.97	1081.09
653.32	1082.50
653.66	1093.97
654.00	1081.80
654.34	1084.14
654.69	1082.50
655.03	1082.97
655.37	1078.05
655.71	1085.31
656.05	1097.48
656.40	1093.97
656.74	1102.16
657.08	1090.22
657.42	1090.69
657.76	1083.90
658.11	1100.52
658.45	1098.18
658.79	1100.99
659.13	1097.01
659.47	1086.48
659.82	1086.71
660.16	1082.97
660.50	1076.41
660.84	1075.01
661.18	1079.92
661.52	1080.16
661.87	1079.92
662.21	1086.71
662.55	1086.48
662.89	1084.84
663.23	1080.86
663.57	1085.77
663.91	1096.54
664.25	1104.26
664.60	1108.01
664.94	1119.95
665.28	1122.29
665.62	1117.37
665.96	1113.16
666.30	1116.90
666.64	1100.75
666.98	1090.69
667.32	1087.65
667.66	1087.65
668.01	1076.18
668.35	1082.26
668.69	1081.80
669.03	1079.46
669.37	1081.80
669.71	1094.67
670.05	1078.99
670.39	1088.12
670.73	1085.07
671.07	1083.90
671.41	1081.56
671.75	1097.71
672.09	1085.54
672.43	1093.03
672.77	1095.14
673.11	1095.14
673.45	1083.90
673.79	1088.58
674.13	1090.69
674.47	1087.18
674.81	1079.92
675.15	1095.60
675.49	1101.46
675.83	1095.14
676.17	1096.54
676.51	1095.14
676.85	1093.50
677.19	1088.82
677.53	1094.67
677.87	1092.80
678.21	1093.73
678.55	1082.03
678.89	1071.03
679.23	1062.84
679.57	1063.07
679.90	1075.71
680.24	1075.01
680.58	1086.01
680.92	1095.84
681.26	1094.67
681.60	1080.39
681.94	1082.73
682.28	1088.58
682.62	1084.14
682.96	1078.75
683.29	1088.82
683.63	1099.35
683.97	1090.92
684.31	1085.77
684.65	1093.97
684.99	1090.22
685.33	1078.52
685.67	1075.01
686.00	1078.99
686.34	1073.84
686.68	1075.71
687.02	1087.41
687.36	1090.92
687.70	1096.07
688.03	1108.01
688.37	1101.46
688.71	1087.88
689.05	1097.24
689.39	1085.31
689.72	1076.41
690.06	1084.37
690.40	1086.01
690.74	1083.90
691.08	1093.73
691.41	1101.46
691.75	1103.09
692.09	1108.48
692.43	1106.14
692.76	1104.97
693.10	1097.71
693.44	1101.92
693.78	1100.99
694.11	1091.39
694.45	1100.75
694.79	1101.92
695.13	1091.16
695.46	1087.65
695.80	1098.65
696.14	1076.88
696.48	1075.24
696.81	1078.52
697.15	1079.46
697.49	1071.26
697.82	1086.01
698.16	1084.37
698.50	1085.31
698.83	1086.01
699.17	1094.90
699.51	1094.20
699.84	1092.80
700.18	1089.52
700.52	1091.86
700.85	1080.39
701.19	1062.84
701.53	1065.18
701.86	1064.48
702.20	1059.79
702.54	1050.20
702.87	1059.09
703.21	1064.48
703.55	1067.52
703.88	1079.69
704.22	1099.82
704.55	1106.14
704.89	1104.97
705.23	1100.05
705.56	1092.33
705.90	1090.92
706.23	1092.56
706.57	1082.03
706.91	1078.99
707.24	1073.84
707.58	1068.92
707.91	1073.14
708.25	1076.41
708.58	1079.46
708.92	1077.35
709.26	1074.31
709.59	1078.05
709.93	1076.65
710.26	1082.73
710.60	1081.33
710.93	1090.92
711.27	1085.07
711.60	1091.16
711.94	1087.65
712.27	1093.03
712.61	1090.46
712.94	1086.01
713.28	1086.71
713.61	1087.65
713.95	1089.75
714.28	1092.09
714.62	1090.22
714.95	1087.18
715.29	1086.48
715.62	1091.63
715.96	1093.03
716.29	1088.82
716.63	1097.01
716.96	1097.01
717.29	1084.37
717.63	1081.80
717.96	1086.48
718.30	1083.90
718.63	1078.52
718.97	1087.18
719.30	1083.90
719.63	1080.63
719.97	1078.52
720.30	1083.67
720.64	1087.88
720.97	1080.86
721.30	1089.75
721.64	1090.22
721.97	1098.18
722.31	1085.07
722.64	1084.84
722.97	1073.14
723.31	1069.62
723.64	1051.13
723.97	1062.37
724.31	1070.09
724.64	1078.52
724.98	1071.50
725.31	1080.16
725.64	1084.84
725.98	1087.18
726.31	1082.26
726.64	1094.20
726.97	1101.69
727.31	1091.63
727.64	1097.48
727.97	1103.56
728.31	1104.73
728.64	1104.50
728.97	1096.07
729.31	1082.50
729.64	1073.37
729.97	1076.88
730.30	1076.65
730.64	1085.54
730.97	1092.09
731.30	1101.46
731.63	1093.97
731.97	1086.01
732.30	1086.94
732.63	1081.33
732.96	1064.94
733.30	1064.94
733.63	1069.39
733.96	1063.54
734.29	1067.99
734.63	1076.18
734.96	1077.35
735.29	1080.39
735.62	1085.07
735.95	1083.43
736.29	1088.82
736.62	1085.54
736.95	1076.65
737.28	1074.77
737.61	1076.88
737.94	1074.77
738.28	1079.69
738.61	1081.33
738.94	1072.90
739.27	1067.99
739.60	1073.84
739.93	1071.03
740.27	1072.67
740.60	1086.94
740.93	1096.07
741.26	1084.14
741.59	1079.46
741.92	1078.05
742.25	1078.28
742.58	1073.84
742.91	1073.37
743.25	1073.60
743.58	1088.35
743.91	1082.97
744.24	1082.26
744.57	1093.97
744.90	1112.92
745.23	1110.82
745.56	1116.67
745.89	1111.75
746.22	1109.65
746.55	1093.97
746.88	1078.52
747.21	1084.60
747.54	1089.05
747.87	1082.73
748.20	1078.99
748.53	1082.97
748.87	1076.41
749.20	1071.50
749.53	1075.01
749.86	1079.92
750.19	1090.69
750.52	1084.60
750.85	1097.24
751.18	1091.39
751.51	1083.67
751.84	1078.52
752.16	1089.29
752.49	1086.24
752.82	1089.05
753.15	1091.16
753.48	1086.24
753.81	1080.86
754.14	1073.37
754.47	1071.73
754.80	1081.80
755.13	1082.97
755.46	1084.84
755.79	1092.33
756.12	1100.52
756.45	1096.54
756.78	1092.56
757.11	1091.16
757.43	1084.60
757.76	1082.26
758.09	1075.01
758.42	1076.65
758.75	1062.37
759.08	1067.75
759.41	1055.82
759.74	1050.67
760.07	1045.75
760.39	1057.22
760.72	1059.56
761.05	1069.86
761.38	1083.67
761.71	1085.54
762.04	1088.35
762.36	1077.35
762.69	1071.97
763.02	1059.56
763.35	1072.67
763.68	1069.16
764.01	1076.88
764.33	1084.14
764.66	1089.99
764.99	1087.65
765.32	1088.82
765.65	1078.28
765.97	1078.75
766.30	1083.43
766.63	1070.80
766.96	1075.94
767.28	1084.37
767.61	1086.48
767.94	1094.67
768.27	1101.22
768.59	1098.65
768.92	1109.18
769.25	1108.24
769.58	1108.24
769.90	1112.69
770.23	1113.39
770.56	1104.97
770.89	1100.75
771.21	1093.73
771.54	1085.07
771.87	1071.03
772.19	1079.92
772.52	1076.88
772.85	1075.01
773.17	1076.88
773.50	1091.16
773.83	1082.03
774.15	1088.82
774.48	1085.31
774.81	1088.82
775.13	1083.67
775.46	1075.24
775.79	1070.09
776.11	1069.62
776.44	1071.73
776.77	1071.50
777.09	1076.41
777.42	1082.97
777.74	1084.84
778.07	1075.94
778.40	1072.67
778.72	1083.67
779.05	1085.07
779.37	1094.43
779.70	1103.33
780.03	1111.29
780.35	1103.09
780.68	1103.33
781.00	1095.60
781.33	1095.60
781.65	1091.63
781.98	1094.67
782.31	1088.58
782.63	1089.52
782.96	1082.50
783.28	1084.37
783.61	1075.01
783.93	1078.75
784.26	1079.46
784.58	1091.63
784.91	1093.03
785.23	1097.24
785.56	1100.52
785.88	1096.31
786.21	1089.52
786.53	1084.37
786.86	1079.22
787.18	1086.94
787.51	1086.48
787.83	1082.73
788.16	1084.60
788.48	1096.54
788.81	1081.33
789.13	1083.43
789.46	1085.07
789.78	1077.35
790.10	1064.24
790.43	1064.94
790.75	1059.79
791.08	1056.75
791.40	1064.24
791.73	1080.39
792.05	1085.31
792.37	1093.97
792.70	1099.35
793.02	1106.84
793.35	1101.22
793.67	1093.26
793.99	1087.41
794.32	1081.56
794.64	1076.65
794.96	1068.92
795.29	1075.94
795.61	1075.24
795.93	1091.39
796.26	1084.14
796.58	1088.12
796.91	1082.26
797.23	1088.12
797.55	1079.69
797.87	1094.43
798.20	1102.39
798.52	1101.69
798.84	1104.97
799.17	1093.03
799.49	1084.14
799.81	1064.01
800.14	1067.75
800.46	1059.79
800.78	1062.37
801.10	1059.56
801.43	1070.56
801.75	1071.03
802.07	1071.50
802.40	1079.46
802.72	1085.77
803.04	1098.18
803.36	1091.86
803.69	1089.99
804.01	1094.43
804.33	1080.86
804.65	1074.54
804.97	1082.03
805.30	1084.14
805.62	1070.09
805.94	1079.22
806.26	1076.88
806.58	1081.33
806.91	1086.48
807.23	1094.67
807.55	1094.67
807.87	1091.16
808.19	1074.77
808.52	1077.35
808.84	1073.84
809.16	1076.88
809.48	1076.88
809.80	1082.73
810.12	1082.03
810.44	1078.99
810.77	1078.99
811.09	1084.14
811.41	1087.65
811.73	1074.07
812.05	1077.58
812.37	1068.22
812.69	1062.37
813.01	1062.60
813.33	1083.20
813.66	1085.54
813.98	1088.35
814.30	1093.73
814.62	1100.99
814.94	1095.60
815.26	1093.73
815.58	1094.90
815.90	1085.77
816.22	1080.16
816.54	1071.50
816.86	1071.97
817.18	1075.24
817.50	1076.88
817.82	1067.05
818.14	1068.69
818.46	1067.52
818.78	1063.07
819.10	1068.92
819.42	1076.41
819.74	1073.14
820.06	1077.11
820.38	1073.60
820.70	1061.67
821.02	1055.35
821.34	1059.56
821.66	1058.62
821.98	1065.18
822.30	1079.46
822.62	1084.37
822.94	1073.84
823.26	1084.84
823.58	1087.41
823.90	1082.03
824.22	1083.43
824.54	1100.99
824.86	1097.01
825.18	1092.33
825.50	1088.58
825.81	1086.94
826.13	1081.09
826.45	1077.35
826.77	1083.20
827.09	1087.18
827.41	1092.33
827.73	1089.99
828.05	1085.07
828.36	1082.03
828.68	1082.50
829.00	1086.01
829.32	1091.39
829.64	1099.12
829.96	1103.09
830.28	1106.61
830.59	1102.63
830.91	1092.09
831.23	1086.24
831.55	1080.39
831.87	1076.65
832.19	1079.22
832.50	1088.35
832.82	1088.12
833.14	1091.86
833.46	1095.37
833.78	1097.48
834.09	1090.22
834.41	1083.90
834.73	1068.69
835.05	1064.24
835.36	1056.52
835.68	1059.56
836.00	1065.41
836.32	1070.09
836.63	1073.37
836.95	1067.75
837.27	1069.86
837.59	1066.11
837.90	1068.92
838.22	1063.07
838.54	1067.05
838.85	1066.82
839.17	1064.48
839.49	1073.14
839.80	1080.86
840.12	1082.73
840.44	1080.86
840.76	1090.46
841.07	1093.03
841.39	1082.03
841.71	1083.90
842.02	1086.94
842.34	1088.12
842.65	1075.94
842.97	1089.75
843.29	1095.60
843.60	1090.92
843.92	1093.73
844.24	1095.14
844.55	1092.56
844.87	1088.58
845.18	1100.05
845.50	1086.01
845.82	1086.48
846.13	1078.05
846.45	1073.14
846.76	1058.39
847.08	1061.90
847.40	1070.80
847.71	1080.86
848.03	1080.86
848.34	1078.28
848.66	1075.94
848.97	1068.92
849.29	1067.52
849.60	1072.43
849.92	1086.48
850.24	1086.24
850.55	1094.20
850.87	1094.20
851.18	1093.26
851.50	1080.63
851.81	1079.22
852.13	1072.43
852.44	1064.94
852.76	1069.62
853.07	1075.94
853.39	1077.58
853.70	1077.58
854.01	1080.16
854.33	1064.94
854.64	1073.60
854.96	1078.75
855.27	1082.03
855.59	1086.48
855.90	1093.97
856.22	1093.50
856.53	1096.07
856.84	1094.67
857.16	1099.12
857.47	1092.56
857.79	1091.39
858.10	1087.18
858.41	1090.46
858.73	1089.05
859.04	1091.63
859.36	1086.48
859.67	1089.05
859.98	1090.92
860.30	1084.84
860.61	1090.92
860.92	1088.12
861.24	1092.09
861.55	1090.69
861.87	1088.58
862.18	1089.05
862.49	1088.12
862.81	1083.67
863.12	1087.41
863.43	1089.29
863.74	1083.43
864.06	1086.94
864.37	1085.77
864.68	1080.16
865.00	1078.28
865.31	1086.24
865.62	1078.28
865.94	1085.31
866.25	1082.50
866.56	1082.97
866.87	1078.75
867.19	1086.01
867.50	1084.60
867.81	1079.69
868.12	1083.43
868.44	1088.12
868.75	1095.60
869.06	1100.05
869.37	1097.24
869.68	1085.07
870.00	1069.86
870.31	1062.14
870.62	1053.01
870.93	1068.22
871.24	1083.43
871.56	1100.52
871.87	1101.69
872.18	1102.86
872.49	1101.22
872.80	1084.60
873.12	1070.09
873.43	1064.71
873.74	1064.01
874.05	1058.62
874.36	1068.69
874.67	1083.67
874.98	1093.26
875.29	1095.84
875.61	1093.50
875.92	1096.78
876.23	1084.14
876.54	1086.01
876.85	1083.43
877.16	1086.71
877.47	1084.37
877.78	1097.95
878.09	1089.05
878.40	1096.31
878.72	1094.43
879.03	1092.80
879.34	1081.56
879.65	1079.69
879.96	1078.28
880.27	1075.71
880.58	1080.16
880.89	1085.54
881.20	1087.88
881.51	1082.26
881.82	1080.39
882.13	1078.75
882.44	1082.73
882.75	1082.97
883.06	1085.54
883.37	1097.95
883.68	1099.12
883.99	1092.09
884.30	1100.05
884.61	1099.58
884.92	1105.20
885.23	1100.99
885.54	1109.41
885.85	1100.05
886.16	1093.73
886.47	1082.26
886.78	1085.77
887.08	1071.26
887.39	1069.39
887.70	1066.82
888.01	1070.80
888.32	1075.48
888.63	1086.94
888.94	1095.14
889.25	1100.52
889.56	1090.22
889.87	1088.12
890.17	1076.88
890.48	1075.71
890.79	1073.60
891.10	1078.05
891.41	1080.39
891.72	1094.43
892.03	1085.77
892.34	1086.71
892.64	1082.50
892.95	1080.39
893.26	1070.33
893.57	1072.43
893.88	1069.16
894.18	1075.24
894.49	1071.03
894.80	1067.28
895.11	1082.50
895.42	1085.77
895.72	1079.46
896.03	1077.82
896.34	1092.33
896.65	1078.52
896.96	1085.31
897.26	1088.58
897.57	1097.48
897.88	1088.35
898.19	1085.07
898.49	1075.01
898.80	1077.82
899.11	1065.65
899.41	1066.11
899.72	1070.56
900.03	1076.65
900.34	1075.71
900.64	1082.73
900.95	1089.29
901.26	1091.39
901.56	1094.20
901.87	1092.33
902.18	1088.82
902.48	1081.80
902.79	1083.90
903.10	1080.16
903.40	1082.50
903.71	1085.77
904.02	1089.29
904.32	1083.90
904.63	1091.63
904.94	1087.41
905.24	1093.97
905.55	1089.05
905.85	1086.24
906.16	1080.39
906.47	1084.37
906.77	1078.28
907.08	1075.01
907.38	1070.33
907.69	1062.37
908.00	1058.62
908.30	1056.28
908.61	1060.73
908.91	1071.73
909.22	1074.31
909.52	1079.22
909.83	1079.69
910.14	1077.35
910.44	1081.56
910.75	1081.56
911.05	1072.20
911.36	1074.54
911.66	1084.84
911.97	1079.46
912.27	1078.52
912.58	1094.20
912.88	1086.71
913.19	1075.94
913.49	1070.56
913.80	1078.99
914.10	1073.14
914.41	1069.86
914.71	1072.20
915.01	1083.43
915.32	1093.50
915.62	1096.07
915.93	1100.29
916.23	1097.24
916.54	1087.41
916.84	1066.58
917.15	1067.52
917.45	1073.60
917.75	1081.09
918.06	1090.69
918.36	1096.31
918.67	1087.88
918.97	1092.80
919.27	1091.16
919.58	1078.05
919.88	1073.14
920.18	1063.77
920.49	1057.92
920.79	1047.62
921.10	1050.67
921.40	1057.69
921.70	1074.77
922.01	1074.07
922.31	1087.18
922.61	1089.52
922.92	1091.39
923.22	1083.20
923.52	1077.11
923.82	1065.65
924.13	1063.07
924.43	1051.60
924.73	1054.65
925.04	1057.45
925.34	1067.75
925.64	1067.52
925.94	1078.28
926.25	1071.97
926.55	1076.88
926.85	1072.90
927.15	1085.77
927.46	1080.39
927.76	1087.88
928.06	1084.37
928.36	1081.56
928.67	1078.05
928.97	1089.29
929.27	1087.88
929.57	1087.65
929.87	1093.50
930.18	1088.58
930.48	1070.80
930.78	1070.56
931.08	1071.97
931.38	1069.16
931.69	1068.22
931.99	1075.48
932.29	1080.39
932.59	1069.62
932.89	1062.37
933.19	1059.79
933.49	1060.50
933.80	1050.90
934.10	1064.01
934.40	1067.28
934.70	1080.86
935.00	1087.88
935.30	1089.52
935.60	1091.39
935.90	1097.48
936.20	1089.52
936.50	1082.97
936.81	1081.56
937.11	1075.48
937.41	1074.31
937.71	1078.52
938.01	1080.39
938.31	1079.46
938.61	1078.05
938.91	1083.67
939.21	1074.54
939.51	1071.97
939.81	1075.48
940.11	1080.16
940.41	1076.18
940.71	1072.20
941.01	1075.48
941.31	1079.22
941.61	1075.71
941.91	1080.16
942.21	1086.71
942.51	1090.22
942.81	1085.07
943.11	1085.54
943.41	1082.26
943.71	1085.54
944.01	1073.84
944.31	1073.60
944.61	1082.03
944.90	1078.05
945.20	1067.99
945.50	1069.39
945.80	1071.50
946.10	1070.09
946.40	1059.09
946.70	1066.11
947.00	1071.50
947.30	1075.24
947.60	1067.99
947.89	1083.90
948.19	1088.35
948.49	1088.58
948.79	1080.86
949.09	1095.14
949.39	1089.75
949.69	1078.75
949.98	1081.80
950.28	1071.97
950.58	1055.82
950.88	1053.71
951.18	1069.16
951.48	1066.82
951.77	1083.90
952.07	1093.97
952.37	1093.73
952.67	1087.41
952.97	1093.97
953.26	1092.80
953.56	1093.03
953.86	1096.78
954.16	1090.69
954.45	1085.54
954.75	1089.75
955.05	1086.01
955.35	1083.20
955.64	1084.60
955.94	1087.41
956.24	1085.54
956.54	1087.18
956.83	1086.94
957.13	1091.16
957.43	1083.90
957.72	1079.46
958.02	1076.88
958.32	1078.75
958.61	1082.26
958.91	1083.20
959.21	1080.63
959.50	1081.56
959.80	1082.97
960.10	1075.24
960.39	1076.65
960.69	1081.33
960.99	1078.05
961.28	1075.01
961.58	1076.41
961.87	1087.18
962.17	1083.67
962.47	1083.20
962.76	1083.20
963.06	1083.43
963.36	1068.45
963.65	1072.90
963.95	1074.07
964.24	1086.24
964.54	1089.99
964.83	1091.86
965.13	1080.39
965.42	1076.41
965.72	1063.07
966.02	1058.39
966.31	1058.16
966.61	1067.99
966.90	1073.60
967.20	1076.88
967.49	1082.50
967.79	1086.24
968.08	1084.37
968.38	1083.43
968.67	1081.56
968.97	1071.97
969.26	1074.31
969.56	1076.18
969.85	1076.65
970.15	1081.09
970.44	1082.73
970.74	1073.37
971.03	1073.14
971.32	1070.09
971.62	1070.33
971.91	1067.99
972.21	1071.50
972.50	1066.82
972.80	1058.16
973.09	1057.92
973.38	1067.05
973.68	1071.50
973.97	1080.86
974.27	1096.31
974.56	1091.16
974.85	1085.07
975.15	1076.18
975.44	1071.97
975.73	1055.82
976.03	1059.33
976.32	1068.92
976.61	1074.07
976.91	1077.11
977.20	1077.82
977.49	1069.62
977.79	1067.75
978.08	1069.62
978.37	1071.50
978.67	1076.65
978.96	1082.50
979.25	1072.90
979.55	1080.63
979.84	1078.99
980.13	1085.31
980.42	1088.35
980.72	1098.41
981.01	1084.84
981.30	1083.90
981.59	1075.48
981.89	1079.69
982.18	1069.16
982.47	1069.39
982.76	1066.82
983.06	1077.35
983.35	1069.62
983.64	1075.48
983.93	1083.43
984.22	1086.71
984.52	1083.20
984.81	1087.18
985.10	1082.26
985.39	1079.92
985.68	1079.92
985.97	1081.80
986.27	1086.94
986.56	1098.18
986.85	1090.46
987.14	1083.20
987.43	1078.05
987.72	1070.56
988.01	1072.90
988.31	1072.90
988.60	1078.05
988.89	1078.52
989.18	1079.92
989.47	1067.28
989.76	1071.73
990.05	1073.60
990.34	1076.18
990.63	1075.48
990.92	1079.69
991.21	1082.26
991.51	1076.65
991.80	1084.37
992.09	1091.16
992.38	1088.35
992.67	1083.43
992.96	1090.69
993.25	1084.60
993.54	1071.97
993.83	1075.71
994.12	1080.16
994.41	1077.11
994.70	1075.71
994.99	1082.73
995.28	1081.56
995.57	1094.90
995.86	1097.01
996.15	1089.99
996.44	1088.58
996.73	1089.05
997.02	1071.97
997.31	1062.84
997.59	1062.14
997.88	1062.14
998.17	1068.45
998.46	1075.01
998.75	1080.86
999.04	1092.80
999.33	1092.80
999.62	1085.07
999.91	1076.41
1000.20	1074.54
1000.49	1072.43
1000.77	1072.20
1001.06	1075.01
1001.35	1084.60
1001.64	1087.88
1001.93	1087.65
1002.22	1091.63
1002.51	1090.69
1002.79	1086.94
1003.08	1077.35
1003.37	1070.56
1003.66	1072.67
1003.95	1066.58
1004.23	1067.28
1004.52	1069.62
1004.81	1066.11
1005.10	1057.22
1005.39	1062.60
1005.67	1058.86
1005.96	1062.37
1006.25	1071.50
1006.54	1076.18
1006.83	1068.69
1007.11	1064.94
1007.40	1070.80
1007.69	1078.52
1007.97	1078.05
1008.26	1076.65
1008.55	1071.03
1008.84	1068.45
1009.12	1060.50
1009.41	1057.92
1009.70	1072.90
1009.98	1081.33
1010.27	1077.58
1010.56	1075.94
1010.85	1079.46
1011.13	1070.56
1011.42	1075.94
1011.71	1088.35
1011.99	1091.63
1012.28	1085.77
1012.56	1085.77
1012.85	1082.03
1013.14	1074.31
1013.42	1075.24
1013.71	1082.26
1014.00	1082.73
1014.28	1091.16
1014.57	1088.82
1014.85	1079.69
1015.14	1083.90
1015.43	1084.14
1015.71	1081.33
1016.00	1085.07
1016.28	1093.26
1016.57	1088.35
1016.85	1080.16
1017.14	1076.18
1017.43	1075.24
1017.71	1073.14
1018.00	1060.26
1018.28	1068.69
1018.57	1061.43
1018.85	1055.58
1019.14	1053.48
1019.42	1056.28
1019.71	1054.18
1019.99	1066.82
1020.28	1075.01
1020.56	1086.94
1020.85	1100.52
1021.13	1111.05
1021.42	1101.69
1021.70	1092.09
1021.99	1085.54
1022.27	1076.18
1022.55	1096.54
1022.84	1061.43
>>>>>End Processed Spectral Data<<<<<
