SpectraSuite Data File
++++++++++++++++++++++++++++++++++++
Date: Mon Aug 26 10:24:36 PDT 2019
User: corrico
Dark Spectrum Present: No
Reference Spectrum Present: No
Number of Sampled Component Spectra: 1
Spectrometers: USB2+H06089
Integration Time (usec): 10000 (USB2+H06089)
Spectra Averaged: 2 (USB2+H06089)
Boxcar Smoothing: 2 (USB2+H06089)
Correct for Electrical Dark: No (USB2+H06089)
Strobe/Lamp Enabled: No (USB2+H06089)
Correct for Detector Non-linearity: No (USB2+H06089)
Correct for Stray Light: No (USB2+H06089)
Number of Pixels in Processed Spectrum: 2048
>>>>>Begin Processed Spectral Data<<<<<
339.70	1008.77
340.07	1008.77
340.45	991.92
340.82	980.22
341.19	957.05
341.57	945.58
341.94	939.73
342.31	920.53
342.69	906.96
343.06	901.57
343.43	888.70
343.81	893.62
344.18	906.96
344.55	915.38
344.93	922.64
345.30	924.75
345.67	922.41
346.04	927.55
346.42	937.62
346.79	953.53
347.16	964.77
347.54	971.79
347.91	979.75
348.28	984.66
348.65	1002.45
349.03	1018.84
349.40	1034.52
349.77	1035.22
350.14	1043.18
350.52	1035.45
350.89	1037.33
351.26	1041.77
351.63	1053.24
352.01	1056.05
352.38	1071.50
352.75	1080.16
353.12	1081.33
353.50	1088.12
353.87	1091.16
354.24	1092.33
354.61	1088.12
354.98	1087.65
355.36	1082.03
355.73	1089.05
356.10	1093.73
356.47	1105.44
356.84	1108.24
357.22	1108.01
357.59	1104.73
357.96	1094.43
358.33	1091.63
358.70	1090.92
359.08	1093.26
359.45	1096.78
359.82	1093.50
360.19	1084.37
360.56	1081.56
360.94	1081.80
361.31	1079.22
361.68	1082.97
362.05	1079.69
362.42	1083.20
362.79	1082.50
363.16	1079.92
363.54	1067.52
363.91	1077.11
364.28	1074.54
364.65	1076.65
365.02	1068.69
365.39	1083.20
365.76	1083.43
366.14	1087.41
366.51	1087.18
366.88	1098.18
367.25	1090.92
367.62	1081.56
367.99	1072.67
368.36	1070.09
368.73	1072.67
369.10	1075.01
369.48	1083.67
369.85	1088.82
370.22	1089.05
370.59	1097.95
370.96	1105.67
371.33	1106.37
371.70	1108.24
372.07	1114.10
372.44	1096.54
372.81	1083.43
373.18	1078.75
373.55	1078.52
373.93	1078.05
374.30	1080.86
374.67	1089.05
375.04	1094.67
375.41	1092.56
375.78	1081.80
376.15	1087.88
376.52	1093.97
376.89	1092.09
377.26	1097.95
377.63	1103.33
378.00	1098.65
378.37	1087.18
378.74	1089.52
379.11	1086.01
379.48	1091.16
379.85	1092.09
380.22	1104.73
380.59	1110.35
380.96	1117.14
381.33	1122.75
381.70	1128.37
382.07	1124.39
382.44	1127.90
382.81	1131.41
383.18	1125.33
383.55	1128.37
383.92	1122.52
384.29	1107.07
384.66	1096.78
385.03	1100.75
385.40	1091.39
385.77	1103.56
386.14	1106.61
386.51	1108.01
386.88	1110.82
387.25	1111.29
387.62	1103.56
387.99	1113.39
388.36	1118.78
388.73	1114.33
389.10	1114.56
389.46	1111.52
389.83	1102.39
390.20	1097.48
390.57	1101.22
390.94	1108.48
391.31	1122.52
391.68	1123.69
392.05	1131.41
392.42	1129.07
392.79	1125.80
393.16	1117.14
393.53	1124.86
393.89	1125.33
394.26	1114.80
394.63	1121.35
395.00	1120.88
395.37	1115.27
395.74	1109.41
396.11	1118.54
396.48	1118.07
396.84	1124.16
397.21	1131.65
397.58	1132.35
397.95	1133.05
398.32	1127.67
398.69	1132.82
399.06	1137.03
399.42	1150.84
399.79	1163.01
400.16	1171.91
400.53	1174.01
400.90	1181.27
401.27	1185.48
401.64	1190.16
402.00	1200.46
402.37	1210.53
402.74	1214.50
403.11	1223.40
403.48	1236.97
403.84	1239.78
404.21	1246.80
404.58	1249.38
404.95	1258.51
405.32	1269.74
405.68	1291.98
406.05	1306.49
406.42	1335.98
406.79	1357.04
407.16	1371.32
407.52	1404.09
407.89	1426.09
408.26	1457.45
408.63	1487.64
408.99	1521.11
409.36	1533.05
409.73	1578.69
410.10	1604.67
410.47	1651.25
410.83	1695.48
411.20	1762.19
411.57	1815.79
411.94	1876.17
412.30	1931.64
412.67	2000.92
413.04	2069.27
413.40	2146.51
413.77	2239.89
414.14	2337.96
414.51	2429.24
414.87	2539.48
415.24	2650.89
415.61	2764.17
415.97	2876.99
416.34	3002.91
416.71	3120.87
417.08	3289.62
417.44	3438.48
417.81	3623.62
418.18	3832.39
418.54	4053.57
418.91	4240.82
419.28	4482.13
419.64	4710.33
420.01	4953.74
420.38	5210.73
420.74	5483.88
421.11	5801.25
421.48	6135.01
421.84	6480.48
422.21	6847.00
422.58	7245.83
422.94	7628.98
423.31	8030.38
423.68	8481.87
424.04	8963.55
424.41	9434.23
424.77	9923.40
425.14	10469.92
425.51	11023.22
425.87	11567.16
426.24	12181.08
426.61	12899.86
426.97	13637.83
427.34	14349.82
427.70	15162.93
428.07	15938.58
428.44	16720.79
428.80	17525.70
429.17	18422.36
429.53	19273.38
429.90	20278.64
430.27	21120.06
430.63	22026.78
431.00	23007.00
431.36	24161.35
431.73	25147.89
432.09	26270.41
432.46	27301.65
432.83	28372.44
433.19	29307.72
433.56	30454.35
433.92	31614.32
434.29	32709.69
434.65	33810.68
435.02	34772.64
435.38	35726.41
435.75	36480.53
436.11	37536.81
436.48	38311.29
436.84	39194.61
437.21	39964.41
437.57	40747.79
437.94	41296.65
438.30	41934.68
438.67	42309.86
439.03	42540.41
439.40	42744.50
439.76	42608.98
440.13	42339.82
440.49	42299.80
440.86	41918.76
441.22	41552.93
441.59	41146.38
441.95	40643.40
442.32	39883.20
442.68	39332.47
443.05	38536.22
443.41	37798.72
443.78	36903.93
444.14	36031.85
444.51	34887.09
444.87	34068.60
445.24	33117.41
445.60	32284.41
445.96	31313.09
446.33	30661.95
446.69	29699.29
447.06	28890.87
447.42	28049.21
447.79	27237.05
448.15	26429.10
448.51	25656.25
448.88	24980.30
449.24	24203.48
449.61	23693.01
449.97	23050.06
450.33	22481.08
450.70	21777.28
451.06	21302.39
451.43	20596.71
451.79	20109.65
452.15	19636.63
452.52	19204.56
452.88	18740.20
453.24	18360.80
453.61	17899.48
453.97	17426.69
454.34	16887.43
454.70	16413.94
455.06	15923.37
455.43	15400.26
455.79	14798.04
456.15	14399.68
456.52	13884.53
456.88	13461.59
457.24	13007.76
457.61	12671.43
457.97	12232.81
458.33	11865.81
458.70	11454.82
459.06	11024.39
459.42	10674.01
459.79	10308.89
460.15	9947.98
460.51	9601.58
460.88	9319.08
461.24	9007.79
461.60	8736.28
461.96	8455.89
462.33	8199.83
462.69	7936.05
463.05	7672.51
463.42	7449.46
463.78	7234.60
464.14	7021.84
464.50	6869.24
464.87	6675.68
465.23	6493.35
465.59	6346.13
465.95	6188.61
466.32	6022.67
466.68	5882.00
467.04	5694.06
467.40	5528.35
467.77	5364.27
468.13	5195.52
468.49	5054.39
468.85	4990.49
469.22	4900.38
469.58	4799.74
469.94	4702.14
470.30	4606.88
470.66	4464.10
471.03	4358.55
471.39	4278.73
471.75	4188.62
472.11	4098.98
472.47	4043.74
472.84	3963.70
473.20	3876.40
473.56	3829.12
473.92	3748.84
474.28	3673.70
474.65	3592.02
475.01	3539.83
475.37	3456.50
475.73	3398.69
476.09	3341.82
476.45	3284.01
476.81	3208.64
477.18	3130.47
477.54	3069.61
477.90	3004.08
478.26	2969.20
478.62	2920.52
478.98	2883.31
479.34	2848.67
479.71	2824.79
480.07	2775.41
480.43	2744.28
480.79	2707.77
481.15	2667.74
481.51	2612.74
481.87	2572.95
482.23	2540.65
482.59	2509.99
482.96	2473.24
483.32	2442.35
483.68	2414.03
484.04	2367.45
484.40	2346.62
484.76	2315.73
485.12	2287.41
485.48	2256.28
485.84	2235.21
486.20	2189.81
486.56	2166.63
486.92	2132.23
487.28	2102.27
487.64	2080.74
488.00	2059.20
488.37	2031.35
488.73	2009.82
489.09	1980.33
489.45	1956.22
489.81	1935.62
490.17	1911.28
490.53	1894.20
490.89	1880.15
491.25	1858.39
491.61	1827.02
491.97	1812.04
492.33	1786.06
492.69	1768.74
493.05	1758.21
493.41	1740.42
493.77	1717.25
494.13	1698.29
494.49	1671.84
494.85	1646.33
495.21	1636.97
495.57	1627.84
495.93	1624.10
496.29	1614.27
496.64	1594.14
497.00	1589.22
497.36	1563.71
497.72	1534.69
498.08	1530.01
498.44	1517.60
498.80	1508.01
499.16	1498.18
499.52	1486.71
499.88	1470.09
500.24	1458.39
500.60	1432.17
500.96	1433.81
501.32	1429.60
501.68	1425.15
502.03	1420.00
502.39	1412.98
502.75	1390.04
503.11	1375.53
503.47	1361.49
503.83	1350.96
504.19	1347.91
504.55	1343.23
504.91	1338.79
505.26	1333.40
505.62	1338.08
505.98	1330.83
506.34	1320.06
506.70	1328.72
507.06	1316.79
507.42	1299.47
507.78	1292.21
508.13	1288.93
508.49	1279.34
508.85	1288.93
509.21	1289.40
509.57	1290.10
509.93	1288.93
510.28	1281.21
510.64	1253.59
511.00	1246.10
511.36	1231.36
511.72	1224.10
512.07	1218.95
512.43	1226.67
512.79	1205.38
513.15	1196.95
513.51	1197.89
513.86	1204.44
514.22	1201.87
514.58	1216.61
514.94	1226.91
515.30	1224.80
515.65	1204.91
516.01	1199.52
516.37	1198.35
516.73	1187.12
517.08	1188.76
517.44	1183.84
517.80	1188.06
518.16	1181.97
518.51	1187.82
518.87	1189.23
519.23	1189.69
519.59	1192.50
519.94	1192.74
520.30	1190.40
520.66	1176.35
521.01	1187.12
521.37	1178.23
521.73	1173.78
522.09	1159.50
522.44	1153.88
522.80	1149.91
523.16	1146.86
523.51	1150.84
523.87	1158.57
524.23	1159.97
524.58	1165.12
524.94	1163.25
525.30	1159.74
525.65	1160.67
526.01	1162.08
526.37	1155.29
526.72	1160.20
527.08	1165.12
527.44	1166.76
527.79	1167.69
528.15	1159.50
528.51	1155.99
528.86	1147.10
529.22	1132.82
529.58	1122.29
529.93	1119.48
530.29	1115.03
530.65	1112.22
531.00	1119.48
531.36	1122.05
531.71	1122.05
532.07	1124.39
532.43	1126.97
532.78	1127.90
533.14	1136.10
533.49	1137.03
533.85	1131.88
534.21	1123.69
534.56	1117.14
534.92	1110.82
535.27	1120.65
535.63	1122.75
535.98	1133.99
536.34	1142.18
536.69	1138.67
537.05	1133.52
537.41	1134.93
537.76	1134.46
538.12	1137.03
538.47	1141.01
538.83	1134.93
539.18	1141.48
539.54	1140.31
539.89	1133.76
540.25	1128.84
540.60	1132.12
540.96	1114.33
541.31	1116.90
541.67	1117.14
542.02	1120.65
542.38	1114.80
542.73	1116.67
543.09	1120.88
543.44	1127.44
543.80	1131.41
544.15	1140.54
544.51	1148.27
544.86	1136.10
545.22	1129.07
545.57	1128.84
545.93	1126.73
546.28	1126.27
546.64	1125.56
546.99	1124.63
547.35	1125.33
547.70	1109.65
548.05	1116.20
548.41	1120.18
548.76	1126.27
549.12	1112.46
549.47	1121.12
549.83	1117.14
550.18	1112.46
550.53	1103.80
550.89	1109.41
551.24	1111.29
551.60	1102.86
551.95	1103.56
552.30	1118.07
552.66	1117.37
553.01	1122.75
553.37	1118.78
553.72	1121.35
554.07	1115.03
554.43	1128.61
554.78	1126.97
555.13	1130.24
555.49	1131.41
555.84	1125.80
556.19	1114.80
556.55	1114.33
556.90	1110.12
557.26	1110.58
557.61	1111.05
557.96	1107.54
558.32	1103.33
558.67	1115.27
559.02	1116.20
559.37	1115.73
559.73	1116.67
560.08	1119.24
560.43	1112.46
560.79	1112.92
561.14	1119.71
561.49	1117.61
561.85	1113.86
562.20	1119.24
562.55	1108.24
562.90	1099.35
563.26	1101.69
563.61	1099.58
563.96	1098.65
564.32	1111.52
564.67	1110.58
565.02	1117.61
565.37	1117.37
565.73	1118.31
566.08	1105.44
566.43	1108.24
566.78	1107.78
567.14	1102.39
567.49	1099.12
567.84	1094.20
568.19	1090.92
568.54	1088.35
568.90	1108.01
569.25	1108.24
569.60	1121.35
569.95	1122.52
570.31	1122.52
570.66	1109.88
571.01	1112.46
571.36	1116.20
571.71	1112.22
572.06	1111.29
572.42	1101.69
572.77	1099.12
573.12	1093.50
573.47	1089.52
573.82	1095.14
574.18	1107.54
574.53	1102.86
574.88	1105.67
575.23	1112.92
575.58	1104.50
575.93	1091.86
576.28	1094.90
576.64	1089.99
576.99	1085.07
577.34	1083.67
577.69	1084.84
578.04	1084.37
578.39	1083.20
578.74	1085.77
579.09	1085.07
579.44	1094.43
579.80	1104.50
580.15	1106.14
580.50	1108.24
580.85	1098.18
581.20	1093.26
581.55	1084.60
581.90	1097.95
582.25	1101.69
582.60	1112.92
582.95	1121.58
583.30	1119.95
583.65	1097.48
584.00	1089.99
584.35	1098.88
584.71	1088.58
585.06	1093.73
585.41	1099.35
585.76	1095.37
586.11	1086.94
586.46	1085.31
586.81	1086.01
587.16	1086.24
587.51	1097.71
587.86	1102.63
588.21	1117.37
588.56	1096.78
588.91	1098.65
589.26	1089.29
589.61	1080.39
589.96	1071.50
590.31	1082.73
590.66	1086.48
591.01	1090.92
591.36	1100.99
591.71	1101.92
592.06	1108.01
592.41	1108.01
592.76	1113.39
593.10	1106.14
593.45	1111.99
593.80	1111.99
594.15	1112.69
594.50	1093.50
594.85	1089.75
595.20	1083.67
595.55	1074.31
595.90	1071.97
596.25	1085.77
596.60	1098.88
596.95	1101.46
597.30	1107.54
597.64	1150.37
597.99	1154.12
598.34	1141.01
598.69	1138.20
599.04	1129.31
599.39	1085.77
599.74	1085.07
600.09	1094.20
600.44	1100.75
600.78	1108.95
601.13	1103.33
601.48	1107.78
601.83	1101.46
602.18	1102.39
602.53	1115.73
602.88	1130.24
603.22	1129.54
603.57	1131.41
603.92	1136.33
604.27	1122.99
604.62	1104.03
604.97	1095.37
605.31	1094.90
605.66	1077.82
606.01	1075.94
606.36	1079.22
606.71	1077.35
607.05	1074.77
607.40	1082.50
607.75	1077.82
608.10	1085.07
608.44	1092.33
608.79	1092.56
609.14	1093.73
609.49	1095.37
609.84	1092.56
610.18	1084.14
610.53	1090.92
610.88	1096.54
611.23	1110.58
611.57	1112.69
611.92	1118.31
612.27	1113.39
612.62	1104.03
612.96	1091.16
613.31	1090.69
613.66	1090.92
614.00	1093.03
614.35	1099.35
614.70	1114.10
615.05	1111.52
615.39	1104.97
615.74	1103.33
616.09	1099.82
616.43	1091.16
616.78	1089.05
617.13	1089.99
617.47	1087.18
617.82	1090.69
618.17	1089.99
618.51	1088.35
618.86	1089.29
619.21	1090.46
619.55	1086.94
619.90	1092.33
620.25	1091.63
620.59	1094.43
620.94	1096.07
621.29	1093.97
621.63	1076.41
621.98	1087.88
622.32	1087.18
622.67	1074.54
623.02	1076.18
623.36	1079.22
623.71	1066.58
624.05	1067.75
624.40	1073.37
624.75	1064.71
625.09	1071.26
625.44	1078.99
625.78	1078.99
626.13	1081.33
626.48	1086.71
626.82	1088.12
627.17	1085.54
627.51	1087.18
627.86	1087.41
628.20	1092.80
628.55	1092.33
628.89	1087.41
629.24	1090.46
629.58	1099.58
629.93	1103.09
630.28	1109.65
630.62	1107.54
630.97	1102.63
631.31	1104.03
631.66	1098.65
632.00	1086.71
632.35	1094.43
632.69	1095.60
633.04	1088.35
633.38	1087.18
633.73	1093.97
634.07	1090.92
634.42	1089.75
634.76	1091.63
635.11	1093.50
635.45	1098.65
635.79	1097.24
636.14	1100.99
636.48	1095.14
636.83	1094.43
637.17	1078.28
637.52	1089.05
637.86	1089.52
638.21	1080.63
638.55	1075.01
638.89	1086.71
639.24	1089.29
639.58	1090.22
639.93	1102.16
640.27	1107.07
640.61	1105.67
640.96	1095.14
641.30	1088.82
641.65	1092.33
641.99	1086.01
642.33	1084.60
642.68	1077.82
643.02	1082.50
643.37	1082.73
643.71	1087.88
644.05	1084.37
644.40	1104.73
644.74	1102.86
645.08	1102.63
645.43	1102.86
645.77	1109.65
646.11	1098.18
646.46	1101.92
646.80	1101.92
647.14	1091.86
647.49	1089.52
647.83	1090.69
648.17	1088.12
648.52	1086.48
648.86	1094.43
649.20	1094.67
649.55	1090.46
649.89	1080.16
650.23	1080.63
650.57	1085.54
650.92	1083.67
651.26	1083.43
651.60	1092.80
651.95	1090.69
652.29	1089.52
652.63	1104.03
652.97	1102.39
653.32	1100.52
653.66	1104.97
654.00	1101.22
654.34	1100.52
654.69	1102.39
655.03	1098.41
655.37	1090.69
655.71	1092.80
656.05	1091.16
656.40	1085.77
656.74	1090.46
657.08	1091.86
657.42	1102.63
657.76	1096.31
658.11	1104.73
658.45	1101.22
658.79	1104.97
659.13	1089.05
659.47	1082.73
659.82	1086.48
660.16	1091.86
660.50	1088.35
660.84	1095.84
661.18	1094.20
661.52	1091.16
661.87	1095.14
662.21	1100.52
662.55	1097.95
662.89	1104.97
663.23	1094.90
663.57	1081.09
663.91	1076.88
664.25	1080.86
664.60	1080.16
664.94	1089.75
665.28	1094.20
665.62	1096.54
665.96	1092.80
666.30	1085.77
666.64	1097.24
666.98	1106.61
667.32	1098.65
667.66	1108.48
668.01	1119.24
668.35	1102.86
668.69	1096.31
669.03	1105.20
669.37	1087.18
669.71	1078.28
670.05	1076.18
670.39	1074.54
670.73	1064.71
671.07	1063.31
671.41	1063.77
671.75	1073.14
672.09	1075.48
672.43	1081.80
672.77	1091.63
673.11	1098.18
673.45	1094.20
673.79	1097.48
674.13	1093.97
674.47	1092.09
674.81	1082.50
675.15	1083.90
675.49	1076.88
675.83	1081.56
676.17	1083.20
676.51	1090.46
676.85	1078.28
677.19	1071.50
677.53	1070.80
677.87	1068.22
678.21	1062.60
678.55	1075.01
678.89	1087.41
679.23	1083.20
679.57	1083.20
679.90	1087.65
680.24	1082.50
680.58	1071.26
680.92	1068.45
681.26	1068.69
681.60	1059.09
681.94	1060.96
682.28	1073.37
682.62	1096.07
682.96	1103.09
683.29	1109.65
683.63	1115.50
683.97	1107.07
684.31	1094.90
684.65	1086.24
684.99	1080.63
685.33	1072.90
685.67	1075.94
686.00	1081.56
686.34	1082.97
686.68	1090.69
687.02	1101.22
687.36	1109.18
687.70	1104.50
688.03	1111.05
688.37	1108.48
688.71	1101.22
689.05	1087.65
689.39	1080.86
689.72	1076.41
690.06	1075.71
690.40	1063.07
690.74	1078.52
691.08	1076.41
691.41	1070.56
691.75	1070.80
692.09	1079.69
692.43	1067.99
692.76	1073.84
693.10	1081.80
693.44	1078.52
693.78	1078.28
694.11	1081.56
694.45	1092.56
694.79	1089.52
695.13	1101.92
695.46	1110.12
695.80	1109.88
696.14	1098.88
696.48	1104.73
696.81	1099.12
697.15	1093.97
697.49	1095.84
697.82	1097.24
698.16	1095.14
698.50	1095.84
698.83	1089.75
699.17	1095.14
699.51	1102.39
699.84	1100.52
700.18	1100.52
700.52	1103.56
700.85	1098.65
701.19	1085.31
701.53	1085.54
701.86	1084.60
702.20	1093.50
702.54	1086.94
702.87	1095.37
703.21	1094.20
703.55	1103.56
703.88	1099.82
704.22	1108.95
704.55	1100.75
704.89	1089.29
705.23	1086.48
705.56	1093.97
705.90	1090.46
706.23	1096.54
706.57	1105.67
706.91	1100.52
707.24	1092.33
707.58	1081.56
707.91	1076.88
708.25	1074.31
708.58	1073.37
708.92	1076.88
709.26	1085.31
709.59	1094.43
709.93	1095.60
710.26	1096.07
710.60	1098.41
710.93	1104.97
711.27	1094.20
711.60	1099.35
711.94	1096.07
712.27	1089.29
712.61	1089.52
712.94	1097.48
713.28	1100.99
713.61	1103.33
713.95	1097.48
714.28	1093.73
714.62	1094.20
714.95	1091.63
715.29	1098.65
715.62	1098.88
715.96	1096.78
716.29	1095.84
716.63	1098.88
716.96	1098.88
717.29	1100.52
717.63	1096.31
717.96	1097.01
718.30	1098.65
718.63	1090.46
718.97	1095.60
719.30	1088.35
719.63	1091.16
719.97	1089.75
720.30	1083.43
720.64	1072.20
720.97	1078.28
721.30	1057.45
721.64	1045.05
721.97	1044.35
722.31	1055.58
722.64	1065.41
722.97	1084.84
723.31	1089.29
723.64	1098.65
723.97	1101.22
724.31	1095.37
724.64	1080.63
724.98	1082.50
725.31	1082.50
725.64	1077.58
725.98	1079.92
726.31	1089.29
726.64	1093.50
726.97	1086.01
727.31	1086.24
727.64	1092.56
727.97	1083.67
728.31	1090.92
728.64	1100.99
728.97	1107.54
729.31	1096.07
729.64	1109.88
729.97	1091.86
730.30	1095.14
730.64	1086.24
730.97	1093.03
731.30	1087.88
731.63	1096.07
731.97	1091.39
732.30	1088.58
732.63	1081.56
732.96	1076.18
733.30	1066.58
733.63	1060.96
733.96	1067.99
734.29	1069.16
734.63	1070.09
734.96	1078.05
735.29	1071.50
735.62	1067.75
735.95	1074.31
736.29	1083.90
736.62	1079.69
736.95	1084.14
737.28	1092.33
737.61	1090.92
737.94	1085.54
738.28	1088.35
738.61	1094.90
738.94	1083.67
739.27	1079.46
739.60	1078.75
739.93	1085.31
740.27	1080.63
740.60	1084.84
740.93	1081.56
741.26	1078.28
741.59	1072.43
741.92	1073.37
742.25	1072.43
742.58	1076.41
742.91	1080.39
743.25	1078.05
743.58	1074.77
743.91	1074.31
744.24	1071.26
744.57	1072.67
744.90	1086.94
745.23	1084.84
745.56	1079.46
745.89	1088.82
746.22	1084.37
746.55	1075.24
746.88	1082.03
747.21	1096.07
747.54	1096.78
747.87	1092.80
748.20	1083.43
748.53	1079.46
748.87	1072.43
749.20	1072.43
749.53	1077.82
749.86	1093.50
750.19	1094.90
750.52	1089.52
750.85	1082.50
751.18	1078.75
751.51	1060.26
751.84	1057.45
752.16	1065.88
752.49	1063.07
752.82	1059.09
753.15	1073.37
753.48	1079.22
753.81	1064.24
754.14	1060.50
754.47	1068.92
754.80	1062.84
755.13	1059.79
755.46	1073.37
755.79	1082.03
756.12	1084.60
756.45	1085.31
756.78	1089.75
757.11	1089.99
757.43	1096.78
757.76	1083.90
758.09	1085.77
758.42	1072.20
758.75	1074.54
759.08	1078.28
759.41	1087.41
759.74	1080.16
760.07	1095.84
760.39	1086.24
760.72	1065.88
761.05	1067.28
761.38	1067.28
761.71	1075.71
762.04	1086.48
762.36	1096.07
762.69	1089.05
763.02	1086.01
763.35	1071.03
763.68	1063.07
764.01	1061.20
764.33	1071.26
764.66	1084.14
764.99	1091.39
765.32	1092.09
765.65	1093.97
765.97	1092.56
766.30	1084.14
766.63	1078.52
766.96	1080.63
767.28	1076.65
767.61	1073.84
767.94	1078.99
768.27	1081.33
768.59	1081.09
768.92	1082.03
769.25	1081.56
769.58	1076.88
769.90	1078.28
770.23	1077.35
770.56	1080.39
770.89	1076.18
771.21	1071.03
771.54	1072.67
771.87	1078.52
772.19	1078.52
772.52	1077.11
772.85	1091.16
773.17	1086.01
773.50	1090.69
773.83	1075.24
774.15	1073.84
774.48	1070.56
774.81	1082.26
775.13	1074.54
775.46	1081.56
775.79	1092.56
776.11	1091.63
776.44	1078.28
776.77	1083.20
777.09	1091.86
777.42	1086.24
777.74	1094.67
778.07	1101.46
778.40	1110.58
778.72	1106.14
779.05	1107.31
779.37	1093.97
779.70	1096.78
780.03	1082.73
780.35	1079.69
780.68	1076.88
781.00	1079.92
781.33	1076.88
781.65	1070.09
781.98	1080.16
782.31	1089.05
782.63	1092.56
782.96	1088.58
783.28	1102.39
783.61	1098.88
783.93	1102.39
784.26	1099.12
784.58	1103.80
784.91	1103.33
785.23	1099.12
785.56	1095.14
785.88	1087.65
786.21	1085.31
786.53	1071.50
786.86	1070.56
787.18	1064.48
787.51	1079.46
787.83	1075.48
788.16	1073.60
788.48	1077.58
788.81	1084.37
789.13	1074.31
789.46	1085.31
789.78	1089.29
790.10	1088.58
790.43	1081.80
790.75	1083.43
791.08	1074.31
791.40	1079.22
791.73	1090.92
792.05	1095.60
792.37	1091.16
792.70	1097.71
793.02	1098.88
793.35	1090.69
793.67	1085.54
793.99	1089.52
794.32	1079.22
794.64	1083.20
794.96	1079.22
795.29	1080.86
795.61	1074.07
795.93	1080.39
796.26	1071.97
796.58	1068.92
796.91	1070.80
797.23	1077.82
797.55	1070.80
797.87	1074.54
798.20	1082.50
798.52	1083.20
798.84	1078.52
799.17	1078.05
799.49	1068.92
799.81	1061.67
800.14	1059.56
800.46	1075.24
800.78	1076.88
801.10	1087.41
801.43	1092.33
801.75	1092.56
802.07	1079.69
802.40	1086.94
802.72	1093.97
803.04	1097.48
803.36	1098.18
803.69	1102.39
804.01	1098.18
804.33	1079.22
804.65	1067.05
804.97	1065.88
805.30	1063.54
805.62	1063.77
805.94	1070.33
806.26	1082.26
806.58	1084.84
806.91	1082.26
807.23	1080.63
807.55	1081.33
807.87	1085.77
808.19	1085.77
808.52	1094.20
808.84	1093.03
809.16	1095.14
809.48	1095.37
809.80	1097.95
810.12	1093.73
810.44	1093.97
810.77	1086.94
811.09	1078.99
811.41	1071.73
811.73	1067.75
812.05	1077.58
812.37	1084.14
812.69	1083.90
813.01	1091.39
813.33	1090.92
813.66	1085.77
813.98	1089.05
814.30	1088.82
814.62	1087.41
814.94	1092.09
815.26	1089.52
815.58	1082.03
815.90	1079.46
816.22	1073.60
816.54	1078.05
816.86	1081.56
817.18	1088.82
817.50	1090.22
817.82	1092.56
818.14	1085.77
818.46	1079.22
818.78	1072.20
819.10	1068.45
819.42	1062.14
819.74	1057.92
820.06	1064.01
820.38	1067.28
820.70	1073.14
821.02	1081.56
821.34	1079.46
821.66	1074.31
821.98	1075.71
822.30	1072.90
822.62	1066.58
822.94	1074.07
823.26	1077.58
823.58	1074.77
823.90	1075.48
824.22	1077.58
824.54	1079.46
824.86	1078.28
825.18	1075.01
825.50	1071.03
825.81	1072.43
826.13	1066.82
826.45	1062.37
826.77	1078.52
827.09	1085.31
827.41	1086.48
827.73	1097.48
828.05	1094.90
828.36	1078.52
828.68	1083.43
829.00	1079.69
829.32	1076.41
829.64	1077.82
829.96	1081.09
830.28	1078.75
830.59	1070.56
830.91	1059.09
831.23	1061.20
831.55	1078.28
831.87	1066.82
832.19	1077.82
832.50	1085.77
832.82	1091.63
833.14	1080.86
833.46	1089.29
833.78	1085.54
834.09	1086.24
834.41	1070.80
834.73	1073.84
835.05	1069.86
835.36	1074.31
835.68	1075.48
836.00	1088.35
836.32	1079.22
836.63	1082.26
836.95	1079.69
837.27	1074.54
837.59	1080.39
837.90	1081.80
838.22	1085.07
838.54	1085.31
838.85	1099.35
839.17	1096.54
839.49	1093.97
839.80	1086.01
840.12	1076.41
840.44	1060.96
840.76	1065.18
841.07	1064.01
841.39	1064.94
841.71	1077.58
842.02	1081.09
842.34	1066.58
842.65	1071.03
842.97	1076.88
843.29	1077.35
843.60	1085.31
843.92	1086.01
844.24	1083.67
844.55	1079.69
844.87	1067.52
845.18	1058.86
845.50	1060.50
845.82	1062.60
846.13	1063.54
846.45	1076.88
846.76	1087.65
847.08	1090.92
847.40	1094.43
847.71	1089.99
848.03	1086.01
848.34	1090.92
848.66	1092.80
848.97	1092.09
849.29	1096.78
849.60	1097.71
849.92	1083.20
850.24	1081.33
850.55	1081.56
850.87	1076.18
851.18	1076.41
851.50	1079.92
851.81	1081.56
852.13	1082.97
852.44	1089.75
852.76	1099.82
853.07	1105.20
853.39	1101.92
853.70	1092.09
854.01	1086.71
854.33	1084.37
854.64	1086.48
854.96	1085.07
855.27	1094.67
855.59	1100.29
855.90	1091.16
856.22	1080.86
856.53	1083.20
856.84	1090.92
857.16	1082.50
857.47	1083.90
857.79	1094.43
858.10	1095.84
858.41	1076.65
858.73	1075.24
859.04	1065.88
859.36	1064.01
859.67	1069.39
859.98	1079.46
860.30	1086.71
860.61	1098.41
860.92	1093.50
861.24	1081.56
861.55	1082.50
861.87	1090.69
862.18	1089.05
862.49	1086.01
862.81	1096.78
863.12	1089.99
863.43	1076.65
863.74	1075.24
864.06	1069.62
864.37	1067.28
864.68	1073.14
865.00	1072.67
865.31	1065.41
865.62	1077.11
865.94	1071.50
866.25	1070.09
866.56	1078.05
866.87	1092.80
867.19	1093.03
867.50	1101.92
867.81	1102.16
868.12	1100.99
868.44	1101.22
868.75	1091.16
869.06	1083.43
869.37	1084.60
869.68	1084.37
870.00	1082.73
870.31	1084.37
870.62	1089.29
870.93	1087.41
871.24	1094.67
871.56	1087.41
871.87	1096.07
872.18	1102.39
872.49	1099.58
872.80	1095.14
873.12	1092.56
873.43	1090.22
873.74	1080.39
874.05	1090.92
874.36	1090.92
874.67	1100.29
874.98	1093.73
875.29	1090.22
875.61	1086.48
875.92	1079.46
876.23	1079.46
876.54	1076.88
876.85	1079.46
877.16	1079.69
877.47	1084.60
877.78	1083.43
878.09	1096.54
878.40	1099.35
878.72	1093.97
879.03	1082.26
879.34	1076.41
879.65	1076.41
879.96	1074.54
880.27	1072.20
880.58	1085.77
880.89	1080.63
881.20	1073.14
881.51	1080.39
881.82	1084.60
882.13	1081.33
882.44	1078.99
882.75	1082.97
883.06	1076.65
883.37	1070.80
883.68	1079.92
883.99	1089.05
884.30	1088.82
884.61	1084.60
884.92	1093.03
885.23	1083.43
885.54	1087.41
885.85	1079.92
886.16	1081.80
886.47	1075.71
886.78	1077.58
887.08	1081.80
887.39	1089.99
887.70	1091.16
888.01	1091.16
888.32	1085.54
888.63	1076.18
888.94	1069.16
889.25	1070.33
889.56	1077.82
889.87	1085.31
890.17	1083.90
890.48	1086.24
890.79	1082.97
891.10	1076.65
891.41	1076.65
891.72	1072.90
892.03	1071.03
892.34	1072.20
892.64	1068.92
892.95	1071.26
893.26	1088.58
893.57	1087.18
893.88	1089.05
894.18	1098.18
894.49	1087.65
894.80	1076.18
895.11	1082.97
895.42	1088.82
895.72	1073.37
896.03	1089.05
896.34	1088.58
896.65	1086.48
896.96	1075.01
897.26	1085.54
897.57	1075.48
897.88	1085.54
898.19	1076.41
898.49	1080.63
898.80	1073.84
899.11	1070.09
899.41	1060.03
899.72	1071.26
900.03	1064.94
900.34	1075.48
900.64	1081.33
900.95	1074.07
901.26	1071.03
901.56	1078.52
901.87	1067.28
902.18	1059.79
902.48	1057.92
902.79	1061.20
903.10	1063.31
903.40	1071.97
903.71	1078.28
904.02	1092.33
904.32	1082.97
904.63	1081.56
904.94	1076.18
905.24	1075.24
905.55	1071.97
905.85	1076.41
906.16	1074.31
906.47	1082.50
906.77	1084.14
907.08	1083.43
907.38	1080.39
907.69	1083.20
908.00	1081.56
908.30	1093.26
908.61	1099.12
908.91	1102.39
909.22	1109.88
909.52	1103.56
909.83	1093.97
910.14	1088.12
910.44	1089.29
910.75	1078.52
911.05	1087.41
911.36	1084.84
911.66	1080.63
911.97	1079.92
912.27	1086.24
912.58	1089.99
912.88	1080.39
913.19	1087.41
913.49	1079.22
913.80	1071.26
914.10	1071.50
914.41	1077.58
914.71	1080.16
915.01	1093.97
915.32	1083.20
915.62	1082.97
915.93	1082.50
916.23	1087.41
916.54	1068.45
916.84	1076.18
917.15	1069.39
917.45	1070.33
917.75	1062.37
918.06	1072.43
918.36	1076.65
918.67	1075.71
918.97	1077.58
919.27	1079.46
919.58	1087.65
919.88	1089.29
920.18	1087.65
920.49	1093.26
920.79	1083.90
921.10	1076.88
921.40	1069.86
921.70	1074.31
922.01	1064.48
922.31	1066.82
922.61	1065.18
922.92	1076.41
923.22	1074.07
923.52	1072.67
923.82	1074.54
924.13	1079.46
924.43	1075.01
924.73	1073.37
925.04	1082.50
925.34	1087.18
925.64	1086.01
925.94	1094.67
926.25	1095.37
926.55	1085.54
926.85	1077.82
927.15	1079.92
927.46	1071.03
927.76	1077.11
928.06	1085.54
928.36	1084.84
928.67	1083.43
928.97	1081.09
929.27	1081.33
929.57	1083.43
929.87	1091.86
930.18	1084.60
930.48	1086.01
930.78	1080.86
931.08	1074.07
931.38	1077.35
931.69	1091.86
931.99	1090.69
932.29	1082.73
932.59	1086.94
932.89	1086.48
933.19	1071.97
933.49	1067.52
933.80	1075.01
934.10	1077.11
934.40	1068.45
934.70	1072.43
935.00	1066.58
935.30	1072.20
935.60	1065.18
935.90	1070.33
936.20	1064.24
936.50	1084.60
936.81	1080.39
937.11	1094.90
937.41	1087.18
937.71	1086.71
938.01	1078.75
938.31	1082.50
938.61	1069.86
938.91	1074.54
939.21	1081.33
939.51	1082.50
939.81	1083.67
940.11	1083.67
940.41	1082.97
940.71	1081.80
941.01	1079.46
941.31	1073.37
941.61	1072.43
941.91	1077.11
942.21	1085.31
942.51	1092.56
942.81	1087.88
943.11	1079.69
943.41	1071.73
943.71	1059.09
944.01	1060.50
944.31	1069.16
944.61	1077.35
944.90	1083.20
945.20	1088.58
945.50	1077.58
945.80	1078.75
946.10	1090.22
946.40	1085.54
946.70	1085.07
947.00	1088.82
947.30	1081.56
947.60	1061.90
947.89	1066.11
948.19	1066.35
948.49	1072.20
948.79	1078.52
949.09	1089.99
949.39	1086.01
949.69	1098.18
949.98	1100.52
950.28	1104.03
950.58	1106.14
950.88	1097.24
951.18	1094.20
951.48	1091.39
951.77	1080.39
952.07	1074.77
952.37	1082.97
952.67	1078.99
952.97	1066.11
953.26	1068.45
953.56	1065.41
953.86	1059.79
954.16	1046.69
954.45	1050.20
954.75	1039.90
955.05	1046.92
955.35	1060.73
955.64	1066.58
955.94	1069.62
956.24	1077.11
956.54	1082.73
956.83	1085.31
957.13	1092.33
957.43	1094.43
957.72	1101.46
958.02	1087.41
958.32	1081.56
958.61	1082.03
958.91	1074.77
959.21	1075.94
959.50	1090.46
959.80	1080.86
960.10	1077.58
960.39	1092.56
960.69	1086.71
960.99	1073.84
961.28	1086.01
961.58	1079.92
961.87	1074.31
962.17	1080.86
962.47	1071.50
962.76	1072.90
963.06	1085.31
963.36	1073.37
963.65	1076.41
963.95	1089.29
964.24	1082.03
964.54	1078.05
964.83	1084.60
965.13	1074.07
965.42	1073.84
965.72	1077.35
966.02	1068.45
966.31	1074.31
966.61	1076.41
966.90	1071.03
967.20	1069.62
967.49	1076.88
967.79	1068.45
968.08	1072.20
968.38	1086.71
968.67	1081.09
968.97	1076.41
969.26	1089.52
969.56	1076.18
969.85	1072.90
970.15	1073.84
970.44	1077.11
970.74	1064.71
971.03	1074.77
971.32	1075.24
971.62	1073.84
971.91	1078.28
972.21	1093.26
972.50	1091.63
972.80	1078.99
973.09	1086.48
973.38	1080.86
973.68	1078.05
973.97	1082.03
974.27	1095.84
974.56	1091.86
974.85	1099.82
975.15	1091.39
975.44	1088.12
975.73	1084.14
976.03	1088.35
976.32	1086.24
976.61	1084.84
976.91	1081.33
977.20	1087.65
977.49	1094.43
977.79	1089.05
978.08	1096.31
978.37	1100.05
978.67	1092.80
978.96	1089.75
979.25	1089.75
979.55	1091.16
979.84	1085.54
980.13	1089.75
980.42	1083.90
980.72	1080.86
981.01	1081.33
981.30	1094.67
981.59	1082.73
981.89	1084.14
982.18	1089.75
982.47	1079.46
982.76	1068.69
983.06	1077.58
983.35	1076.18
983.64	1073.14
983.93	1081.56
984.22	1086.24
984.52	1098.18
984.81	1096.07
985.10	1101.22
985.39	1094.20
985.68	1091.16
985.97	1082.03
986.27	1086.71
986.56	1082.50
986.85	1089.05
987.14	1083.20
987.43	1081.80
987.72	1078.05
988.01	1069.39
988.31	1063.31
988.60	1074.54
988.89	1076.41
989.18	1081.80
989.47	1098.65
989.76	1096.54
990.05	1101.69
990.34	1092.80
990.63	1079.92
990.92	1071.26
991.21	1071.50
991.51	1047.62
991.80	1039.43
992.09	1039.90
992.38	1039.67
992.67	1047.86
992.96	1065.41
993.25	1082.50
993.54	1094.67
993.83	1089.75
994.12	1088.35
994.41	1082.97
994.70	1074.54
994.99	1076.88
995.28	1086.24
995.57	1084.37
995.86	1096.31
996.15	1107.31
996.44	1108.71
996.73	1109.88
997.02	1110.82
997.31	1109.65
997.59	1099.12
997.88	1090.92
998.17	1080.63
998.46	1082.26
998.75	1075.24
999.04	1080.39
999.33	1088.12
999.62	1088.12
999.91	1076.41
1000.20	1071.26
1000.49	1066.58
1000.77	1066.82
1001.06	1076.18
1001.35	1089.75
1001.64	1087.41
1001.93	1089.52
1002.22	1086.01
1002.51	1067.99
1002.79	1066.82
1003.08	1062.14
1003.37	1051.84
1003.66	1055.58
1003.95	1075.48
1004.23	1066.35
1004.52	1078.05
1004.81	1092.09
1005.10	1092.56
1005.39	1089.99
1005.67	1097.48
1005.96	1101.46
1006.25	1093.97
1006.54	1094.67
1006.83	1088.58
1007.11	1083.90
1007.40	1074.54
1007.69	1082.03
1007.97	1073.14
1008.26	1088.58
1008.55	1096.78
1008.84	1100.29
1009.12	1087.88
1009.41	1083.67
1009.70	1073.14
1009.98	1070.56
1010.27	1072.43
1010.56	1083.67
1010.85	1086.01
1011.13	1081.56
1011.42	1077.82
1011.71	1079.22
1011.99	1082.26
1012.28	1078.52
1012.56	1075.71
1012.85	1078.52
1013.14	1076.41
1013.42	1068.45
1013.71	1073.84
1014.00	1076.88
1014.28	1069.86
1014.57	1068.45
1014.85	1075.01
1015.14	1077.11
1015.43	1082.73
1015.71	1083.67
1016.00	1096.07
1016.28	1092.09
1016.57	1090.92
1016.85	1093.03
1017.14	1099.58
1017.43	1086.71
1017.71	1091.63
1018.00	1085.54
1018.28	1081.33
1018.57	1082.03
1018.85	1094.90
1019.14	1083.43
1019.42	1094.43
1019.71	1093.03
1019.99	1096.54
1020.28	1087.18
1020.56	1089.05
1020.85	1093.97
1021.13	1104.73
1021.42	1097.71
1021.70	1099.58
1021.99	1102.63
1022.27	1089.99
1022.55	1070.80
1022.84	1064.94
>>>>>End Processed Spectral Data<<<<<
