SpectraSuite Data File
++++++++++++++++++++++++++++++++++++
Date: Mon Aug 26 10:24:36 PDT 2019
User: corrico
Dark Spectrum Present: No
Reference Spectrum Present: No
Number of Sampled Component Spectra: 1
Spectrometers: USB2+H06089
Integration Time (usec): 10000 (USB2+H06089)
Spectra Averaged: 2 (USB2+H06089)
Boxcar Smoothing: 2 (USB2+H06089)
Correct for Electrical Dark: No (USB2+H06089)
Strobe/Lamp Enabled: No (USB2+H06089)
Correct for Detector Non-linearity: No (USB2+H06089)
Correct for Stray Light: No (USB2+H06089)
Number of Pixels in Processed Spectrum: 2048
>>>>>Begin Processed Spectral Data<<<<<
339.70	1038.03
340.07	1038.03
340.45	1001.05
340.82	980.45
341.19	950.02
341.57	912.81
341.94	902.74
342.31	892.91
342.69	877.23
343.06	873.49
343.43	878.17
343.81	878.87
344.18	881.91
344.55	902.51
344.93	911.64
345.30	929.19
345.67	927.55
346.04	936.68
346.42	934.34
346.79	948.39
347.16	957.05
347.54	958.92
347.91	967.11
348.28	982.56
348.65	989.34
349.03	990.05
349.40	1007.60
349.77	1028.43
350.14	1028.20
350.52	1038.26
350.89	1051.37
351.26	1058.86
351.63	1054.88
352.01	1068.22
352.38	1069.16
352.75	1066.58
353.12	1070.09
353.50	1074.31
353.87	1071.50
354.24	1078.05
354.61	1087.65
354.98	1095.37
355.36	1093.50
355.73	1096.54
356.10	1093.73
356.47	1089.05
356.84	1084.60
357.22	1097.95
357.59	1102.16
357.96	1101.22
358.33	1095.37
358.70	1092.56
359.08	1088.58
359.45	1094.90
359.82	1089.99
360.19	1095.84
360.56	1088.82
360.94	1088.35
361.31	1070.09
361.68	1072.43
362.05	1071.73
362.42	1076.41
362.79	1076.41
363.16	1086.48
363.54	1094.43
363.91	1106.84
364.28	1109.65
364.65	1110.12
365.02	1110.82
365.39	1102.86
365.76	1094.90
366.14	1097.71
366.51	1100.29
366.88	1094.20
367.25	1098.88
367.62	1098.65
367.99	1093.73
368.36	1083.20
368.73	1080.16
369.10	1077.82
369.48	1074.54
369.85	1078.52
370.22	1079.22
370.59	1087.18
370.96	1089.05
371.33	1090.46
371.70	1089.52
372.07	1091.63
372.44	1095.60
372.81	1094.20
373.18	1095.14
373.55	1084.14
373.93	1075.24
374.30	1069.16
374.67	1067.52
375.04	1063.54
375.41	1072.67
375.78	1086.24
376.15	1088.58
376.52	1089.99
376.89	1085.77
377.26	1085.31
377.63	1071.26
378.00	1080.16
378.37	1086.94
378.74	1105.90
379.11	1107.78
379.48	1114.80
379.85	1106.14
380.22	1095.84
380.59	1080.39
380.96	1084.37
381.33	1090.69
381.70	1085.31
382.07	1099.35
382.44	1095.84
382.81	1098.41
383.18	1105.20
383.55	1104.26
383.92	1097.71
384.29	1110.58
384.66	1107.54
385.03	1104.26
385.40	1109.88
385.77	1108.01
386.14	1100.99
386.51	1103.56
386.88	1096.54
387.25	1096.31
387.62	1105.44
387.99	1111.99
388.36	1107.07
388.73	1116.20
389.10	1121.58
389.46	1106.61
389.83	1105.90
390.20	1102.16
390.57	1098.88
390.94	1094.90
391.31	1101.69
391.68	1094.67
392.05	1096.31
392.42	1097.24
392.79	1101.69
393.16	1104.73
393.53	1109.88
393.89	1108.71
394.26	1116.67
394.63	1106.14
395.00	1098.41
395.37	1098.18
395.74	1108.71
396.11	1097.24
396.48	1104.26
396.84	1109.18
397.21	1118.54
397.58	1117.61
397.95	1125.10
398.32	1137.27
398.69	1145.22
399.06	1138.44
399.42	1135.16
399.79	1138.67
400.16	1129.31
400.53	1137.50
400.90	1149.67
401.27	1163.01
401.64	1166.29
402.00	1176.59
402.37	1175.18
402.74	1178.46
403.11	1186.18
403.48	1192.74
403.84	1204.44
404.21	1213.33
404.58	1219.19
404.95	1230.89
405.32	1237.91
405.68	1247.74
406.05	1272.55
406.42	1295.95
406.79	1310.70
407.16	1345.11
407.52	1370.85
407.89	1393.09
408.26	1411.58
408.63	1441.54
408.99	1461.20
409.36	1487.64
409.73	1504.73
410.10	1536.33
410.47	1579.16
410.83	1624.33
411.20	1667.63
411.57	1716.31
411.94	1767.57
412.30	1797.06
412.67	1842.24
413.04	1901.69
413.40	1970.97
413.77	2041.42
414.14	2135.27
414.51	2227.72
414.87	2312.45
415.24	2418.94
415.61	2542.29
415.97	2627.72
416.34	2737.26
416.71	2852.64
417.08	2979.97
417.44	3093.25
417.81	3255.92
418.18	3398.93
418.54	3566.51
418.91	3712.79
419.28	3905.89
419.64	4099.92
420.01	4326.48
420.38	4556.09
420.74	4806.52
421.11	5074.28
421.48	5333.38
421.84	5615.65
422.21	5896.75
422.58	6215.76
422.94	6509.50
423.31	6841.85
423.68	7207.68
424.04	7604.40
424.41	7997.84
424.77	8400.42
425.14	8817.97
425.51	9233.18
425.87	9698.48
426.24	10208.48
426.61	10785.19
426.97	11462.54
427.34	12074.59
427.70	12718.94
428.07	13311.09
428.44	13978.38
428.80	14644.73
429.17	15355.55
429.53	16087.67
429.90	16916.69
430.27	17598.72
430.63	18306.97
431.00	19188.88
431.36	20132.82
431.73	20943.58
432.09	21907.65
432.46	22872.42
432.83	23720.39
433.19	24467.49
433.56	25438.11
433.92	26352.33
434.29	27164.02
434.65	28074.73
435.02	28953.13
435.38	29735.10
435.75	30339.43
436.11	31233.98
436.48	31891.44
436.84	32559.19
437.21	33280.55
437.57	33979.43
437.94	34431.39
438.30	35018.16
438.67	35438.05
439.03	35626.70
439.40	35868.01
439.76	35836.41
440.13	35611.48
440.49	35545.25
440.86	35221.79
441.22	34811.96
441.59	34398.62
441.95	34030.22
442.32	33358.95
442.68	32894.12
443.05	32308.99
443.41	31685.47
443.78	30875.18
444.14	30192.68
444.51	29308.66
444.87	28672.97
445.24	27938.74
445.60	27325.05
445.96	26542.85
446.33	25932.20
446.69	25103.42
447.06	24421.62
447.42	23569.90
447.79	22856.50
448.15	22178.45
448.51	21521.23
448.88	21006.54
449.24	20456.98
449.61	20008.07
449.97	19502.28
450.33	19008.89
450.70	18337.16
451.06	17891.99
451.43	17325.58
451.79	16863.79
452.15	16473.86
452.52	16129.33
452.88	15798.38
453.24	15426.94
453.61	15033.73
453.97	14642.39
454.34	14198.63
454.70	13802.84
455.06	13476.34
455.43	13083.83
455.79	12626.72
456.15	12262.30
456.52	11833.51
456.88	11452.24
457.24	11103.50
457.61	10839.25
457.97	10542.71
458.33	10202.63
458.70	9833.99
459.06	9461.62
459.42	9109.36
459.79	8779.82
460.15	8530.32
460.51	8261.86
460.88	8031.08
461.24	7793.52
461.60	7566.72
461.96	7348.35
462.33	7132.31
462.69	6904.11
463.05	6698.61
463.42	6510.43
463.78	6285.27
464.14	6122.37
464.50	5956.43
464.87	5772.46
465.23	5610.97
465.59	5459.30
465.95	5313.25
466.32	5193.88
466.68	5061.88
467.04	4936.89
467.40	4818.93
467.77	4704.01
468.13	4589.32
468.49	4480.25
468.85	4391.31
469.22	4312.67
469.58	4215.30
469.94	4131.75
470.30	4066.45
470.66	3968.85
471.03	3881.78
471.39	3815.78
471.75	3743.92
472.11	3674.17
472.47	3605.60
472.84	3542.40
473.20	3473.36
473.56	3412.03
473.92	3339.48
474.28	3291.50
474.65	3232.51
475.01	3181.96
475.37	3126.02
475.73	3075.23
476.09	3024.91
476.45	2986.76
476.81	2929.65
477.18	2872.77
477.54	2828.54
477.90	2786.41
478.26	2723.92
478.62	2689.98
478.98	2650.89
479.34	2623.04
479.71	2566.87
480.07	2539.01
480.43	2495.95
480.79	2464.58
481.15	2415.20
481.51	2386.64
481.87	2362.30
482.23	2323.68
482.59	2299.58
482.96	2270.55
483.32	2241.06
483.68	2197.53
484.04	2182.32
484.40	2162.89
484.76	2150.72
485.12	2131.29
485.48	2106.01
485.84	2074.42
486.20	2027.14
486.56	1986.65
486.92	1966.05
487.28	1953.41
487.64	1925.09
488.00	1911.75
488.37	1898.41
488.73	1882.73
489.09	1863.53
489.45	1856.51
489.81	1829.36
490.17	1809.00
490.53	1786.76
490.89	1777.40
491.25	1763.83
491.61	1758.68
491.97	1741.59
492.33	1718.42
492.69	1676.99
493.05	1658.97
493.41	1633.23
493.77	1623.86
494.13	1614.50
494.49	1609.82
494.85	1593.67
495.21	1585.24
495.57	1566.05
495.93	1550.37
496.29	1538.43
496.64	1527.90
497.00	1521.82
497.36	1507.30
497.72	1484.37
498.08	1473.13
498.44	1454.88
498.80	1452.07
499.16	1438.26
499.52	1445.51
499.88	1429.83
500.24	1423.51
500.60	1400.58
500.96	1394.02
501.32	1375.06
501.68	1365.94
502.03	1355.17
502.39	1344.64
502.75	1335.04
503.11	1322.17
503.47	1321.70
503.83	1319.36
504.19	1314.21
504.55	1312.57
504.91	1308.13
505.26	1297.59
505.62	1308.13
505.98	1299.93
506.34	1286.59
506.70	1288.46
507.06	1284.95
507.42	1258.74
507.78	1259.91
508.13	1260.85
508.49	1269.04
508.85	1268.10
509.21	1267.40
509.57	1259.44
509.93	1251.25
510.28	1222.70
510.64	1222.23
511.00	1218.95
511.36	1215.21
511.72	1217.08
512.07	1227.61
512.43	1219.89
512.79	1209.82
513.15	1209.82
513.51	1210.06
513.86	1205.14
514.22	1207.25
514.58	1203.50
514.94	1203.04
515.30	1198.35
515.65	1190.63
516.01	1177.06
516.37	1186.65
516.73	1176.82
517.08	1169.33
517.44	1174.71
517.80	1172.61
518.16	1155.05
518.51	1153.88
518.87	1162.31
519.23	1161.37
519.59	1163.95
519.94	1170.97
520.30	1173.78
520.66	1154.59
521.01	1149.91
521.37	1144.05
521.73	1141.95
522.09	1140.54
522.44	1151.78
522.80	1141.01
523.16	1143.59
523.51	1157.63
523.87	1156.93
524.23	1155.05
524.58	1160.44
524.94	1158.33
525.30	1135.86
525.65	1130.95
526.01	1125.80
526.37	1122.99
526.72	1125.33
527.08	1136.80
527.44	1141.01
527.79	1138.67
528.15	1138.44
528.51	1128.37
528.86	1127.67
529.22	1117.14
529.58	1118.31
529.93	1119.48
530.29	1127.44
530.65	1117.14
531.00	1122.29
531.36	1119.01
531.71	1108.71
532.07	1105.67
532.43	1106.61
532.78	1106.14
533.14	1107.54
533.49	1119.95
533.85	1124.16
534.21	1124.16
534.56	1117.14
534.92	1118.54
535.27	1113.86
535.63	1097.24
535.98	1104.26
536.34	1111.75
536.69	1110.58
537.05	1111.52
537.41	1124.39
537.76	1119.71
538.12	1114.56
538.47	1119.48
538.83	1119.01
539.18	1122.52
539.54	1127.44
539.89	1130.95
540.25	1124.63
540.60	1126.03
540.96	1125.33
541.31	1117.14
541.67	1117.84
542.02	1125.10
542.38	1115.73
542.73	1110.82
543.09	1108.95
543.44	1110.35
543.80	1099.12
544.15	1108.95
544.51	1113.39
544.86	1127.67
545.22	1130.24
545.57	1142.42
545.93	1149.91
546.28	1146.86
546.64	1136.80
546.99	1127.20
547.35	1116.20
547.70	1107.31
548.05	1105.44
548.41	1111.99
548.76	1114.56
549.12	1130.71
549.47	1130.71
549.83	1131.41
550.18	1117.14
550.53	1117.37
550.89	1097.01
551.24	1095.60
551.60	1093.50
551.95	1100.99
552.30	1107.78
552.66	1105.67
553.01	1108.71
553.37	1109.65
553.72	1115.27
554.07	1106.84
554.43	1115.03
554.78	1111.75
555.13	1111.99
555.49	1105.44
555.84	1107.31
556.19	1099.12
556.55	1099.12
556.90	1099.58
557.26	1091.63
557.61	1092.80
557.96	1096.54
558.32	1085.77
558.67	1085.07
559.02	1092.56
559.37	1089.75
559.73	1086.01
560.08	1092.56
560.43	1100.52
560.79	1100.29
561.14	1104.73
561.49	1119.95
561.85	1113.63
562.20	1104.03
562.55	1106.37
562.90	1107.78
563.26	1104.73
563.61	1115.73
563.96	1124.63
564.32	1124.39
564.67	1118.31
565.02	1113.39
565.37	1110.82
565.73	1103.09
566.08	1100.99
566.43	1103.80
566.78	1106.37
567.14	1101.69
567.49	1104.97
567.84	1104.97
568.19	1101.22
568.54	1095.60
568.90	1097.71
569.25	1104.26
569.60	1111.52
569.95	1118.31
570.31	1130.24
570.66	1129.78
571.01	1111.52
571.36	1107.31
571.71	1096.07
572.06	1090.69
572.42	1082.73
572.77	1095.14
573.12	1103.56
573.47	1111.05
573.82	1119.01
574.18	1133.05
574.53	1136.56
574.88	1121.82
575.23	1120.18
575.58	1099.82
575.93	1091.63
576.28	1083.67
576.64	1085.54
576.99	1089.52
577.34	1097.95
577.69	1112.46
578.04	1118.07
578.39	1123.22
578.74	1124.63
579.09	1122.75
579.44	1107.31
579.80	1096.07
580.15	1098.18
580.50	1091.63
580.85	1090.22
581.20	1098.18
581.55	1099.58
581.90	1092.33
582.25	1089.99
582.60	1095.60
582.95	1089.52
583.30	1091.63
583.65	1092.33
584.00	1100.05
584.35	1093.50
584.71	1089.29
585.06	1090.69
585.41	1086.94
585.76	1086.24
586.11	1092.56
586.46	1097.24
586.81	1095.14
587.16	1105.44
587.51	1101.69
587.86	1093.26
588.21	1094.90
588.56	1095.14
588.91	1076.88
589.26	1072.90
589.61	1085.54
589.96	1080.86
590.31	1085.07
590.66	1089.29
591.01	1082.26
591.36	1075.24
591.71	1074.07
592.06	1070.56
592.41	1077.82
592.76	1088.35
593.10	1094.43
593.45	1103.33
593.80	1107.54
594.15	1114.33
594.50	1113.63
594.85	1110.82
595.20	1115.73
595.55	1116.67
595.90	1119.95
596.25	1123.69
596.60	1119.24
596.95	1113.16
597.30	1115.50
597.64	1152.48
597.99	1156.22
598.34	1156.69
598.69	1154.59
599.04	1142.18
599.39	1099.58
599.74	1098.65
600.09	1105.90
600.44	1097.95
600.78	1106.37
601.13	1108.71
601.48	1102.63
601.83	1101.92
602.18	1117.37
602.53	1113.16
602.88	1105.67
603.22	1111.52
603.57	1106.84
603.92	1101.22
604.27	1103.33
604.62	1104.03
604.97	1094.67
605.31	1096.54
605.66	1094.20
606.01	1088.12
606.36	1083.90
606.71	1088.58
607.05	1078.99
607.40	1080.63
607.75	1086.48
608.10	1089.52
608.44	1084.60
608.79	1092.56
609.14	1088.82
609.49	1080.16
609.84	1079.46
610.18	1084.60
610.53	1080.86
610.88	1083.90
611.23	1103.80
611.57	1108.48
611.92	1111.52
612.27	1118.07
612.62	1117.61
612.96	1101.92
613.31	1097.71
613.66	1084.60
614.00	1078.28
614.35	1076.41
614.70	1082.50
615.05	1082.50
615.39	1090.69
615.74	1094.90
616.09	1102.63
616.43	1102.16
616.78	1104.26
617.13	1108.71
617.47	1109.41
617.82	1097.71
618.17	1095.60
618.51	1103.33
618.86	1107.31
619.21	1107.78
619.55	1116.44
619.90	1110.12
620.25	1098.88
620.59	1089.75
620.94	1090.92
621.29	1091.16
621.63	1103.80
621.98	1097.71
622.32	1097.71
622.67	1092.56
623.02	1094.20
623.36	1093.03
623.71	1098.18
624.05	1099.12
624.40	1094.43
624.75	1087.65
625.09	1078.52
625.44	1084.37
625.78	1080.63
626.13	1092.09
626.48	1095.37
626.82	1109.41
627.17	1104.03
627.51	1106.84
627.86	1102.39
628.20	1102.86
628.55	1088.35
628.89	1102.16
629.24	1099.12
629.58	1101.22
629.93	1104.50
630.28	1102.16
630.62	1091.39
630.97	1095.37
631.31	1090.46
631.66	1093.03
632.00	1106.14
632.35	1104.73
632.69	1102.16
633.04	1093.97
633.38	1086.94
633.73	1077.82
634.07	1078.28
634.42	1067.52
634.76	1073.60
635.11	1070.33
635.45	1070.80
635.79	1073.60
636.14	1089.29
636.48	1093.03
636.83	1098.18
637.17	1100.52
637.52	1099.35
637.86	1097.01
638.21	1095.84
638.55	1089.29
638.89	1096.07
639.24	1092.80
639.58	1087.65
639.93	1085.07
640.27	1096.31
640.61	1087.18
640.96	1083.20
641.30	1098.41
641.65	1101.92
641.99	1096.07
642.33	1101.46
642.68	1105.90
643.02	1100.52
643.37	1104.26
643.71	1092.80
644.05	1080.39
644.40	1084.60
644.74	1073.37
645.08	1057.45
645.43	1074.54
645.77	1082.73
646.11	1081.80
646.46	1095.84
646.80	1106.37
647.14	1098.41
647.49	1102.39
647.83	1094.20
648.17	1082.26
648.52	1084.37
648.86	1085.07
649.20	1081.09
649.55	1085.07
649.89	1087.41
650.23	1074.77
650.57	1074.07
650.92	1075.01
651.26	1077.82
651.60	1079.69
651.95	1094.20
652.29	1096.07
652.63	1088.12
652.97	1086.24
653.32	1090.46
653.66	1088.12
654.00	1095.14
654.34	1101.69
654.69	1102.16
655.03	1092.09
655.37	1096.07
655.71	1093.97
656.05	1093.73
656.40	1091.63
656.74	1096.54
657.08	1090.22
657.42	1089.52
657.76	1092.09
658.11	1095.84
658.45	1096.31
658.79	1099.82
659.13	1101.22
659.47	1107.31
659.82	1109.18
660.16	1108.01
660.50	1100.05
660.84	1095.60
661.18	1094.67
661.52	1083.43
661.87	1082.73
662.21	1092.56
662.55	1093.26
662.89	1092.33
663.23	1096.07
663.57	1108.48
663.91	1102.16
664.25	1099.58
664.60	1091.63
664.94	1104.97
665.28	1095.14
665.62	1097.95
665.96	1095.84
666.30	1093.73
666.64	1071.73
666.98	1060.50
667.32	1061.67
667.66	1072.67
668.01	1075.48
668.35	1080.63
668.69	1092.80
669.03	1083.90
669.37	1079.46
669.71	1077.58
670.05	1086.01
670.39	1082.03
670.73	1088.35
671.07	1078.52
671.41	1085.07
671.75	1084.14
672.09	1085.31
672.43	1081.33
672.77	1078.52
673.11	1074.07
673.45	1069.86
673.79	1070.33
674.13	1069.16
674.47	1075.24
674.81	1075.71
675.15	1075.48
675.49	1070.80
675.83	1067.99
676.17	1062.37
676.51	1068.92
676.85	1072.67
677.19	1073.37
677.53	1080.86
677.87	1088.82
678.21	1082.50
678.55	1079.69
678.89	1082.73
679.23	1076.65
679.57	1076.18
679.90	1074.54
680.24	1087.65
680.58	1087.88
680.92	1090.46
681.26	1097.01
681.60	1095.60
681.94	1082.73
682.28	1074.77
682.62	1076.41
682.96	1066.35
683.29	1064.94
683.63	1058.86
683.97	1064.94
684.31	1067.05
684.65	1078.99
684.99	1089.75
685.33	1095.84
685.67	1100.05
686.00	1110.58
686.34	1103.33
686.68	1091.63
687.02	1093.03
687.36	1093.97
687.70	1087.41
688.03	1084.37
688.37	1098.41
688.71	1099.35
689.05	1100.99
689.39	1093.50
689.72	1092.56
690.06	1089.52
690.40	1096.07
690.74	1090.69
691.08	1098.41
691.41	1097.95
691.75	1088.82
692.09	1077.35
692.43	1074.31
692.76	1068.69
693.10	1068.22
693.44	1069.39
693.78	1074.07
694.11	1073.37
694.45	1074.54
694.79	1074.07
695.13	1079.69
695.46	1080.16
695.80	1086.94
696.14	1093.73
696.48	1099.12
696.81	1101.92
697.15	1107.78
697.49	1102.16
697.82	1100.52
698.16	1102.86
698.50	1093.50
698.83	1094.43
699.17	1094.43
699.51	1089.52
699.84	1088.58
700.18	1087.65
700.52	1080.63
700.85	1097.01
701.19	1100.75
701.53	1097.01
701.86	1107.07
702.20	1120.41
702.54	1101.69
702.87	1094.20
703.21	1082.97
703.55	1071.26
703.88	1061.43
704.22	1063.54
704.55	1078.05
704.89	1094.67
705.23	1103.33
705.56	1098.18
705.90	1102.16
706.23	1088.58
706.57	1081.33
706.91	1078.75
707.24	1079.46
707.58	1085.77
707.91	1097.95
708.25	1105.44
708.58	1104.73
708.92	1096.78
709.26	1088.58
709.59	1078.52
709.93	1075.24
710.26	1075.71
710.60	1084.14
710.93	1088.12
711.27	1082.73
711.60	1081.80
711.94	1084.84
712.27	1084.60
712.61	1088.12
712.94	1085.77
713.28	1078.75
713.61	1075.01
713.95	1078.05
714.28	1078.05
714.62	1091.63
714.95	1103.80
715.29	1107.31
715.62	1097.48
715.96	1091.63
716.29	1088.35
716.63	1088.82
716.96	1086.24
717.29	1093.50
717.63	1091.86
717.96	1083.20
718.30	1077.11
718.63	1073.14
718.97	1081.80
719.30	1089.05
719.63	1097.48
719.97	1096.78
720.30	1106.61
720.64	1093.50
720.97	1093.03
721.30	1095.14
721.64	1087.65
721.97	1085.77
722.31	1098.65
722.64	1089.52
722.97	1084.84
723.31	1092.09
723.64	1082.03
723.97	1080.86
724.31	1076.18
724.64	1076.88
724.98	1075.71
725.31	1084.14
725.64	1077.11
725.98	1079.92
726.31	1084.60
726.64	1086.01
726.97	1089.75
727.31	1088.12
727.64	1087.41
727.97	1086.71
728.31	1082.73
728.64	1068.92
728.97	1070.56
729.31	1064.01
729.64	1057.45
729.97	1059.56
730.30	1064.71
730.64	1061.20
730.97	1075.48
731.30	1073.37
731.63	1072.90
731.97	1080.16
732.30	1082.50
732.63	1078.05
732.96	1082.73
733.30	1090.69
733.63	1089.29
733.96	1088.35
734.29	1090.22
734.63	1096.07
734.96	1089.05
735.29	1088.12
735.62	1081.80
735.95	1082.50
736.29	1076.41
736.62	1082.26
736.95	1083.20
737.28	1087.65
737.61	1072.90
737.94	1075.94
738.28	1071.03
738.61	1065.88
738.94	1073.60
739.27	1086.24
739.60	1086.24
739.93	1082.26
740.27	1074.31
740.60	1076.65
740.93	1078.75
741.26	1076.88
741.59	1079.46
741.92	1093.03
742.25	1088.12
742.58	1092.09
742.91	1085.77
743.25	1100.29
743.58	1089.75
743.91	1083.90
744.24	1081.33
744.57	1089.52
744.90	1081.80
745.23	1088.12
745.56	1079.69
745.89	1078.75
746.22	1075.48
746.55	1071.50
746.88	1078.28
747.21	1075.71
747.54	1082.03
747.87	1082.26
748.20	1081.56
748.53	1080.86
748.87	1092.09
749.20	1077.11
749.53	1075.48
749.86	1068.69
750.19	1066.35
750.52	1079.92
750.85	1093.26
751.18	1100.75
751.51	1106.37
751.84	1099.35
752.16	1097.48
752.49	1088.82
752.82	1080.39
753.15	1087.18
753.48	1085.77
753.81	1080.39
754.14	1085.07
754.47	1082.03
754.80	1068.45
755.13	1076.65
755.46	1074.07
755.79	1070.09
756.12	1086.24
756.45	1094.20
756.78	1081.09
757.11	1072.20
757.43	1075.48
757.76	1066.82
758.09	1070.80
758.42	1088.82
758.75	1091.39
759.08	1088.58
759.41	1083.90
759.74	1085.77
760.07	1079.22
760.39	1091.63
760.72	1095.60
761.05	1100.29
761.38	1087.88
761.71	1082.03
762.04	1078.52
762.36	1073.60
762.69	1065.88
763.02	1076.41
763.35	1079.46
763.68	1077.82
764.01	1076.65
764.33	1080.16
764.66	1070.33
764.99	1078.75
765.32	1086.94
765.65	1094.90
765.97	1093.26
766.30	1097.48
766.63	1101.92
766.96	1102.39
767.28	1104.03
767.61	1110.58
767.94	1106.14
768.27	1092.56
768.59	1095.60
768.92	1081.33
769.25	1076.18
769.58	1080.63
769.90	1072.43
770.23	1063.07
770.56	1061.67
770.89	1060.50
771.21	1058.86
771.54	1071.26
771.87	1060.50
772.19	1074.77
772.52	1072.90
772.85	1075.01
773.17	1073.14
773.50	1079.46
773.83	1063.54
774.15	1065.88
774.48	1061.43
774.81	1069.39
775.13	1067.28
775.46	1076.65
775.79	1079.69
776.11	1082.73
776.44	1071.26
776.77	1073.14
777.09	1077.11
777.42	1081.09
777.74	1086.71
778.07	1090.22
778.40	1099.35
778.72	1095.84
779.05	1093.26
779.37	1092.33
779.70	1099.12
780.03	1088.12
780.35	1094.20
780.68	1088.12
781.00	1080.63
781.33	1067.52
781.65	1061.20
781.98	1055.82
782.31	1061.43
782.63	1064.01
782.96	1064.01
783.28	1075.48
783.61	1071.03
783.93	1071.97
784.26	1070.09
784.58	1075.94
784.91	1077.82
785.23	1093.73
785.56	1097.71
785.88	1095.60
786.21	1100.05
786.53	1094.43
786.86	1080.63
787.18	1067.05
787.51	1065.18
787.83	1052.54
788.16	1053.01
788.48	1053.48
788.81	1064.24
789.13	1072.20
789.46	1078.75
789.78	1078.28
790.10	1081.09
790.43	1081.33
790.75	1081.09
791.08	1077.82
791.40	1079.22
791.73	1081.09
792.05	1084.37
792.37	1085.31
792.70	1083.43
793.02	1088.12
793.35	1085.31
793.67	1075.24
793.99	1067.99
794.32	1075.01
794.64	1084.84
794.96	1083.20
795.29	1096.54
795.61	1102.63
795.93	1107.31
796.26	1090.46
796.58	1091.39
796.91	1078.28
797.23	1072.90
797.55	1070.80
797.87	1067.05
798.20	1060.50
798.52	1064.01
798.84	1071.03
799.17	1073.60
799.49	1086.94
799.81	1100.05
800.14	1103.33
800.46	1106.37
800.78	1089.52
801.10	1076.41
801.43	1069.62
801.75	1069.16
802.07	1055.11
802.40	1067.05
802.72	1072.90
803.04	1071.50
803.36	1071.03
803.69	1093.50
804.01	1085.31
804.33	1076.65
804.65	1079.46
804.97	1078.28
805.30	1070.80
805.62	1076.18
805.94	1085.07
806.26	1087.18
806.58	1081.80
806.91	1083.20
807.23	1086.01
807.55	1088.58
807.87	1086.94
808.19	1079.69
808.52	1078.75
808.84	1074.31
809.16	1071.03
809.48	1068.69
809.80	1087.65
810.12	1082.50
810.44	1083.43
810.77	1086.01
811.09	1084.14
811.41	1069.16
811.73	1071.73
812.05	1075.01
812.37	1067.75
812.69	1066.58
813.01	1071.26
813.33	1067.75
813.66	1075.71
813.98	1077.58
814.30	1088.58
814.62	1099.35
814.94	1093.97
815.26	1086.24
815.58	1090.46
815.90	1086.24
816.22	1073.14
816.54	1077.58
816.86	1087.41
817.18	1089.75
817.50	1089.99
817.82	1094.90
818.14	1098.18
818.46	1090.69
818.78	1088.82
819.10	1086.01
819.42	1085.77
819.74	1075.24
820.06	1075.01
820.38	1071.50
820.70	1070.80
821.02	1064.94
821.34	1071.73
821.66	1069.62
821.98	1071.26
822.30	1077.35
822.62	1081.56
822.94	1090.69
823.26	1085.31
823.58	1082.03
823.90	1074.77
824.22	1084.60
824.54	1071.50
824.86	1064.94
825.18	1074.77
825.50	1079.22
825.81	1073.60
826.13	1082.73
826.45	1091.16
826.77	1079.92
827.09	1081.80
827.41	1082.97
827.73	1079.22
828.05	1086.94
828.36	1077.58
828.68	1071.03
829.00	1065.65
829.32	1055.58
829.64	1055.58
829.96	1066.35
830.28	1060.73
830.59	1064.48
830.91	1071.03
831.23	1069.86
831.55	1078.05
831.87	1082.50
832.19	1086.71
832.50	1094.43
832.82	1095.14
833.14	1093.50
833.46	1104.03
833.78	1106.84
834.09	1111.05
834.41	1102.63
834.73	1098.88
835.05	1090.92
835.36	1081.09
835.68	1078.75
836.00	1084.37
836.32	1083.20
836.63	1085.07
836.95	1082.97
837.27	1076.88
837.59	1072.90
837.90	1068.45
838.22	1079.22
838.54	1078.52
838.85	1082.97
839.17	1079.22
839.49	1080.39
839.80	1078.75
840.12	1085.31
840.44	1084.37
840.76	1083.20
841.07	1086.71
841.39	1069.39
841.71	1071.26
842.02	1062.14
842.34	1077.58
842.65	1078.99
842.97	1083.90
843.29	1073.60
843.60	1074.31
843.92	1063.07
844.24	1064.48
844.55	1067.28
844.87	1071.97
845.18	1078.99
845.50	1082.73
845.82	1082.97
846.13	1082.26
846.45	1081.09
846.76	1078.05
847.08	1073.37
847.40	1068.69
847.71	1064.94
848.03	1070.09
848.34	1066.35
848.66	1071.03
848.97	1076.65
849.29	1081.09
849.60	1077.58
849.92	1084.84
850.24	1076.18
850.55	1071.73
850.87	1075.48
851.18	1083.43
851.50	1082.03
851.81	1090.92
852.13	1082.03
852.44	1068.69
852.76	1059.56
853.07	1058.39
853.39	1050.20
853.70	1061.20
854.01	1070.80
854.33	1063.54
854.64	1061.67
854.96	1072.20
855.27	1076.18
855.59	1079.46
855.90	1084.60
856.22	1075.94
856.53	1071.97
856.84	1064.71
857.16	1056.05
857.47	1056.52
857.79	1069.39
858.10	1069.62
858.41	1074.77
858.73	1081.56
859.04	1085.77
859.36	1077.11
859.67	1074.77
859.98	1078.28
860.30	1080.39
860.61	1068.92
860.92	1070.33
861.24	1082.26
861.55	1066.82
861.87	1064.01
862.18	1078.28
862.49	1081.33
862.81	1066.82
863.12	1076.65
863.43	1079.69
863.74	1078.99
864.06	1080.39
864.37	1092.33
864.68	1100.29
865.00	1100.29
865.31	1103.80
865.62	1100.05
865.94	1094.90
866.25	1085.77
866.56	1088.82
866.87	1083.90
867.19	1090.22
867.50	1082.73
867.81	1084.37
868.12	1083.67
868.44	1085.54
868.75	1090.92
869.06	1095.37
869.37	1092.56
869.68	1089.99
870.00	1086.01
870.31	1072.20
870.62	1072.43
870.93	1067.99
871.24	1065.18
871.56	1067.75
871.87	1069.39
872.18	1067.28
872.49	1083.43
872.80	1083.43
873.12	1083.90
873.43	1096.54
873.74	1107.78
874.05	1097.71
874.36	1099.58
874.67	1096.54
874.98	1086.94
875.29	1076.88
875.61	1075.01
875.92	1075.71
876.23	1074.54
876.54	1084.37
876.85	1096.31
877.16	1088.82
877.47	1090.92
877.78	1093.26
878.09	1080.63
878.40	1075.48
878.72	1089.29
879.03	1075.48
879.34	1076.65
879.65	1084.84
879.96	1079.69
880.27	1083.20
880.58	1092.56
880.89	1091.63
881.20	1095.37
881.51	1103.33
881.82	1095.60
882.13	1097.48
882.44	1098.41
882.75	1094.67
883.06	1077.35
883.37	1075.48
883.68	1069.39
883.99	1069.62
884.30	1073.60
884.61	1079.46
884.92	1087.88
885.23	1092.56
885.54	1083.20
885.85	1075.48
886.16	1072.90
886.47	1064.48
886.78	1057.69
887.08	1056.28
887.39	1064.01
887.70	1069.39
888.01	1066.58
888.32	1072.67
888.63	1079.92
888.94	1070.09
889.25	1071.97
889.56	1078.52
889.87	1076.65
890.17	1079.22
890.48	1077.82
890.79	1078.05
891.10	1075.48
891.41	1079.92
891.72	1083.90
892.03	1096.31
892.34	1103.56
892.64	1101.92
892.95	1095.37
893.26	1085.77
893.57	1082.97
893.88	1081.33
894.18	1075.24
894.49	1078.52
894.80	1081.80
895.11	1074.54
895.42	1063.31
895.72	1075.24
896.03	1068.92
896.34	1073.14
896.65	1073.84
896.96	1067.75
897.26	1062.37
897.57	1066.58
897.88	1059.79
898.19	1060.73
898.49	1072.20
898.80	1072.43
899.11	1063.54
899.41	1065.88
899.72	1065.88
900.03	1058.39
900.34	1063.77
900.64	1081.80
900.95	1076.65
901.26	1076.65
901.56	1085.31
901.87	1086.48
902.18	1088.82
902.48	1092.09
902.79	1082.73
903.10	1086.24
903.40	1071.26
903.71	1063.77
904.02	1062.84
904.32	1071.50
904.63	1053.94
904.94	1069.39
905.24	1067.28
905.55	1073.84
905.85	1070.80
906.16	1083.20
906.47	1084.14
906.77	1082.73
907.08	1079.46
907.38	1082.50
907.69	1081.33
908.00	1075.24
908.30	1071.73
908.61	1076.65
908.91	1076.18
909.22	1079.46
909.52	1081.33
909.83	1087.41
910.14	1086.01
910.44	1093.73
910.75	1086.94
911.05	1092.33
911.36	1082.50
911.66	1074.31
911.97	1063.07
912.27	1068.22
912.58	1061.90
912.88	1071.26
913.19	1079.92
913.49	1093.26
913.80	1087.18
914.10	1083.67
914.41	1086.71
914.71	1082.03
915.01	1074.77
915.32	1084.84
915.62	1083.90
915.93	1080.39
916.23	1083.43
916.54	1079.69
916.84	1070.56
917.15	1076.65
917.45	1086.94
917.75	1092.80
918.06	1097.71
918.36	1107.07
918.67	1096.31
918.97	1080.86
919.27	1066.58
919.58	1068.92
919.88	1066.82
920.18	1075.48
920.49	1082.50
920.79	1079.46
921.10	1075.48
921.40	1075.24
921.70	1074.54
922.01	1071.73
922.31	1075.48
922.61	1079.22
922.92	1075.94
923.22	1085.31
923.52	1095.37
923.82	1093.26
924.13	1078.28
924.43	1075.48
924.73	1069.16
925.04	1051.13
925.34	1063.31
925.64	1073.60
925.94	1081.80
926.25	1082.50
926.55	1093.73
926.85	1095.84
927.15	1087.41
927.46	1078.75
927.76	1073.60
928.06	1070.09
928.36	1071.26
928.67	1087.18
928.97	1096.07
929.27	1100.05
929.57	1097.95
929.87	1089.52
930.18	1081.80
930.48	1082.26
930.78	1093.26
931.08	1091.39
931.38	1086.24
931.69	1086.24
931.99	1078.75
932.29	1064.24
932.59	1071.50
932.89	1078.99
933.19	1079.46
933.49	1085.54
933.80	1091.39
934.10	1081.09
934.40	1080.63
934.70	1086.01
935.00	1088.82
935.30	1078.75
935.60	1082.26
935.90	1084.84
936.20	1080.16
936.50	1075.71
936.81	1078.52
937.11	1081.56
937.41	1079.69
937.71	1078.99
938.01	1078.75
938.31	1086.94
938.61	1085.07
938.91	1092.56
939.21	1093.97
939.51	1092.80
939.81	1088.58
940.11	1093.97
940.41	1080.16
940.71	1078.05
941.01	1072.43
941.31	1075.71
941.61	1073.60
941.91	1074.54
942.21	1067.05
942.51	1068.69
942.81	1064.01
943.11	1072.90
943.41	1077.35
943.71	1080.63
944.01	1077.35
944.31	1077.35
944.61	1075.94
944.90	1076.18
945.20	1082.73
945.50	1078.75
945.80	1080.63
946.10	1074.54
946.40	1064.94
946.70	1074.54
947.00	1079.69
947.30	1087.65
947.60	1088.82
947.89	1099.35
948.19	1092.09
948.49	1099.35
948.79	1094.67
949.09	1089.99
949.39	1082.73
949.69	1075.24
949.98	1075.71
950.28	1069.16
950.58	1071.97
950.88	1070.80
951.18	1078.28
951.48	1071.50
951.77	1069.39
952.07	1065.41
952.37	1071.50
952.67	1070.80
952.97	1070.33
953.26	1069.62
953.56	1068.69
953.86	1071.97
954.16	1067.75
954.45	1085.31
954.75	1080.86
955.05	1084.37
955.35	1084.37
955.64	1086.48
955.94	1079.22
956.24	1086.94
956.54	1080.86
956.83	1079.22
957.13	1075.71
957.43	1064.71
957.72	1068.92
958.02	1078.75
958.32	1085.07
958.61	1087.65
958.91	1090.92
959.21	1090.46
959.50	1089.05
959.80	1085.54
960.10	1085.77
960.39	1089.05
960.69	1096.78
960.99	1101.22
961.28	1099.35
961.58	1095.84
961.87	1093.03
962.17	1076.41
962.47	1068.92
962.76	1066.58
963.06	1071.97
963.36	1072.67
963.65	1080.86
963.95	1082.50
964.24	1091.63
964.54	1087.65
964.83	1083.20
965.13	1077.35
965.42	1074.31
965.72	1060.96
966.02	1062.14
966.31	1063.54
966.61	1058.16
966.90	1060.03
967.20	1076.65
967.49	1074.31
967.79	1078.52
968.08	1086.94
968.38	1092.33
968.67	1074.77
968.97	1073.60
969.26	1078.75
969.56	1080.86
969.85	1074.77
970.15	1080.86
970.44	1090.92
970.74	1082.73
971.03	1080.86
971.32	1089.52
971.62	1089.75
971.91	1086.71
972.21	1093.73
972.50	1091.86
972.80	1083.43
973.09	1080.16
973.38	1078.99
973.68	1077.35
973.97	1079.46
974.27	1079.46
974.56	1080.63
974.85	1082.73
975.15	1078.75
975.44	1081.56
975.73	1078.99
976.03	1085.07
976.32	1082.26
976.61	1086.24
976.91	1077.11
977.20	1084.14
977.49	1072.20
977.79	1064.94
978.08	1065.65
978.37	1074.07
978.67	1070.80
978.96	1081.33
979.25	1088.12
979.55	1082.73
979.84	1077.11
980.13	1065.18
980.42	1057.45
980.72	1055.82
981.01	1064.94
981.30	1062.60
981.59	1063.54
981.89	1067.75
982.18	1059.56
982.47	1040.84
982.76	1049.50
983.06	1056.52
983.35	1059.79
983.64	1063.31
983.93	1076.65
984.22	1074.31
984.52	1081.09
984.81	1064.01
985.10	1057.69
985.39	1053.24
985.68	1052.07
985.97	1038.03
986.27	1053.48
986.56	1061.67
986.85	1060.96
987.14	1056.52
987.43	1068.22
987.72	1067.52
988.01	1071.03
988.31	1075.71
988.60	1077.58
988.89	1079.46
989.18	1078.52
989.47	1075.94
989.76	1073.84
990.05	1083.20
990.34	1076.88
990.63	1078.75
990.92	1073.14
991.21	1074.07
991.51	1064.71
991.80	1074.54
992.09	1076.65
992.38	1082.73
992.67	1083.67
992.96	1088.35
993.25	1075.24
993.54	1072.20
993.83	1070.80
994.12	1072.67
994.41	1067.52
994.70	1067.99
994.99	1076.41
995.28	1079.22
995.57	1072.67
995.86	1074.07
996.15	1077.82
996.44	1071.26
996.73	1082.26
997.02	1084.84
997.31	1091.63
997.59	1099.12
997.88	1100.29
998.17	1097.71
998.46	1101.92
998.75	1103.56
999.04	1098.88
999.33	1098.65
999.62	1089.52
999.91	1087.41
1000.20	1090.22
1000.49	1084.84
1000.77	1077.11
1001.06	1078.28
1001.35	1076.18
1001.64	1064.94
1001.93	1070.56
1002.22	1072.67
1002.51	1073.37
1002.79	1071.26
1003.08	1071.03
1003.37	1069.39
1003.66	1069.86
1003.95	1071.26
1004.23	1067.75
1004.52	1070.80
1004.81	1073.37
1005.10	1076.41
1005.39	1071.26
1005.67	1088.35
1005.96	1086.01
1006.25	1085.07
1006.54	1083.43
1006.83	1087.41
1007.11	1075.71
1007.40	1081.33
1007.69	1073.84
1007.97	1076.18
1008.26	1079.69
1008.55	1081.80
1008.84	1073.84
1009.12	1073.84
1009.41	1082.26
1009.70	1073.14
1009.98	1070.80
1010.27	1078.75
1010.56	1091.16
1010.85	1072.20
1011.13	1071.73
1011.42	1067.28
1011.71	1070.56
1011.99	1061.90
1012.28	1070.56
1012.56	1071.03
1012.85	1075.71
1013.14	1066.82
1013.42	1072.43
1013.71	1074.31
1014.00	1077.82
1014.28	1086.94
1014.57	1088.58
1014.85	1086.94
1015.14	1086.71
1015.43	1083.20
1015.71	1071.73
1016.00	1082.03
1016.28	1083.67
1016.57	1083.43
1016.85	1084.14
1017.14	1090.46
1017.43	1084.14
1017.71	1084.60
1018.00	1076.41
1018.28	1077.58
1018.57	1084.84
1018.85	1082.73
1019.14	1086.71
1019.42	1092.33
1019.71	1098.88
1019.99	1087.18
1020.28	1091.16
1020.56	1094.43
1020.85	1103.33
1021.13	1092.33
1021.42	1093.97
1021.70	1089.29
1021.99	1085.07
1022.27	1071.97
1022.55	1104.73
1022.84	1053.24
>>>>>End Processed Spectral Data<<<<<
