SpectraSuite Data File
++++++++++++++++++++++++++++++++++++
Date: Mon Aug 26 10:24:36 PDT 2019
User: corrico
Dark Spectrum Present: No
Reference Spectrum Present: No
Number of Sampled Component Spectra: 1
Spectrometers: USB2+H06089
Integration Time (usec): 10000 (USB2+H06089)
Spectra Averaged: 2 (USB2+H06089)
Boxcar Smoothing: 2 (USB2+H06089)
Correct for Electrical Dark: No (USB2+H06089)
Strobe/Lamp Enabled: No (USB2+H06089)
Correct for Detector Non-linearity: No (USB2+H06089)
Correct for Stray Light: No (USB2+H06089)
Number of Pixels in Processed Spectrum: 2048
>>>>>Begin Processed Spectral Data<<<<<
339.70	987.71
340.07	987.71
340.45	971.56
340.82	949.56
341.19	932.24
341.57	918.43
341.94	901.34
342.31	886.59
342.69	888.47
343.06	892.91
343.43	889.17
343.81	900.87
344.18	919.83
344.55	924.04
344.93	929.89
345.30	934.81
345.67	940.66
346.04	935.98
346.42	938.09
346.79	946.98
347.16	953.53
347.54	967.34
347.91	978.11
348.28	995.90
348.65	1001.28
349.03	1015.09
349.40	1019.30
349.77	1034.75
350.14	1048.09
350.52	1054.88
350.89	1060.03
351.26	1068.45
351.63	1079.69
352.01	1081.56
352.38	1085.07
352.75	1095.37
353.12	1096.54
353.50	1089.29
353.87	1086.24
354.24	1087.88
354.61	1087.88
354.98	1093.03
355.36	1092.80
355.73	1094.90
356.10	1105.44
356.47	1103.80
356.84	1102.39
357.22	1100.75
357.59	1108.24
357.96	1112.69
358.33	1123.46
358.70	1120.88
359.08	1124.16
359.45	1120.88
359.82	1109.41
360.19	1101.92
360.56	1087.41
360.94	1086.01
361.31	1084.60
361.68	1087.65
362.05	1084.84
362.42	1100.29
362.79	1104.03
363.16	1103.33
363.54	1100.99
363.91	1094.20
364.28	1092.80
364.65	1084.84
365.02	1085.77
365.39	1087.65
365.76	1085.31
366.14	1080.86
366.51	1077.82
366.88	1073.37
367.25	1074.54
367.62	1080.63
367.99	1089.75
368.36	1097.95
368.73	1101.69
369.10	1089.99
369.48	1097.71
369.85	1093.26
370.22	1086.48
370.59	1083.67
370.96	1089.29
371.33	1083.20
371.70	1087.65
372.07	1097.24
372.44	1106.37
372.81	1102.16
373.18	1095.37
373.55	1087.41
373.93	1089.99
374.30	1083.20
374.67	1089.75
375.04	1088.35
375.41	1086.94
375.78	1082.03
376.15	1086.71
376.52	1078.52
376.89	1092.33
377.26	1101.69
377.63	1101.92
378.00	1103.80
378.37	1097.95
378.74	1099.82
379.11	1093.97
379.48	1093.97
379.85	1086.71
380.22	1101.92
380.59	1096.07
380.96	1105.44
381.33	1102.39
381.70	1107.31
382.07	1104.50
382.44	1111.52
382.81	1109.65
383.18	1111.05
383.55	1103.33
383.92	1101.69
384.29	1096.31
384.66	1086.24
385.03	1081.80
385.40	1090.92
385.77	1101.46
386.14	1104.26
386.51	1113.63
386.88	1120.65
387.25	1118.31
387.62	1113.39
387.99	1104.50
388.36	1097.95
388.73	1093.03
389.10	1097.24
389.46	1100.29
389.83	1105.67
390.20	1117.14
390.57	1126.03
390.94	1124.16
391.31	1132.12
391.68	1132.12
392.05	1124.39
392.42	1120.41
392.79	1123.22
393.16	1126.97
393.53	1120.18
393.89	1122.99
394.26	1127.20
394.63	1128.61
395.00	1114.80
395.37	1122.52
395.74	1130.48
396.11	1138.20
396.48	1136.80
396.84	1140.07
397.21	1140.78
397.58	1131.88
397.95	1131.88
398.32	1136.80
398.69	1141.25
399.06	1151.08
399.42	1155.76
399.79	1158.57
400.16	1165.59
400.53	1165.12
400.90	1163.95
401.27	1163.48
401.64	1173.31
402.00	1178.23
402.37	1187.12
402.74	1195.55
403.11	1215.91
403.48	1218.95
403.84	1230.42
404.21	1241.65
404.58	1263.19
404.95	1278.87
405.32	1295.02
405.68	1308.59
406.05	1317.49
406.42	1316.55
406.79	1326.85
407.16	1338.55
407.52	1351.66
407.89	1383.96
408.26	1416.26
408.63	1441.30
408.99	1465.41
409.36	1494.43
409.73	1516.90
410.10	1555.29
410.47	1614.27
410.83	1652.42
411.20	1722.40
411.57	1787.47
411.94	1834.04
412.30	1863.77
412.67	1938.90
413.04	1971.67
413.40	2024.33
413.77	2108.82
414.14	2204.32
414.51	2300.98
414.87	2419.41
415.24	2539.01
415.61	2653.47
415.97	2770.73
416.34	2890.33
416.71	3010.40
417.08	3148.02
417.44	3273.47
417.81	3427.71
418.18	3567.44
418.54	3743.92
418.91	3929.99
419.28	4150.47
419.64	4359.72
420.01	4610.86
420.38	4869.02
420.74	5126.01
421.11	5415.53
421.48	5724.48
421.84	6026.41
422.21	6349.87
422.58	6681.06
422.94	7017.63
423.31	7378.54
423.68	7778.54
424.04	8207.09
424.41	8648.05
424.77	9085.49
425.14	9511.94
425.51	9954.30
425.87	10443.70
426.24	11003.79
426.61	11633.87
426.97	12384.71
427.34	13072.83
427.70	13839.82
428.07	14532.85
428.44	15304.53
428.80	16013.71
429.17	16809.26
429.53	17528.74
429.90	18479.70
430.27	19216.27
430.63	20070.33
431.00	21004.67
431.36	22003.38
431.73	22845.74
432.09	23849.36
432.46	24809.21
432.83	25782.64
433.19	26657.77
433.56	27658.81
433.92	28645.58
434.29	29563.77
434.65	30507.71
435.02	31433.63
435.38	32249.31
435.75	32925.25
436.11	33910.85
436.48	34677.61
436.84	35418.62
437.21	36222.60
437.57	36981.17
437.94	37445.06
438.30	38003.51
438.67	38424.57
439.03	38620.48
439.40	38904.85
439.76	38861.08
440.13	38628.44
440.49	38609.01
440.86	38321.12
441.22	37945.70
441.59	37480.40
441.95	37016.51
442.32	36249.28
442.68	35666.02
443.05	34952.16
443.41	34329.57
443.78	33586.69
444.14	32815.72
444.51	31867.56
444.87	31167.74
445.24	30292.62
445.60	29563.54
445.96	28760.27
446.33	28152.67
446.69	27243.60
447.06	26556.19
447.42	25705.40
447.79	24910.09
448.15	24153.86
448.51	23450.06
448.88	22802.67
449.24	22137.02
449.61	21676.40
449.97	21120.53
450.33	20559.50
450.70	19958.68
451.06	19529.43
451.43	18927.21
451.79	18430.31
452.15	18003.63
452.52	17590.53
452.88	17133.89
453.24	16777.43
453.61	16357.77
453.97	15932.49
454.34	15457.60
454.70	15074.22
455.06	14611.96
455.43	14170.31
455.79	13639.00
456.15	13230.81
456.52	12746.09
456.88	12364.82
457.24	11968.80
457.61	11664.53
457.97	11323.75
458.33	10971.50
458.70	10592.80
459.06	10195.14
459.42	9861.15
459.79	9502.34
460.15	9204.39
460.51	8885.14
460.88	8597.26
461.24	8327.16
461.60	8088.66
461.96	7837.52
462.33	7590.83
462.69	7387.67
463.05	7157.36
463.42	6931.50
463.78	6691.36
464.14	6507.39
464.50	6345.19
464.87	6181.59
465.23	6010.50
465.59	5873.57
465.95	5724.01
466.32	5577.26
466.68	5424.43
467.04	5287.04
467.40	5162.05
467.77	5041.51
468.13	4877.68
468.49	4759.48
468.85	4655.09
469.22	4564.75
469.58	4454.74
469.94	4395.99
470.30	4299.56
470.66	4222.33
471.03	4105.77
471.39	4040.93
471.75	3951.29
472.11	3873.82
472.47	3811.56
472.84	3763.11
473.20	3668.79
473.56	3610.28
473.92	3540.76
474.28	3460.95
474.65	3389.56
475.01	3359.37
475.37	3277.45
475.73	3231.11
476.09	3177.04
476.45	3135.15
476.81	3071.02
477.18	3027.25
477.54	2971.54
477.90	2909.75
478.26	2842.58
478.62	2797.88
478.98	2767.92
479.34	2742.17
479.71	2724.15
480.07	2702.15
480.43	2657.44
480.79	2598.46
481.15	2561.25
481.51	2500.63
481.87	2454.05
482.23	2415.20
482.59	2396.01
482.96	2337.96
483.32	2331.88
483.68	2294.90
484.04	2266.34
484.40	2239.66
484.76	2231.70
485.12	2189.57
485.48	2165.00
485.84	2144.87
486.20	2103.67
486.56	2073.01
486.92	2049.14
487.28	2027.14
487.64	2005.61
488.00	1997.88
488.37	1977.75
488.73	1955.52
489.09	1937.03
489.45	1911.52
489.81	1880.39
490.17	1853.00
490.53	1839.43
490.89	1820.70
491.25	1797.77
491.61	1787.00
491.97	1771.55
492.33	1745.34
492.69	1724.97
493.05	1712.10
493.41	1695.95
493.77	1683.31
494.13	1667.40
494.49	1659.67
494.85	1644.69
495.21	1611.22
495.57	1587.35
495.93	1576.58
496.29	1555.52
496.64	1537.50
497.00	1533.28
497.36	1527.67
497.72	1519.48
498.08	1514.56
498.44	1511.05
498.80	1503.33
499.16	1483.67
499.52	1457.92
499.88	1426.56
500.24	1411.58
500.60	1408.07
500.96	1405.49
501.32	1401.98
501.68	1410.41
502.03	1397.30
502.39	1376.94
502.75	1374.60
503.11	1369.45
503.47	1363.83
503.83	1359.85
504.19	1354.47
504.55	1349.32
504.91	1350.49
505.26	1342.77
505.62	1336.91
505.98	1331.76
506.34	1316.79
506.70	1305.08
507.06	1290.81
507.42	1286.36
507.78	1279.10
508.13	1273.25
508.49	1264.12
508.85	1262.25
509.21	1253.59
509.57	1257.34
509.93	1258.51
510.28	1257.10
510.64	1260.85
511.00	1256.63
511.36	1244.46
511.72	1231.59
512.07	1223.16
512.43	1209.12
512.79	1212.63
513.15	1209.12
513.51	1201.40
513.86	1204.91
514.22	1201.40
514.58	1191.10
514.94	1184.55
515.30	1194.61
515.65	1191.57
516.01	1193.44
516.37	1191.10
516.73	1191.33
517.08	1184.31
517.44	1175.42
517.80	1170.27
518.16	1175.18
518.51	1171.44
518.87	1164.88
519.23	1171.67
519.59	1181.27
519.94	1175.65
520.30	1180.10
520.66	1179.16
521.01	1167.23
521.37	1157.86
521.73	1156.93
522.09	1155.99
522.44	1165.59
522.80	1161.37
523.16	1154.35
523.51	1146.86
523.87	1144.05
524.23	1136.80
524.58	1151.08
524.94	1153.18
525.30	1155.29
525.65	1148.50
526.01	1140.78
526.37	1131.18
526.72	1127.20
527.08	1127.20
527.44	1127.20
527.79	1130.01
528.15	1133.76
528.51	1142.88
528.86	1143.12
529.22	1147.56
529.58	1141.71
529.93	1134.93
530.29	1124.39
530.65	1121.35
531.00	1126.27
531.36	1130.24
531.71	1122.75
532.07	1126.03
532.43	1136.80
532.78	1134.93
533.14	1130.95
533.49	1146.63
533.85	1150.61
534.21	1136.33
534.56	1128.61
534.92	1133.99
535.27	1130.01
535.63	1125.56
535.98	1133.29
536.34	1129.07
536.69	1128.61
537.05	1113.63
537.41	1108.24
537.76	1105.44
538.12	1101.22
538.47	1093.50
538.83	1096.78
539.18	1102.63
539.54	1103.09
539.89	1113.16
540.25	1121.12
540.60	1134.46
540.96	1126.03
541.31	1116.67
541.67	1119.48
542.02	1111.29
542.38	1104.26
542.73	1114.33
543.09	1116.67
543.44	1120.65
543.80	1127.44
544.15	1136.10
544.51	1130.24
544.86	1138.44
545.22	1128.37
545.57	1128.84
545.93	1117.61
546.28	1126.03
546.64	1122.29
546.99	1123.22
547.35	1123.93
547.70	1128.37
548.05	1126.27
548.41	1127.67
548.76	1131.65
549.12	1133.99
549.47	1132.82
549.83	1126.97
550.18	1128.61
550.53	1125.56
550.89	1125.56
551.24	1122.52
551.60	1127.67
551.95	1125.10
552.30	1117.84
552.66	1111.29
553.01	1110.12
553.37	1092.09
553.72	1091.16
554.07	1095.14
554.43	1093.50
554.78	1091.86
555.13	1108.01
555.49	1100.75
555.84	1103.33
556.19	1100.75
556.55	1107.31
556.90	1097.01
557.26	1100.99
557.61	1100.05
557.96	1109.18
558.32	1106.61
558.67	1110.35
559.02	1104.03
559.37	1094.67
559.73	1082.73
560.08	1085.07
560.43	1083.67
560.79	1088.82
561.14	1100.52
561.49	1108.71
561.85	1100.52
562.20	1101.46
562.55	1098.88
562.90	1095.14
563.26	1094.67
563.61	1088.82
563.96	1086.01
564.32	1098.88
564.67	1097.48
565.02	1095.37
565.37	1103.56
565.73	1105.20
566.08	1101.69
566.43	1103.56
566.78	1105.90
567.14	1108.71
567.49	1106.84
567.84	1097.24
568.19	1092.33
568.54	1090.22
568.90	1092.33
569.25	1095.14
569.60	1097.71
569.95	1102.63
570.31	1107.54
570.66	1104.03
571.01	1105.20
571.36	1103.09
571.71	1100.52
572.06	1104.97
572.42	1111.05
572.77	1110.35
573.12	1120.88
573.47	1125.80
573.82	1113.39
574.18	1104.97
574.53	1111.52
574.88	1106.61
575.23	1110.35
575.58	1120.65
575.93	1130.01
576.28	1129.31
576.64	1119.48
576.99	1109.88
577.34	1103.09
577.69	1097.71
578.04	1092.09
578.39	1094.90
578.74	1104.97
579.09	1105.20
579.44	1110.12
579.80	1110.58
580.15	1119.95
580.50	1115.27
580.85	1110.35
581.20	1102.86
581.55	1099.58
581.90	1098.41
582.25	1093.26
582.60	1101.46
582.95	1103.33
583.30	1111.52
583.65	1107.78
584.00	1109.88
584.35	1100.05
584.71	1098.88
585.06	1099.58
585.41	1105.90
585.76	1106.61
586.11	1110.58
586.46	1115.97
586.81	1112.22
587.16	1105.90
587.51	1102.39
587.86	1102.39
588.21	1090.92
588.56	1079.69
588.91	1083.67
589.26	1090.92
589.61	1082.03
589.96	1080.16
590.31	1086.94
590.66	1090.69
591.01	1082.97
591.36	1098.65
591.71	1104.73
592.06	1098.88
592.41	1086.71
592.76	1090.92
593.10	1083.67
593.45	1078.75
593.80	1085.54
594.15	1096.31
594.50	1092.80
594.85	1094.90
595.20	1096.78
595.55	1095.84
595.90	1087.41
596.25	1087.88
596.60	1081.56
596.95	1091.39
597.30	1096.54
597.64	1141.71
597.99	1144.05
598.34	1150.14
598.69	1145.69
599.04	1147.80
599.39	1100.75
599.74	1091.86
600.09	1100.29
600.44	1108.71
600.78	1110.82
601.13	1109.65
601.48	1116.20
601.83	1101.92
602.18	1090.69
602.53	1075.01
602.88	1086.94
603.22	1096.31
603.57	1095.60
603.92	1093.97
604.27	1113.16
604.62	1110.12
604.97	1105.90
605.31	1119.24
605.66	1137.27
606.01	1131.65
606.36	1133.29
606.71	1129.78
607.05	1120.65
607.40	1097.01
607.75	1093.03
608.10	1089.99
608.44	1092.80
608.79	1096.31
609.14	1109.18
609.49	1103.80
609.84	1096.07
610.18	1093.03
610.53	1093.26
610.88	1101.46
611.23	1103.56
611.57	1110.82
611.92	1118.07
612.27	1121.12
612.62	1117.61
612.96	1115.50
613.31	1110.82
613.66	1102.86
614.00	1094.67
614.35	1080.86
614.70	1077.35
615.05	1078.28
615.39	1080.16
615.74	1087.18
616.09	1097.01
616.43	1105.44
616.78	1107.31
617.13	1108.48
617.47	1117.61
617.82	1114.56
618.17	1104.97
618.51	1095.60
618.86	1092.33
619.21	1066.58
619.55	1059.09
619.90	1068.69
620.25	1087.18
620.59	1093.73
620.94	1112.69
621.29	1122.52
621.63	1105.90
621.98	1101.92
622.32	1095.37
622.67	1090.92
623.02	1090.69
623.36	1108.71
623.71	1112.22
624.05	1115.50
624.40	1109.18
624.75	1105.20
625.09	1102.63
625.44	1102.63
625.78	1096.78
626.13	1100.52
626.48	1096.78
626.82	1099.12
627.17	1089.99
627.51	1092.33
627.86	1094.90
628.20	1096.54
628.55	1092.33
628.89	1096.31
629.24	1095.60
629.58	1100.52
629.93	1100.75
630.28	1103.56
630.62	1090.92
630.97	1094.67
631.31	1086.01
631.66	1085.54
632.00	1094.90
632.35	1103.56
632.69	1100.75
633.04	1107.07
633.38	1100.99
633.73	1087.41
634.07	1084.37
634.42	1082.50
634.76	1076.88
635.11	1088.58
635.45	1095.14
635.79	1096.78
636.14	1096.78
636.48	1105.67
636.83	1104.50
637.17	1097.48
637.52	1097.01
637.86	1100.99
638.21	1089.05
638.55	1079.69
638.89	1081.09
639.24	1087.88
639.58	1076.18
639.93	1085.07
640.27	1096.31
640.61	1093.50
640.96	1078.75
641.30	1095.37
641.65	1086.71
641.99	1084.37
642.33	1079.22
642.68	1092.09
643.02	1076.88
643.37	1073.60
643.71	1076.18
644.05	1076.18
644.40	1072.67
644.74	1088.35
645.08	1086.48
645.43	1082.50
645.77	1084.84
646.11	1085.54
646.46	1071.97
646.80	1082.50
647.14	1088.35
647.49	1089.29
647.83	1088.82
648.17	1098.65
648.52	1088.12
648.86	1068.22
649.20	1073.84
649.55	1070.80
649.89	1066.35
650.23	1078.28
650.57	1097.48
650.92	1109.18
651.26	1107.07
651.60	1113.63
651.95	1110.35
652.29	1108.24
652.63	1089.99
652.97	1096.78
653.32	1091.16
653.66	1086.94
654.00	1084.14
654.34	1089.99
654.69	1081.09
655.03	1078.05
655.37	1092.33
655.71	1089.52
656.05	1085.77
656.40	1088.58
656.74	1089.52
657.08	1078.28
657.42	1087.18
657.76	1086.94
658.11	1095.84
658.45	1105.20
658.79	1104.73
659.13	1099.58
659.47	1107.31
659.82	1102.63
660.16	1096.78
660.50	1103.56
660.84	1104.73
661.18	1108.24
661.52	1107.07
661.87	1116.44
662.21	1106.84
662.55	1100.29
662.89	1090.22
663.23	1091.16
663.57	1081.33
663.91	1089.75
664.25	1097.71
664.60	1106.37
664.94	1108.24
665.28	1105.44
665.62	1101.22
665.96	1104.03
666.30	1098.18
666.64	1095.37
666.98	1098.41
667.32	1096.54
667.66	1097.24
668.01	1093.97
668.35	1099.35
668.69	1100.75
669.03	1105.44
669.37	1090.69
669.71	1091.63
670.05	1081.09
670.39	1073.60
670.73	1064.71
671.07	1078.28
671.41	1078.52
671.75	1084.14
672.09	1093.26
672.43	1103.33
672.77	1098.41
673.11	1102.86
673.45	1090.69
673.79	1084.37
674.13	1082.50
674.47	1076.88
674.81	1073.84
675.15	1089.99
675.49	1092.80
675.83	1084.14
676.17	1090.22
676.51	1087.65
676.85	1078.28
677.19	1078.05
677.53	1095.37
677.87	1095.37
678.21	1103.80
678.55	1103.56
678.89	1102.16
679.23	1086.71
679.57	1082.97
679.90	1070.80
680.24	1080.86
680.58	1079.92
680.92	1077.35
681.26	1084.84
681.60	1087.88
681.94	1077.35
682.28	1086.24
682.62	1090.46
682.96	1079.69
683.29	1077.82
683.63	1083.90
683.97	1079.46
684.31	1081.80
684.65	1081.33
684.99	1077.35
685.33	1073.14
685.67	1061.90
686.00	1063.07
686.34	1073.84
686.68	1082.73
687.02	1083.43
687.36	1086.48
687.70	1077.11
688.03	1064.01
688.37	1069.62
688.71	1075.94
689.05	1074.31
689.39	1082.73
689.72	1087.41
690.06	1072.20
690.40	1054.65
690.74	1054.41
691.08	1053.24
691.41	1049.73
691.75	1060.26
692.09	1063.77
692.43	1067.99
692.76	1060.73
693.10	1073.60
693.44	1070.33
693.78	1085.07
694.11	1082.73
694.45	1096.31
694.79	1090.22
695.13	1087.18
695.46	1081.33
695.80	1090.46
696.14	1093.03
696.48	1092.33
696.81	1105.67
697.15	1116.44
697.49	1112.92
697.82	1104.26
698.16	1096.31
698.50	1093.03
698.83	1080.39
699.17	1071.03
699.51	1073.60
699.84	1079.69
700.18	1073.14
700.52	1061.90
700.85	1068.45
701.19	1066.35
701.53	1066.82
701.86	1064.48
702.20	1079.92
702.54	1079.22
702.87	1075.94
703.21	1075.24
703.55	1071.26
703.88	1070.56
704.22	1064.94
704.55	1064.71
704.89	1064.24
705.23	1082.50
705.56	1081.56
705.90	1081.56
706.23	1075.24
706.57	1071.03
706.91	1059.79
707.24	1062.84
707.58	1073.14
707.91	1077.11
708.25	1079.46
708.58	1079.46
708.92	1080.39
709.26	1071.73
709.59	1068.69
709.93	1084.37
710.26	1079.46
710.60	1068.45
710.93	1078.75
711.27	1083.20
711.60	1075.48
711.94	1086.71
712.27	1095.14
712.61	1086.94
712.94	1095.14
713.28	1092.56
713.61	1088.35
713.95	1087.41
714.28	1100.29
714.62	1087.65
714.95	1089.29
715.29	1089.75
715.62	1082.73
715.96	1076.41
716.29	1092.56
716.63	1086.71
716.96	1084.60
717.29	1086.48
717.63	1086.94
717.96	1083.20
718.30	1084.37
718.63	1094.43
718.97	1107.31
719.30	1099.12
719.63	1103.33
719.97	1099.35
720.30	1085.54
720.64	1076.88
720.97	1076.65
721.30	1070.09
721.64	1071.50
721.97	1073.84
722.31	1067.52
722.64	1067.05
722.97	1062.37
723.31	1066.58
723.64	1072.20
723.97	1081.33
724.31	1086.01
724.64	1086.24
724.98	1080.63
725.31	1084.14
725.64	1087.18
725.98	1089.75
726.31	1101.46
726.64	1103.09
726.97	1099.82
727.31	1096.31
727.64	1103.56
727.97	1101.69
728.31	1101.69
728.64	1096.54
728.97	1085.54
729.31	1080.63
729.64	1079.69
729.97	1087.88
730.30	1097.48
730.64	1109.41
730.97	1102.86
731.30	1100.75
731.63	1095.37
731.97	1083.90
732.30	1083.67
732.63	1084.37
732.96	1073.60
733.30	1070.09
733.63	1064.48
733.96	1052.54
734.29	1051.84
734.63	1063.07
734.96	1058.39
735.29	1068.22
735.62	1077.82
735.95	1086.24
736.29	1081.33
736.62	1093.26
736.95	1090.22
737.28	1089.05
737.61	1086.48
737.94	1079.69
738.28	1086.01
738.61	1086.71
738.94	1097.24
739.27	1095.14
739.60	1110.58
739.93	1100.05
740.27	1091.86
740.60	1073.84
740.93	1067.99
741.26	1055.11
741.59	1048.09
741.92	1053.48
742.25	1065.41
742.58	1070.56
742.91	1066.58
743.25	1080.86
743.58	1086.94
743.91	1080.63
744.24	1079.46
744.57	1091.63
744.90	1091.86
745.23	1090.46
745.56	1096.78
745.89	1092.80
746.22	1091.16
746.55	1081.80
746.88	1073.60
747.21	1068.22
747.54	1072.43
747.87	1064.94
748.20	1062.14
748.53	1066.58
748.87	1070.09
749.20	1069.86
749.53	1075.48
749.86	1070.33
750.19	1064.24
750.52	1061.20
750.85	1068.22
751.18	1064.71
751.51	1071.26
751.84	1075.01
752.16	1082.50
752.49	1072.20
752.82	1070.56
753.15	1073.60
753.48	1071.97
753.81	1064.71
754.14	1067.52
754.47	1065.65
754.80	1066.35
755.13	1070.09
755.46	1067.52
755.79	1069.16
756.12	1078.75
756.45	1073.37
756.78	1075.71
757.11	1073.60
757.43	1070.80
757.76	1064.94
758.09	1069.62
758.42	1068.92
758.75	1071.03
759.08	1068.45
759.41	1072.90
759.74	1074.07
760.07	1075.01
760.39	1079.46
760.72	1084.60
761.05	1071.26
761.38	1075.24
761.71	1067.05
762.04	1062.37
762.36	1063.54
762.69	1070.09
763.02	1073.37
763.35	1082.03
763.68	1082.50
764.01	1083.43
764.33	1084.14
764.66	1074.77
764.99	1074.77
765.32	1072.67
765.65	1060.26
765.97	1061.43
766.30	1062.14
766.63	1064.94
766.96	1076.18
767.28	1087.18
767.61	1087.18
767.94	1092.09
768.27	1086.24
768.59	1084.84
768.92	1094.20
769.25	1101.22
769.58	1102.39
769.90	1105.20
770.23	1109.65
770.56	1098.65
770.89	1095.14
771.21	1086.24
771.54	1075.01
771.87	1069.39
772.19	1078.28
772.52	1073.37
772.85	1080.39
773.17	1093.73
773.50	1088.35
773.83	1070.56
774.15	1068.22
774.48	1063.54
774.81	1059.09
775.13	1053.71
775.46	1061.67
775.79	1060.73
776.11	1066.58
776.44	1070.09
776.77	1076.41
777.09	1072.90
777.42	1079.92
777.74	1075.71
778.07	1069.39
778.40	1069.86
778.72	1072.67
779.05	1077.82
779.37	1080.39
779.70	1088.35
780.03	1089.99
780.35	1096.54
780.68	1085.31
781.00	1082.50
781.33	1081.33
781.65	1086.01
781.98	1086.24
782.31	1095.60
782.63	1088.82
782.96	1087.41
783.28	1087.41
783.61	1089.52
783.93	1076.65
784.26	1086.01
784.58	1082.03
784.91	1068.45
785.23	1058.39
785.56	1059.79
785.88	1058.16
786.21	1060.96
786.53	1070.33
786.86	1076.18
787.18	1084.60
787.51	1079.92
787.83	1080.16
788.16	1086.01
788.48	1085.31
788.81	1088.82
789.13	1097.71
789.46	1097.71
789.78	1089.52
790.10	1095.84
790.43	1099.35
790.75	1093.50
791.08	1085.31
791.40	1075.94
791.73	1072.20
792.05	1065.18
792.37	1067.28
792.70	1076.18
793.02	1091.63
793.35	1085.07
793.67	1086.48
793.99	1091.86
794.32	1083.90
794.64	1080.63
794.96	1084.60
795.29	1093.26
795.61	1083.43
795.93	1097.01
796.26	1090.22
796.58	1083.20
796.91	1080.16
797.23	1089.52
797.55	1078.75
797.87	1080.86
798.20	1080.39
798.52	1067.75
798.84	1062.37
799.17	1068.22
799.49	1072.90
799.81	1079.22
800.14	1076.88
800.46	1065.18
800.78	1055.58
801.10	1058.86
801.43	1062.14
801.75	1077.35
802.07	1092.56
802.40	1104.73
802.72	1104.50
803.04	1089.52
803.36	1078.28
803.69	1067.28
804.01	1064.01
804.33	1068.69
804.65	1077.82
804.97	1074.31
805.30	1075.94
805.62	1061.67
805.94	1046.22
806.26	1051.84
806.58	1061.43
806.91	1069.86
807.23	1081.80
807.55	1084.14
807.87	1076.65
808.19	1071.26
808.52	1066.35
808.84	1076.18
809.16	1077.58
809.48	1080.16
809.80	1076.41
810.12	1085.07
810.44	1076.18
810.77	1077.82
811.09	1082.73
811.41	1086.48
811.73	1071.73
812.05	1070.56
812.37	1073.37
812.69	1070.33
813.01	1077.35
813.33	1081.33
813.66	1085.31
813.98	1080.39
814.30	1082.26
814.62	1086.24
814.94	1095.60
815.26	1095.14
815.58	1092.80
815.90	1086.94
816.22	1085.07
816.54	1071.73
816.86	1071.97
817.18	1079.69
817.50	1070.80
817.82	1062.60
818.14	1068.22
818.46	1071.03
818.78	1073.60
819.10	1072.67
819.42	1078.05
819.74	1076.65
820.06	1073.84
820.38	1071.73
820.70	1083.43
821.02	1087.18
821.34	1101.46
821.66	1103.33
821.98	1092.33
822.30	1089.29
822.62	1085.07
822.94	1060.73
823.26	1058.16
823.58	1069.86
823.90	1077.82
824.22	1078.05
824.54	1086.24
824.86	1090.46
825.18	1092.09
825.50	1084.84
825.81	1089.75
826.13	1093.73
826.45	1085.54
826.77	1074.54
827.09	1079.46
827.41	1065.88
827.73	1069.16
828.05	1075.71
828.36	1081.09
828.68	1085.07
829.00	1104.03
829.32	1098.41
829.64	1085.54
829.96	1088.35
830.28	1086.01
830.59	1072.90
830.91	1072.43
831.23	1078.28
831.55	1074.31
831.87	1071.50
832.19	1086.01
832.50	1091.39
832.82	1097.48
833.14	1098.65
833.46	1093.03
833.78	1071.97
834.09	1070.80
834.41	1069.62
834.73	1067.75
835.05	1075.48
835.36	1080.16
835.68	1074.77
836.00	1077.11
836.32	1075.71
836.63	1072.20
836.95	1066.35
837.27	1067.52
837.59	1058.86
837.90	1060.26
838.22	1048.33
838.54	1048.56
838.85	1044.11
839.17	1053.24
839.49	1060.26
839.80	1070.09
840.12	1064.24
840.44	1067.28
840.76	1056.99
841.07	1042.94
841.39	1049.26
841.71	1063.07
842.02	1072.43
842.34	1078.28
842.65	1079.22
842.97	1076.65
843.29	1068.92
843.60	1062.60
843.92	1055.35
844.24	1059.33
844.55	1051.13
844.87	1050.43
845.18	1050.67
845.50	1055.11
845.82	1054.88
846.13	1068.69
846.45	1078.05
846.76	1081.80
847.08	1087.88
847.40	1088.12
847.71	1072.43
848.03	1062.14
848.34	1055.58
848.66	1053.24
848.97	1061.20
849.29	1071.73
849.60	1067.05
849.92	1079.69
850.24	1074.77
850.55	1072.20
850.87	1069.39
851.18	1075.94
851.50	1064.24
851.81	1066.82
852.13	1072.20
852.44	1075.24
852.76	1082.97
853.07	1079.46
853.39	1080.16
853.70	1076.41
854.01	1073.60
854.33	1077.11
854.64	1086.01
854.96	1087.65
855.27	1082.26
855.59	1086.01
855.90	1079.69
856.22	1085.07
856.53	1086.24
856.84	1087.88
857.16	1091.16
857.47	1089.52
857.79	1085.31
858.10	1088.12
858.41	1090.46
858.73	1087.88
859.04	1093.97
859.36	1091.16
859.67	1088.12
859.98	1085.07
860.30	1086.48
860.61	1091.16
860.92	1097.48
861.24	1095.60
861.55	1104.50
861.87	1104.97
862.18	1096.07
862.49	1091.63
862.81	1083.43
863.12	1077.35
863.43	1075.48
863.74	1074.54
864.06	1065.41
864.37	1069.16
864.68	1065.65
865.00	1061.43
865.31	1059.79
865.62	1071.26
865.94	1076.41
866.25	1077.58
866.56	1073.37
866.87	1080.63
867.19	1078.99
867.50	1082.50
867.81	1080.86
868.12	1084.60
868.44	1081.09
868.75	1080.63
869.06	1066.82
869.37	1069.86
869.68	1062.60
870.00	1062.14
870.31	1054.65
870.62	1062.84
870.93	1067.75
871.24	1071.26
871.56	1070.09
871.87	1075.01
872.18	1074.07
872.49	1068.45
872.80	1081.33
873.12	1084.84
873.43	1082.03
873.74	1082.03
874.05	1083.20
874.36	1075.24
874.67	1080.63
874.98	1081.56
875.29	1082.03
875.61	1083.43
875.92	1080.39
876.23	1081.80
876.54	1087.41
876.85	1089.05
877.16	1081.80
877.47	1086.71
877.78	1082.03
878.09	1073.84
878.40	1071.73
878.72	1077.11
879.03	1075.48
879.34	1073.60
879.65	1072.67
879.96	1080.16
880.27	1077.11
880.58	1077.11
880.89	1069.62
881.20	1076.18
881.51	1079.46
881.82	1086.71
882.13	1088.58
882.44	1094.90
882.75	1098.18
883.06	1086.94
883.37	1087.65
883.68	1082.50
883.99	1079.46
884.30	1078.05
884.61	1083.43
884.92	1080.16
885.23	1075.24
885.54	1079.69
885.85	1084.14
886.16	1081.33
886.47	1078.75
886.78	1088.35
887.08	1079.92
887.39	1072.20
887.70	1063.77
888.01	1061.90
888.32	1057.69
888.63	1063.54
888.94	1050.90
889.25	1060.73
889.56	1056.05
889.87	1062.84
890.17	1057.92
890.48	1063.54
890.79	1064.48
891.10	1064.48
891.41	1055.58
891.72	1059.33
892.03	1072.20
892.34	1066.35
892.64	1074.07
892.95	1075.94
893.26	1076.18
893.57	1078.05
893.88	1078.99
894.18	1089.99
894.49	1086.48
894.80	1097.95
895.11	1092.80
895.42	1091.86
895.72	1079.69
896.03	1087.41
896.34	1085.31
896.65	1075.48
896.96	1075.71
897.26	1071.50
897.57	1078.75
897.88	1074.07
898.19	1092.09
898.49	1100.52
898.80	1096.78
899.11	1091.63
899.41	1089.75
899.72	1073.60
900.03	1071.03
900.34	1078.05
900.64	1075.94
900.95	1078.99
901.26	1086.71
901.56	1085.07
901.87	1086.01
902.18	1086.01
902.48	1079.92
902.79	1085.54
903.10	1082.73
903.40	1082.26
903.71	1086.94
904.02	1093.50
904.32	1091.63
904.63	1090.22
904.94	1086.24
905.24	1081.09
905.55	1071.50
905.85	1065.65
906.16	1074.54
906.47	1071.97
906.77	1070.09
907.08	1074.07
907.38	1085.54
907.69	1073.37
908.00	1087.41
908.30	1091.16
908.61	1089.75
908.91	1083.90
909.22	1091.39
909.52	1080.39
909.83	1070.33
910.14	1060.50
910.44	1061.90
910.75	1052.54
911.05	1053.71
911.36	1064.94
911.66	1071.50
911.97	1058.16
912.27	1066.82
912.58	1070.09
912.88	1064.94
913.19	1078.05
913.49	1081.33
913.80	1086.01
914.10	1083.90
914.41	1086.01
914.71	1078.28
915.01	1082.73
915.32	1086.94
915.62	1090.69
915.93	1103.56
916.23	1107.54
916.54	1108.48
916.84	1098.88
917.15	1090.46
917.45	1083.67
917.75	1093.97
918.06	1100.29
918.36	1102.39
918.67	1108.24
918.97	1094.67
919.27	1074.77
919.58	1071.26
919.88	1071.73
920.18	1072.20
920.49	1071.03
920.79	1071.26
921.10	1063.77
921.40	1062.84
921.70	1063.07
922.01	1068.69
922.31	1081.33
922.61	1093.97
922.92	1100.29
923.22	1095.14
923.52	1103.33
923.82	1090.69
924.13	1082.73
924.43	1069.39
924.73	1077.35
925.04	1068.22
925.34	1072.43
925.64	1063.31
925.94	1066.58
926.25	1060.03
926.55	1057.22
926.85	1064.94
927.15	1081.09
927.46	1083.43
927.76	1085.07
928.06	1084.60
928.36	1071.50
928.67	1068.22
928.97	1061.67
929.27	1064.48
929.57	1073.37
929.87	1084.60
930.18	1074.31
930.48	1088.35
930.78	1094.20
931.08	1093.97
931.38	1092.80
931.69	1099.12
931.99	1092.56
932.29	1082.03
932.59	1084.37
932.89	1086.24
933.19	1078.28
933.49	1072.20
933.80	1081.09
934.10	1076.65
934.40	1072.43
934.70	1076.18
935.00	1077.58
935.30	1076.65
935.60	1070.33
935.90	1071.97
936.20	1075.48
936.50	1085.31
936.81	1084.84
937.11	1091.63
937.41	1090.46
937.71	1087.65
938.01	1075.71
938.31	1068.92
938.61	1075.01
938.91	1075.01
939.21	1078.28
939.51	1086.71
939.81	1080.86
940.11	1072.43
940.41	1069.16
940.71	1067.05
941.01	1052.54
941.31	1058.86
941.61	1067.05
941.91	1061.20
942.21	1056.28
942.51	1070.56
942.81	1071.97
943.11	1060.96
943.41	1062.60
943.71	1068.45
944.01	1067.28
944.31	1065.88
944.61	1072.43
944.90	1085.77
945.20	1088.58
945.50	1088.58
945.80	1084.14
946.10	1076.18
946.40	1073.60
946.70	1069.16
947.00	1061.20
947.30	1063.07
947.60	1075.48
947.89	1066.82
948.19	1070.33
948.49	1078.52
948.79	1086.94
949.09	1078.28
949.39	1075.48
949.69	1066.82
949.98	1070.56
950.28	1063.07
950.58	1068.92
950.88	1080.86
951.18	1084.14
951.48	1090.22
951.77	1104.26
952.07	1098.88
952.37	1086.71
952.67	1083.67
952.97	1082.97
953.26	1076.88
953.56	1081.09
953.86	1094.20
954.16	1095.14
954.45	1078.75
954.75	1079.22
955.05	1074.77
955.35	1071.50
955.64	1080.63
955.94	1094.67
956.24	1090.46
956.54	1088.12
956.83	1082.97
957.13	1077.35
957.43	1073.84
957.72	1068.69
958.02	1070.80
958.32	1073.84
958.61	1081.33
958.91	1085.07
959.21	1092.33
959.50	1096.31
959.80	1099.82
960.10	1090.46
960.39	1085.54
960.69	1080.86
960.99	1083.20
961.28	1069.86
961.58	1079.22
961.87	1071.03
962.17	1073.14
962.47	1065.41
962.76	1061.20
963.06	1059.09
963.36	1060.73
963.65	1065.41
963.95	1067.28
964.24	1078.99
964.54	1082.97
964.83	1084.14
965.13	1077.82
965.42	1081.09
965.72	1081.33
966.02	1068.69
966.31	1064.48
966.61	1065.41
966.90	1068.69
967.20	1072.20
967.49	1083.20
967.79	1092.09
968.08	1100.29
968.38	1092.33
968.67	1093.26
968.97	1089.52
969.26	1086.94
969.56	1078.52
969.85	1082.73
970.15	1078.52
970.44	1079.46
970.74	1078.99
971.03	1091.16
971.32	1080.86
971.62	1088.58
971.91	1080.86
972.21	1081.09
972.50	1078.28
972.80	1090.22
973.09	1084.84
973.38	1082.73
973.68	1088.58
973.97	1084.60
974.27	1081.80
974.56	1090.46
974.85	1098.65
975.15	1096.78
975.44	1103.80
975.73	1098.65
976.03	1082.97
976.32	1091.63
976.61	1086.71
976.91	1079.22
977.20	1081.33
977.49	1089.52
977.79	1083.20
978.08	1087.41
978.37	1084.60
978.67	1090.69
978.96	1082.73
979.25	1076.41
979.55	1072.90
979.84	1070.33
980.13	1067.28
980.42	1067.05
980.72	1068.92
981.01	1066.82
981.30	1068.22
981.59	1069.62
981.89	1078.05
982.18	1079.69
982.47	1083.20
982.76	1085.07
983.06	1079.69
983.35	1081.80
983.64	1083.43
983.93	1085.77
984.22	1078.05
984.52	1082.73
984.81	1079.46
985.10	1078.52
985.39	1070.09
985.68	1082.26
985.97	1085.54
986.27	1082.26
986.56	1084.84
986.85	1089.75
987.14	1085.31
987.43	1081.56
987.72	1082.97
988.01	1074.54
988.31	1075.94
988.60	1072.20
988.89	1070.33
989.18	1070.09
989.47	1082.50
989.76	1082.97
990.05	1084.84
990.34	1088.82
990.63	1090.69
990.92	1074.54
991.21	1077.11
991.51	1088.35
991.80	1095.14
992.09	1096.31
992.38	1102.86
992.67	1103.09
992.96	1097.24
993.25	1089.29
993.54	1091.16
993.83	1086.71
994.12	1085.07
994.41	1079.46
994.70	1073.84
994.99	1070.09
995.28	1074.07
995.57	1066.58
995.86	1079.22
996.15	1086.24
996.44	1084.60
996.73	1092.33
997.02	1092.56
997.31	1085.07
997.59	1089.29
997.88	1097.71
998.17	1093.26
998.46	1104.97
998.75	1100.52
999.04	1097.24
999.33	1088.35
999.62	1081.80
999.91	1075.48
1000.20	1079.22
1000.49	1074.31
1000.77	1075.94
1001.06	1083.20
1001.35	1081.56
1001.64	1080.16
1001.93	1081.80
1002.22	1073.60
1002.51	1071.97
1002.79	1074.07
1003.08	1073.14
1003.37	1067.99
1003.66	1076.88
1003.95	1076.65
1004.23	1080.16
1004.52	1071.26
1004.81	1078.28
1005.10	1073.84
1005.39	1064.48
1005.67	1064.71
1005.96	1075.48
1006.25	1059.33
1006.54	1060.96
1006.83	1079.22
1007.11	1077.35
1007.40	1074.54
1007.69	1096.78
1007.97	1097.48
1008.26	1084.60
1008.55	1076.65
1008.84	1072.90
1009.12	1063.54
1009.41	1065.18
1009.70	1077.11
1009.98	1086.71
1010.27	1094.67
1010.56	1099.58
1010.85	1098.18
1011.13	1083.90
1011.42	1083.67
1011.71	1075.94
1011.99	1071.03
1012.28	1066.35
1012.56	1077.82
1012.85	1068.92
1013.14	1072.90
1013.42	1075.01
1013.71	1081.09
1014.00	1082.73
1014.28	1097.95
1014.57	1103.80
1014.85	1108.24
1015.14	1117.14
1015.43	1115.97
1015.71	1110.35
1016.00	1099.12
1016.28	1097.48
1016.57	1093.73
1016.85	1089.75
1017.14	1079.22
1017.43	1071.73
1017.71	1060.26
1018.00	1053.24
1018.28	1049.03
1018.57	1056.05
1018.85	1067.52
1019.14	1073.37
1019.42	1078.28
1019.71	1085.77
1019.99	1089.52
1020.28	1086.94
1020.56	1092.80
1020.85	1099.58
1021.13	1095.14
1021.42	1095.14
1021.70	1087.88
1021.99	1079.92
1022.27	1070.80
1022.55	1057.92
1022.84	1082.50
>>>>>End Processed Spectral Data<<<<<
