SpectraSuite Data File
++++++++++++++++++++++++++++++++++++
Date: Mon Aug 26 10:24:38 PDT 2019
User: corrico
Dark Spectrum Present: No
Reference Spectrum Present: No
Number of Sampled Component Spectra: 1
Spectrometers: USB2+H06089
Integration Time (usec): 10000 (USB2+H06089)
Spectra Averaged: 2 (USB2+H06089)
Boxcar Smoothing: 2 (USB2+H06089)
Correct for Electrical Dark: No (USB2+H06089)
Strobe/Lamp Enabled: No (USB2+H06089)
Correct for Detector Non-linearity: No (USB2+H06089)
Correct for Stray Light: No (USB2+H06089)
Number of Pixels in Processed Spectrum: 2048
>>>>>Begin Processed Spectral Data<<<<<
339.70	998.24
340.07	998.24
340.45	989.81
340.82	974.37
341.19	959.62
341.57	947.68
341.94	932.24
342.31	923.81
342.69	920.30
343.06	920.06
343.43	921.47
343.81	927.09
344.18	921.47
344.55	925.68
344.93	927.09
345.30	923.81
345.67	929.43
346.04	937.62
346.42	947.68
346.79	963.83
347.16	964.77
347.54	966.64
347.91	970.85
348.28	977.41
348.65	985.60
349.03	1007.60
349.40	1014.86
349.77	1032.64
350.14	1027.03
350.52	1026.79
350.89	1028.90
351.26	1053.94
351.63	1061.20
352.01	1087.41
352.38	1092.80
352.75	1095.37
353.12	1084.14
353.50	1087.18
353.87	1078.99
354.24	1091.86
354.61	1087.18
354.98	1087.88
355.36	1085.07
355.73	1090.69
356.10	1084.14
356.47	1100.52
356.84	1108.24
357.22	1114.80
357.59	1113.63
357.96	1119.48
358.33	1116.20
358.70	1112.92
359.08	1106.14
359.45	1109.18
359.82	1100.05
360.19	1098.41
360.56	1104.50
360.94	1104.50
361.31	1097.01
361.68	1100.75
362.05	1099.35
362.42	1101.69
362.79	1093.73
363.16	1098.41
363.54	1090.69
363.91	1093.97
364.28	1084.84
364.65	1099.12
365.02	1104.97
365.39	1114.33
365.76	1104.73
366.14	1109.88
366.51	1111.05
366.88	1106.84
367.25	1089.99
367.62	1094.20
367.99	1079.46
368.36	1071.50
368.73	1071.97
369.10	1084.14
369.48	1083.90
369.85	1094.67
370.22	1093.73
370.59	1091.39
370.96	1086.48
371.33	1087.65
371.70	1085.07
372.07	1083.67
372.44	1080.16
372.81	1079.46
373.18	1092.09
373.55	1095.14
373.93	1097.71
374.30	1097.24
374.67	1096.31
375.04	1090.46
375.41	1086.48
375.78	1084.84
376.15	1089.52
376.52	1084.84
376.89	1080.16
377.26	1095.14
377.63	1098.18
378.00	1104.97
378.37	1123.69
378.74	1125.10
379.11	1121.12
379.48	1124.86
379.85	1123.22
380.22	1127.20
380.59	1130.95
380.96	1125.56
381.33	1121.12
381.70	1112.22
382.07	1107.54
382.44	1111.29
382.81	1116.67
383.18	1125.56
383.55	1138.20
383.92	1138.67
384.29	1135.39
384.66	1134.69
385.03	1121.12
385.40	1115.27
385.77	1112.22
386.14	1118.31
386.51	1122.75
386.88	1131.65
387.25	1131.65
387.62	1130.01
387.99	1122.99
388.36	1115.97
388.73	1118.07
389.10	1120.18
389.46	1118.78
389.83	1112.69
390.20	1116.44
390.57	1115.27
390.94	1126.27
391.31	1133.99
391.68	1146.16
392.05	1141.01
392.42	1137.97
392.79	1133.05
393.16	1124.86
393.53	1124.39
393.89	1126.27
394.26	1125.56
394.63	1126.50
395.00	1139.14
395.37	1133.99
395.74	1152.48
396.11	1158.57
396.48	1159.74
396.84	1162.78
397.21	1173.78
397.58	1156.93
397.95	1171.67
398.32	1168.63
398.69	1170.27
399.06	1159.97
399.42	1164.42
399.79	1159.03
400.16	1163.01
400.53	1163.95
400.90	1188.06
401.27	1197.65
401.64	1201.63
402.00	1228.55
402.37	1240.72
402.74	1239.78
403.11	1247.97
403.48	1268.57
403.84	1264.36
404.21	1272.55
404.58	1288.00
404.95	1311.40
405.32	1334.57
405.68	1355.64
406.05	1385.36
406.42	1409.00
406.79	1446.92
407.16	1463.30
407.52	1488.58
407.89	1503.79
408.26	1537.73
408.63	1552.01
408.99	1586.65
409.36	1626.44
409.73	1684.02
410.10	1728.49
410.47	1786.06
410.83	1849.96
411.20	1910.35
411.57	1967.69
411.94	2047.97
412.30	2126.38
412.67	2201.04
413.04	2291.15
413.40	2396.71
413.77	2488.46
414.14	2601.51
414.51	2726.72
414.87	2860.84
415.24	2993.78
415.61	3159.26
415.97	3320.28
416.34	3494.19
416.71	3683.77
417.08	3900.03
417.44	4093.36
417.81	4339.12
418.18	4592.60
418.54	4859.65
418.91	5137.48
419.28	5442.92
419.64	5724.25
420.01	6057.31
420.38	6400.43
420.74	6724.83
421.11	7151.04
421.48	7567.65
421.84	8010.95
422.21	8466.42
422.58	9010.36
422.94	9499.77
423.31	10018.90
423.68	10592.80
424.04	11194.55
424.41	11817.60
424.77	12433.16
425.14	13099.51
425.51	13782.71
425.87	14589.50
426.24	15356.02
426.61	16256.66
426.97	17301.94
427.34	18213.11
427.70	19221.42
428.07	20240.95
428.44	21316.43
428.80	22361.48
429.17	23490.32
429.53	24512.43
429.90	25789.43
430.27	26922.71
430.63	28076.83
431.00	29401.11
431.36	30921.05
431.73	32210.92
432.09	33619.69
432.46	34978.14
432.83	36321.84
433.19	37501.47
433.56	38938.56
433.92	40425.03
434.29	41948.02
434.65	43435.66
435.02	44840.22
435.38	46174.79
435.75	47036.58
436.11	48242.89
436.48	49238.32
436.84	50241.71
437.21	51137.90
437.57	52211.73
437.94	52898.68
438.30	53521.73
438.67	53771.00
439.03	53857.60
439.40	53965.26
439.76	53812.66
440.13	53668.95
440.49	53665.44
440.86	53268.02
441.22	52784.93
441.59	52156.03
441.95	51431.40
442.32	50471.31
442.68	49770.32
443.05	48906.90
443.41	48079.05
443.78	47113.81
444.14	46299.54
444.51	45096.74
444.87	44173.16
445.24	42893.83
445.60	41717.01
445.96	40333.05
446.33	39399.41
446.69	38042.83
447.06	37093.28
447.42	36108.15
447.79	35071.52
448.15	34036.77
448.51	33128.18
448.88	32281.84
449.24	31234.68
449.61	30566.23
449.97	29716.61
450.33	28940.49
450.70	27948.57
451.06	27315.69
451.43	26493.69
451.79	25968.01
452.15	25416.11
452.52	24916.64
452.88	24301.31
453.24	23801.14
453.61	23155.86
453.97	22460.48
454.34	21773.30
454.70	21198.93
455.06	20538.43
455.43	19801.63
455.79	19118.43
456.15	18558.11
456.52	17861.10
456.88	17337.05
457.24	16785.62
457.61	16276.09
457.97	15722.08
458.33	15222.38
458.70	14637.71
459.06	14063.81
459.42	13613.02
459.79	13108.64
460.15	12665.57
460.51	12204.96
460.88	11800.04
461.24	11337.79
461.60	10987.18
461.96	10586.71
462.33	10261.61
462.69	9911.70
463.05	9620.30
463.42	9347.16
463.78	9070.98
464.14	8757.82
464.50	8537.81
464.87	8270.05
465.23	7960.86
465.59	7741.79
465.95	7549.40
466.32	7312.54
466.68	7140.74
467.04	6976.20
467.40	6800.43
467.77	6639.63
468.13	6466.43
468.49	6281.06
468.85	6152.80
469.22	6021.03
469.58	5873.11
469.94	5782.76
470.30	5631.33
470.66	5504.00
471.03	5362.64
471.39	5270.18
471.75	5138.88
472.11	5055.56
472.47	4964.51
472.84	4860.59
473.20	4720.16
473.56	4616.94
473.92	4497.11
474.28	4395.06
474.65	4311.03
475.01	4247.84
475.37	4153.05
475.73	4093.60
476.09	4010.74
476.45	3926.95
476.81	3835.44
477.18	3769.90
477.54	3706.71
477.90	3639.06
478.26	3558.32
478.62	3504.25
478.98	3440.59
479.34	3375.75
479.71	3313.73
480.07	3267.86
480.43	3222.22
480.79	3177.98
481.15	3126.25
481.51	3049.25
481.87	3005.01
482.23	2935.73
482.59	2867.16
482.96	2811.92
483.32	2803.49
483.68	2770.73
484.04	2720.17
484.40	2707.53
484.76	2671.72
485.12	2620.70
485.48	2582.08
485.84	2569.21
486.20	2513.50
486.56	2480.27
486.92	2447.26
487.28	2407.01
487.64	2365.35
488.00	2339.13
488.37	2306.60
488.73	2275.47
489.09	2234.04
489.45	2200.34
489.81	2171.08
490.17	2141.36
490.53	2114.67
490.89	2091.97
491.25	2066.93
491.61	2048.20
491.97	2022.69
492.33	1990.16
492.69	1959.96
493.05	1938.20
493.41	1902.39
493.77	1874.30
494.13	1864.70
494.49	1841.53
494.85	1823.51
495.21	1796.60
495.57	1791.91
495.93	1757.04
496.29	1743.23
496.64	1731.06
497.00	1720.06
497.36	1680.97
497.72	1682.85
498.08	1669.27
498.44	1637.67
498.80	1613.10
499.16	1595.31
499.52	1558.09
499.88	1542.65
500.24	1524.39
500.60	1521.82
500.96	1518.31
501.32	1505.67
501.68	1483.43
502.03	1487.18
502.39	1480.15
502.75	1465.88
503.11	1466.11
503.47	1475.71
503.83	1460.49
504.19	1448.79
504.55	1443.41
504.91	1431.24
505.26	1417.66
505.62	1406.19
505.98	1400.34
506.34	1398.94
506.70	1385.36
507.06	1370.38
507.42	1362.66
507.78	1346.98
508.13	1330.36
508.49	1339.02
508.85	1336.68
509.21	1332.94
509.57	1326.15
509.93	1325.91
510.28	1313.27
510.64	1312.57
511.00	1296.89
511.36	1297.12
511.72	1285.19
512.07	1280.51
512.43	1272.08
512.79	1277.23
513.15	1258.97
513.51	1259.91
513.86	1254.76
514.22	1244.23
514.58	1243.29
514.94	1242.12
515.30	1235.80
515.65	1229.25
516.01	1224.10
516.37	1203.74
516.73	1210.29
517.08	1210.76
517.44	1213.57
517.80	1218.25
518.16	1237.21
518.51	1232.53
518.87	1217.55
519.23	1211.93
519.59	1202.80
519.94	1198.59
520.30	1189.46
520.66	1196.95
521.01	1190.16
521.37	1191.33
521.73	1184.08
522.09	1193.44
522.44	1197.65
522.80	1203.74
523.16	1198.35
523.51	1191.10
523.87	1176.59
524.23	1163.01
524.58	1164.18
524.94	1154.59
525.30	1152.25
525.65	1152.48
526.01	1155.76
526.37	1151.78
526.72	1162.31
527.08	1156.93
527.44	1159.74
527.79	1148.03
528.15	1131.65
528.51	1123.93
528.86	1130.48
529.22	1133.76
529.58	1140.54
529.93	1154.35
530.29	1167.69
530.65	1171.44
531.00	1160.20
531.36	1164.65
531.71	1153.65
532.07	1145.69
532.43	1143.12
532.78	1147.10
533.14	1145.46
533.49	1153.18
533.85	1160.67
534.21	1159.50
534.56	1167.46
534.92	1164.65
535.27	1157.39
535.63	1157.16
535.98	1152.71
536.34	1147.80
536.69	1149.67
537.05	1153.88
537.41	1140.31
537.76	1142.42
538.12	1130.24
538.47	1126.03
538.83	1126.03
539.18	1127.90
539.54	1122.05
539.89	1130.48
540.25	1125.56
540.60	1120.65
540.96	1130.71
541.31	1137.97
541.67	1133.05
542.02	1134.46
542.38	1127.67
542.73	1122.52
543.09	1121.35
543.44	1135.39
543.80	1140.54
544.15	1153.88
544.51	1162.54
544.86	1161.61
545.22	1147.56
545.57	1151.54
545.93	1150.84
546.28	1130.48
546.64	1133.29
546.99	1139.84
547.35	1129.07
547.70	1128.14
548.05	1139.14
548.41	1140.31
548.76	1140.54
549.12	1139.84
549.47	1128.84
549.83	1116.20
550.18	1104.50
550.53	1109.65
550.89	1116.20
551.24	1119.48
551.60	1123.46
551.95	1125.33
552.30	1114.09
552.66	1112.22
553.01	1112.69
553.37	1108.95
553.72	1111.75
554.07	1117.37
554.43	1109.65
554.78	1111.75
555.13	1108.24
555.49	1107.54
555.84	1103.80
556.19	1100.75
556.55	1101.46
556.90	1116.90
557.26	1115.73
557.61	1112.69
557.96	1120.18
558.32	1114.10
558.67	1100.05
559.02	1102.39
559.37	1098.18
559.73	1099.82
560.08	1103.56
560.43	1106.14
560.79	1106.61
561.14	1110.12
561.49	1110.82
561.85	1108.95
562.20	1111.99
562.55	1108.24
562.90	1101.92
563.26	1100.05
563.61	1110.82
563.96	1115.27
564.32	1108.71
564.67	1116.44
565.02	1111.52
565.37	1105.67
565.73	1096.78
566.08	1104.50
566.43	1092.80
566.78	1093.26
567.14	1090.46
567.49	1093.97
567.84	1085.07
568.19	1093.26
568.54	1101.92
568.90	1102.63
569.25	1104.73
569.60	1113.86
569.95	1119.48
570.31	1122.29
570.66	1126.97
571.01	1132.35
571.36	1130.24
571.71	1124.86
572.06	1113.39
572.42	1103.33
572.77	1095.14
573.12	1099.82
573.47	1105.90
573.82	1104.73
574.18	1100.05
574.53	1100.52
574.88	1093.97
575.23	1080.86
575.58	1083.20
575.93	1095.84
576.28	1093.03
576.64	1098.88
576.99	1112.69
577.34	1119.24
577.69	1107.54
578.04	1109.88
578.39	1103.56
578.74	1096.78
579.09	1090.46
579.44	1105.90
579.80	1102.16
580.15	1104.73
580.50	1105.67
580.85	1106.37
581.20	1100.75
581.55	1101.69
581.90	1101.69
582.25	1099.82
582.60	1097.95
582.95	1096.31
583.30	1098.65
583.65	1086.94
584.00	1084.60
584.35	1086.94
584.71	1079.22
585.06	1073.37
585.41	1090.46
585.76	1094.43
586.11	1095.14
586.46	1101.22
586.81	1122.29
587.16	1122.29
587.51	1122.05
587.86	1126.73
588.21	1133.76
588.56	1119.01
588.91	1115.73
589.26	1110.82
589.61	1095.84
589.96	1086.01
590.31	1085.07
590.66	1079.69
591.01	1083.90
591.36	1093.97
591.71	1086.24
592.06	1086.71
592.41	1080.39
592.76	1082.73
593.10	1084.84
593.45	1103.09
593.80	1100.05
594.15	1108.24
594.50	1107.31
594.85	1098.88
595.20	1089.52
595.55	1089.99
595.90	1098.18
596.25	1095.84
596.60	1097.48
596.95	1109.65
597.30	1112.46
597.64	1149.44
597.99	1156.22
598.34	1161.61
598.69	1162.54
599.04	1164.18
599.39	1121.12
599.74	1121.12
600.09	1115.03
600.44	1101.22
600.78	1100.52
601.13	1099.12
601.48	1090.22
601.83	1098.88
602.18	1098.65
602.53	1097.71
602.88	1097.01
603.22	1100.52
603.57	1089.05
603.92	1095.37
604.27	1098.65
604.62	1093.97
604.97	1090.69
605.31	1090.92
605.66	1083.90
606.01	1072.90
606.36	1082.97
606.71	1082.50
607.05	1089.05
607.40	1094.20
607.75	1093.73
608.10	1090.69
608.44	1093.03
608.79	1090.92
609.14	1089.29
609.49	1096.31
609.84	1101.46
610.18	1109.88
610.53	1108.95
610.88	1108.95
611.23	1102.16
611.57	1094.67
611.92	1086.71
612.27	1095.37
612.62	1099.82
612.96	1114.33
613.31	1120.18
613.66	1122.05
614.00	1117.84
614.35	1115.50
614.70	1109.88
615.05	1110.58
615.39	1110.35
615.74	1109.18
616.09	1106.14
616.43	1110.35
616.78	1107.07
617.13	1094.20
617.47	1099.12
617.82	1106.61
618.17	1098.65
618.51	1099.82
618.86	1116.20
619.21	1099.58
619.55	1088.12
619.90	1096.07
620.25	1097.24
620.59	1102.16
620.94	1113.63
621.29	1108.95
621.63	1103.09
621.98	1096.31
622.32	1088.58
622.67	1094.67
623.02	1108.48
623.36	1104.97
623.71	1114.80
624.05	1127.90
624.40	1112.22
624.75	1095.37
625.09	1099.35
625.44	1091.39
625.78	1075.48
626.13	1084.37
626.48	1097.24
626.82	1098.41
627.17	1094.67
627.51	1096.78
627.86	1103.80
628.20	1100.52
628.55	1096.31
628.89	1097.95
629.24	1094.90
629.58	1089.29
629.93	1090.69
630.28	1103.33
630.62	1110.12
630.97	1109.65
631.31	1107.31
631.66	1111.05
632.00	1095.14
632.35	1095.60
632.69	1099.82
633.04	1102.16
633.38	1103.80
633.73	1120.65
634.07	1112.69
634.42	1112.22
634.76	1109.18
635.11	1099.12
635.45	1081.56
635.79	1082.26
636.14	1074.07
636.48	1077.58
636.83	1083.43
637.17	1087.18
637.52	1087.18
637.86	1092.09
638.21	1090.22
638.55	1088.35
638.89	1089.99
639.24	1087.88
639.58	1090.69
639.93	1085.07
640.27	1086.48
640.61	1086.94
640.96	1084.60
641.30	1077.35
641.65	1082.50
641.99	1072.67
642.33	1069.39
642.68	1072.43
643.02	1072.20
643.37	1071.03
643.71	1084.60
644.05	1090.22
644.40	1099.12
644.74	1111.29
645.08	1117.37
645.43	1113.39
645.77	1113.86
646.11	1098.65
646.46	1097.95
646.80	1101.22
647.14	1096.78
647.49	1098.41
647.83	1119.48
648.17	1116.90
648.52	1109.65
648.86	1113.63
649.20	1112.69
649.55	1102.16
649.89	1099.12
650.23	1097.24
650.57	1099.82
650.92	1090.46
651.26	1095.14
651.60	1094.67
651.95	1084.14
652.29	1086.48
652.63	1091.16
652.97	1083.20
653.32	1091.39
653.66	1100.99
654.00	1086.24
654.34	1082.26
654.69	1084.60
655.03	1078.99
655.37	1076.41
655.71	1079.46
656.05	1093.26
656.40	1089.29
656.74	1082.50
657.08	1089.99
657.42	1103.33
657.76	1099.35
658.11	1105.44
658.45	1104.03
658.79	1094.20
659.13	1085.54
659.47	1078.05
659.82	1073.37
660.16	1081.33
660.50	1089.05
660.84	1097.24
661.18	1099.82
661.52	1092.80
661.87	1095.60
662.21	1088.35
662.55	1091.16
662.89	1100.99
663.23	1117.61
663.57	1104.03
663.91	1117.37
664.25	1115.97
664.60	1114.56
664.94	1121.12
665.28	1129.54
665.62	1115.50
665.96	1102.86
666.30	1093.73
666.64	1079.46
666.98	1089.99
667.32	1106.14
667.66	1109.41
668.01	1110.58
668.35	1107.31
668.69	1097.48
669.03	1086.94
669.37	1093.50
669.71	1094.20
670.05	1094.67
670.39	1092.56
670.73	1084.84
671.07	1079.46
671.41	1077.82
671.75	1085.31
672.09	1081.56
672.43	1084.37
672.77	1087.88
673.11	1083.67
673.45	1072.67
673.79	1076.41
674.13	1076.65
674.47	1077.35
674.81	1078.99
675.15	1075.94
675.49	1078.99
675.83	1088.35
676.17	1082.73
676.51	1085.77
676.85	1083.20
677.19	1075.71
677.53	1070.09
677.87	1066.35
678.21	1064.71
678.55	1078.05
678.89	1078.75
679.23	1081.56
679.57	1089.75
679.90	1089.05
680.24	1088.58
680.58	1098.65
680.92	1093.97
681.26	1097.24
681.60	1098.88
681.94	1098.41
682.28	1085.07
682.62	1089.29
682.96	1081.33
683.29	1080.16
683.63	1073.84
683.97	1083.20
684.31	1089.99
684.65	1092.33
684.99	1091.16
685.33	1096.31
685.67	1091.86
686.00	1091.39
686.34	1087.41
686.68	1086.71
687.02	1086.01
687.36	1089.75
687.70	1079.22
688.03	1082.97
688.37	1091.86
688.71	1093.50
689.05	1093.50
689.39	1094.90
689.72	1097.95
690.06	1086.94
690.40	1082.50
690.74	1077.82
691.08	1078.52
691.41	1066.82
691.75	1069.39
692.09	1078.99
692.43	1080.63
692.76	1086.48
693.10	1095.84
693.44	1100.29
693.78	1091.39
694.11	1096.07
694.45	1084.37
694.79	1072.67
695.13	1069.62
695.46	1070.33
695.80	1065.88
696.14	1074.77
696.48	1078.05
696.81	1075.24
697.15	1086.24
697.49	1090.22
697.82	1094.20
698.16	1095.37
698.50	1098.41
698.83	1092.09
699.17	1090.46
699.51	1089.29
699.84	1092.56
700.18	1091.63
700.52	1085.77
700.85	1088.35
701.19	1094.20
701.53	1096.78
701.86	1105.44
702.20	1096.54
702.54	1094.43
702.87	1088.12
703.21	1078.99
703.55	1072.90
703.88	1083.67
704.22	1089.99
704.55	1091.16
704.89	1104.97
705.23	1100.99
705.56	1098.88
705.90	1088.12
706.23	1090.46
706.57	1083.67
706.91	1090.69
707.24	1093.73
707.58	1096.78
707.91	1086.24
708.25	1083.20
708.58	1079.22
708.92	1083.67
709.26	1078.28
709.59	1073.14
709.93	1079.92
710.26	1074.77
710.60	1067.28
710.93	1065.18
711.27	1080.16
711.60	1081.56
711.94	1094.90
712.27	1091.86
712.61	1096.78
712.94	1093.97
713.28	1090.92
713.61	1081.09
713.95	1093.73
714.28	1095.60
714.62	1086.94
714.95	1085.54
715.29	1081.80
715.62	1070.56
715.96	1062.60
716.29	1067.28
716.63	1076.18
716.96	1082.97
717.29	1090.22
717.63	1108.48
717.96	1110.82
718.30	1099.82
718.63	1101.46
718.97	1100.75
719.30	1093.03
719.63	1096.07
719.97	1098.41
720.30	1102.16
720.64	1105.20
720.97	1102.39
721.30	1099.35
721.64	1095.84
721.97	1086.24
722.31	1088.58
722.64	1092.33
722.97	1084.37
723.31	1081.33
723.64	1079.92
723.97	1069.86
724.31	1067.75
724.64	1068.22
724.98	1075.01
725.31	1075.01
725.64	1078.75
725.98	1076.65
726.31	1077.11
726.64	1071.03
726.97	1069.86
727.31	1065.65
727.64	1067.75
727.97	1072.43
728.31	1079.69
728.64	1086.01
728.97	1091.63
729.31	1092.56
729.64	1089.52
729.97	1088.12
730.30	1085.07
730.64	1077.35
730.97	1080.39
731.30	1081.09
731.63	1079.46
731.97	1079.92
732.30	1089.29
732.63	1090.46
732.96	1091.86
733.30	1104.03
733.63	1097.71
733.96	1097.24
734.29	1080.86
734.63	1074.77
734.96	1056.99
735.29	1062.14
735.62	1054.18
735.95	1063.54
736.29	1068.69
736.62	1072.43
736.95	1068.92
737.28	1074.54
737.61	1082.97
737.94	1075.94
738.28	1073.37
738.61	1086.48
738.94	1086.24
739.27	1076.65
739.60	1084.84
739.93	1094.43
740.27	1091.39
740.60	1084.37
740.93	1093.03
741.26	1090.46
741.59	1093.03
741.92	1087.18
742.25	1084.60
742.58	1071.26
742.91	1083.43
743.25	1076.18
743.58	1072.90
743.91	1080.86
744.24	1082.97
744.57	1074.31
744.90	1076.65
745.23	1089.29
745.56	1091.63
745.89	1098.88
746.22	1100.99
746.55	1098.41
746.88	1084.84
747.21	1086.71
747.54	1082.73
747.87	1074.31
748.20	1067.28
748.53	1073.14
748.87	1064.24
749.20	1072.43
749.53	1084.37
749.86	1095.84
750.19	1097.24
750.52	1103.80
750.85	1095.37
751.18	1087.18
751.51	1082.73
751.84	1071.50
752.16	1065.88
752.49	1063.07
752.82	1068.69
753.15	1075.71
753.48	1092.56
753.81	1104.50
754.14	1111.29
754.47	1106.61
754.80	1093.73
755.13	1086.71
755.46	1073.84
755.79	1061.67
756.12	1065.41
756.45	1072.90
756.78	1076.18
757.11	1078.05
757.43	1080.16
757.76	1077.58
758.09	1075.24
758.42	1073.14
758.75	1073.84
759.08	1089.05
759.41	1081.09
759.74	1076.41
760.07	1075.01
760.39	1085.54
760.72	1077.35
761.05	1078.99
761.38	1084.37
761.71	1095.60
762.04	1083.67
762.36	1079.69
762.69	1080.63
763.02	1079.69
763.35	1075.48
763.68	1080.16
764.01	1086.48
764.33	1093.03
764.66	1098.65
764.99	1090.46
765.32	1083.67
765.65	1082.97
765.97	1077.11
766.30	1075.24
766.63	1079.46
766.96	1079.92
767.28	1087.65
767.61	1086.01
767.94	1086.71
768.27	1084.14
768.59	1086.01
768.92	1071.73
769.25	1073.60
769.58	1066.58
769.90	1067.99
770.23	1081.09
770.56	1087.41
770.89	1099.82
771.21	1104.26
771.54	1105.90
771.87	1089.75
772.19	1084.14
772.52	1074.07
772.85	1078.05
773.17	1086.01
773.50	1090.92
773.83	1090.46
774.15	1091.86
774.48	1087.18
774.81	1082.50
775.13	1082.50
775.46	1091.86
775.79	1089.75
776.11	1086.71
776.44	1081.56
776.77	1080.16
777.09	1076.65
777.42	1074.77
777.74	1075.71
778.07	1079.22
778.40	1085.31
778.72	1080.86
779.05	1088.35
779.37	1096.31
779.70	1092.33
780.03	1090.69
780.35	1107.31
780.68	1094.90
781.00	1096.07
781.33	1082.73
781.65	1076.65
781.98	1071.26
782.31	1077.82
782.63	1066.11
782.96	1073.37
783.28	1078.99
783.61	1064.48
783.93	1071.97
784.26	1079.69
784.58	1085.77
784.91	1091.39
785.23	1097.95
785.56	1089.52
785.88	1078.99
786.21	1071.26
786.53	1061.67
786.86	1062.84
787.18	1059.79
787.51	1064.94
787.83	1070.80
788.16	1061.67
788.48	1062.60
788.81	1071.73
789.13	1067.52
789.46	1071.03
789.78	1076.88
790.10	1067.52
790.43	1063.07
790.75	1061.43
791.08	1065.18
791.40	1063.07
791.73	1075.01
792.05	1079.46
792.37	1086.01
792.70	1075.71
793.02	1084.37
793.35	1082.97
793.67	1083.43
793.99	1085.31
794.32	1089.29
794.64	1089.05
794.96	1099.58
795.29	1090.92
795.61	1100.52
795.93	1098.41
796.26	1098.41
796.58	1083.43
796.91	1089.29
797.23	1075.94
797.55	1073.14
797.87	1067.05
798.20	1067.99
798.52	1075.24
798.84	1082.03
799.17	1092.09
799.49	1091.86
799.81	1095.14
800.14	1089.29
800.46	1092.56
800.78	1080.63
801.10	1084.14
801.43	1086.01
801.75	1085.31
802.07	1065.65
802.40	1070.56
802.72	1059.56
803.04	1055.58
803.36	1056.28
803.69	1075.48
804.01	1067.28
804.33	1077.58
804.65	1071.97
804.97	1066.35
805.30	1060.26
805.62	1060.73
805.94	1065.65
806.26	1072.67
806.58	1069.62
806.91	1065.18
807.23	1075.01
807.55	1076.18
807.87	1081.56
808.19	1090.46
808.52	1089.99
808.84	1082.73
809.16	1089.52
809.48	1084.84
809.80	1086.94
810.12	1093.97
810.44	1111.75
810.77	1098.41
811.09	1092.56
811.41	1082.26
811.73	1080.16
812.05	1079.69
812.37	1081.56
812.69	1093.03
813.01	1099.58
813.33	1097.24
813.66	1097.24
813.98	1099.35
814.30	1084.37
814.62	1081.56
814.94	1084.84
815.26	1070.56
815.58	1064.71
815.90	1074.77
816.22	1074.07
816.54	1075.94
816.86	1075.24
817.18	1090.69
817.50	1088.58
817.82	1093.03
818.14	1079.46
818.46	1087.88
818.78	1069.39
819.10	1066.11
819.42	1068.45
819.74	1075.48
820.06	1074.31
820.38	1081.33
820.70	1078.75
821.02	1061.43
821.34	1064.24
821.66	1056.75
821.98	1052.07
822.30	1054.41
822.62	1060.03
822.94	1055.58
823.26	1055.35
823.58	1059.33
823.90	1060.50
824.22	1062.60
824.54	1074.54
824.86	1075.48
825.18	1083.67
825.50	1091.86
825.81	1087.41
826.13	1086.94
826.45	1084.37
826.77	1075.48
827.09	1069.39
827.41	1075.24
827.73	1064.24
828.05	1067.05
828.36	1069.16
828.68	1064.48
829.00	1062.60
829.32	1067.99
829.64	1075.94
829.96	1080.63
830.28	1093.03
830.59	1097.24
830.91	1089.29
831.23	1088.12
831.55	1082.03
831.87	1078.52
832.19	1080.86
832.50	1088.12
832.82	1093.03
833.14	1086.01
833.46	1076.88
833.78	1077.35
834.09	1075.01
834.41	1069.62
834.73	1076.88
835.05	1076.88
835.36	1069.16
835.68	1079.22
836.00	1079.46
836.32	1081.56
836.63	1083.67
836.95	1095.60
837.27	1087.65
837.59	1085.54
837.90	1087.65
838.22	1091.86
838.54	1095.84
838.85	1086.71
839.17	1083.90
839.49	1082.03
839.80	1082.03
840.12	1065.18
840.44	1078.99
840.76	1078.99
841.07	1084.37
841.39	1084.14
841.71	1091.86
842.02	1083.43
842.34	1081.56
842.65	1073.84
842.97	1063.07
843.29	1069.16
843.60	1071.97
843.92	1068.69
844.24	1072.90
844.55	1075.94
844.87	1068.69
845.18	1061.67
845.50	1070.33
845.82	1074.07
846.13	1090.22
846.45	1093.50
846.76	1094.43
847.08	1093.03
847.40	1086.94
847.71	1074.07
848.03	1072.90
848.34	1087.18
848.66	1075.48
848.97	1069.86
849.29	1070.33
849.60	1060.73
849.92	1055.82
850.24	1076.41
850.55	1085.07
850.87	1086.01
851.18	1095.84
851.50	1096.31
851.81	1086.01
852.13	1078.75
852.44	1079.22
852.76	1079.92
853.07	1074.77
853.39	1073.37
853.70	1077.82
854.01	1073.14
854.33	1069.16
854.64	1075.71
854.96	1079.46
855.27	1074.54
855.59	1077.82
855.90	1080.63
856.22	1076.41
856.53	1082.26
856.84	1089.29
857.16	1086.24
857.47	1080.39
857.79	1078.52
858.10	1066.58
858.41	1061.20
858.73	1063.54
859.04	1074.07
859.36	1080.39
859.67	1088.58
859.98	1098.18
860.30	1102.86
860.61	1095.37
860.92	1090.92
861.24	1074.77
861.55	1070.56
861.87	1066.11
862.18	1071.03
862.49	1066.82
862.81	1080.16
863.12	1082.50
863.43	1083.90
863.74	1075.94
864.06	1086.71
864.37	1096.07
864.68	1089.29
865.00	1097.95
865.31	1099.82
865.62	1093.97
865.94	1076.88
866.25	1065.65
866.56	1051.60
866.87	1054.65
867.19	1056.05
867.50	1057.45
867.81	1065.65
868.12	1074.31
868.44	1074.31
868.75	1076.18
869.06	1091.63
869.37	1098.41
869.68	1091.16
870.00	1094.20
870.31	1095.37
870.62	1083.90
870.93	1077.58
871.24	1085.07
871.56	1081.33
871.87	1075.24
872.18	1070.33
872.49	1072.90
872.80	1066.58
873.12	1064.24
873.43	1065.65
873.74	1077.11
874.05	1072.90
874.36	1074.54
874.67	1079.92
874.98	1082.26
875.29	1076.41
875.61	1082.50
875.92	1084.37
876.23	1081.80
876.54	1075.94
876.85	1085.54
877.16	1081.09
877.47	1075.01
877.78	1067.52
878.09	1067.99
878.40	1065.88
878.72	1073.14
879.03	1081.80
879.34	1089.05
879.65	1092.09
879.96	1097.01
880.27	1096.54
880.58	1099.12
880.89	1096.78
881.20	1099.82
881.51	1092.33
881.82	1091.63
882.13	1086.94
882.44	1079.69
882.75	1085.77
883.06	1078.99
883.37	1081.09
883.68	1073.14
883.99	1075.71
884.30	1066.82
884.61	1076.41
884.92	1074.07
885.23	1076.18
885.54	1084.84
885.85	1085.54
886.16	1074.54
886.47	1076.41
886.78	1082.50
887.08	1076.41
887.39	1078.75
887.70	1080.63
888.01	1083.90
888.32	1082.50
888.63	1083.90
888.94	1086.48
889.25	1095.37
889.56	1084.37
889.87	1085.07
890.17	1085.77
890.48	1075.71
890.79	1066.82
891.10	1067.52
891.41	1066.58
891.72	1071.97
892.03	1083.43
892.34	1082.26
892.64	1083.67
892.95	1080.63
893.26	1073.84
893.57	1055.82
893.88	1053.94
894.18	1055.82
894.49	1057.22
894.80	1056.28
895.11	1061.90
895.42	1069.86
895.72	1077.82
896.03	1077.35
896.34	1083.67
896.65	1088.12
896.96	1092.56
897.26	1078.52
897.57	1088.35
897.88	1091.63
898.19	1089.75
898.49	1081.33
898.80	1086.24
899.11	1076.65
899.41	1075.24
899.72	1080.86
900.03	1070.80
900.34	1066.82
900.64	1075.71
900.95	1070.80
901.26	1069.86
901.56	1086.24
901.87	1096.78
902.18	1093.97
902.48	1092.33
902.79	1086.94
903.10	1078.05
903.40	1072.20
903.71	1070.09
904.02	1072.43
904.32	1076.18
904.63	1076.65
904.94	1083.67
905.24	1081.33
905.55	1083.20
905.85	1088.35
906.16	1087.65
906.47	1078.75
906.77	1074.31
907.08	1081.33
907.38	1073.84
907.69	1070.56
908.00	1073.84
908.30	1087.18
908.61	1076.41
908.91	1076.41
909.22	1083.20
909.52	1078.28
909.83	1067.28
910.14	1066.58
910.44	1063.77
910.75	1063.77
911.05	1075.94
911.36	1077.35
911.66	1084.60
911.97	1085.31
912.27	1085.54
912.58	1077.82
912.88	1078.05
913.19	1071.97
913.49	1067.05
913.80	1070.33
914.10	1074.77
914.41	1076.41
914.71	1078.99
915.01	1086.48
915.32	1075.48
915.62	1059.09
915.93	1060.26
916.23	1062.84
916.54	1061.90
916.84	1069.16
917.15	1081.56
917.45	1087.65
917.75	1092.56
918.06	1097.95
918.36	1095.84
918.67	1095.14
918.97	1080.39
919.27	1066.58
919.58	1067.99
919.88	1069.16
920.18	1060.50
920.49	1064.01
920.79	1071.73
921.10	1080.86
921.40	1074.54
921.70	1076.41
922.01	1077.82
922.31	1071.50
922.61	1065.41
922.92	1068.45
923.22	1074.54
923.52	1078.05
923.82	1082.73
924.13	1072.20
924.43	1083.67
924.73	1082.97
925.04	1079.69
925.34	1072.67
925.64	1077.11
925.94	1068.92
926.25	1075.24
926.55	1071.97
926.85	1077.58
927.15	1076.65
927.46	1080.63
927.76	1076.88
928.06	1082.03
928.36	1077.82
928.67	1074.54
928.97	1063.77
929.27	1070.09
929.57	1068.92
929.87	1071.26
930.18	1072.20
930.48	1076.88
930.78	1067.75
931.08	1062.14
931.38	1067.75
931.69	1062.84
931.99	1064.71
932.29	1064.01
932.59	1076.18
932.89	1073.14
933.19	1077.58
933.49	1072.43
933.80	1081.56
934.10	1088.82
934.40	1088.58
934.70	1100.52
935.00	1110.35
935.30	1106.84
935.60	1092.09
935.90	1088.58
936.20	1080.86
936.50	1081.09
936.81	1073.60
937.11	1076.65
937.41	1076.41
937.71	1076.65
938.01	1071.97
938.31	1070.33
938.61	1068.92
938.91	1076.88
939.21	1070.56
939.51	1071.73
939.81	1072.43
940.11	1075.48
940.41	1068.22
940.71	1066.58
941.01	1064.24
941.31	1069.62
941.61	1059.09
941.91	1058.62
942.21	1064.48
942.51	1062.14
942.81	1061.43
943.11	1069.62
943.41	1078.99
943.71	1075.48
944.01	1078.99
944.31	1084.84
944.61	1093.03
944.90	1086.48
945.20	1091.63
945.50	1103.33
945.80	1099.82
946.10	1089.99
946.40	1099.35
946.70	1096.07
947.00	1092.56
947.30	1082.73
947.60	1084.84
947.89	1075.24
948.19	1083.43
948.49	1072.43
948.79	1072.20
949.09	1075.71
949.39	1083.43
949.69	1078.28
949.98	1074.07
950.28	1079.69
950.58	1078.28
950.88	1070.33
951.18	1076.18
951.48	1093.03
951.77	1101.92
952.07	1107.54
952.37	1104.97
952.67	1094.20
952.97	1084.84
953.26	1089.75
953.56	1078.28
953.86	1082.73
954.16	1086.48
954.45	1081.33
954.75	1065.65
955.05	1071.73
955.35	1073.60
955.64	1066.11
955.94	1068.22
956.24	1078.28
956.54	1074.31
956.83	1076.65
957.13	1077.11
957.43	1087.65
957.72	1074.31
958.02	1065.18
958.32	1056.52
958.61	1067.52
958.91	1056.99
959.21	1064.48
959.50	1069.39
959.80	1073.60
960.10	1071.03
960.39	1068.92
960.69	1073.60
960.99	1074.77
961.28	1084.84
961.58	1094.20
961.87	1095.60
962.17	1093.73
962.47	1090.22
962.76	1082.26
963.06	1073.84
963.36	1080.16
963.65	1085.54
963.95	1093.97
964.24	1098.65
964.54	1099.12
964.83	1097.71
965.13	1080.39
965.42	1080.63
965.72	1078.99
966.02	1089.75
966.31	1081.09
966.61	1093.97
966.90	1098.18
967.20	1097.01
967.49	1079.92
967.79	1092.33
968.08	1093.97
968.38	1093.03
968.67	1087.65
968.97	1091.63
969.26	1079.69
969.56	1079.46
969.85	1070.33
970.15	1068.22
970.44	1070.56
970.74	1072.20
971.03	1067.05
971.32	1073.14
971.62	1073.84
971.91	1079.69
972.21	1077.35
972.50	1075.48
972.80	1071.03
973.09	1073.14
973.38	1072.43
973.68	1080.39
973.97	1074.31
974.27	1072.67
974.56	1068.22
974.85	1050.20
975.15	1050.43
975.44	1063.07
975.73	1066.11
976.03	1067.75
976.32	1075.71
976.61	1075.01
976.91	1067.99
977.20	1077.58
977.49	1075.94
977.79	1074.54
978.08	1082.03
978.37	1089.52
978.67	1071.73
978.96	1076.65
979.25	1082.26
979.55	1078.28
979.84	1067.99
980.13	1079.69
980.42	1077.58
980.72	1073.84
981.01	1072.43
981.30	1070.56
981.59	1058.16
981.89	1069.62
982.18	1071.50
982.47	1069.16
982.76	1068.22
983.06	1069.62
983.35	1064.94
983.64	1062.84
983.93	1061.20
984.22	1068.92
984.52	1077.11
984.81	1077.58
985.10	1080.86
985.39	1089.99
985.68	1093.50
985.97	1096.07
986.27	1092.09
986.56	1094.20
986.85	1091.63
987.14	1084.60
987.43	1086.94
987.72	1089.05
988.01	1086.71
988.31	1088.35
988.60	1094.43
988.89	1090.22
989.18	1086.01
989.47	1082.97
989.76	1078.75
990.05	1070.09
990.34	1064.01
990.63	1069.39
990.92	1067.05
991.21	1066.58
991.51	1069.62
991.80	1078.75
992.09	1075.48
992.38	1086.94
992.67	1092.09
992.96	1098.65
993.25	1095.14
993.54	1095.60
993.83	1098.41
994.12	1089.05
994.41	1081.80
994.70	1087.65
994.99	1086.94
995.28	1080.63
995.57	1083.43
995.86	1089.52
996.15	1086.94
996.44	1088.12
996.73	1078.52
997.02	1076.65
997.31	1076.88
997.59	1076.18
997.88	1074.54
998.17	1079.92
998.46	1083.20
998.75	1094.43
999.04	1096.07
999.33	1085.31
999.62	1088.12
999.91	1083.20
1000.20	1069.16
1000.49	1069.62
1000.77	1083.20
1001.06	1085.07
1001.35	1084.14
1001.64	1083.67
1001.93	1085.07
1002.22	1078.99
1002.51	1076.88
1002.79	1080.86
1003.08	1090.46
1003.37	1082.50
1003.66	1081.09
1003.95	1077.82
1004.23	1068.22
1004.52	1063.77
1004.81	1065.41
1005.10	1075.01
1005.39	1078.52
1005.67	1085.07
1005.96	1078.99
1006.25	1076.18
1006.54	1064.48
1006.83	1064.94
1007.11	1071.97
1007.40	1077.11
1007.69	1075.24
1007.97	1075.48
1008.26	1069.62
1008.55	1067.05
1008.84	1065.65
1009.12	1067.52
1009.41	1076.65
1009.70	1073.84
1009.98	1078.75
1010.27	1080.39
1010.56	1095.60
1010.85	1099.12
1011.13	1105.67
1011.42	1104.97
1011.71	1103.56
1011.99	1092.80
1012.28	1082.50
1012.56	1088.12
1012.85	1087.65
1013.14	1091.16
1013.42	1084.37
1013.71	1089.99
1014.00	1092.33
1014.28	1092.80
1014.57	1082.73
1014.85	1094.67
1015.14	1095.37
1015.43	1087.41
1015.71	1086.48
1016.00	1095.37
1016.28	1085.54
1016.57	1080.86
1016.85	1079.46
1017.14	1080.86
1017.43	1075.01
1017.71	1080.63
1018.00	1082.73
1018.28	1080.86
1018.57	1078.28
1018.85	1070.56
1019.14	1066.35
1019.42	1064.71
1019.71	1068.69
1019.99	1063.54
1020.28	1072.90
1020.56	1079.46
1020.85	1091.86
1021.13	1098.18
1021.42	1094.67
1021.70	1090.92
1021.99	1091.86
1022.27	1080.39
1022.55	1102.39
1022.84	1073.14
>>>>>End Processed Spectral Data<<<<<
