SpectraSuite Data File
++++++++++++++++++++++++++++++++++++
Date: Mon Aug 26 10:24:35 PDT 2019
User: corrico
Dark Spectrum Present: No
Reference Spectrum Present: No
Number of Sampled Component Spectra: 1
Spectrometers: USB2+H06089
Integration Time (usec): 10000 (USB2+H06089)
Spectra Averaged: 2 (USB2+H06089)
Boxcar Smoothing: 2 (USB2+H06089)
Correct for Electrical Dark: No (USB2+H06089)
Strobe/Lamp Enabled: No (USB2+H06089)
Correct for Detector Non-linearity: No (USB2+H06089)
Correct for Stray Light: No (USB2+H06089)
Number of Pixels in Processed Spectrum: 2048
>>>>>Begin Processed Spectral Data<<<<<
339.70	1019.30
340.07	1019.30
340.45	985.13
340.82	954.24
341.19	936.21
341.57	905.79
341.94	892.91
342.31	883.79
342.69	893.38
343.06	881.21
343.43	878.64
343.81	877.70
344.18	895.72
344.55	887.30
344.93	898.53
345.30	908.13
345.67	924.51
346.04	918.89
346.42	935.51
346.79	950.26
347.16	959.85
347.54	957.75
347.91	970.85
348.28	985.13
348.65	989.11
349.03	999.41
349.40	1014.15
349.77	1027.26
350.14	1038.73
350.52	1048.56
350.89	1063.77
351.26	1065.41
351.63	1070.09
352.01	1068.45
352.38	1077.11
352.75	1078.99
353.12	1084.37
353.50	1090.92
353.87	1102.16
354.24	1098.18
354.61	1113.86
354.98	1119.95
355.36	1108.01
355.73	1109.65
356.10	1110.58
356.47	1100.05
356.84	1100.29
357.22	1109.88
357.59	1098.18
357.96	1090.92
358.33	1087.65
358.70	1089.29
359.08	1081.33
359.45	1079.92
359.82	1081.09
360.19	1082.50
360.56	1085.77
360.94	1093.73
361.31	1095.14
361.68	1088.82
362.05	1087.41
362.42	1084.60
362.79	1088.12
363.16	1086.01
363.54	1095.84
363.91	1095.84
364.28	1087.18
364.65	1085.77
365.02	1081.56
365.39	1086.71
365.76	1080.16
366.14	1084.84
366.51	1093.26
366.88	1113.39
367.25	1101.69
367.62	1107.31
367.99	1113.63
368.36	1097.48
368.73	1081.33
369.10	1090.46
369.48	1089.75
369.85	1083.43
370.22	1093.97
370.59	1101.22
370.96	1108.95
371.33	1104.97
371.70	1104.03
372.07	1098.65
372.44	1097.95
372.81	1089.99
373.18	1095.14
373.55	1087.65
373.93	1080.16
374.30	1077.35
374.67	1076.18
375.04	1078.75
375.41	1094.90
375.78	1106.61
376.15	1095.37
376.52	1104.03
376.89	1099.58
377.26	1087.65
377.63	1076.88
378.00	1091.63
378.37	1082.73
378.74	1086.48
379.11	1091.63
379.48	1095.60
379.85	1094.67
380.22	1101.22
380.59	1092.80
380.96	1096.31
381.33	1100.52
381.70	1095.60
382.07	1082.97
382.44	1089.75
382.81	1089.75
383.18	1090.92
383.55	1093.03
383.92	1104.03
384.29	1105.90
384.66	1103.09
385.03	1111.29
385.40	1112.69
385.77	1104.26
386.14	1104.97
386.51	1111.05
386.88	1115.03
387.25	1119.48
387.62	1123.46
387.99	1114.10
388.36	1108.48
388.73	1097.95
389.10	1100.05
389.46	1102.63
389.83	1106.37
390.20	1114.10
390.57	1123.22
390.94	1127.20
391.31	1125.80
391.68	1130.48
392.05	1128.14
392.42	1122.52
392.79	1118.54
393.16	1126.97
393.53	1132.12
393.89	1136.80
394.26	1130.71
394.63	1138.20
395.00	1134.69
395.37	1134.93
395.74	1126.03
396.11	1142.42
396.48	1134.69
396.84	1133.99
397.21	1128.61
397.58	1139.37
397.95	1143.59
398.32	1146.39
398.69	1152.01
399.06	1158.33
399.42	1155.05
399.79	1147.80
400.16	1152.01
400.53	1156.93
400.90	1168.86
401.27	1182.67
401.64	1181.97
402.00	1198.35
402.37	1207.01
402.74	1214.50
403.11	1209.59
403.48	1218.01
403.84	1218.48
404.21	1218.72
404.58	1227.14
404.95	1254.06
405.32	1266.46
405.68	1286.36
406.05	1317.72
406.42	1327.08
406.79	1339.96
407.16	1355.64
407.52	1368.51
407.89	1378.11
408.26	1411.81
408.63	1431.47
408.99	1462.60
409.36	1495.60
409.73	1530.48
410.10	1555.99
410.47	1595.54
410.83	1637.67
411.20	1679.80
411.57	1737.61
411.94	1790.51
412.30	1863.77
412.67	1932.58
413.04	1992.97
413.40	2070.20
413.77	2168.97
414.14	2229.83
414.51	2316.66
414.87	2412.86
415.24	2500.63
415.61	2601.04
415.97	2728.60
416.34	2865.05
416.71	3007.12
417.08	3160.66
417.44	3287.75
417.81	3448.55
418.18	3594.13
418.54	3767.79
418.91	3930.93
419.28	4144.62
419.64	4337.25
420.01	4567.32
420.38	4800.91
420.74	5074.05
421.11	5352.34
421.48	5643.03
421.84	5972.58
422.21	6288.08
422.58	6638.93
422.94	7011.78
423.31	7378.30
423.68	7775.96
424.04	8206.62
424.41	8602.87
424.77	9003.57
425.14	9485.26
425.51	9978.64
425.87	10548.33
426.24	11133.46
426.61	11771.49
426.97	12469.67
427.34	13073.30
427.70	13775.69
428.07	14476.92
428.44	15270.36
428.80	16055.37
429.17	16922.78
429.53	17658.41
429.90	18642.13
430.27	19452.19
430.63	20249.85
431.00	21132.70
431.36	22175.87
431.73	22965.34
432.09	23902.49
432.46	25002.30
432.83	26028.63
433.19	26952.20
433.56	28051.09
433.92	29072.50
434.29	29971.73
434.65	30931.12
435.02	31762.47
435.38	32634.56
435.75	33388.44
436.11	34228.23
436.48	34930.86
436.84	35812.54
437.21	36426.23
437.57	36978.12
437.94	37405.97
438.30	37766.18
438.67	37914.34
439.03	38114.45
439.40	38337.98
439.76	38323.23
440.13	38260.97
440.49	38145.35
440.86	37730.14
441.22	37464.49
441.59	36995.68
441.95	36543.25
442.32	35926.99
442.68	35507.57
443.05	34762.10
443.41	34084.52
443.78	33252.69
444.14	32409.87
444.51	31431.76
444.87	30747.15
445.24	29931.24
445.60	29209.65
445.96	28479.40
446.33	27824.05
446.69	26873.09
447.06	26092.76
447.42	25336.30
447.79	24529.28
448.15	23811.21
448.51	23146.26
448.88	22592.26
449.24	21870.67
449.61	21443.75
449.97	20860.73
450.33	20383.02
450.70	19745.93
451.06	19293.74
451.43	18676.07
451.79	18220.84
452.15	17657.47
452.52	17249.98
452.88	16813.24
453.24	16438.05
453.61	16056.78
453.97	15682.53
454.34	15244.14
454.70	14915.30
455.06	14537.77
455.43	14070.83
455.79	13564.81
456.15	13183.07
456.52	12674.23
456.88	12286.88
457.24	11864.41
457.61	11590.80
457.97	11239.95
458.33	10907.83
458.70	10522.58
459.06	10149.50
459.42	9777.12
459.79	9409.19
460.15	9074.26
460.51	8781.46
460.88	8554.19
461.24	8276.37
461.60	8022.19
461.96	7772.22
462.33	7525.76
462.69	7265.02
463.05	7069.59
463.42	6883.05
463.78	6713.36
464.14	6519.33
464.50	6368.83
464.87	6229.57
465.23	6071.58
465.59	5906.11
465.95	5773.40
466.32	5613.77
466.68	5445.26
467.04	5297.80
467.40	5164.63
467.77	5042.68
468.13	4937.59
468.49	4841.63
468.85	4737.95
469.22	4662.11
469.58	4547.43
469.94	4445.15
470.30	4321.57
470.66	4230.28
471.03	4118.41
471.39	4040.70
471.75	3959.72
472.11	3897.69
472.47	3837.07
472.84	3774.35
473.20	3695.24
473.56	3642.11
473.92	3581.02
474.28	3525.08
474.65	3470.78
475.01	3415.31
475.37	3326.37
475.73	3263.17
476.09	3179.38
476.45	3106.12
476.81	3069.38
477.18	3036.14
477.54	2971.08
477.90	2941.35
478.26	2910.69
478.62	2850.77
478.98	2783.37
479.34	2755.75
479.71	2689.51
480.07	2638.95
480.43	2597.99
480.79	2580.91
481.15	2544.40
481.51	2546.74
481.87	2527.78
482.23	2491.97
482.59	2447.73
482.96	2405.60
483.32	2359.96
483.68	2313.85
484.04	2296.53
484.40	2277.58
484.76	2265.40
485.12	2241.77
485.48	2212.98
485.84	2190.27
486.20	2166.17
486.56	2128.48
486.92	2110.70
487.28	2094.08
487.64	2049.84
488.00	2027.84
488.37	2011.69
488.73	1978.22
489.09	1943.35
489.45	1934.22
489.81	1903.56
490.17	1859.32
490.53	1826.09
490.89	1805.72
491.25	1785.36
491.61	1764.76
491.97	1764.06
492.33	1751.89
492.69	1737.61
493.05	1698.53
493.41	1669.97
493.77	1637.20
494.13	1612.63
494.49	1600.22
494.85	1592.03
495.21	1589.22
495.57	1585.95
495.93	1576.12
496.29	1557.86
496.64	1545.69
497.00	1533.28
497.36	1522.28
497.72	1511.99
498.08	1507.77
498.44	1504.26
498.80	1494.67
499.16	1479.22
499.52	1467.98
499.88	1454.17
500.24	1434.98
500.60	1426.79
500.96	1420.24
501.32	1411.81
501.68	1393.55
502.03	1385.60
502.39	1369.68
502.75	1364.77
503.11	1356.57
503.47	1342.30
503.83	1348.15
504.19	1341.13
504.55	1324.28
504.91	1316.32
505.26	1325.68
505.62	1307.66
505.98	1293.61
506.34	1294.55
506.70	1284.25
507.06	1264.36
507.42	1272.55
507.78	1277.70
508.13	1274.19
508.49	1281.44
508.85	1282.38
509.21	1269.51
509.57	1261.08
509.93	1251.95
510.28	1236.74
510.64	1235.10
511.00	1240.95
511.36	1244.70
511.72	1243.06
512.07	1242.59
512.43	1241.65
512.79	1230.89
513.15	1219.65
513.51	1212.87
513.86	1207.72
514.22	1196.72
514.58	1183.37
514.94	1181.74
515.30	1181.74
515.65	1178.69
516.01	1184.08
516.37	1193.21
516.73	1196.48
517.08	1190.16
517.44	1191.33
517.80	1191.80
518.16	1181.74
518.51	1176.12
518.87	1180.10
519.23	1180.80
519.59	1180.80
519.94	1185.01
520.30	1176.12
520.66	1170.97
521.01	1169.33
521.37	1154.59
521.73	1148.03
522.09	1153.65
522.44	1154.59
522.80	1144.05
523.16	1148.03
523.51	1141.95
523.87	1141.01
524.23	1140.07
524.58	1149.20
524.94	1148.03
525.30	1155.29
525.65	1154.12
526.01	1153.65
526.37	1154.59
526.72	1157.39
527.08	1143.12
527.44	1131.18
527.79	1131.65
528.15	1119.48
528.51	1124.63
528.86	1139.37
529.22	1146.86
529.58	1151.54
529.93	1163.95
530.29	1155.29
530.65	1152.71
531.00	1156.69
531.36	1148.27
531.71	1142.88
532.07	1145.93
532.43	1144.05
532.78	1139.37
533.14	1141.01
533.49	1147.80
533.85	1147.10
534.21	1143.35
534.56	1145.69
534.92	1145.69
535.27	1139.61
535.63	1142.88
535.98	1142.42
536.34	1142.65
536.69	1138.90
537.05	1133.99
537.41	1129.78
537.76	1126.03
538.12	1123.69
538.47	1129.54
538.83	1135.16
539.18	1131.88
539.54	1137.50
539.89	1136.33
540.25	1128.61
540.60	1119.01
540.96	1108.24
541.31	1109.41
541.67	1112.69
542.02	1109.65
542.38	1120.41
542.73	1121.82
543.09	1115.27
543.44	1118.54
543.80	1127.44
544.15	1122.05
544.51	1141.95
544.86	1142.18
545.22	1140.78
545.57	1133.52
545.93	1126.97
546.28	1118.07
546.64	1114.09
546.99	1108.95
547.35	1105.90
547.70	1103.09
548.05	1097.48
548.41	1100.75
548.76	1112.69
549.12	1120.41
549.47	1121.12
549.83	1125.80
550.18	1123.69
550.53	1110.12
550.89	1108.48
551.24	1113.39
551.60	1107.31
551.95	1104.26
552.30	1107.07
552.66	1104.97
553.01	1102.63
553.37	1107.07
553.72	1109.18
554.07	1107.78
554.43	1106.84
554.78	1104.73
555.13	1106.84
555.49	1110.58
555.84	1113.39
556.19	1116.44
556.55	1125.33
556.90	1118.07
557.26	1112.22
557.61	1115.97
557.96	1112.69
558.32	1100.75
558.67	1104.26
559.02	1105.90
559.37	1103.80
559.73	1108.01
560.08	1112.92
560.43	1115.97
560.79	1119.24
561.14	1110.12
561.49	1105.20
561.85	1096.78
562.20	1094.90
562.55	1101.46
562.90	1113.39
563.26	1105.20
563.61	1110.35
563.96	1104.03
564.32	1098.41
564.67	1089.75
565.02	1095.37
565.37	1093.50
565.73	1096.54
566.08	1087.18
566.43	1089.29
566.78	1097.01
567.14	1108.01
567.49	1115.27
567.84	1119.95
568.19	1119.24
568.54	1110.82
568.90	1100.29
569.25	1096.31
569.60	1104.03
569.95	1108.01
570.31	1104.26
570.66	1107.54
571.01	1100.29
571.36	1089.75
571.71	1083.43
572.06	1091.16
572.42	1085.07
572.77	1095.84
573.12	1095.60
573.47	1083.67
573.82	1088.82
574.18	1093.03
574.53	1087.18
574.88	1091.39
575.23	1100.29
575.58	1098.88
575.93	1106.84
576.28	1111.05
576.64	1108.71
576.99	1108.95
577.34	1102.39
577.69	1095.84
578.04	1089.52
578.39	1097.48
578.74	1097.95
579.09	1093.97
579.44	1093.26
579.80	1093.73
580.15	1099.35
580.50	1105.90
580.85	1116.67
581.20	1122.29
581.55	1123.46
581.90	1122.05
582.25	1119.01
582.60	1119.71
582.95	1110.35
583.30	1109.18
583.65	1101.22
584.00	1106.37
584.35	1096.07
584.71	1104.03
585.06	1105.67
585.41	1105.20
585.76	1102.86
586.11	1107.78
586.46	1104.03
586.81	1105.90
587.16	1098.41
587.51	1087.41
587.86	1091.16
588.21	1092.33
588.56	1092.33
588.91	1102.63
589.26	1108.95
589.61	1103.56
589.96	1101.22
590.31	1104.26
590.66	1093.03
591.01	1093.03
591.36	1098.41
591.71	1100.29
592.06	1094.43
592.41	1105.44
592.76	1100.75
593.10	1094.20
593.45	1097.48
593.80	1096.54
594.15	1088.58
594.50	1086.94
594.85	1094.90
595.20	1091.86
595.55	1083.20
595.90	1085.07
596.25	1087.88
596.60	1078.99
596.95	1074.31
597.30	1081.56
597.64	1130.95
597.99	1140.07
598.34	1133.29
598.69	1135.39
599.04	1136.10
599.39	1092.56
599.74	1086.94
600.09	1093.97
600.44	1094.20
600.78	1102.63
601.13	1092.56
601.48	1092.80
601.83	1100.75
602.18	1101.22
602.53	1092.56
602.88	1098.41
603.22	1098.41
603.57	1088.58
603.92	1092.80
604.27	1101.46
604.62	1100.29
604.97	1095.14
605.31	1097.71
605.66	1095.84
606.01	1084.37
606.36	1083.67
606.71	1083.90
607.05	1083.90
607.40	1077.35
607.75	1088.82
608.10	1081.33
608.44	1085.54
608.79	1093.03
609.14	1102.39
609.49	1100.05
609.84	1111.29
610.18	1121.12
610.53	1117.61
610.88	1115.27
611.23	1119.48
611.57	1115.50
611.92	1109.88
612.27	1103.09
612.62	1098.88
612.96	1088.82
613.31	1092.09
613.66	1089.75
614.00	1093.03
614.35	1090.22
614.70	1086.71
615.05	1090.22
615.39	1090.22
615.74	1088.35
616.09	1094.20
616.43	1103.80
616.78	1105.44
617.13	1103.80
617.47	1102.39
617.82	1107.07
618.17	1099.82
618.51	1088.58
618.86	1091.39
619.21	1104.26
619.55	1097.48
619.90	1100.29
620.25	1109.88
620.59	1113.63
620.94	1098.41
621.29	1096.31
621.63	1088.35
621.98	1085.77
622.32	1081.80
622.67	1084.60
623.02	1078.28
623.36	1090.92
623.71	1089.29
624.05	1082.26
624.40	1078.05
624.75	1083.90
625.09	1083.20
625.44	1086.94
625.78	1099.12
626.13	1103.09
626.48	1092.80
626.82	1089.52
627.17	1082.03
627.51	1073.14
627.86	1074.31
628.20	1087.18
628.55	1075.94
628.89	1082.50
629.24	1088.58
629.58	1093.03
629.93	1096.78
630.28	1118.54
630.62	1117.61
630.97	1111.52
631.31	1104.03
631.66	1102.16
632.00	1086.24
632.35	1084.60
632.69	1085.31
633.04	1094.67
633.38	1095.84
633.73	1094.90
634.07	1102.86
634.42	1108.48
634.76	1091.63
635.11	1093.26
635.45	1095.14
635.79	1080.63
636.14	1075.01
636.48	1086.94
636.83	1085.54
637.17	1088.82
637.52	1094.67
637.86	1088.35
638.21	1091.39
638.55	1090.22
638.89	1086.48
639.24	1089.29
639.58	1089.52
639.93	1083.67
640.27	1081.09
640.61	1083.43
640.96	1081.09
641.30	1091.86
641.65	1087.18
641.99	1077.58
642.33	1078.75
642.68	1069.86
643.02	1055.35
643.37	1065.18
643.71	1071.50
644.05	1083.90
644.40	1102.86
644.74	1110.12
645.08	1107.07
645.43	1113.16
645.77	1099.58
646.11	1081.33
646.46	1081.33
646.80	1089.52
647.14	1088.82
647.49	1088.35
647.83	1097.95
648.17	1107.31
648.52	1093.03
648.86	1086.48
649.20	1084.84
649.55	1084.60
649.89	1069.39
650.23	1073.37
650.57	1079.92
650.92	1085.07
651.26	1083.43
651.60	1091.39
651.95	1097.48
652.29	1097.48
652.63	1091.39
652.97	1077.11
653.32	1069.86
653.66	1058.39
654.00	1053.94
654.34	1059.33
654.69	1070.33
655.03	1074.31
655.37	1087.88
655.71	1089.29
656.05	1086.01
656.40	1086.71
656.74	1099.12
657.08	1084.37
657.42	1086.94
657.76	1089.75
658.11	1096.78
658.45	1087.88
658.79	1089.52
659.13	1086.24
659.47	1089.29
659.82	1090.92
660.16	1087.65
660.50	1090.46
660.84	1089.52
661.18	1076.65
661.52	1072.20
661.87	1070.80
662.21	1075.01
662.55	1076.65
662.89	1087.65
663.23	1086.01
663.57	1085.31
663.91	1083.20
664.25	1087.65
664.60	1085.54
664.94	1085.54
665.28	1091.39
665.62	1086.94
665.96	1085.31
666.30	1082.50
666.64	1084.84
666.98	1086.71
667.32	1094.20
667.66	1082.73
668.01	1085.31
668.35	1086.48
668.69	1078.52
669.03	1075.48
669.37	1088.58
669.71	1088.58
670.05	1091.16
670.39	1096.54
670.73	1097.01
671.07	1084.37
671.41	1084.37
671.75	1084.60
672.09	1074.31
672.43	1070.80
672.77	1088.82
673.11	1094.20
673.45	1092.56
673.79	1100.52
674.13	1102.86
674.47	1090.92
674.81	1079.22
675.15	1068.69
675.49	1073.37
675.83	1073.60
676.17	1072.67
676.51	1078.75
676.85	1079.22
677.19	1070.33
677.53	1069.62
677.87	1060.96
678.21	1057.92
678.55	1060.03
678.89	1069.62
679.23	1081.56
679.57	1093.97
679.90	1096.78
680.24	1095.84
680.58	1090.92
680.92	1096.78
681.26	1101.92
681.60	1093.73
681.94	1101.22
682.28	1110.82
682.62	1096.54
682.96	1098.41
683.29	1115.27
683.63	1107.31
683.97	1111.29
684.31	1116.20
684.65	1113.63
684.99	1106.61
685.33	1106.84
685.67	1096.07
686.00	1091.86
686.34	1086.71
686.68	1081.09
687.02	1075.71
687.36	1065.18
687.70	1064.94
688.03	1078.75
688.37	1084.14
688.71	1088.35
689.05	1098.65
689.39	1092.80
689.72	1080.39
690.06	1074.54
690.40	1080.16
690.74	1080.86
691.08	1082.97
691.41	1082.73
691.75	1088.58
692.09	1090.92
692.43	1092.09
692.76	1100.75
693.10	1100.29
693.44	1100.05
693.78	1103.56
694.11	1097.95
694.45	1096.54
694.79	1104.97
695.13	1100.05
695.46	1104.73
695.80	1106.84
696.14	1104.26
696.48	1098.88
696.81	1105.20
697.15	1092.33
697.49	1086.94
697.82	1081.09
698.16	1075.94
698.50	1070.33
698.83	1067.05
699.17	1073.60
699.51	1077.82
699.84	1070.56
700.18	1074.31
700.52	1076.88
700.85	1090.22
701.19	1087.18
701.53	1100.99
701.86	1101.22
702.20	1110.35
702.54	1097.71
702.87	1100.05
703.21	1095.84
703.55	1097.48
703.88	1086.94
704.22	1087.65
704.55	1097.48
704.89	1097.95
705.23	1102.63
705.56	1109.18
705.90	1101.46
706.23	1090.92
706.57	1089.52
706.91	1082.97
707.24	1079.22
707.58	1078.99
707.91	1071.03
708.25	1079.92
708.58	1078.52
708.92	1070.33
709.26	1075.48
709.59	1082.97
709.93	1079.69
710.26	1078.28
710.60	1092.09
710.93	1090.69
711.27	1086.01
711.60	1083.20
711.94	1082.26
712.27	1080.16
712.61	1075.71
712.94	1075.24
713.28	1070.56
713.61	1079.69
713.95	1070.80
714.28	1080.39
714.62	1089.52
714.95	1092.80
715.29	1079.69
715.62	1088.35
715.96	1076.41
716.29	1074.54
716.63	1079.46
716.96	1080.63
717.29	1079.46
717.63	1081.56
717.96	1074.54
718.30	1057.22
718.63	1056.52
718.97	1051.60
719.30	1057.92
719.63	1068.22
719.97	1075.01
720.30	1079.22
720.64	1084.14
720.97	1081.80
721.30	1070.80
721.64	1075.01
721.97	1067.99
722.31	1077.11
722.64	1075.94
722.97	1080.63
723.31	1065.88
723.64	1071.73
723.97	1063.77
724.31	1062.84
724.64	1064.71
724.98	1084.37
725.31	1076.41
725.64	1070.80
725.98	1070.09
726.31	1077.35
726.64	1070.09
726.97	1075.94
727.31	1081.09
727.64	1087.65
727.97	1082.26
728.31	1084.84
728.64	1094.20
728.97	1092.33
729.31	1091.63
729.64	1093.03
729.97	1088.12
730.30	1080.39
730.64	1066.11
730.97	1067.99
731.30	1067.99
731.63	1066.35
731.97	1060.73
732.30	1075.01
732.63	1065.41
732.96	1066.11
733.30	1071.26
733.63	1073.37
733.96	1066.58
734.29	1068.69
734.63	1072.90
734.96	1079.22
735.29	1088.82
735.62	1096.54
735.95	1102.63
736.29	1095.60
736.62	1090.92
736.95	1096.78
737.28	1105.20
737.61	1101.22
737.94	1104.03
738.28	1099.58
738.61	1092.80
738.94	1087.65
739.27	1082.26
739.60	1079.92
739.93	1083.67
740.27	1076.88
740.60	1075.94
740.93	1084.37
741.26	1076.65
741.59	1075.94
741.92	1075.48
742.25	1076.88
742.58	1080.39
742.91	1079.22
743.25	1081.80
743.58	1084.84
743.91	1069.39
744.24	1057.92
744.57	1055.11
744.90	1055.35
745.23	1066.35
745.56	1064.01
745.89	1067.99
746.22	1081.56
746.55	1082.50
746.88	1074.07
747.21	1086.48
747.54	1084.60
747.87	1079.46
748.20	1083.67
748.53	1082.03
748.87	1075.71
749.20	1086.94
749.53	1088.58
749.86	1079.22
750.19	1083.67
750.52	1093.50
750.85	1091.16
751.18	1086.94
751.51	1093.50
751.84	1084.84
752.16	1075.71
752.49	1074.07
752.82	1076.65
753.15	1070.09
753.48	1076.65
753.81	1086.48
754.14	1076.41
754.47	1071.97
754.80	1069.39
755.13	1065.41
755.46	1059.79
755.79	1062.84
756.12	1074.31
756.45	1083.67
756.78	1090.46
757.11	1096.78
757.43	1108.01
757.76	1099.35
758.09	1089.05
758.42	1094.20
758.75	1086.01
759.08	1078.99
759.41	1082.73
759.74	1090.92
760.07	1083.90
760.39	1085.31
760.72	1078.99
761.05	1070.56
761.38	1066.82
761.71	1064.24
762.04	1056.05
762.36	1062.14
762.69	1071.97
763.02	1075.48
763.35	1076.88
763.68	1085.07
764.01	1088.58
764.33	1085.07
764.66	1079.46
764.99	1089.29
765.32	1092.56
765.65	1091.16
765.97	1100.05
766.30	1105.90
766.63	1090.22
766.96	1090.22
767.28	1089.99
767.61	1079.46
767.94	1074.77
768.27	1078.52
768.59	1079.69
768.92	1078.05
769.25	1070.09
769.58	1075.01
769.90	1076.88
770.23	1067.28
770.56	1062.37
770.89	1075.24
771.21	1072.90
771.54	1074.54
771.87	1085.31
772.19	1095.14
772.52	1084.37
772.85	1081.80
773.17	1080.16
773.50	1078.52
773.83	1075.24
774.15	1081.33
774.48	1087.88
774.81	1079.46
775.13	1079.69
775.46	1083.90
775.79	1099.82
776.11	1094.20
776.44	1104.50
776.77	1100.29
777.09	1096.78
777.42	1092.09
777.74	1100.05
778.07	1103.56
778.40	1108.24
778.72	1103.33
779.05	1088.35
779.37	1070.80
779.70	1059.33
780.03	1067.28
780.35	1074.07
780.68	1084.60
781.00	1093.50
781.33	1098.65
781.65	1080.86
781.98	1069.39
782.31	1067.05
782.63	1066.82
782.96	1066.11
783.28	1067.99
783.61	1075.71
783.93	1074.31
784.26	1071.03
784.58	1071.03
784.91	1081.09
785.23	1078.75
785.56	1085.31
785.88	1086.48
786.21	1089.52
786.53	1085.31
786.86	1088.12
787.18	1081.33
787.51	1088.82
787.83	1089.29
788.16	1080.86
788.48	1081.33
788.81	1072.43
789.13	1071.50
789.46	1075.24
789.78	1080.63
790.10	1085.54
790.43	1100.52
790.75	1099.82
791.08	1085.07
791.40	1098.18
791.73	1093.50
792.05	1087.65
792.37	1080.86
792.70	1089.05
793.02	1076.41
793.35	1068.92
793.67	1064.24
793.99	1060.50
794.32	1056.99
794.64	1060.03
794.96	1067.28
795.29	1070.56
795.61	1076.41
795.93	1080.16
796.26	1066.35
796.58	1066.58
796.91	1069.62
797.23	1068.69
797.55	1067.28
797.87	1079.69
798.20	1078.05
798.52	1068.22
798.84	1070.33
799.17	1071.73
799.49	1074.07
799.81	1070.33
800.14	1069.16
800.46	1068.22
800.78	1068.22
801.10	1060.73
801.43	1062.14
801.75	1071.26
802.07	1072.43
802.40	1067.28
802.72	1063.31
803.04	1071.26
803.36	1069.62
803.69	1071.73
804.01	1073.37
804.33	1081.56
804.65	1072.90
804.97	1070.80
805.30	1077.58
805.62	1070.56
805.94	1075.48
806.26	1074.77
806.58	1082.73
806.91	1068.92
807.23	1078.75
807.55	1071.26
807.87	1075.71
808.19	1069.62
808.52	1076.88
808.84	1084.60
809.16	1090.22
809.48	1093.73
809.80	1098.18
810.12	1097.24
810.44	1089.75
810.77	1092.09
811.09	1086.24
811.41	1089.75
811.73	1101.46
812.05	1104.50
812.37	1100.29
812.69	1098.65
813.01	1101.92
813.33	1093.03
813.66	1083.43
813.98	1076.41
814.30	1074.31
814.62	1058.62
814.94	1059.56
815.26	1056.75
815.58	1054.41
815.90	1056.28
816.22	1064.48
816.54	1061.90
816.86	1073.37
817.18	1087.41
817.50	1090.46
817.82	1084.84
818.14	1082.26
818.46	1080.63
818.78	1077.11
819.10	1086.48
819.42	1089.99
819.74	1083.43
820.06	1081.56
820.38	1079.69
820.70	1077.11
821.02	1078.28
821.34	1088.35
821.66	1094.67
821.98	1093.97
822.30	1091.63
822.62	1096.78
822.94	1093.73
823.26	1085.54
823.58	1090.22
823.90	1083.90
824.22	1089.75
824.54	1086.71
824.86	1090.69
825.18	1092.80
825.50	1094.43
825.81	1082.97
826.13	1078.05
826.45	1076.88
826.77	1062.60
827.09	1056.28
827.41	1052.07
827.73	1064.01
828.05	1061.90
828.36	1067.75
828.68	1072.67
829.00	1073.37
829.32	1071.03
829.64	1072.67
829.96	1080.63
830.28	1089.52
830.59	1093.26
830.91	1093.73
831.23	1100.29
831.55	1090.46
831.87	1077.35
832.19	1067.28
832.50	1070.56
832.82	1057.92
833.14	1059.79
833.46	1067.52
833.78	1080.63
834.09	1076.41
834.41	1078.52
834.73	1080.86
835.05	1081.09
835.36	1081.09
835.68	1076.65
836.00	1078.99
836.32	1076.18
836.63	1063.31
836.95	1063.07
837.27	1075.24
837.59	1071.26
837.90	1081.56
838.22	1086.94
838.54	1088.82
838.85	1088.12
839.17	1102.39
839.49	1099.58
839.80	1104.03
840.12	1091.39
840.44	1085.31
840.76	1072.67
841.07	1071.03
841.39	1072.43
841.71	1074.54
842.02	1072.43
842.34	1079.69
842.65	1073.37
842.97	1076.41
843.29	1085.31
843.60	1072.90
843.92	1073.14
844.24	1079.69
844.55	1073.84
844.87	1073.84
845.18	1079.22
845.50	1084.37
845.82	1082.97
846.13	1084.37
846.45	1073.84
846.76	1079.22
847.08	1069.62
847.40	1073.60
847.71	1069.86
848.03	1072.20
848.34	1080.63
848.66	1083.20
848.97	1079.92
849.29	1086.01
849.60	1094.43
849.92	1080.39
850.24	1081.80
850.55	1087.88
850.87	1079.69
851.18	1073.84
851.50	1083.20
851.81	1077.58
852.13	1072.43
852.44	1083.90
852.76	1086.01
853.07	1083.67
853.39	1089.75
853.70	1087.65
854.01	1079.92
854.33	1077.82
854.64	1080.63
854.96	1082.26
855.27	1068.45
855.59	1072.20
855.90	1078.28
856.22	1075.24
856.53	1067.52
856.84	1086.94
857.16	1088.12
857.47	1079.69
857.79	1077.35
858.10	1075.71
858.41	1069.62
858.73	1070.33
859.04	1077.35
859.36	1084.84
859.67	1092.56
859.98	1093.03
860.30	1086.48
860.61	1082.97
860.92	1077.82
861.24	1064.71
861.55	1062.84
861.87	1067.05
862.18	1074.07
862.49	1082.73
862.81	1090.46
863.12	1093.03
863.43	1089.05
863.74	1078.28
864.06	1069.62
864.37	1071.73
864.68	1074.07
865.00	1082.26
865.31	1088.12
865.62	1086.48
865.94	1082.26
866.25	1086.94
866.56	1085.31
866.87	1084.14
867.19	1089.75
867.50	1094.90
867.81	1079.92
868.12	1078.52
868.44	1078.28
868.75	1078.05
869.06	1071.03
869.37	1073.37
869.68	1078.52
870.00	1080.86
870.31	1079.46
870.62	1078.05
870.93	1073.37
871.24	1064.94
871.56	1054.41
871.87	1050.67
872.18	1056.75
872.49	1065.41
872.80	1059.56
873.12	1063.77
873.43	1070.09
873.74	1072.67
874.05	1084.60
874.36	1089.29
874.67	1090.69
874.98	1090.22
875.29	1088.35
875.61	1082.26
875.92	1080.86
876.23	1087.41
876.54	1092.09
876.85	1086.48
877.16	1079.69
877.47	1095.37
877.78	1089.29
878.09	1086.01
878.40	1093.26
878.72	1093.03
879.03	1078.28
879.34	1079.69
879.65	1071.26
879.96	1078.28
880.27	1078.75
880.58	1087.41
880.89	1087.41
881.20	1096.54
881.51	1091.16
881.82	1089.99
882.13	1082.97
882.44	1093.03
882.75	1092.09
883.06	1093.03
883.37	1096.78
883.68	1096.31
883.99	1086.48
884.30	1084.14
884.61	1080.86
884.92	1087.88
885.23	1097.48
885.54	1098.18
885.85	1087.41
886.16	1084.60
886.47	1079.69
886.78	1075.48
887.08	1082.50
887.39	1093.50
887.70	1096.78
888.01	1094.67
888.32	1084.60
888.63	1071.03
888.94	1071.03
889.25	1070.33
889.56	1068.69
889.87	1070.56
890.17	1076.65
890.48	1071.50
890.79	1071.97
891.10	1073.60
891.41	1072.90
891.72	1065.41
892.03	1071.97
892.34	1072.43
892.64	1066.58
892.95	1065.41
893.26	1070.33
893.57	1066.11
893.88	1062.14
894.18	1066.35
894.49	1068.22
894.80	1073.60
895.11	1074.31
895.42	1067.99
895.72	1068.22
896.03	1076.18
896.34	1077.58
896.65	1077.11
896.96	1089.05
897.26	1097.48
897.57	1096.54
897.88	1085.31
898.19	1088.82
898.49	1090.22
898.80	1082.50
899.11	1084.14
899.41	1089.75
899.72	1088.35
900.03	1084.14
900.34	1082.50
900.64	1076.41
900.95	1074.31
901.26	1075.71
901.56	1073.60
901.87	1077.82
902.18	1074.77
902.48	1079.69
902.79	1078.28
903.10	1088.82
903.40	1084.37
903.71	1093.03
904.02	1090.69
904.32	1083.43
904.63	1081.80
904.94	1076.41
905.24	1066.58
905.55	1070.09
905.85	1072.20
906.16	1068.69
906.47	1073.84
906.77	1084.37
907.08	1085.31
907.38	1089.05
907.69	1088.12
908.00	1084.84
908.30	1077.58
908.61	1071.50
908.91	1086.01
909.22	1084.14
909.52	1082.50
909.83	1089.52
910.14	1098.65
910.44	1086.94
910.75	1081.09
911.05	1079.46
911.36	1069.39
911.66	1068.92
911.97	1070.56
912.27	1086.71
912.58	1100.52
912.88	1112.46
913.19	1098.18
913.49	1093.97
913.80	1084.84
914.10	1080.86
914.41	1071.50
914.71	1077.35
915.01	1087.18
915.32	1078.99
915.62	1080.39
915.93	1084.37
916.23	1087.88
916.54	1080.16
916.84	1081.56
917.15	1085.07
917.45	1077.58
917.75	1080.39
918.06	1075.24
918.36	1071.97
918.67	1070.80
918.97	1080.16
919.27	1078.75
919.58	1079.69
919.88	1094.20
920.18	1089.05
920.49	1079.69
920.79	1089.05
921.10	1094.43
921.40	1082.26
921.70	1068.45
922.01	1079.69
922.31	1066.58
922.61	1067.99
922.92	1078.28
923.22	1086.71
923.52	1083.90
923.82	1080.39
924.13	1075.48
924.43	1075.48
924.73	1076.41
925.04	1074.77
925.34	1083.90
925.64	1084.60
925.94	1085.31
926.25	1095.14
926.55	1104.73
926.85	1097.48
927.15	1093.73
927.46	1083.90
927.76	1088.12
928.06	1074.54
928.36	1077.82
928.67	1081.56
928.97	1082.03
929.27	1075.71
929.57	1074.07
929.87	1069.16
930.18	1059.79
930.48	1058.86
930.78	1050.90
931.08	1055.58
931.38	1061.90
931.69	1068.22
931.99	1074.07
932.29	1089.75
932.59	1094.67
932.89	1089.52
933.19	1089.75
933.49	1076.41
933.80	1062.14
934.10	1061.90
934.40	1069.39
934.70	1064.94
935.00	1081.56
935.30	1086.71
935.60	1068.22
935.90	1066.35
936.20	1075.01
936.50	1072.43
936.81	1063.54
937.11	1074.77
937.41	1071.50
937.71	1073.37
938.01	1080.39
938.31	1085.07
938.61	1088.82
938.91	1092.80
939.21	1085.77
939.51	1079.92
939.81	1079.69
940.11	1078.99
940.41	1078.75
940.71	1082.97
941.01	1087.65
941.31	1082.73
941.61	1081.80
941.91	1075.94
942.21	1084.37
942.51	1068.92
942.81	1066.82
943.11	1072.43
943.41	1068.92
943.71	1059.56
944.01	1063.54
944.31	1080.39
944.61	1076.88
944.90	1076.65
945.20	1072.67
945.50	1074.31
945.80	1062.60
946.10	1057.22
946.40	1068.92
946.70	1071.26
947.00	1075.01
947.30	1076.41
947.60	1079.92
947.89	1076.65
948.19	1082.50
948.49	1085.31
948.79	1075.71
949.09	1073.84
949.39	1078.05
949.69	1078.05
949.98	1071.26
950.28	1085.31
950.58	1089.52
950.88	1087.18
951.18	1076.65
951.48	1073.37
951.77	1068.92
952.07	1070.33
952.37	1064.71
952.67	1085.07
952.97	1095.84
953.26	1087.18
953.56	1092.33
953.86	1092.09
954.16	1076.65
954.45	1077.82
954.75	1093.26
955.05	1081.56
955.35	1079.46
955.64	1081.56
955.94	1079.92
956.24	1075.01
956.54	1078.75
956.83	1084.14
957.13	1083.20
957.43	1075.01
957.72	1080.63
958.02	1080.16
958.32	1081.33
958.61	1081.80
958.91	1085.77
959.21	1077.58
959.50	1075.71
959.80	1081.56
960.10	1082.50
960.39	1084.60
960.69	1088.12
960.99	1095.14
961.28	1088.12
961.58	1087.18
961.87	1084.14
962.17	1074.77
962.47	1070.33
962.76	1072.67
963.06	1077.82
963.36	1079.22
963.65	1089.99
963.95	1090.92
964.24	1086.01
964.54	1082.26
964.83	1081.09
965.13	1086.71
965.42	1082.73
965.72	1089.29
966.02	1084.84
966.31	1091.86
966.61	1089.29
966.90	1093.97
967.20	1089.52
967.49	1095.14
967.79	1097.95
968.08	1101.92
968.38	1099.58
968.67	1095.14
968.97	1091.63
969.26	1089.29
969.56	1075.48
969.85	1084.84
970.15	1093.73
970.44	1094.43
970.74	1089.52
971.03	1099.58
971.32	1091.16
971.62	1075.71
971.91	1078.05
972.21	1080.16
972.50	1078.99
972.80	1082.97
973.09	1090.92
973.38	1085.07
973.68	1079.69
973.97	1077.35
974.27	1077.82
974.56	1080.63
974.85	1081.33
975.15	1083.43
975.44	1079.22
975.73	1079.22
976.03	1086.01
976.32	1083.43
976.61	1087.18
976.91	1096.07
977.20	1093.73
977.49	1089.29
977.79	1099.58
978.08	1101.92
978.37	1096.07
978.67	1093.97
978.96	1089.05
979.25	1073.60
979.55	1076.65
979.84	1067.05
980.13	1068.45
980.42	1075.01
980.72	1082.97
981.01	1078.28
981.30	1083.20
981.59	1083.20
981.89	1078.99
982.18	1081.80
982.47	1073.37
982.76	1074.31
983.06	1076.65
983.35	1082.26
983.64	1078.05
983.93	1077.11
984.22	1076.88
984.52	1071.73
984.81	1071.26
985.10	1065.41
985.39	1072.20
985.68	1071.73
985.97	1076.88
986.27	1076.18
986.56	1085.07
986.85	1087.65
987.14	1095.14
987.43	1092.80
987.72	1089.75
988.01	1086.48
988.31	1075.24
988.60	1080.16
988.89	1078.52
989.18	1076.65
989.47	1084.14
989.76	1090.22
990.05	1074.31
990.34	1074.77
990.63	1075.24
990.92	1070.33
991.21	1074.77
991.51	1086.94
991.80	1078.75
992.09	1075.48
992.38	1082.03
992.67	1080.39
992.96	1066.58
993.25	1067.05
993.54	1071.26
993.83	1064.94
994.12	1066.11
994.41	1074.77
994.70	1079.22
994.99	1078.52
995.28	1080.63
995.57	1075.48
995.86	1074.07
996.15	1081.80
996.44	1071.97
996.73	1077.11
997.02	1077.11
997.31	1079.46
997.59	1077.35
997.88	1084.84
998.17	1089.29
998.46	1090.92
998.75	1090.22
999.04	1098.65
999.33	1098.41
999.62	1089.52
999.91	1091.16
1000.20	1097.71
1000.49	1083.67
1000.77	1074.77
1001.06	1067.28
1001.35	1069.86
1001.64	1064.24
1001.93	1071.97
1002.22	1084.37
1002.51	1087.41
1002.79	1077.58
1003.08	1086.48
1003.37	1088.58
1003.66	1085.07
1003.95	1079.46
1004.23	1091.63
1004.52	1079.69
1004.81	1086.94
1005.10	1096.07
1005.39	1103.56
1005.67	1093.03
1005.96	1089.99
1006.25	1077.82
1006.54	1072.20
1006.83	1075.48
1007.11	1080.63
1007.40	1088.82
1007.69	1089.52
1007.97	1087.88
1008.26	1082.97
1008.55	1077.82
1008.84	1077.11
1009.12	1075.24
1009.41	1075.94
1009.70	1074.54
1009.98	1072.67
1010.27	1074.07
1010.56	1065.41
1010.85	1060.03
1011.13	1056.99
1011.42	1061.90
1011.71	1058.62
1011.99	1072.90
1012.28	1076.65
1012.56	1089.29
1012.85	1097.01
1013.14	1095.60
1013.42	1081.56
1013.71	1082.03
1014.00	1081.33
1014.28	1070.80
1014.57	1071.73
1014.85	1076.41
1015.14	1077.11
1015.43	1075.94
1015.71	1074.31
1016.00	1072.67
1016.28	1081.09
1016.57	1086.01
1016.85	1080.39
1017.14	1088.35
1017.43	1089.52
1017.71	1080.39
1018.00	1075.01
1018.28	1075.24
1018.57	1071.73
1018.85	1075.24
1019.14	1083.20
1019.42	1091.16
1019.71	1100.99
1019.99	1107.78
1020.28	1102.86
1020.56	1100.52
1020.85	1094.20
1021.13	1086.24
1021.42	1079.22
1021.70	1076.18
1021.99	1077.35
1022.27	1073.60
1022.55	1091.86
1022.84	1066.11
>>>>>End Processed Spectral Data<<<<<
