SpectraSuite Data File
++++++++++++++++++++++++++++++++++++
Date: Mon Aug 26 10:24:38 PDT 2019
User: corrico
Dark Spectrum Present: No
Reference Spectrum Present: No
Number of Sampled Component Spectra: 1
Spectrometers: USB2+H06089
Integration Time (usec): 10000 (USB2+H06089)
Spectra Averaged: 2 (USB2+H06089)
Boxcar Smoothing: 2 (USB2+H06089)
Correct for Electrical Dark: No (USB2+H06089)
Strobe/Lamp Enabled: No (USB2+H06089)
Correct for Detector Non-linearity: No (USB2+H06089)
Correct for Stray Light: No (USB2+H06089)
Number of Pixels in Processed Spectrum: 2048
>>>>>Begin Processed Spectral Data<<<<<
339.70	1034.52
340.07	1034.52
340.45	986.07
340.82	965.94
341.19	946.04
341.57	919.13
341.94	908.36
342.31	908.13
342.69	896.66
343.06	887.06
343.43	879.11
343.81	884.96
344.18	880.04
344.55	882.85
344.93	891.74
345.30	911.64
345.67	920.53
346.04	940.43
346.42	950.02
346.79	961.02
347.16	957.28
347.54	963.13
347.91	966.88
348.28	991.45
348.65	1004.32
349.03	1018.60
349.40	1031.47
349.77	1045.28
350.14	1051.37
350.52	1051.60
350.89	1062.84
351.26	1066.58
351.63	1068.45
352.01	1060.50
352.38	1066.35
352.75	1075.48
353.12	1083.67
353.50	1088.35
353.87	1099.82
354.24	1096.31
354.61	1092.56
354.98	1088.58
355.36	1084.60
355.73	1076.41
356.10	1079.46
356.47	1079.92
356.84	1087.41
357.22	1088.58
357.59	1101.69
357.96	1104.03
358.33	1103.33
358.70	1097.95
359.08	1095.14
359.45	1091.86
359.82	1094.90
360.19	1093.26
360.56	1091.86
360.94	1101.69
361.31	1090.46
361.68	1081.80
362.05	1089.99
362.42	1088.58
362.79	1085.07
363.16	1096.07
363.54	1105.44
363.91	1110.58
364.28	1107.07
364.65	1106.14
365.02	1107.07
365.39	1098.41
365.76	1086.48
366.14	1087.88
366.51	1088.58
366.88	1082.26
367.25	1095.14
367.62	1099.12
367.99	1103.56
368.36	1115.50
368.73	1126.97
369.10	1124.63
369.48	1116.67
369.85	1111.05
370.22	1093.73
370.59	1086.24
370.96	1089.52
371.33	1093.03
371.70	1105.20
372.07	1109.18
372.44	1117.14
372.81	1124.63
373.18	1124.63
373.55	1122.75
373.93	1126.50
374.30	1120.88
374.67	1101.92
375.04	1098.41
375.41	1081.56
375.78	1076.65
376.15	1067.75
376.52	1069.16
376.89	1077.11
377.26	1085.54
377.63	1086.71
378.00	1094.43
378.37	1103.80
378.74	1109.88
379.11	1115.73
379.48	1112.22
379.85	1116.44
380.22	1105.67
380.59	1107.07
380.96	1104.50
381.33	1117.14
381.70	1104.97
382.07	1100.99
382.44	1099.58
382.81	1108.71
383.18	1106.61
383.55	1109.18
383.92	1111.99
384.29	1112.69
384.66	1110.58
385.03	1105.90
385.40	1106.37
385.77	1120.88
386.14	1117.84
386.51	1118.07
386.88	1127.90
387.25	1130.71
387.62	1117.37
387.99	1116.90
388.36	1124.63
388.73	1117.61
389.10	1115.97
389.46	1135.63
389.83	1132.82
390.20	1125.56
390.57	1126.50
390.94	1136.56
391.31	1126.03
391.68	1134.46
392.05	1139.61
392.42	1139.61
392.79	1140.07
393.16	1137.73
393.53	1130.01
393.89	1122.05
394.26	1126.97
394.63	1118.54
395.00	1118.31
395.37	1119.95
395.74	1126.27
396.11	1126.27
396.48	1132.35
396.84	1134.69
397.21	1134.93
397.58	1141.25
397.95	1146.16
398.32	1144.76
398.69	1153.18
399.06	1162.31
399.42	1156.46
399.79	1149.91
400.16	1148.50
400.53	1157.16
400.90	1169.10
401.27	1174.95
401.64	1187.59
402.00	1203.97
402.37	1219.65
402.74	1223.40
403.11	1251.48
403.48	1269.04
403.84	1278.40
404.21	1282.15
404.58	1296.89
404.95	1292.21
405.32	1296.42
405.68	1328.72
406.05	1355.64
406.42	1381.62
406.79	1405.49
407.16	1435.92
407.52	1454.64
407.89	1478.05
408.26	1510.35
408.63	1554.82
408.99	1599.29
409.36	1641.42
409.73	1690.10
410.10	1732.70
410.47	1783.49
410.83	1850.43
411.20	1919.24
411.57	1988.52
411.94	2065.76
412.30	2145.57
412.67	2215.55
413.04	2300.04
413.40	2387.11
413.77	2490.80
414.14	2609.46
414.51	2740.30
414.87	2864.11
415.24	3001.97
415.61	3155.98
415.97	3301.33
416.34	3468.67
416.71	3652.87
417.08	3863.05
417.44	4071.83
417.81	4322.74
418.18	4600.32
418.54	4891.02
418.91	5168.84
419.28	5463.51
419.64	5770.82
420.01	6053.09
420.38	6369.30
420.74	6733.96
421.11	7146.12
421.48	7518.03
421.84	7965.78
422.21	8414.69
422.58	8908.08
422.94	9409.66
423.31	9942.13
423.68	10506.20
424.04	11115.91
424.41	11719.30
424.77	12343.75
425.14	13058.78
425.51	13735.20
425.87	14515.07
426.24	15323.96
426.61	16267.66
426.97	17262.15
427.34	18223.88
427.70	19272.44
428.07	20302.51
428.44	21352.24
428.80	22383.48
429.17	23520.51
429.53	24537.01
429.90	25814.47
430.27	26892.29
430.63	28037.75
431.00	29392.68
431.36	30843.11
431.73	32127.83
432.09	33530.98
432.46	34919.86
432.83	36259.11
433.19	37465.89
433.56	38923.34
433.92	40382.67
434.29	41872.42
434.65	43357.25
435.02	44796.45
435.38	45994.57
435.75	46937.34
436.11	48146.46
436.48	49083.61
436.84	50036.91
437.21	51067.68
437.57	52116.01
437.94	52789.38
438.30	53383.64
438.67	53705.93
439.03	53776.62
439.40	53942.79
439.76	53820.62
440.13	53683.93
440.49	53703.36
440.86	53289.08
441.22	52773.70
441.59	52162.35
441.95	51470.25
442.32	50454.69
442.68	49769.85
443.05	48858.92
443.41	47988.94
443.78	46995.38
444.14	46146.00
444.51	44965.20
444.87	44037.18
445.24	42800.67
445.60	41677.22
445.96	40409.12
446.33	39386.53
446.69	38093.15
447.06	37144.30
447.42	36121.49
447.79	35043.44
448.15	34074.69
448.51	33182.01
448.88	32290.97
449.24	31195.60
449.61	30522.22
449.97	29734.40
450.33	28880.57
450.70	27922.83
451.06	27366.25
451.43	26541.68
451.79	25931.50
452.15	25427.81
452.52	24927.64
452.88	24330.34
453.24	23833.44
453.61	23185.11
453.97	22512.21
454.34	21881.20
454.70	21274.07
455.06	20595.31
455.43	19849.38
455.79	19105.79
456.15	18498.89
456.52	17835.58
456.88	17318.79
457.24	16766.90
457.61	16282.87
457.97	15748.06
458.33	15200.14
458.70	14571.94
459.06	14017.00
459.42	13532.98
459.79	13027.66
460.15	12583.89
460.51	12175.93
460.88	11775.94
461.24	11361.66
461.60	10998.65
461.96	10633.76
462.33	10313.10
462.69	10002.75
463.05	9675.07
463.42	9385.55
463.78	9112.88
464.14	8835.29
464.50	8585.09
464.87	8326.46
465.23	8084.91
465.59	7831.67
465.95	7603.46
466.32	7362.16
466.68	7162.27
467.04	6941.56
467.40	6779.13
467.77	6583.22
468.13	6432.03
468.49	6279.42
468.85	6138.05
469.22	6000.90
469.58	5896.51
469.94	5769.42
470.30	5638.12
470.66	5533.96
471.03	5413.43
471.39	5300.14
471.75	5168.37
472.11	5064.92
472.47	4962.64
472.84	4851.46
473.20	4704.71
473.56	4624.90
473.92	4520.04
474.28	4440.93
474.65	4348.48
475.01	4282.95
475.37	4183.47
475.73	4110.92
476.09	3992.49
476.45	3906.82
476.81	3824.44
477.18	3750.94
477.54	3678.15
477.90	3619.64
478.26	3554.34
478.62	3511.27
478.98	3460.95
479.34	3398.46
479.71	3354.46
480.07	3311.62
480.43	3233.45
480.79	3170.49
481.15	3135.38
481.51	3073.36
481.87	3014.38
482.23	2970.61
482.59	2923.10
482.96	2862.71
483.32	2814.73
483.68	2767.68
484.04	2752.00
484.40	2700.74
484.76	2653.93
485.12	2619.29
485.48	2582.78
485.84	2530.35
486.20	2508.59
486.56	2483.54
486.92	2460.84
487.28	2426.20
487.64	2392.03
488.00	2348.26
488.37	2316.66
488.73	2262.83
489.09	2227.25
489.45	2187.93
489.81	2157.97
490.17	2113.04
490.53	2098.52
490.89	2076.52
491.25	2053.35
491.61	2027.84
491.97	2012.63
492.33	1982.20
492.69	1962.54
493.05	1924.62
493.41	1887.17
493.77	1856.98
494.13	1834.04
494.49	1808.06
494.85	1802.21
495.21	1784.66
495.57	1769.68
495.93	1760.55
496.29	1743.23
496.64	1718.66
497.00	1708.12
497.36	1687.06
497.72	1664.35
498.08	1640.01
498.44	1613.10
498.80	1601.39
499.16	1593.20
499.52	1565.12
499.88	1555.29
500.24	1546.16
500.60	1525.80
500.96	1506.60
501.32	1501.69
501.68	1489.28
502.03	1484.60
502.39	1478.52
502.75	1465.18
503.11	1458.86
503.47	1443.41
503.83	1433.58
504.19	1424.45
504.55	1424.68
504.91	1402.68
505.26	1396.36
505.62	1380.92
505.98	1370.85
506.34	1349.79
506.70	1357.28
507.06	1354.00
507.42	1349.55
507.78	1340.42
508.13	1337.38
508.49	1322.17
508.85	1321.70
509.21	1315.62
509.57	1312.57
509.93	1300.87
510.28	1296.42
510.64	1279.57
511.00	1282.61
511.36	1270.44
511.72	1275.36
512.07	1273.95
512.43	1270.21
512.79	1259.91
513.15	1266.23
513.51	1256.17
513.86	1245.63
514.22	1249.38
514.58	1251.02
514.94	1238.14
515.30	1251.95
515.65	1254.29
516.01	1240.95
516.37	1242.12
516.73	1245.87
517.08	1230.19
517.44	1230.65
517.80	1240.02
518.16	1228.08
518.51	1231.82
518.87	1231.82
519.23	1223.40
519.59	1211.93
519.94	1200.23
520.30	1192.74
520.66	1193.44
521.01	1187.59
521.37	1183.37
521.73	1181.27
522.09	1184.31
522.44	1176.82
522.80	1170.03
523.16	1170.50
523.51	1177.29
523.87	1160.44
524.23	1164.65
524.58	1172.37
524.94	1172.61
525.30	1169.10
525.65	1171.91
526.01	1165.59
526.37	1151.54
526.72	1151.78
527.08	1143.35
527.44	1147.56
527.79	1155.52
528.15	1164.65
528.51	1159.27
528.86	1162.08
529.22	1159.27
529.58	1136.80
529.93	1136.33
530.29	1127.20
530.65	1131.65
531.00	1135.16
531.36	1144.29
531.71	1143.35
532.07	1148.50
532.43	1142.88
532.78	1140.07
533.14	1145.69
533.49	1146.86
533.85	1149.20
534.21	1149.67
534.56	1146.39
534.92	1143.82
535.27	1141.95
535.63	1143.59
535.98	1151.31
536.34	1155.29
536.69	1153.18
537.05	1139.14
537.41	1142.42
537.76	1137.03
538.12	1139.84
538.47	1139.37
538.83	1156.69
539.18	1152.95
539.54	1158.33
539.89	1151.08
540.25	1144.52
540.60	1137.03
540.96	1134.69
541.31	1134.46
541.67	1129.78
542.02	1137.73
542.38	1131.41
542.73	1134.69
543.09	1126.03
543.44	1124.39
543.80	1118.31
544.15	1124.63
544.51	1117.61
544.86	1128.61
545.22	1134.69
545.57	1136.10
545.93	1131.41
546.28	1125.56
546.64	1112.92
546.99	1118.07
547.35	1121.35
547.70	1121.82
548.05	1122.52
548.41	1116.90
548.76	1115.50
549.12	1107.54
549.47	1107.31
549.83	1115.97
550.18	1120.41
550.53	1108.71
550.89	1113.63
551.24	1123.46
551.60	1122.99
551.95	1117.37
552.30	1115.73
552.66	1118.07
553.01	1105.44
553.37	1099.12
553.72	1111.99
554.07	1117.61
554.43	1105.20
554.78	1108.01
555.13	1103.56
555.49	1097.01
555.84	1096.31
556.19	1111.52
556.55	1118.54
556.90	1130.48
557.26	1128.37
557.61	1130.48
557.96	1130.48
558.32	1122.05
558.67	1117.37
559.02	1112.22
559.37	1106.14
559.73	1101.22
560.08	1104.03
560.43	1112.22
560.79	1122.52
561.14	1133.05
561.49	1131.41
561.85	1127.90
562.20	1119.95
562.55	1118.07
562.90	1109.65
563.26	1105.67
563.61	1102.16
563.96	1105.20
564.32	1102.86
564.67	1105.67
565.02	1116.90
565.37	1124.39
565.73	1122.29
566.08	1122.05
566.43	1120.41
566.78	1112.22
567.14	1115.03
567.49	1117.61
567.84	1122.99
568.19	1113.16
568.54	1115.50
568.90	1103.80
569.25	1100.29
569.60	1096.78
569.95	1100.05
570.31	1089.99
570.66	1093.03
571.01	1082.03
571.36	1076.41
571.71	1090.92
572.06	1095.37
572.42	1102.16
572.77	1110.35
573.12	1122.75
573.47	1115.50
573.82	1122.05
574.18	1114.33
574.53	1110.82
574.88	1112.46
575.23	1118.07
575.58	1114.10
575.93	1121.12
576.28	1127.90
576.64	1114.56
576.99	1100.52
577.34	1096.78
577.69	1096.07
578.04	1091.86
578.39	1097.24
578.74	1104.97
579.09	1112.46
579.44	1110.58
579.80	1118.54
580.15	1127.44
580.50	1121.58
580.85	1119.01
581.20	1123.22
581.55	1115.03
581.90	1099.58
582.25	1108.95
582.60	1101.22
582.95	1094.43
583.30	1097.95
583.65	1100.29
584.00	1089.52
584.35	1099.12
584.71	1103.56
585.06	1105.20
585.41	1107.07
585.76	1105.90
586.11	1103.33
586.46	1107.31
586.81	1105.44
587.16	1097.95
587.51	1105.20
587.86	1099.82
588.21	1092.09
588.56	1088.58
588.91	1098.88
589.26	1098.41
589.61	1098.41
589.96	1098.18
590.31	1097.48
590.66	1093.73
591.01	1100.29
591.36	1106.37
591.71	1099.58
592.06	1103.80
592.41	1105.20
592.76	1102.86
593.10	1088.82
593.45	1101.22
593.80	1097.71
594.15	1103.56
594.50	1097.01
594.85	1096.78
595.20	1096.54
595.55	1103.09
595.90	1094.90
596.25	1095.14
596.60	1115.03
596.95	1104.73
597.30	1100.75
597.64	1145.46
597.99	1150.84
598.34	1143.35
598.69	1154.35
599.04	1156.93
599.39	1113.63
599.74	1106.37
600.09	1099.82
600.44	1090.22
600.78	1095.37
601.13	1095.14
601.48	1097.48
601.83	1111.99
602.18	1126.50
602.53	1125.80
602.88	1128.61
603.22	1130.95
603.57	1120.41
603.92	1109.41
604.27	1091.86
604.62	1086.24
604.97	1084.60
605.31	1092.80
605.66	1098.18
606.01	1109.65
606.36	1112.69
606.71	1120.88
607.05	1114.80
607.40	1115.50
607.75	1117.37
608.10	1111.05
608.44	1101.69
608.79	1098.88
609.14	1103.80
609.49	1103.33
609.84	1104.50
610.18	1105.20
610.53	1104.50
610.88	1095.60
611.23	1105.44
611.57	1101.46
611.92	1100.29
612.27	1109.41
612.62	1110.35
612.96	1102.16
613.31	1116.67
613.66	1120.88
614.00	1118.07
614.35	1111.05
614.70	1102.63
615.05	1086.48
615.39	1086.48
615.74	1079.69
616.09	1087.18
616.43	1084.14
616.78	1099.58
617.13	1092.56
617.47	1092.33
617.82	1091.63
618.17	1097.01
618.51	1090.92
618.86	1089.99
619.21	1083.43
619.55	1074.07
619.90	1079.92
620.25	1078.28
620.59	1085.54
620.94	1085.07
621.29	1083.20
621.63	1082.03
621.98	1087.18
622.32	1088.12
622.67	1092.33
623.02	1106.37
623.36	1106.84
623.71	1105.67
624.05	1101.22
624.40	1108.48
624.75	1100.52
625.09	1092.56
625.44	1093.50
625.78	1098.18
626.13	1098.65
626.48	1108.95
626.82	1118.78
627.17	1115.27
627.51	1107.31
627.86	1099.82
628.20	1095.37
628.55	1087.65
628.89	1092.80
629.24	1094.20
629.58	1103.56
629.93	1102.63
630.28	1111.29
630.62	1106.14
630.97	1106.14
631.31	1109.18
631.66	1101.46
632.00	1098.65
632.35	1100.05
632.69	1105.67
633.04	1090.46
633.38	1087.18
633.73	1076.88
634.07	1075.71
634.42	1079.46
634.76	1097.24
635.11	1107.54
635.45	1114.33
635.79	1113.86
636.14	1115.50
636.48	1103.56
636.83	1111.99
637.17	1105.44
637.52	1109.41
637.86	1108.71
638.21	1101.69
638.55	1091.63
638.89	1093.73
639.24	1090.69
639.58	1080.39
639.93	1090.92
640.27	1084.60
640.61	1092.33
640.96	1101.69
641.30	1096.31
641.65	1089.75
641.99	1099.35
642.33	1086.48
642.68	1076.41
643.02	1090.69
643.37	1093.26
643.71	1092.80
644.05	1098.65
644.40	1099.35
644.74	1089.29
645.08	1090.46
645.43	1083.43
645.77	1086.48
646.11	1083.20
646.46	1086.01
646.80	1084.60
647.14	1087.88
647.49	1086.94
647.83	1076.65
648.17	1079.22
648.52	1089.05
648.86	1082.50
649.20	1084.37
649.55	1090.92
649.89	1088.58
650.23	1074.07
650.57	1076.65
650.92	1078.52
651.26	1082.73
651.60	1085.07
651.95	1082.97
652.29	1078.75
652.63	1073.37
652.97	1071.03
653.32	1068.22
653.66	1081.80
654.00	1083.90
654.34	1080.63
654.69	1080.63
655.03	1083.20
655.37	1070.56
655.71	1064.48
656.05	1075.48
656.40	1085.07
656.74	1076.88
657.08	1089.99
657.42	1099.58
657.76	1089.29
658.11	1088.35
658.45	1102.63
658.79	1102.86
659.13	1109.18
659.47	1118.07
659.82	1122.52
660.16	1113.39
660.50	1111.29
660.84	1110.12
661.18	1101.92
661.52	1093.50
661.87	1100.99
662.21	1107.54
662.55	1101.46
662.89	1101.46
663.23	1104.26
663.57	1098.88
663.91	1092.80
664.25	1094.43
664.60	1096.07
664.94	1096.54
665.28	1089.05
665.62	1076.18
665.96	1083.43
666.30	1080.63
666.64	1073.37
666.98	1082.03
667.32	1082.50
667.66	1083.67
668.01	1090.22
668.35	1091.16
668.69	1090.22
669.03	1103.09
669.37	1098.88
669.71	1097.95
670.05	1095.37
670.39	1097.24
670.73	1086.71
671.07	1079.69
671.41	1082.73
671.75	1089.05
672.09	1085.07
672.43	1093.26
672.77	1097.24
673.11	1095.14
673.45	1093.26
673.79	1090.69
674.13	1077.82
674.47	1079.46
674.81	1082.03
675.15	1071.26
675.49	1073.37
675.83	1083.90
676.17	1078.05
676.51	1074.07
676.85	1080.16
677.19	1084.60
677.53	1081.33
677.87	1074.07
678.21	1070.80
678.55	1069.86
678.89	1060.03
679.23	1057.92
679.57	1057.45
679.90	1048.56
680.24	1053.24
680.58	1071.50
680.92	1076.65
681.26	1079.92
681.60	1091.63
681.94	1077.58
682.28	1067.28
682.62	1069.39
682.96	1085.07
683.29	1084.84
683.63	1093.73
683.97	1086.71
684.31	1089.99
684.65	1081.80
684.99	1079.92
685.33	1078.05
685.67	1090.22
686.00	1079.46
686.34	1081.33
686.68	1079.22
687.02	1089.05
687.36	1083.67
687.70	1084.84
688.03	1083.20
688.37	1082.03
688.71	1079.69
689.05	1071.73
689.39	1088.35
689.72	1082.26
690.06	1081.56
690.40	1079.22
690.74	1076.65
691.08	1066.58
691.41	1066.82
691.75	1074.07
692.09	1078.28
692.43	1078.52
692.76	1069.62
693.10	1069.39
693.44	1067.52
693.78	1066.11
694.11	1075.94
694.45	1083.67
694.79	1086.71
695.13	1091.39
695.46	1094.90
695.80	1082.73
696.14	1082.03
696.48	1094.90
696.81	1087.41
697.15	1084.60
697.49	1098.65
697.82	1097.71
698.16	1085.31
698.50	1085.77
698.83	1085.54
699.17	1084.84
699.51	1091.16
699.84	1091.86
700.18	1086.48
700.52	1074.31
700.85	1071.97
701.19	1064.71
701.53	1070.33
701.86	1075.24
702.20	1083.43
702.54	1101.69
702.87	1100.75
703.21	1104.26
703.55	1104.50
703.88	1098.65
704.22	1075.94
704.55	1075.24
704.89	1068.22
705.23	1068.22
705.56	1077.35
705.90	1083.20
706.23	1091.16
706.57	1089.99
706.91	1090.92
707.24	1094.20
707.58	1092.09
707.91	1084.84
708.25	1079.22
708.58	1086.48
708.92	1081.09
709.26	1085.31
709.59	1078.28
709.93	1083.67
710.26	1075.94
710.60	1074.07
710.93	1068.45
711.27	1082.73
711.60	1087.65
711.94	1085.07
712.27	1090.69
712.61	1101.69
712.94	1102.39
713.28	1097.01
713.61	1102.63
713.95	1101.92
714.28	1092.09
714.62	1086.71
714.95	1096.31
715.29	1085.31
715.62	1076.65
715.96	1070.33
716.29	1062.60
716.63	1051.84
716.96	1059.56
717.29	1061.67
717.63	1074.54
717.96	1080.39
718.30	1088.82
718.63	1092.33
718.97	1090.46
719.30	1089.29
719.63	1093.03
719.97	1083.43
720.30	1085.31
720.64	1085.07
720.97	1077.11
721.30	1075.71
721.64	1077.58
721.97	1075.94
722.31	1081.09
722.64	1088.58
722.97	1089.29
723.31	1085.54
723.64	1084.14
723.97	1078.05
724.31	1068.92
724.64	1057.22
724.98	1066.82
725.31	1067.52
725.64	1075.01
725.98	1079.92
726.31	1084.60
726.64	1078.99
726.97	1073.14
727.31	1067.99
727.64	1073.37
727.97	1082.73
728.31	1082.97
728.64	1079.92
728.97	1089.99
729.31	1079.22
729.64	1067.75
729.97	1066.58
730.30	1075.01
730.64	1076.18
730.97	1083.43
731.30	1088.58
731.63	1095.14
731.97	1083.20
732.30	1071.03
732.63	1072.43
732.96	1071.97
733.30	1063.54
733.63	1087.65
733.96	1098.88
734.29	1094.43
734.63	1089.29
734.96	1100.75
735.29	1093.97
735.62	1083.20
735.95	1076.41
736.29	1085.31
736.62	1079.92
736.95	1075.01
737.28	1078.05
737.61	1078.75
737.94	1068.92
738.28	1072.90
738.61	1070.80
738.94	1079.69
739.27	1077.11
739.60	1081.33
739.93	1063.77
740.27	1060.96
740.60	1056.52
740.93	1074.31
741.26	1079.46
741.59	1087.41
741.92	1097.95
742.25	1097.95
742.58	1090.46
742.91	1090.69
743.25	1098.65
743.58	1088.82
743.91	1084.37
744.24	1084.60
744.57	1079.92
744.90	1076.18
745.23	1078.75
745.56	1084.37
745.89	1079.92
746.22	1082.73
746.55	1076.88
746.88	1068.69
747.21	1062.37
747.54	1075.94
747.87	1079.69
748.20	1082.97
748.53	1090.46
748.87	1093.26
749.20	1073.37
749.53	1068.69
749.86	1071.50
750.19	1074.54
750.52	1080.39
750.85	1093.97
751.18	1098.18
751.51	1095.37
751.84	1085.54
752.16	1081.80
752.49	1081.56
752.82	1075.71
753.15	1078.52
753.48	1084.14
753.81	1083.43
754.14	1082.26
754.47	1088.58
754.80	1084.14
755.13	1088.82
755.46	1078.75
755.79	1075.48
756.12	1077.11
756.45	1078.28
756.78	1080.86
757.11	1081.09
757.43	1082.26
757.76	1081.80
758.09	1091.16
758.42	1087.65
758.75	1093.26
759.08	1098.65
759.41	1098.41
759.74	1097.01
760.07	1097.71
760.39	1104.50
760.72	1091.63
761.05	1086.24
761.38	1081.33
761.71	1078.75
762.04	1069.39
762.36	1082.03
762.69	1083.20
763.02	1080.16
763.35	1081.09
763.68	1085.07
764.01	1084.14
764.33	1078.99
764.66	1077.11
764.99	1076.18
765.32	1077.58
765.65	1072.43
765.97	1080.86
766.30	1079.22
766.63	1078.05
766.96	1078.28
767.28	1077.11
767.61	1082.50
767.94	1085.54
768.27	1089.75
768.59	1091.39
768.92	1107.07
769.25	1101.69
769.58	1101.22
769.90	1090.69
770.23	1079.22
770.56	1064.24
770.89	1050.20
771.21	1050.67
771.54	1059.79
771.87	1067.05
772.19	1072.43
772.52	1076.41
772.85	1078.05
773.17	1075.94
773.50	1077.11
773.83	1078.28
774.15	1090.46
774.48	1083.67
774.81	1078.28
775.13	1082.03
775.46	1084.37
775.79	1075.01
776.11	1078.99
776.44	1085.07
776.77	1077.82
777.09	1075.24
777.42	1083.43
777.74	1089.29
778.07	1089.05
778.40	1087.65
778.72	1082.50
779.05	1076.88
779.37	1072.43
779.70	1075.94
780.03	1090.46
780.35	1097.95
780.68	1096.07
781.00	1094.90
781.33	1093.26
781.65	1084.60
781.98	1078.75
782.31	1089.52
782.63	1091.63
782.96	1083.90
783.28	1082.03
783.61	1073.37
783.93	1057.22
784.26	1058.62
784.58	1060.96
784.91	1064.24
785.23	1063.54
785.56	1072.43
785.88	1066.82
786.21	1074.77
786.53	1060.73
786.86	1071.50
787.18	1068.92
787.51	1079.46
787.83	1072.43
788.16	1092.33
788.48	1089.52
788.81	1093.73
789.13	1097.01
789.46	1101.22
789.78	1087.88
790.10	1078.99
790.43	1071.50
790.75	1069.16
791.08	1060.03
791.40	1064.71
791.73	1073.14
792.05	1081.33
792.37	1068.22
792.70	1076.18
793.02	1080.63
793.35	1084.60
793.67	1082.73
793.99	1091.39
794.32	1100.29
794.64	1083.67
794.96	1078.05
795.29	1078.99
795.61	1078.99
795.93	1064.71
796.26	1080.39
796.58	1082.73
796.91	1079.22
797.23	1070.09
797.55	1069.16
797.87	1065.88
798.20	1064.48
798.52	1063.77
798.84	1069.86
799.17	1071.03
799.49	1071.97
799.81	1065.41
800.14	1067.05
800.46	1073.37
800.78	1078.99
801.10	1075.71
801.43	1080.86
801.75	1081.09
802.07	1072.90
802.40	1075.24
802.72	1077.58
803.04	1083.43
803.36	1083.67
803.69	1080.86
804.01	1080.16
804.33	1089.05
804.65	1086.94
804.97	1086.94
805.30	1096.07
805.62	1088.35
805.94	1080.86
806.26	1079.69
806.58	1076.88
806.91	1061.67
807.23	1067.05
807.55	1057.22
807.87	1053.01
808.19	1057.92
808.52	1068.22
808.84	1068.69
809.16	1070.56
809.48	1085.54
809.80	1088.82
810.12	1094.20
810.44	1088.82
810.77	1092.09
811.09	1079.22
811.41	1079.92
811.73	1080.16
812.05	1088.58
812.37	1086.94
812.69	1086.94
813.01	1086.24
813.33	1082.73
813.66	1083.67
813.98	1087.88
814.30	1095.37
814.62	1089.29
814.94	1083.67
815.26	1070.80
815.58	1065.18
815.90	1060.03
816.22	1057.69
816.54	1056.99
816.86	1065.65
817.18	1080.39
817.50	1080.63
817.82	1087.65
818.14	1091.63
818.46	1090.46
818.78	1079.92
819.10	1074.54
819.42	1073.60
819.74	1074.31
820.06	1078.75
820.38	1084.14
820.70	1085.54
821.02	1080.86
821.34	1082.73
821.66	1085.77
821.98	1083.43
822.30	1086.01
822.62	1090.92
822.94	1081.80
823.26	1077.11
823.58	1077.58
823.90	1078.75
824.22	1082.03
824.54	1094.43
824.86	1089.52
825.18	1079.69
825.50	1070.33
825.81	1062.60
826.13	1059.79
826.45	1057.69
826.77	1070.09
827.09	1088.82
827.41	1086.94
827.73	1087.88
828.05	1091.86
828.36	1088.35
828.68	1079.46
829.00	1078.52
829.32	1073.60
829.64	1078.52
829.96	1084.37
830.28	1075.94
830.59	1082.97
830.91	1097.71
831.23	1096.31
831.55	1087.18
831.87	1092.33
832.19	1085.54
832.50	1080.86
832.82	1074.54
833.14	1084.37
833.46	1093.26
833.78	1098.65
834.09	1095.60
834.41	1096.78
834.73	1092.09
835.05	1086.24
835.36	1079.92
835.68	1072.67
836.00	1077.82
836.32	1074.07
836.63	1070.80
836.95	1067.28
837.27	1073.14
837.59	1070.56
837.90	1076.41
838.22	1074.07
838.54	1082.03
838.85	1088.82
839.17	1089.99
839.49	1090.92
839.80	1093.50
840.12	1094.43
840.44	1077.58
840.76	1070.80
841.07	1060.03
841.39	1061.67
841.71	1066.82
842.02	1073.60
842.34	1083.20
842.65	1089.99
842.97	1084.84
843.29	1080.39
843.60	1075.01
843.92	1077.58
844.24	1082.73
844.55	1091.16
844.87	1095.37
845.18	1098.88
845.50	1095.84
845.82	1092.80
846.13	1093.50
846.45	1096.78
846.76	1101.92
847.08	1094.67
847.40	1092.33
847.71	1084.84
848.03	1069.62
848.34	1064.24
848.66	1073.84
848.97	1070.56
849.29	1066.35
849.60	1071.26
849.92	1071.97
850.24	1066.11
850.55	1064.94
850.87	1079.46
851.18	1086.71
851.50	1094.90
851.81	1093.26
852.13	1089.52
852.44	1084.84
852.76	1078.05
853.07	1078.28
853.39	1087.18
853.70	1096.31
854.01	1087.41
854.33	1083.20
854.64	1075.48
854.96	1068.22
855.27	1069.86
855.59	1080.16
855.90	1086.24
856.22	1093.26
856.53	1094.20
856.84	1087.88
857.16	1085.07
857.47	1085.07
857.79	1091.39
858.10	1093.97
858.41	1093.50
858.73	1094.43
859.04	1091.86
859.36	1081.56
859.67	1075.94
859.98	1078.28
860.30	1075.48
860.61	1077.35
860.92	1078.52
861.24	1084.14
861.55	1089.99
861.87	1097.01
862.18	1090.92
862.49	1090.22
862.81	1077.11
863.12	1075.48
863.43	1073.14
863.74	1076.88
864.06	1072.20
864.37	1086.48
864.68	1084.14
865.00	1074.54
865.31	1070.09
865.62	1072.43
865.94	1061.20
866.25	1065.41
866.56	1074.07
866.87	1087.41
867.19	1091.16
867.50	1094.67
867.81	1086.48
868.12	1077.35
868.44	1077.11
868.75	1073.37
869.06	1071.50
869.37	1073.37
869.68	1087.65
870.00	1085.77
870.31	1082.97
870.62	1088.58
870.93	1086.01
871.24	1081.56
871.56	1071.50
871.87	1078.75
872.18	1071.26
872.49	1072.20
872.80	1077.11
873.12	1081.80
873.43	1074.77
873.74	1079.92
874.05	1081.09
874.36	1077.82
874.67	1071.73
874.98	1076.41
875.29	1077.35
875.61	1078.99
875.92	1069.39
876.23	1066.82
876.54	1064.24
876.85	1068.22
877.16	1076.18
877.47	1083.67
877.78	1093.26
878.09	1098.41
878.40	1097.48
878.72	1091.86
879.03	1084.37
879.34	1078.52
879.65	1078.52
879.96	1076.65
880.27	1076.18
880.58	1080.39
880.89	1084.84
881.20	1083.90
881.51	1075.48
881.82	1064.71
882.13	1056.75
882.44	1057.45
882.75	1050.90
883.06	1063.31
883.37	1078.75
883.68	1086.71
883.99	1095.84
884.30	1095.60
884.61	1082.73
884.92	1076.88
885.23	1080.39
885.54	1077.58
885.85	1087.88
886.16	1093.03
886.47	1096.07
886.78	1097.01
887.08	1085.31
887.39	1085.07
887.70	1083.90
888.01	1080.39
888.32	1076.88
888.63	1078.75
888.94	1071.73
889.25	1080.86
889.56	1086.94
889.87	1093.97
890.17	1090.69
890.48	1099.12
890.79	1096.07
891.10	1081.56
891.41	1075.01
891.72	1081.80
892.03	1073.37
892.34	1071.26
892.64	1082.97
892.95	1081.80
893.26	1071.97
893.57	1070.56
893.88	1064.94
894.18	1070.33
894.49	1067.99
894.80	1083.20
895.11	1083.43
895.42	1089.29
895.72	1076.88
896.03	1082.50
896.34	1075.01
896.65	1082.26
896.96	1085.77
897.26	1085.31
897.57	1083.20
897.88	1089.05
898.19	1082.03
898.49	1075.94
898.80	1076.65
899.11	1078.28
899.41	1076.65
899.72	1090.22
900.03	1090.46
900.34	1101.69
900.64	1106.37
900.95	1106.84
901.26	1086.01
901.56	1082.26
901.87	1060.96
902.18	1055.35
902.48	1048.09
902.79	1052.54
903.10	1064.24
903.40	1088.12
903.71	1084.37
904.02	1092.80
904.32	1107.78
904.63	1106.61
904.94	1094.90
905.24	1100.29
905.55	1087.88
905.85	1077.35
906.16	1073.14
906.47	1071.97
906.77	1070.80
907.08	1072.67
907.38	1070.09
907.69	1071.73
908.00	1072.90
908.30	1067.75
908.61	1080.39
908.91	1073.84
909.22	1067.52
909.52	1068.45
909.83	1067.28
910.14	1069.62
910.44	1076.65
910.75	1081.33
911.05	1076.41
911.36	1069.86
911.66	1067.99
911.97	1070.80
912.27	1065.18
912.58	1070.56
912.88	1078.05
913.19	1075.94
913.49	1075.24
913.80	1084.14
914.10	1080.39
914.41	1092.33
914.71	1088.35
915.01	1090.22
915.32	1084.37
915.62	1092.80
915.93	1084.84
916.23	1083.20
916.54	1080.86
916.84	1090.22
917.15	1090.92
917.45	1085.07
917.75	1086.71
918.06	1089.29
918.36	1081.09
918.67	1085.54
918.97	1087.41
919.27	1084.14
919.58	1079.92
919.88	1088.12
920.18	1073.14
920.49	1073.60
920.79	1076.88
921.10	1081.56
921.40	1077.58
921.70	1089.52
922.01	1086.24
922.31	1087.65
922.61	1085.07
922.92	1092.33
923.22	1083.43
923.52	1100.29
923.82	1100.52
924.13	1101.92
924.43	1097.71
924.73	1098.65
925.04	1088.12
925.34	1085.07
925.64	1080.39
925.94	1080.63
926.25	1093.26
926.55	1095.60
926.85	1092.33
927.15	1096.07
927.46	1100.52
927.76	1091.86
928.06	1093.97
928.36	1107.54
928.67	1097.71
928.97	1088.12
929.27	1078.75
929.57	1075.01
929.87	1072.43
930.18	1089.75
930.48	1082.73
930.78	1093.50
931.08	1088.12
931.38	1072.67
931.69	1064.24
931.99	1077.11
932.29	1079.92
932.59	1087.18
932.89	1099.35
933.19	1098.18
933.49	1083.43
933.80	1068.22
934.10	1072.20
934.40	1068.92
934.70	1077.35
935.00	1086.71
935.30	1095.60
935.60	1084.14
935.90	1094.90
936.20	1091.39
936.50	1090.92
936.81	1097.24
937.11	1107.78
937.41	1096.54
937.71	1090.22
938.01	1089.29
938.31	1081.33
938.61	1086.01
938.91	1098.41
939.21	1095.14
939.51	1099.58
939.81	1097.24
940.11	1086.71
940.41	1071.73
940.71	1076.88
941.01	1072.20
941.31	1074.07
941.61	1082.50
941.91	1087.18
942.21	1094.90
942.51	1094.90
942.81	1093.73
943.11	1089.75
943.41	1079.22
943.71	1078.75
944.01	1082.73
944.31	1081.80
944.61	1075.01
944.90	1088.12
945.20	1079.46
945.50	1064.94
945.80	1070.56
946.10	1064.48
946.40	1059.09
946.70	1057.92
947.00	1063.77
947.30	1061.20
947.60	1065.65
947.89	1058.86
948.19	1055.58
948.49	1060.03
948.79	1062.84
949.09	1069.16
949.39	1084.37
949.69	1095.14
949.98	1095.37
950.28	1095.14
950.58	1095.37
950.88	1085.07
951.18	1078.52
951.48	1083.20
951.77	1079.46
952.07	1071.03
952.37	1078.52
952.67	1083.20
952.97	1080.63
953.26	1084.84
953.56	1085.31
953.86	1077.58
954.16	1082.50
954.45	1075.71
954.75	1067.75
955.05	1068.22
955.35	1074.31
955.64	1064.94
955.94	1074.54
956.24	1081.09
956.54	1086.71
956.83	1085.31
957.13	1090.46
957.43	1081.09
957.72	1083.67
958.02	1092.80
958.32	1093.73
958.61	1093.97
958.91	1098.65
959.21	1097.71
959.50	1079.69
959.80	1076.18
960.10	1075.94
960.39	1079.22
960.69	1077.11
960.99	1084.60
961.28	1089.05
961.58	1082.26
961.87	1079.92
962.17	1075.71
962.47	1074.31
962.76	1070.09
963.06	1076.18
963.36	1072.67
963.65	1078.75
963.95	1083.43
964.24	1087.41
964.54	1080.86
964.83	1079.22
965.13	1075.01
965.42	1072.43
965.72	1064.48
966.02	1071.73
966.31	1079.69
966.61	1078.05
966.90	1072.67
967.20	1070.09
967.49	1073.84
967.79	1070.56
968.08	1072.90
968.38	1079.22
968.67	1087.88
968.97	1086.24
969.26	1081.09
969.56	1081.56
969.85	1082.03
970.15	1076.65
970.44	1063.31
970.74	1067.05
971.03	1072.20
971.32	1065.65
971.62	1075.48
971.91	1087.88
972.21	1087.88
972.50	1092.56
972.80	1103.56
973.09	1097.48
973.38	1103.56
973.68	1102.39
973.97	1095.84
974.27	1091.86
974.56	1085.77
974.85	1073.14
975.15	1073.60
975.44	1073.37
975.73	1068.22
976.03	1078.28
976.32	1077.35
976.61	1081.09
976.91	1080.39
977.20	1092.09
977.49	1081.09
977.79	1076.65
978.08	1070.56
978.37	1072.43
978.67	1069.62
978.96	1080.86
979.25	1085.07
979.55	1090.46
979.84	1081.80
980.13	1082.26
980.42	1078.75
980.72	1082.73
981.01	1087.41
981.30	1083.90
981.59	1071.26
981.89	1072.90
982.18	1071.26
982.47	1059.79
982.76	1059.09
983.06	1061.43
983.35	1054.41
983.64	1054.18
983.93	1056.28
984.22	1068.45
984.52	1073.60
984.81	1080.86
985.10	1089.75
985.39	1085.77
985.68	1072.67
985.97	1065.88
986.27	1067.99
986.56	1058.86
986.85	1062.14
987.14	1068.92
987.43	1084.60
987.72	1083.90
988.01	1090.92
988.31	1103.56
988.60	1105.20
988.89	1104.73
989.18	1104.50
989.47	1095.60
989.76	1083.67
990.05	1086.24
990.34	1075.48
990.63	1075.01
990.92	1082.03
991.21	1093.26
991.51	1078.28
991.80	1081.80
992.09	1081.33
992.38	1077.58
992.67	1072.67
992.96	1095.60
993.25	1094.43
993.54	1089.99
993.83	1084.84
994.12	1082.50
994.41	1074.54
994.70	1080.63
994.99	1079.22
995.28	1081.33
995.57	1083.67
995.86	1087.41
996.15	1081.33
996.44	1087.88
996.73	1083.67
997.02	1078.28
997.31	1066.82
997.59	1062.84
997.88	1062.37
998.17	1073.37
998.46	1073.60
998.75	1075.71
999.04	1071.50
999.33	1071.73
999.62	1063.54
999.91	1067.05
1000.20	1072.20
1000.49	1082.26
1000.77	1069.39
1001.06	1069.86
1001.35	1063.07
1001.64	1063.54
1001.93	1055.11
1002.22	1065.65
1002.51	1067.28
1002.79	1078.52
1003.08	1075.48
1003.37	1079.92
1003.66	1083.90
1003.95	1089.05
1004.23	1082.73
1004.52	1086.24
1004.81	1083.43
1005.10	1071.26
1005.39	1061.67
1005.67	1056.75
1005.96	1051.60
1006.25	1060.26
1006.54	1063.77
1006.83	1072.90
1007.11	1070.09
1007.40	1071.73
1007.69	1068.45
1007.97	1061.90
1008.26	1054.41
1008.55	1060.26
1008.84	1064.24
1009.12	1058.62
1009.41	1063.77
1009.70	1055.35
1009.98	1056.75
1010.27	1053.24
1010.56	1057.45
1010.85	1066.58
1011.13	1078.05
1011.42	1083.67
1011.71	1090.69
1011.99	1086.24
1012.28	1081.80
1012.56	1082.26
1012.85	1077.82
1013.14	1069.62
1013.42	1072.90
1013.71	1075.71
1014.00	1082.73
1014.28	1076.18
1014.57	1072.20
1014.85	1074.07
1015.14	1073.37
1015.43	1065.18
1015.71	1066.11
1016.00	1074.07
1016.28	1069.62
1016.57	1069.62
1016.85	1078.75
1017.14	1083.67
1017.43	1093.03
1017.71	1093.03
1018.00	1099.58
1018.28	1099.58
1018.57	1103.33
1018.85	1102.86
1019.14	1109.88
1019.42	1101.46
1019.71	1095.14
1019.99	1099.35
1020.28	1092.33
1020.56	1089.05
1020.85	1092.56
1021.13	1088.58
1021.42	1076.65
1021.70	1068.92
1021.99	1070.09
1022.27	1071.26
1022.55	1084.84
1022.84	1100.05
>>>>>End Processed Spectral Data<<<<<
