SpectraSuite Data File
++++++++++++++++++++++++++++++++++++
Date: Mon Aug 26 10:24:35 PDT 2019
User: corrico
Dark Spectrum Present: No
Reference Spectrum Present: No
Number of Sampled Component Spectra: 1
Spectrometers: USB2+H06089
Integration Time (usec): 10000 (USB2+H06089)
Spectra Averaged: 2 (USB2+H06089)
Boxcar Smoothing: 2 (USB2+H06089)
Correct for Electrical Dark: No (USB2+H06089)
Strobe/Lamp Enabled: No (USB2+H06089)
Correct for Detector Non-linearity: No (USB2+H06089)
Correct for Stray Light: No (USB2+H06089)
Number of Pixels in Processed Spectrum: 2048
>>>>>Begin Processed Spectral Data<<<<<
339.70	1006.43
340.07	1006.43
340.45	980.22
340.82	958.45
341.19	938.09
341.57	918.66
341.94	908.36
342.31	906.02
342.69	903.91
343.06	902.51
343.43	907.19
343.81	911.64
344.18	912.57
344.55	923.81
344.93	927.32
345.30	928.49
345.67	926.15
346.04	942.53
346.42	949.79
346.79	963.60
347.16	976.47
347.54	987.71
347.91	989.58
348.28	1002.45
348.65	1005.49
349.03	1011.81
349.40	1026.56
349.77	1031.94
350.14	1033.11
350.52	1037.79
350.89	1050.90
351.26	1057.92
351.63	1069.16
352.01	1077.82
352.38	1084.60
352.75	1075.94
353.12	1084.84
353.50	1086.48
353.87	1087.41
354.24	1099.58
354.61	1113.16
354.98	1104.03
355.36	1091.16
355.73	1082.03
356.10	1081.09
356.47	1071.50
356.84	1065.65
357.22	1080.16
357.59	1089.99
357.96	1094.67
358.33	1104.97
358.70	1110.12
359.08	1100.75
359.45	1103.56
359.82	1097.48
360.19	1088.82
360.56	1081.33
360.94	1082.73
361.31	1076.88
361.68	1077.82
362.05	1084.37
362.42	1088.12
362.79	1089.52
363.16	1083.43
363.54	1084.14
363.91	1078.28
364.28	1084.37
364.65	1093.03
365.02	1096.31
365.39	1087.88
365.76	1084.84
366.14	1089.29
366.51	1088.35
366.88	1094.90
367.25	1111.75
367.62	1118.31
367.99	1116.67
368.36	1118.07
368.73	1114.56
369.10	1093.26
369.48	1092.33
369.85	1091.16
370.22	1087.41
370.59	1089.75
370.96	1096.31
371.33	1096.78
371.70	1105.20
372.07	1111.99
372.44	1108.01
372.81	1111.99
373.18	1111.29
373.55	1101.46
373.93	1090.22
374.30	1093.26
374.67	1092.80
375.04	1092.33
375.41	1093.97
375.78	1108.24
376.15	1110.82
376.52	1114.56
376.89	1120.18
377.26	1119.24
377.63	1102.39
378.00	1113.16
378.37	1102.16
378.74	1100.29
379.11	1099.12
379.48	1102.39
379.85	1084.84
380.22	1091.86
380.59	1090.92
380.96	1084.37
381.33	1093.50
381.70	1103.80
382.07	1104.03
382.44	1102.16
382.81	1119.01
383.18	1120.18
383.55	1108.71
383.92	1106.61
384.29	1112.69
384.66	1106.14
385.03	1109.18
385.40	1123.69
385.77	1119.48
386.14	1106.61
386.51	1104.50
386.88	1098.41
387.25	1091.39
387.62	1100.29
387.99	1104.73
388.36	1100.99
388.73	1096.31
389.10	1093.97
389.46	1098.88
389.83	1101.46
390.20	1112.46
390.57	1119.48
390.94	1123.22
391.31	1118.07
391.68	1112.46
392.05	1106.61
392.42	1107.07
392.79	1106.84
393.16	1108.71
393.53	1122.52
393.89	1131.41
394.26	1136.80
394.63	1150.61
395.00	1150.14
395.37	1160.67
395.74	1151.08
396.11	1148.27
396.48	1137.27
396.84	1141.48
397.21	1127.67
397.58	1132.82
397.95	1131.65
398.32	1126.27
398.69	1132.82
399.06	1138.44
399.42	1150.37
399.79	1161.14
400.16	1177.99
400.53	1178.69
400.90	1189.23
401.27	1181.97
401.64	1181.97
402.00	1187.35
402.37	1192.27
402.74	1193.67
403.11	1209.59
403.48	1218.72
403.84	1221.76
404.21	1245.40
404.58	1253.12
404.95	1259.68
405.32	1271.85
405.68	1280.51
406.05	1278.87
406.42	1304.38
406.79	1333.17
407.16	1356.81
407.52	1396.83
407.89	1428.90
408.26	1454.41
408.63	1481.33
408.99	1513.16
409.36	1546.39
409.73	1586.88
410.10	1627.37
410.47	1662.01
410.83	1717.02
411.20	1754.70
411.57	1806.43
411.94	1864.00
412.30	1938.90
412.67	1998.82
413.04	2077.23
413.40	2151.19
413.77	2229.36
414.14	2324.15
414.51	2438.84
414.87	2543.93
415.24	2671.72
415.61	2813.56
415.97	2927.54
416.34	3044.10
416.71	3199.28
417.08	3345.80
417.44	3495.82
417.81	3707.41
418.18	3899.57
418.54	4098.98
418.91	4333.74
419.28	4577.85
419.64	4782.88
420.01	5046.43
420.38	5298.04
420.74	5560.88
421.11	5873.81
421.48	6198.44
421.84	6562.39
422.21	6923.54
422.58	7317.92
422.94	7735.94
423.31	8191.88
423.68	8621.36
424.04	9122.47
424.41	9611.41
424.77	10091.45
425.14	10593.03
425.51	11139.78
425.87	11747.85
426.24	12369.26
426.61	13065.10
426.97	13883.82
427.34	14615.24
427.70	15427.41
428.07	16207.98
428.44	17097.61
428.80	17948.63
429.17	18881.57
429.53	19750.61
429.90	20832.17
430.27	21754.81
430.63	22676.28
431.00	23792.25
431.36	24983.58
431.73	25971.29
432.09	27026.87
432.46	28214.22
432.83	29204.50
433.19	30128.78
433.56	31245.92
433.92	32439.12
434.29	33451.17
434.65	34635.01
435.02	35648.70
435.38	36750.39
435.75	37464.49
436.11	38446.81
436.48	39226.91
436.84	40310.11
437.21	41141.47
437.57	41890.91
437.94	42361.59
438.30	42807.23
438.67	42877.91
439.03	42937.83
439.40	43118.75
439.76	43084.82
440.13	42877.21
440.49	42679.90
440.86	42183.94
441.22	41755.86
441.59	41305.31
441.95	40872.54
442.32	40214.38
442.68	39807.36
443.05	39110.35
443.41	38329.08
443.78	37397.78
444.14	36565.96
444.51	35482.29
444.87	34676.21
445.24	33728.76
445.60	32899.97
445.96	31935.67
446.33	31097.06
446.69	30042.41
447.06	29189.99
447.42	28371.74
447.79	27556.77
448.15	26785.09
448.51	26082.70
448.88	25430.39
449.24	24635.31
449.61	24143.56
449.97	23511.38
450.33	22888.33
450.70	22164.87
451.06	21621.87
451.43	20915.73
451.79	20335.98
452.15	19767.70
452.52	19320.42
452.88	18828.91
453.24	18376.01
453.61	17909.08
453.97	17479.35
454.34	16957.18
454.70	16534.25
455.06	16080.18
455.43	15597.33
455.79	15033.96
456.15	14611.96
456.52	14074.81
456.88	13654.92
457.24	13198.05
457.61	12866.86
457.97	12464.76
458.33	12060.31
458.70	11639.25
459.06	11216.78
459.42	10818.42
459.79	10392.45
460.15	10047.45
460.51	9695.20
460.88	9387.19
461.24	9069.58
461.60	8805.80
461.96	8542.49
462.33	8279.41
462.69	8013.99
463.05	7793.52
463.42	7615.87
463.78	7416.46
464.14	7198.79
464.50	7037.99
464.87	6824.77
465.23	6606.86
465.59	6414.00
465.95	6262.57
466.32	6089.61
466.68	5944.96
467.04	5785.34
467.40	5654.73
467.77	5533.26
468.13	5407.11
468.49	5279.78
468.85	5163.69
469.22	5044.32
469.58	4912.55
469.94	4832.04
470.30	4744.50
470.66	4634.49
471.03	4524.96
471.39	4410.04
471.75	4293.71
472.11	4183.47
472.47	4120.05
472.84	4033.21
473.20	3984.76
473.56	3925.08
473.92	3853.93
474.28	3778.33
474.65	3699.92
475.01	3620.57
475.37	3522.27
475.73	3449.48
476.09	3386.05
476.45	3358.67
476.81	3288.45
477.18	3240.24
477.54	3181.49
477.90	3120.17
478.26	3033.10
478.62	3001.27
478.98	2951.65
479.34	2925.67
479.71	2862.94
480.07	2834.39
480.43	2784.30
480.79	2755.98
481.15	2718.06
481.51	2697.94
481.87	2656.27
482.23	2611.80
482.59	2564.52
482.96	2508.59
483.32	2489.39
483.68	2458.50
484.04	2440.24
484.40	2407.94
484.76	2376.81
485.12	2332.58
485.48	2300.75
485.84	2257.91
486.20	2231.47
486.56	2219.30
486.92	2185.59
487.28	2148.61
487.64	2123.80
488.00	2089.86
488.37	2052.18
488.73	2017.31
489.09	2003.26
489.45	1972.84
489.81	1955.28
490.17	1949.20
490.53	1933.05
490.89	1893.26
491.25	1883.66
491.61	1853.47
491.97	1823.98
492.33	1794.25
492.69	1788.64
493.05	1759.15
493.41	1741.83
493.77	1718.42
494.13	1715.38
494.49	1683.31
494.85	1668.33
495.21	1651.72
495.57	1637.20
495.93	1617.78
496.29	1602.80
496.64	1589.93
497.00	1569.80
497.36	1555.29
497.72	1543.35
498.08	1535.86
498.44	1508.48
498.80	1504.96
499.16	1489.28
499.52	1474.30
499.88	1456.52
500.24	1452.07
500.60	1450.43
500.96	1429.37
501.32	1429.13
501.68	1429.60
502.03	1426.32
502.39	1398.00
502.75	1397.07
503.11	1390.51
503.47	1388.17
503.83	1379.04
504.19	1389.11
504.55	1385.83
504.91	1376.47
505.26	1357.04
505.62	1356.57
505.98	1337.85
506.34	1320.76
506.70	1322.64
507.06	1315.62
507.42	1305.08
507.78	1305.08
508.13	1309.53
508.49	1302.74
508.85	1295.25
509.21	1292.21
509.57	1285.19
509.93	1285.19
510.28	1267.40
510.64	1264.59
511.00	1255.93
511.36	1245.40
511.72	1232.99
512.07	1222.93
512.43	1229.95
512.79	1229.48
513.15	1228.55
513.51	1225.97
513.86	1221.53
514.22	1219.42
514.58	1210.29
514.94	1207.72
515.30	1203.97
515.65	1202.80
516.01	1198.35
516.37	1205.38
516.73	1194.14
517.08	1184.31
517.44	1188.52
517.80	1185.25
518.16	1176.35
518.51	1178.69
518.87	1189.23
519.23	1183.84
519.59	1184.08
519.94	1184.08
520.30	1192.97
520.66	1184.78
521.01	1182.91
521.37	1176.82
521.73	1171.91
522.09	1163.95
522.44	1177.06
522.80	1182.91
523.16	1186.65
523.51	1188.29
523.87	1185.72
524.23	1160.67
524.58	1165.35
524.94	1157.86
525.30	1155.29
525.65	1161.14
526.01	1171.91
526.37	1154.12
526.72	1151.08
527.08	1148.27
527.44	1146.86
527.79	1141.95
528.15	1145.69
528.51	1148.97
528.86	1145.22
529.22	1136.80
529.58	1134.93
529.93	1136.33
530.29	1133.05
530.65	1131.41
531.00	1134.93
531.36	1146.39
531.71	1149.20
532.07	1152.71
532.43	1153.88
532.78	1154.12
533.14	1148.50
533.49	1140.54
533.85	1134.46
534.21	1143.59
534.56	1152.01
534.92	1140.31
535.27	1151.31
535.63	1148.97
535.98	1144.52
536.34	1133.99
536.69	1146.39
537.05	1137.97
537.41	1142.42
537.76	1138.44
538.12	1137.50
538.47	1138.90
538.83	1136.80
539.18	1140.78
539.54	1130.01
539.89	1124.63
540.25	1120.18
540.60	1123.69
540.96	1123.69
541.31	1142.65
541.67	1141.01
542.02	1134.46
542.38	1123.46
542.73	1114.80
543.09	1108.01
543.44	1117.37
543.80	1118.78
544.15	1113.63
544.51	1120.88
544.86	1118.07
545.22	1115.97
545.57	1120.88
545.93	1137.27
546.28	1128.37
546.64	1124.63
546.99	1122.05
547.35	1116.44
547.70	1104.03
548.05	1111.75
548.41	1107.07
548.76	1105.44
549.12	1115.50
549.47	1120.88
549.83	1115.27
550.18	1125.10
550.53	1122.05
550.89	1108.71
551.24	1112.22
551.60	1106.84
551.95	1099.58
552.30	1100.52
552.66	1114.80
553.01	1114.56
553.37	1114.56
553.72	1112.22
554.07	1109.65
554.43	1095.37
554.78	1086.24
555.13	1088.58
555.49	1085.54
555.84	1088.58
556.19	1091.39
556.55	1097.95
556.90	1105.67
557.26	1117.61
557.61	1114.33
557.96	1116.67
558.32	1118.78
558.67	1115.27
559.02	1102.86
559.37	1090.69
559.73	1084.60
560.08	1071.50
560.43	1060.03
560.79	1061.43
561.14	1086.01
561.49	1092.80
561.85	1104.03
562.20	1117.14
562.55	1125.10
562.90	1113.63
563.26	1115.27
563.61	1104.73
563.96	1101.92
564.32	1098.41
564.67	1099.12
565.02	1090.22
565.37	1094.67
565.73	1089.52
566.08	1102.16
566.43	1099.82
566.78	1101.46
567.14	1104.50
567.49	1108.24
567.84	1098.65
568.19	1114.10
568.54	1117.14
568.90	1108.95
569.25	1109.41
569.60	1113.39
569.95	1101.69
570.31	1092.33
570.66	1094.20
571.01	1095.84
571.36	1087.18
571.71	1088.12
572.06	1097.95
572.42	1101.92
572.77	1090.92
573.12	1101.46
573.47	1102.63
573.82	1096.07
574.18	1094.90
574.53	1102.86
574.88	1090.22
575.23	1073.37
575.58	1074.54
575.93	1072.20
576.28	1076.18
576.64	1088.82
576.99	1115.03
577.34	1112.69
577.69	1115.03
578.04	1116.44
578.39	1109.65
578.74	1097.95
579.09	1101.22
579.44	1102.16
579.80	1101.22
580.15	1096.78
580.50	1106.37
580.85	1103.80
581.20	1108.71
581.55	1111.52
581.90	1121.12
582.25	1111.75
582.60	1120.18
582.95	1120.88
583.30	1114.09
583.65	1115.03
584.00	1113.39
584.35	1103.33
584.71	1094.20
585.06	1090.69
585.41	1094.20
585.76	1098.65
586.11	1107.07
586.46	1115.73
586.81	1104.50
587.16	1087.88
587.51	1072.67
587.86	1072.20
588.21	1063.54
588.56	1078.28
588.91	1088.35
589.26	1099.12
589.61	1092.56
589.96	1095.14
590.31	1099.82
590.66	1092.80
591.01	1095.14
591.36	1095.84
591.71	1096.78
592.06	1096.54
592.41	1096.07
592.76	1099.12
593.10	1104.03
593.45	1101.92
593.80	1098.88
594.15	1097.71
594.50	1091.86
594.85	1086.48
595.20	1084.37
595.55	1078.28
595.90	1085.07
596.25	1087.41
596.60	1102.16
596.95	1110.35
597.30	1113.16
597.64	1168.63
597.99	1166.52
598.34	1164.88
598.69	1157.86
599.04	1154.35
599.39	1100.75
599.74	1099.58
600.09	1092.33
600.44	1100.75
600.78	1097.71
601.13	1094.43
601.48	1087.41
601.83	1090.69
602.18	1077.82
602.53	1079.92
602.88	1082.03
603.22	1089.75
603.57	1083.67
603.92	1095.14
604.27	1099.58
604.62	1102.63
604.97	1099.82
605.31	1106.84
605.66	1109.18
606.01	1110.35
606.36	1114.33
606.71	1124.16
607.05	1116.90
607.40	1111.05
607.75	1100.99
608.10	1090.22
608.44	1087.88
608.79	1088.82
609.14	1099.12
609.49	1104.26
609.84	1110.82
610.18	1105.44
610.53	1111.52
610.88	1103.33
611.23	1119.71
611.57	1114.80
611.92	1122.29
612.27	1119.24
612.62	1122.52
612.96	1115.03
613.31	1115.03
613.66	1110.58
614.00	1105.67
614.35	1109.18
614.70	1096.54
615.05	1088.82
615.39	1092.33
615.74	1099.35
616.09	1089.52
616.43	1093.97
616.78	1091.86
617.13	1085.54
617.47	1082.26
617.82	1090.92
618.17	1090.92
618.51	1100.05
618.86	1104.97
619.21	1109.65
619.55	1099.35
619.90	1105.44
620.25	1106.37
620.59	1097.95
620.94	1098.18
621.29	1094.20
621.63	1096.54
621.98	1087.41
622.32	1088.82
622.67	1071.50
623.02	1075.48
623.36	1066.82
623.71	1072.90
624.05	1073.37
624.40	1086.48
624.75	1081.09
625.09	1076.88
625.44	1082.50
625.78	1094.43
626.13	1083.90
626.48	1093.73
626.82	1109.41
627.17	1113.16
627.51	1103.33
627.86	1111.52
628.20	1104.73
628.55	1095.37
628.89	1086.24
629.24	1092.33
629.58	1089.75
629.93	1093.03
630.28	1091.63
630.62	1097.48
630.97	1089.99
631.31	1095.37
631.66	1101.46
632.00	1111.05
632.35	1102.39
632.69	1098.65
633.04	1097.48
633.38	1083.90
633.73	1072.20
634.07	1080.16
634.42	1082.50
634.76	1084.84
635.11	1092.33
635.45	1091.63
635.79	1092.80
636.14	1101.92
636.48	1099.12
636.83	1099.82
637.17	1104.73
637.52	1091.86
637.86	1079.92
638.21	1078.28
638.55	1086.48
638.89	1085.07
639.24	1085.54
639.58	1103.56
639.93	1099.58
640.27	1102.16
640.61	1103.09
640.96	1110.82
641.30	1094.90
641.65	1107.54
641.99	1086.94
642.33	1080.86
642.68	1079.46
643.02	1079.69
643.37	1072.67
643.71	1089.29
644.05	1091.39
644.40	1095.14
644.74	1102.16
645.08	1097.95
645.43	1089.99
645.77	1093.73
646.11	1095.14
646.46	1101.22
646.80	1104.73
647.14	1104.50
647.49	1101.22
647.83	1095.37
648.17	1078.05
648.52	1084.60
648.86	1078.99
649.20	1084.14
649.55	1088.35
649.89	1102.16
650.23	1097.48
650.57	1100.05
650.92	1092.56
651.26	1097.71
651.60	1086.01
651.95	1079.22
652.29	1081.56
652.63	1085.07
652.97	1071.50
653.32	1078.52
653.66	1084.84
654.00	1086.48
654.34	1098.41
654.69	1104.26
655.03	1105.20
655.37	1103.56
655.71	1101.92
656.05	1105.67
656.40	1103.09
656.74	1095.14
657.08	1089.05
657.42	1096.31
657.76	1076.65
658.11	1077.11
658.45	1079.46
658.79	1084.84
659.13	1088.35
659.47	1103.09
659.82	1097.01
660.16	1102.86
660.50	1106.84
660.84	1102.39
661.18	1089.75
661.52	1095.14
661.87	1093.26
662.21	1092.56
662.55	1094.20
662.89	1100.29
663.23	1099.35
663.57	1096.54
663.91	1093.97
664.25	1086.48
664.60	1085.54
664.94	1093.97
665.28	1096.07
665.62	1089.99
665.96	1098.18
666.30	1096.31
666.64	1093.03
666.98	1094.67
667.32	1103.33
667.66	1103.80
668.01	1105.44
668.35	1100.99
668.69	1108.01
669.03	1104.50
669.37	1099.35
669.71	1097.24
670.05	1106.37
670.39	1091.39
670.73	1086.24
671.07	1089.29
671.41	1090.46
671.75	1080.39
672.09	1086.01
672.43	1095.84
672.77	1088.12
673.11	1083.90
673.45	1087.65
673.79	1090.22
674.13	1094.67
674.47	1098.18
674.81	1099.35
675.15	1097.24
675.49	1096.07
675.83	1090.46
676.17	1081.80
676.51	1083.43
676.85	1082.26
677.19	1076.88
677.53	1066.82
677.87	1074.31
678.21	1077.82
678.55	1076.41
678.89	1079.92
679.23	1082.50
679.57	1078.52
679.90	1079.92
680.24	1075.71
680.58	1078.99
680.92	1084.14
681.26	1089.05
681.60	1076.88
681.94	1089.05
682.28	1091.39
682.62	1086.01
682.96	1090.92
683.29	1097.01
683.63	1089.05
683.97	1081.56
684.31	1082.73
684.65	1076.18
684.99	1078.52
685.33	1080.63
685.67	1087.41
686.00	1085.54
686.34	1082.03
686.68	1087.18
687.02	1093.50
687.36	1088.82
687.70	1095.60
688.03	1102.86
688.37	1098.41
688.71	1089.75
689.05	1083.67
689.39	1072.43
689.72	1077.35
690.06	1077.11
690.40	1083.90
690.74	1092.09
691.08	1101.92
691.41	1086.01
691.75	1079.69
692.09	1078.52
692.43	1066.82
692.76	1062.14
693.10	1069.39
693.44	1077.11
693.78	1075.48
694.11	1093.73
694.45	1096.07
694.79	1097.01
695.13	1099.82
695.46	1101.69
695.80	1100.29
696.14	1105.67
696.48	1101.69
696.81	1095.14
697.15	1098.65
697.49	1083.67
697.82	1075.01
698.16	1082.03
698.50	1078.52
698.83	1073.37
699.17	1085.07
699.51	1089.29
699.84	1088.35
700.18	1093.26
700.52	1083.90
700.85	1076.41
701.19	1085.07
701.53	1081.09
701.86	1083.67
702.20	1089.75
702.54	1095.14
702.87	1084.84
703.21	1087.65
703.55	1088.12
703.88	1085.77
704.22	1072.20
704.55	1071.03
704.89	1067.99
705.23	1065.41
705.56	1067.05
705.90	1088.35
706.23	1087.65
706.57	1095.84
706.91	1102.86
707.24	1093.73
707.58	1083.67
707.91	1077.11
708.25	1081.33
708.58	1078.75
708.92	1096.54
709.26	1094.43
709.59	1092.09
709.93	1081.56
710.26	1077.82
710.60	1078.75
710.93	1086.94
711.27	1096.07
711.60	1100.29
711.94	1099.12
712.27	1097.24
712.61	1086.24
712.94	1097.48
713.28	1095.84
713.61	1102.16
713.95	1090.22
714.28	1094.20
714.62	1092.56
714.95	1088.35
715.29	1083.20
715.62	1091.86
715.96	1088.82
716.29	1081.33
716.63	1082.73
716.96	1082.50
717.29	1081.09
717.63	1087.18
717.96	1087.18
718.30	1087.88
718.63	1079.69
718.97	1085.77
719.30	1088.58
719.63	1086.94
719.97	1093.03
720.30	1090.46
720.64	1080.63
720.97	1082.26
721.30	1080.63
721.64	1067.28
721.97	1071.50
722.31	1078.52
722.64	1071.73
722.97	1071.50
723.31	1085.54
723.64	1090.46
723.97	1087.41
724.31	1086.94
724.64	1080.39
724.98	1076.41
725.31	1075.48
725.64	1069.62
725.98	1068.45
726.31	1086.71
726.64	1083.20
726.97	1080.39
727.31	1082.50
727.64	1087.65
727.97	1082.73
728.31	1087.41
728.64	1088.82
728.97	1086.48
729.31	1083.90
729.64	1075.24
729.97	1071.03
730.30	1070.80
730.64	1078.75
730.97	1072.90
731.30	1077.35
731.63	1078.75
731.97	1083.90
732.30	1073.84
732.63	1082.26
732.96	1084.60
733.30	1089.75
733.63	1090.69
733.96	1104.73
734.29	1098.65
734.63	1086.94
734.96	1085.31
735.29	1078.52
735.62	1077.11
735.95	1073.60
736.29	1082.73
736.62	1078.75
736.95	1080.63
737.28	1069.62
737.61	1075.94
737.94	1073.60
738.28	1070.80
738.61	1071.50
738.94	1072.90
739.27	1065.88
739.60	1070.80
739.93	1072.90
740.27	1078.05
740.60	1090.22
740.93	1089.05
741.26	1079.92
741.59	1061.90
741.92	1060.26
742.25	1043.64
742.58	1042.94
742.91	1042.24
743.25	1055.82
743.58	1049.50
743.91	1057.45
744.24	1058.39
744.57	1064.48
744.90	1070.80
745.23	1075.24
745.56	1078.52
745.89	1080.63
746.22	1069.16
746.55	1061.43
746.88	1062.14
747.21	1056.99
747.54	1070.80
747.87	1085.54
748.20	1095.14
748.53	1096.31
748.87	1102.86
749.20	1100.75
749.53	1097.01
749.86	1096.07
750.19	1081.09
750.52	1072.67
750.85	1070.33
751.18	1077.11
751.51	1070.56
751.84	1075.01
752.16	1082.73
752.49	1076.18
752.82	1066.35
753.15	1064.24
753.48	1075.01
753.81	1065.65
754.14	1067.05
754.47	1077.35
754.80	1088.35
755.13	1084.60
755.46	1094.43
755.79	1094.43
756.12	1093.73
756.45	1083.67
756.78	1084.37
757.11	1079.69
757.43	1084.14
757.76	1080.86
758.09	1081.56
758.42	1078.99
758.75	1082.26
759.08	1079.69
759.41	1076.18
759.74	1081.56
760.07	1073.37
760.39	1070.56
760.72	1076.18
761.05	1074.07
761.38	1068.22
761.71	1081.56
762.04	1092.56
762.36	1081.09
762.69	1085.54
763.02	1097.48
763.35	1104.73
763.68	1096.78
764.01	1105.67
764.33	1104.97
764.66	1092.80
764.99	1087.41
765.32	1083.90
765.65	1083.90
765.97	1083.90
766.30	1091.86
766.63	1094.67
766.96	1098.65
767.28	1097.48
767.61	1098.18
767.94	1091.16
768.27	1089.05
768.59	1091.86
768.92	1090.69
769.25	1094.90
769.58	1100.75
769.90	1090.92
770.23	1087.18
770.56	1092.56
770.89	1082.26
771.21	1080.39
771.54	1086.71
771.87	1087.18
772.19	1075.24
772.52	1073.37
772.85	1067.99
773.17	1064.94
773.50	1056.75
773.83	1060.03
774.15	1069.39
774.48	1073.84
774.81	1077.35
775.13	1086.94
775.46	1089.29
775.79	1088.12
776.11	1084.84
776.44	1087.41
776.77	1081.56
777.09	1079.92
777.42	1073.60
777.74	1073.14
778.07	1074.31
778.40	1078.99
778.72	1078.28
779.05	1084.84
779.37	1095.37
779.70	1088.12
780.03	1082.26
780.35	1086.71
780.68	1085.54
781.00	1082.73
781.33	1087.41
781.65	1090.46
781.98	1089.75
782.31	1090.69
782.63	1077.58
782.96	1072.67
783.28	1066.82
783.61	1063.07
783.93	1069.62
784.26	1074.31
784.58	1082.73
784.91	1086.48
785.23	1088.35
785.56	1075.71
785.88	1080.39
786.21	1079.69
786.53	1079.22
786.86	1081.80
787.18	1093.03
787.51	1088.58
787.83	1081.56
788.16	1082.03
788.48	1081.09
788.81	1074.31
789.13	1076.18
789.46	1074.77
789.78	1068.22
790.10	1068.69
790.43	1070.09
790.75	1073.60
791.08	1074.54
791.40	1081.33
791.73	1088.35
792.05	1082.26
792.37	1073.60
792.70	1077.35
793.02	1078.99
793.35	1065.18
793.67	1069.62
793.99	1085.77
794.32	1086.48
794.64	1077.11
794.96	1078.05
795.29	1075.94
795.61	1067.75
795.93	1052.77
796.26	1059.09
796.58	1060.96
796.91	1060.50
797.23	1064.01
797.55	1086.48
797.87	1089.29
798.20	1091.16
798.52	1092.80
798.84	1093.97
799.17	1079.69
799.49	1081.80
799.81	1083.90
800.14	1084.60
800.46	1076.41
800.78	1082.26
801.10	1075.01
801.43	1068.69
801.75	1073.60
802.07	1075.71
802.40	1068.45
802.72	1078.28
803.04	1075.71
803.36	1063.77
803.69	1067.05
804.01	1067.52
804.33	1054.18
804.65	1060.26
804.97	1065.88
805.30	1060.03
805.62	1061.67
805.94	1076.18
806.26	1088.82
806.58	1098.65
806.91	1102.63
807.23	1109.18
807.55	1096.31
807.87	1080.86
808.19	1082.97
808.52	1084.37
808.84	1082.03
809.16	1080.63
809.48	1083.90
809.80	1072.43
810.12	1079.22
810.44	1077.82
810.77	1088.82
811.09	1092.33
811.41	1095.37
811.73	1079.69
812.05	1071.03
812.37	1053.94
812.69	1051.84
813.01	1049.96
813.33	1053.24
813.66	1059.33
813.98	1069.39
814.30	1063.77
814.62	1074.54
814.94	1077.11
815.26	1089.05
815.58	1085.07
815.90	1090.92
816.22	1080.39
816.54	1083.43
816.86	1079.69
817.18	1090.92
817.50	1086.71
817.82	1086.94
818.14	1084.84
818.46	1081.56
818.78	1080.86
819.10	1084.84
819.42	1086.01
819.74	1071.97
820.06	1073.84
820.38	1077.82
820.70	1073.14
821.02	1078.99
821.34	1100.29
821.66	1100.75
821.98	1092.56
822.30	1087.88
822.62	1088.82
822.94	1078.05
823.26	1070.33
823.58	1074.54
823.90	1084.37
824.22	1083.90
824.54	1087.18
824.86	1084.60
825.18	1083.43
825.50	1076.88
825.81	1077.11
826.13	1076.41
826.45	1094.67
826.77	1098.65
827.09	1109.18
827.41	1095.84
827.73	1092.56
828.05	1077.35
828.36	1070.09
828.68	1058.62
829.00	1059.79
829.32	1067.52
829.64	1064.94
829.96	1066.58
830.28	1066.58
830.59	1076.65
830.91	1075.01
831.23	1084.14
831.55	1095.60
831.87	1093.03
832.19	1092.56
832.50	1093.03
832.82	1087.65
833.14	1083.67
833.46	1080.39
833.78	1076.65
834.09	1066.58
834.41	1074.54
834.73	1070.33
835.05	1086.01
835.36	1084.60
835.68	1083.90
836.00	1079.69
836.32	1076.65
836.63	1076.41
836.95	1078.99
837.27	1080.39
837.59	1075.24
837.90	1065.18
838.22	1063.77
838.54	1062.37
838.85	1073.84
839.17	1069.86
839.49	1079.92
839.80	1077.11
840.12	1076.65
840.44	1066.35
840.76	1070.09
841.07	1067.99
841.39	1060.26
841.71	1066.58
842.02	1071.50
842.34	1080.63
842.65	1085.77
842.97	1102.16
843.29	1100.52
843.60	1111.05
843.92	1109.65
844.24	1108.95
844.55	1101.22
844.87	1098.41
845.18	1086.01
845.50	1075.01
845.82	1078.05
846.13	1084.84
846.45	1092.33
846.76	1097.71
847.08	1102.39
847.40	1099.58
847.71	1088.82
848.03	1082.50
848.34	1082.73
848.66	1086.48
848.97	1080.86
849.29	1080.86
849.60	1074.31
849.92	1074.31
850.24	1077.35
850.55	1085.07
850.87	1080.86
851.18	1088.35
851.50	1084.84
851.81	1075.48
852.13	1075.48
852.44	1087.18
852.76	1085.07
853.07	1088.35
853.39	1097.01
853.70	1094.43
854.01	1081.56
854.33	1079.69
854.64	1076.41
854.96	1067.05
855.27	1065.18
855.59	1067.99
855.90	1064.94
856.22	1066.11
856.53	1066.82
856.84	1072.20
857.16	1075.24
857.47	1082.97
857.79	1078.75
858.10	1083.90
858.41	1077.82
858.73	1080.63
859.04	1071.50
859.36	1072.43
859.67	1070.56
859.98	1065.41
860.30	1068.45
860.61	1072.67
860.92	1066.58
861.24	1065.18
861.55	1072.90
861.87	1067.05
862.18	1064.24
862.49	1073.84
862.81	1071.03
863.12	1068.22
863.43	1064.01
863.74	1064.94
864.06	1054.18
864.37	1050.67
864.68	1044.58
865.00	1046.45
865.31	1046.22
865.62	1058.62
865.94	1064.24
866.25	1069.39
866.56	1066.58
866.87	1075.24
867.19	1070.80
867.50	1068.92
867.81	1071.97
868.12	1081.56
868.44	1073.60
868.75	1074.31
869.06	1081.56
869.37	1083.20
869.68	1086.01
870.00	1090.22
870.31	1086.71
870.62	1084.37
870.93	1075.94
871.24	1075.01
871.56	1077.82
871.87	1086.71
872.18	1087.18
872.49	1099.58
872.80	1097.48
873.12	1092.56
873.43	1082.97
873.74	1084.60
874.05	1075.94
874.36	1079.92
874.67	1071.03
874.98	1078.75
875.29	1085.31
875.61	1090.22
875.92	1083.67
876.23	1097.24
876.54	1101.22
876.85	1097.71
877.16	1089.05
877.47	1088.58
877.78	1091.63
878.09	1085.31
878.40	1081.56
878.72	1089.75
879.03	1094.20
879.34	1085.07
879.65	1088.82
879.96	1087.41
880.27	1075.94
880.58	1069.62
880.89	1064.24
881.20	1065.41
881.51	1067.99
881.82	1079.46
882.13	1086.71
882.44	1098.18
882.75	1098.18
883.06	1093.97
883.37	1090.22
883.68	1091.86
883.99	1087.41
884.30	1086.48
884.61	1090.92
884.92	1087.18
885.23	1073.84
885.54	1068.92
885.85	1063.31
886.16	1068.45
886.47	1079.69
886.78	1098.88
887.08	1098.18
887.39	1094.20
887.70	1088.12
888.01	1075.71
888.32	1078.75
888.63	1082.97
888.94	1085.54
889.25	1084.60
889.56	1092.09
889.87	1085.07
890.17	1083.20
890.48	1093.03
890.79	1089.52
891.10	1096.07
891.41	1084.60
891.72	1083.67
892.03	1073.14
892.34	1059.56
892.64	1060.26
892.95	1065.65
893.26	1074.07
893.57	1076.88
893.88	1093.50
894.18	1086.24
894.49	1091.39
894.80	1095.84
895.11	1094.90
895.42	1094.20
895.72	1094.67
896.03	1091.39
896.34	1082.73
896.65	1084.14
896.96	1081.56
897.26	1082.73
897.57	1078.75
897.88	1071.50
898.19	1063.77
898.49	1063.07
898.80	1059.33
899.11	1058.39
899.41	1067.28
899.72	1076.18
900.03	1072.90
900.34	1077.82
900.64	1077.35
900.95	1076.18
901.26	1078.28
901.56	1087.41
901.87	1086.01
902.18	1087.88
902.48	1089.29
902.79	1083.67
903.10	1074.54
903.40	1074.77
903.71	1066.82
904.02	1065.65
904.32	1062.37
904.63	1061.67
904.94	1055.58
905.24	1060.73
905.55	1055.82
905.85	1060.73
906.16	1070.56
906.47	1074.31
906.77	1083.43
907.08	1088.12
907.38	1079.69
907.69	1081.80
908.00	1080.39
908.30	1073.60
908.61	1075.94
908.91	1084.84
909.22	1077.58
909.52	1067.75
909.83	1073.60
910.14	1059.33
910.44	1058.62
910.75	1056.28
911.05	1057.22
911.36	1049.96
911.66	1061.43
911.97	1060.96
912.27	1068.92
912.58	1073.84
912.88	1075.24
913.19	1078.75
913.49	1084.60
913.80	1084.14
914.10	1085.07
914.41	1089.52
914.71	1090.22
915.01	1077.58
915.32	1078.99
915.62	1079.69
915.93	1085.31
916.23	1076.41
916.54	1080.16
916.84	1076.41
917.15	1079.69
917.45	1070.80
917.75	1074.31
918.06	1088.12
918.36	1092.56
918.67	1100.52
918.97	1104.50
919.27	1098.65
919.58	1083.20
919.88	1077.11
920.18	1071.03
920.49	1062.14
920.79	1064.48
921.10	1077.11
921.40	1081.56
921.70	1090.92
922.01	1098.41
922.31	1092.09
922.61	1089.52
922.92	1081.80
923.22	1071.50
923.52	1071.73
923.82	1083.43
924.13	1079.69
924.43	1075.94
924.73	1067.05
925.04	1065.41
925.34	1057.22
925.64	1050.90
925.94	1056.52
926.25	1062.14
926.55	1060.96
926.85	1069.62
927.15	1072.67
927.46	1074.07
927.76	1076.88
928.06	1066.82
928.36	1058.86
928.67	1062.14
928.97	1064.94
929.27	1061.90
929.57	1075.71
929.87	1088.35
930.18	1088.35
930.48	1084.37
930.78	1091.16
931.08	1090.69
931.38	1075.94
931.69	1074.07
931.99	1083.67
932.29	1085.07
932.59	1087.88
932.89	1095.37
933.19	1097.95
933.49	1086.01
933.80	1076.18
934.10	1064.71
934.40	1069.86
934.70	1066.11
935.00	1079.92
935.30	1084.37
935.60	1084.14
935.90	1085.07
936.20	1088.12
936.50	1081.80
936.81	1080.86
937.11	1088.12
937.41	1082.50
937.71	1081.09
938.01	1081.80
938.31	1086.48
938.61	1078.75
938.91	1077.11
939.21	1069.86
939.51	1071.26
939.81	1066.58
940.11	1072.43
940.41	1073.60
940.71	1077.58
941.01	1068.22
941.31	1066.82
941.61	1067.05
941.91	1066.58
942.21	1069.16
942.51	1078.75
942.81	1085.77
943.11	1082.97
943.41	1079.22
943.71	1078.05
944.01	1072.20
944.31	1064.94
944.61	1066.58
944.90	1070.56
945.20	1071.03
945.50	1071.03
945.80	1066.82
946.10	1079.69
946.40	1082.26
946.70	1083.90
947.00	1075.94
947.30	1082.97
947.60	1077.58
947.89	1085.07
948.19	1078.05
948.49	1080.86
948.79	1073.37
949.09	1068.22
949.39	1056.05
949.69	1058.39
949.98	1059.56
950.28	1060.96
950.58	1055.82
950.88	1060.03
951.18	1060.03
951.48	1059.56
951.77	1056.99
952.07	1065.88
952.37	1068.92
952.67	1069.62
952.97	1074.54
953.26	1078.99
953.56	1070.56
953.86	1069.62
954.16	1072.43
954.45	1083.43
954.75	1091.39
955.05	1095.60
955.35	1096.31
955.64	1100.29
955.94	1099.12
956.24	1091.39
956.54	1094.67
956.83	1091.16
957.13	1093.73
957.43	1082.50
957.72	1091.16
958.02	1090.92
958.32	1091.16
958.61	1086.48
958.91	1091.16
959.21	1092.33
959.50	1086.24
959.80	1090.92
960.10	1083.43
960.39	1077.11
960.69	1063.77
960.99	1066.58
961.28	1066.82
961.58	1078.05
961.87	1084.60
962.17	1091.86
962.47	1083.90
962.76	1077.11
963.06	1079.46
963.36	1073.14
963.65	1078.52
963.95	1081.09
964.24	1084.37
964.54	1073.14
964.83	1074.54
965.13	1070.56
965.42	1075.48
965.72	1077.82
966.02	1084.14
966.31	1089.99
966.61	1094.67
966.90	1093.50
967.20	1089.75
967.49	1088.35
967.79	1083.67
968.08	1078.75
968.38	1079.69
968.67	1078.75
968.97	1069.39
969.26	1060.03
969.56	1054.88
969.85	1053.24
970.15	1056.75
970.44	1073.37
970.74	1082.50
971.03	1085.77
971.32	1089.05
971.62	1089.29
971.91	1079.69
972.21	1080.16
972.50	1075.24
972.80	1063.07
973.09	1058.16
973.38	1056.28
973.68	1053.71
973.97	1054.88
974.27	1056.28
974.56	1057.92
974.85	1061.20
975.15	1060.26
975.44	1055.35
975.73	1060.96
976.03	1061.67
976.32	1065.18
976.61	1063.54
976.91	1081.80
977.20	1081.33
977.49	1075.48
977.79	1069.39
978.08	1077.58
978.37	1073.60
978.67	1084.37
978.96	1084.37
979.25	1085.07
979.55	1089.99
979.84	1086.24
980.13	1078.75
980.42	1082.97
980.72	1091.86
981.01	1077.11
981.30	1077.35
981.59	1083.67
981.89	1082.50
982.18	1074.07
982.47	1072.43
982.76	1068.69
983.06	1071.03
983.35	1067.52
983.64	1072.43
983.93	1089.75
984.22	1091.16
984.52	1084.14
984.81	1087.41
985.10	1089.99
985.39	1075.01
985.68	1080.63
985.97	1079.92
986.27	1085.77
986.56	1081.33
986.85	1094.90
987.14	1102.86
987.43	1105.44
987.72	1086.94
988.01	1086.01
988.31	1083.20
988.60	1068.69
988.89	1063.31
989.18	1082.26
989.47	1089.05
989.76	1078.99
990.05	1077.58
990.34	1075.48
990.63	1069.39
990.92	1051.37
991.21	1055.82
991.51	1053.01
991.80	1057.22
992.09	1064.01
992.38	1083.67
992.67	1082.73
992.96	1093.26
993.25	1100.75
993.54	1099.58
993.83	1086.24
994.12	1083.20
994.41	1075.24
994.70	1066.58
994.99	1066.35
995.28	1072.67
995.57	1089.75
995.86	1090.22
996.15	1088.82
996.44	1082.50
996.73	1077.82
997.02	1067.75
997.31	1067.52
997.59	1072.67
997.88	1073.60
998.17	1073.84
998.46	1072.43
998.75	1082.97
999.04	1077.58
999.33	1076.41
999.62	1073.14
999.91	1070.33
1000.20	1056.05
1000.49	1061.43
1000.77	1072.20
1001.06	1081.09
1001.35	1081.80
1001.64	1081.80
1001.93	1067.05
1002.22	1053.24
1002.51	1053.48
1002.79	1051.37
1003.08	1056.28
1003.37	1072.90
1003.66	1078.52
1003.95	1074.07
1004.23	1082.97
1004.52	1082.03
1004.81	1089.75
1005.10	1092.80
1005.39	1094.90
1005.67	1082.73
1005.96	1088.58
1006.25	1079.69
1006.54	1071.73
1006.83	1075.01
1007.11	1086.48
1007.40	1087.65
1007.69	1089.05
1007.97	1093.26
1008.26	1088.35
1008.55	1088.35
1008.84	1079.22
1009.12	1067.75
1009.41	1077.35
1009.70	1080.39
1009.98	1073.60
1010.27	1074.31
1010.56	1075.71
1010.85	1060.73
1011.13	1050.43
1011.42	1052.77
1011.71	1055.82
1011.99	1060.50
1012.28	1069.16
1012.56	1081.33
1012.85	1090.22
1013.14	1095.60
1013.42	1096.54
1013.71	1102.16
1014.00	1097.95
1014.28	1093.03
1014.57	1086.01
1014.85	1081.33
1015.14	1074.54
1015.43	1083.43
1015.71	1071.50
1016.00	1071.50
1016.28	1078.05
1016.57	1069.86
1016.85	1062.37
1017.14	1071.50
1017.43	1081.80
1017.71	1076.41
1018.00	1086.71
1018.28	1088.58
1018.57	1080.86
1018.85	1075.01
1019.14	1080.39
1019.42	1074.31
1019.71	1071.97
1019.99	1074.54
1020.28	1078.05
1020.56	1084.60
1020.85	1086.94
1021.13	1097.01
1021.42	1101.92
1021.70	1096.07
1021.99	1085.77
1022.27	1093.97
1022.55	1068.45
1022.84	1112.92
>>>>>End Processed Spectral Data<<<<<
