SpectraSuite Data File
++++++++++++++++++++++++++++++++++++
Date: Mon Aug 26 10:24:40 PDT 2019
User: corrico
Dark Spectrum Present: No
Reference Spectrum Present: No
Number of Sampled Component Spectra: 1
Spectrometers: USB2+H06089
Integration Time (usec): 10000 (USB2+H06089)
Spectra Averaged: 2 (USB2+H06089)
Boxcar Smoothing: 2 (USB2+H06089)
Correct for Electrical Dark: No (USB2+H06089)
Strobe/Lamp Enabled: No (USB2+H06089)
Correct for Detector Non-linearity: No (USB2+H06089)
Correct for Stray Light: No (USB2+H06089)
Number of Pixels in Processed Spectrum: 2048
>>>>>Begin Processed Spectral Data<<<<<
339.70	1022.81
340.07	1022.81
340.45	1000.81
340.82	972.49
341.19	947.21
341.57	924.98
341.94	903.45
342.31	900.17
342.69	899.47
343.06	895.25
343.43	889.17
343.81	892.91
344.18	882.85
344.55	892.68
344.93	907.66
345.30	907.89
345.67	915.62
346.04	929.89
346.42	936.21
346.79	941.13
347.16	965.24
347.54	978.11
347.91	990.51
348.28	1005.26
348.65	1019.07
349.03	1023.98
349.40	1036.16
349.77	1044.58
350.14	1049.50
350.52	1049.03
350.89	1063.54
351.26	1066.82
351.63	1071.26
352.01	1077.35
352.38	1084.37
352.75	1077.35
353.12	1078.99
353.50	1080.16
353.87	1079.69
354.24	1076.65
354.61	1089.99
354.98	1089.05
355.36	1085.31
355.73	1081.80
356.10	1092.33
356.47	1089.05
356.84	1088.58
357.22	1100.52
357.59	1113.16
357.96	1111.99
358.33	1102.39
358.70	1114.80
359.08	1096.78
359.45	1080.16
359.82	1071.26
360.19	1070.56
360.56	1058.62
360.94	1064.24
361.31	1077.11
361.68	1085.07
362.05	1100.29
362.42	1101.92
362.79	1116.44
363.16	1119.48
363.54	1119.71
363.91	1102.86
364.28	1111.05
364.65	1101.69
365.02	1086.01
365.39	1080.86
365.76	1088.82
366.14	1088.12
366.51	1092.80
366.88	1104.03
367.25	1110.12
367.62	1112.46
367.99	1106.37
368.36	1102.63
368.73	1105.20
369.10	1094.90
369.48	1101.69
369.85	1108.71
370.22	1110.12
370.59	1110.35
370.96	1121.12
371.33	1114.09
371.70	1104.50
372.07	1099.35
372.44	1102.39
372.81	1098.65
373.18	1096.07
373.55	1094.43
373.93	1096.78
374.30	1091.63
374.67	1096.31
375.04	1098.88
375.41	1117.84
375.78	1120.65
376.15	1105.90
376.52	1099.58
376.89	1098.41
377.26	1086.24
377.63	1082.73
378.00	1100.75
378.37	1104.03
378.74	1099.58
379.11	1094.43
379.48	1109.41
379.85	1111.29
380.22	1113.16
380.59	1112.92
380.96	1118.54
381.33	1097.71
381.70	1097.48
382.07	1100.05
382.44	1104.50
382.81	1104.03
383.18	1115.03
383.55	1112.22
383.92	1110.58
384.29	1107.54
384.66	1115.73
385.03	1117.37
385.40	1112.92
385.77	1110.82
386.14	1114.56
386.51	1106.14
386.88	1100.29
387.25	1101.92
387.62	1107.31
387.99	1115.03
388.36	1118.54
388.73	1119.24
389.10	1123.46
389.46	1120.41
389.83	1109.88
390.20	1114.80
390.57	1119.24
390.94	1128.61
391.31	1137.50
391.68	1150.37
392.05	1154.35
392.42	1156.46
392.79	1145.93
393.16	1134.22
393.53	1140.54
393.89	1139.37
394.26	1154.59
394.63	1165.82
395.00	1174.48
395.37	1167.46
395.74	1162.31
396.11	1154.82
396.48	1151.54
396.84	1150.61
397.21	1153.42
397.58	1157.86
397.95	1161.37
398.32	1159.03
398.69	1154.59
399.06	1162.54
399.42	1175.42
399.79	1179.86
400.16	1179.40
400.53	1186.42
400.90	1185.72
401.27	1184.31
401.64	1188.99
402.00	1212.87
402.37	1212.87
402.74	1213.33
403.11	1224.80
403.48	1230.19
403.84	1234.16
404.21	1259.21
404.58	1283.78
404.95	1296.66
405.32	1305.08
405.68	1325.91
406.05	1351.19
406.42	1373.66
406.79	1394.26
407.16	1428.43
407.52	1462.13
407.89	1485.07
408.26	1515.96
408.63	1548.50
408.99	1575.41
409.36	1604.67
409.73	1650.55
410.10	1701.34
410.47	1754.00
410.83	1825.85
411.20	1890.92
411.57	1973.77
411.94	2035.33
412.30	2120.76
412.67	2191.91
413.04	2275.94
413.40	2357.15
413.77	2458.97
414.14	2576.23
414.51	2713.62
414.87	2847.96
415.24	2990.27
415.61	3144.51
415.97	3280.73
416.34	3432.63
416.71	3618.70
417.08	3825.37
417.44	4025.02
417.81	4260.24
418.18	4509.74
418.54	4767.91
418.91	5006.64
419.28	5313.25
419.64	5612.84
420.01	5907.04
420.38	6229.34
420.74	6590.95
421.11	6965.43
421.48	7359.11
421.84	7795.15
422.21	8200.30
422.58	8669.11
422.94	9161.56
423.31	9665.71
423.68	10245.93
424.04	10892.15
424.41	11517.07
424.77	12116.72
425.14	12750.07
425.51	13352.99
425.87	14059.60
426.24	14792.89
426.61	15643.20
426.97	16658.29
427.34	17610.66
427.70	18695.50
428.07	19733.06
428.44	20815.79
428.80	21796.94
429.17	22925.08
429.53	23916.30
429.90	25160.06
430.27	26300.13
430.63	27439.97
431.00	28733.35
431.36	30172.31
431.73	31368.09
432.09	32606.47
432.46	33923.96
432.83	35238.40
433.19	36377.54
433.56	37848.10
433.92	39390.98
434.29	40928.25
434.65	42385.23
435.02	43788.85
435.38	45048.29
435.75	45903.29
436.11	47144.24
436.48	48159.33
436.84	49112.40
437.21	50092.38
437.57	51164.58
437.94	51772.18
438.30	52355.21
438.67	52711.67
439.03	52750.76
439.40	52834.32
439.76	52639.12
440.13	52367.61
440.49	52283.59
440.86	51952.64
441.22	51595.47
441.59	51029.06
441.95	50426.84
442.32	49548.20
442.68	48829.66
443.05	47896.02
443.41	47006.62
443.78	45951.97
444.14	45002.65
444.51	43680.01
444.87	42668.20
445.24	41425.61
445.60	40247.38
445.96	38971.79
446.33	38150.50
446.69	36953.55
447.06	36069.29
447.42	35119.50
447.79	34126.18
448.15	33042.04
448.51	32098.57
448.88	31283.83
449.24	30321.41
449.61	29629.08
449.97	28870.98
450.33	28060.92
450.70	27130.79
451.06	26552.68
451.43	25743.79
451.79	25156.78
452.15	24624.78
452.52	24123.20
452.88	23533.85
453.24	23075.58
453.61	22464.46
453.97	21906.71
454.34	21247.62
454.70	20673.25
455.06	20027.96
455.43	19359.27
455.79	18572.15
456.15	18004.10
456.52	17347.82
456.88	16803.17
457.24	16262.51
457.61	15842.85
457.97	15342.21
458.33	14826.36
458.70	14282.65
459.06	13758.61
459.42	13304.31
459.79	12835.50
460.15	12415.14
460.51	11995.01
460.88	11584.48
461.24	11142.82
461.60	10725.97
461.96	10335.10
462.33	9987.07
462.69	9680.46
463.05	9400.06
463.42	9181.22
463.78	8925.40
464.14	8659.28
464.50	8403.23
464.87	8109.72
465.23	7820.90
465.59	7604.40
465.95	7380.65
466.32	7165.78
466.68	6986.27
467.04	6816.11
467.40	6643.38
467.77	6490.07
468.13	6313.83
468.49	6155.37
468.85	5990.13
469.22	5840.57
469.58	5706.23
469.94	5600.90
470.30	5474.04
470.66	5349.06
471.03	5229.93
471.39	5137.48
471.75	5034.02
472.11	4959.13
472.47	4874.17
472.84	4770.01
473.20	4645.73
473.56	4542.75
473.92	4421.04
474.28	4327.18
474.65	4250.65
475.01	4175.28
475.37	4089.38
475.73	4026.89
476.09	3942.16
476.45	3873.82
476.81	3800.09
477.18	3708.34
477.54	3613.79
477.90	3535.15
478.26	3423.03
478.62	3342.99
478.98	3295.94
479.34	3263.88
479.71	3234.62
480.07	3213.32
480.43	3172.60
480.79	3119.70
481.15	3056.74
481.51	2986.52
481.87	2936.20
482.23	2898.75
482.59	2849.37
482.96	2798.81
483.32	2769.09
483.68	2722.75
484.04	2686.23
484.40	2666.57
484.76	2623.97
485.12	2591.68
485.48	2563.35
485.84	2512.80
486.20	2480.03
486.56	2455.22
486.92	2408.65
487.28	2366.98
487.64	2341.71
488.00	2289.51
488.37	2256.28
488.73	2226.79
489.09	2209.93
489.45	2162.89
489.81	2134.10
490.17	2118.65
490.53	2103.67
490.89	2071.84
491.25	2051.71
491.61	2032.76
491.97	1993.20
492.33	1959.73
492.69	1935.15
493.05	1917.37
493.41	1892.32
493.77	1863.07
494.13	1841.07
494.49	1816.72
494.85	1799.64
495.21	1772.72
495.57	1760.08
495.93	1747.91
496.29	1732.00
496.64	1708.12
497.00	1692.68
497.36	1673.72
497.72	1647.03
498.08	1623.16
498.44	1600.93
498.80	1579.16
499.16	1562.78
499.52	1546.63
499.88	1540.54
500.24	1544.29
500.60	1544.05
500.96	1535.16
501.32	1528.14
501.68	1514.79
502.03	1480.86
502.39	1461.20
502.75	1437.09
503.11	1416.96
503.47	1397.30
503.83	1406.90
504.19	1408.53
504.55	1412.51
504.91	1409.70
505.26	1404.56
505.62	1376.00
505.98	1354.47
506.34	1350.49
506.70	1347.21
507.06	1347.68
507.42	1349.08
507.78	1346.04
508.13	1341.83
508.49	1326.15
508.85	1321.47
509.21	1316.79
509.57	1320.06
509.93	1302.51
510.28	1301.34
510.64	1298.30
511.00	1293.15
511.36	1279.34
511.72	1279.34
512.07	1285.19
512.43	1270.91
512.79	1264.83
513.15	1255.46
513.51	1250.08
513.86	1230.89
514.22	1225.74
514.58	1223.16
514.94	1229.02
515.30	1228.78
515.65	1223.63
516.01	1230.89
516.37	1234.16
516.73	1227.85
517.08	1209.35
517.44	1206.55
517.80	1196.01
518.16	1188.99
518.51	1188.29
518.87	1203.04
519.23	1201.16
519.59	1202.57
519.94	1196.01
520.30	1199.76
520.66	1185.01
521.01	1193.44
521.37	1182.44
521.73	1185.95
522.09	1179.86
522.44	1173.54
522.80	1164.88
523.16	1173.08
523.51	1166.76
523.87	1164.88
524.23	1168.16
524.58	1170.74
524.94	1160.67
525.30	1159.03
525.65	1155.76
526.01	1158.57
526.37	1161.37
526.72	1163.25
527.08	1160.44
527.44	1159.27
527.79	1164.88
528.15	1153.88
528.51	1152.95
528.86	1150.84
529.22	1145.22
529.58	1140.78
529.93	1140.07
530.29	1130.48
530.65	1133.76
531.00	1137.27
531.36	1137.97
531.71	1142.65
532.07	1151.31
532.43	1155.99
532.78	1152.01
533.14	1140.31
533.49	1130.95
533.85	1126.03
534.21	1119.24
534.56	1121.82
534.92	1122.99
535.27	1122.29
535.63	1129.07
535.98	1136.10
536.34	1130.95
536.69	1143.82
537.05	1149.20
537.41	1145.46
537.76	1136.56
538.12	1143.12
538.47	1126.97
538.83	1135.16
539.18	1134.46
539.54	1135.16
539.89	1127.44
540.25	1140.78
540.60	1127.90
540.96	1124.16
541.31	1133.05
541.67	1135.63
542.02	1127.90
542.38	1135.63
542.73	1140.07
543.09	1137.27
543.44	1137.03
543.80	1138.67
544.15	1134.93
544.51	1128.61
544.86	1133.76
545.22	1133.52
545.57	1136.33
545.93	1136.80
546.28	1139.14
546.64	1127.67
546.99	1142.18
547.35	1139.84
547.70	1137.27
548.05	1131.65
548.41	1137.97
548.76	1121.35
549.12	1119.24
549.47	1127.44
549.83	1137.73
550.18	1127.67
550.53	1131.88
550.89	1133.76
551.24	1127.67
551.60	1122.05
551.95	1118.07
552.30	1114.33
552.66	1118.31
553.01	1127.67
553.37	1122.05
553.72	1133.29
554.07	1135.16
554.43	1123.93
554.78	1115.03
555.13	1117.37
555.49	1108.01
555.84	1106.84
556.19	1106.61
556.55	1100.99
556.90	1111.52
557.26	1117.37
557.61	1121.58
557.96	1126.27
558.32	1130.01
558.67	1115.03
559.02	1101.22
559.37	1106.37
559.73	1107.78
560.08	1106.61
560.43	1110.82
560.79	1118.78
561.14	1100.99
561.49	1099.35
561.85	1097.01
562.20	1093.03
562.55	1096.31
562.90	1109.65
563.26	1113.63
563.61	1115.73
563.96	1112.46
564.32	1104.26
564.67	1095.37
565.02	1090.22
565.37	1093.97
565.73	1115.97
566.08	1130.48
566.43	1131.18
566.78	1127.90
567.14	1118.31
567.49	1113.39
567.84	1107.54
568.19	1110.35
568.54	1117.84
568.90	1118.78
569.25	1118.31
569.60	1116.20
569.95	1121.35
570.31	1112.22
570.66	1117.84
571.01	1108.24
571.36	1105.67
571.71	1098.65
572.06	1106.37
572.42	1101.46
572.77	1105.90
573.12	1105.67
573.47	1114.33
573.82	1114.56
574.18	1115.27
574.53	1111.05
574.88	1112.22
575.23	1107.78
575.58	1114.56
575.93	1122.05
576.28	1127.44
576.64	1131.18
576.99	1122.99
577.34	1119.01
577.69	1111.05
578.04	1109.18
578.39	1111.75
578.74	1112.92
579.09	1113.16
579.44	1119.01
579.80	1117.84
580.15	1117.61
580.50	1114.56
580.85	1105.20
581.20	1101.46
581.55	1104.26
581.90	1102.16
582.25	1101.69
582.60	1103.09
582.95	1102.63
583.30	1099.35
583.65	1092.56
584.00	1092.56
584.35	1088.12
584.71	1086.71
585.06	1074.31
585.41	1078.75
585.76	1088.82
586.11	1089.99
586.46	1089.99
586.81	1105.20
587.16	1104.03
587.51	1101.92
587.86	1103.80
588.21	1101.46
588.56	1103.56
588.91	1101.69
589.26	1101.46
589.61	1112.92
589.96	1121.82
590.31	1119.95
590.66	1118.78
591.01	1118.54
591.36	1109.65
591.71	1105.44
592.06	1101.46
592.41	1099.58
592.76	1101.22
593.10	1100.52
593.45	1096.07
593.80	1088.12
594.15	1097.71
594.50	1091.86
594.85	1094.90
595.20	1100.05
595.55	1103.56
595.90	1100.05
596.25	1104.50
596.60	1101.92
596.95	1109.18
597.30	1110.12
597.64	1170.27
597.99	1174.01
598.34	1178.69
598.69	1172.14
599.04	1170.50
599.39	1113.16
599.74	1112.22
600.09	1107.78
600.44	1098.41
600.78	1089.29
601.13	1096.07
601.48	1097.01
601.83	1100.52
602.18	1099.82
602.53	1117.37
602.88	1100.52
603.22	1095.84
603.57	1097.24
603.92	1100.29
604.27	1101.69
604.62	1099.58
604.97	1105.67
605.31	1104.03
605.66	1110.12
606.01	1111.99
606.36	1109.88
606.71	1103.33
607.05	1103.56
607.40	1109.18
607.75	1097.95
608.10	1106.37
608.44	1106.14
608.79	1098.41
609.14	1092.33
609.49	1089.29
609.84	1098.65
610.18	1098.65
610.53	1108.01
610.88	1110.58
611.23	1124.16
611.57	1116.90
611.92	1113.86
612.27	1115.50
612.62	1115.27
612.96	1102.63
613.31	1107.07
613.66	1104.50
614.00	1096.31
614.35	1096.54
614.70	1100.75
615.05	1095.84
615.39	1106.37
615.74	1112.69
616.09	1109.41
616.43	1102.63
616.78	1105.44
617.13	1097.24
617.47	1093.26
617.82	1089.29
618.17	1100.29
618.51	1102.39
618.86	1109.65
619.21	1110.35
619.55	1117.84
619.90	1115.27
620.25	1105.44
620.59	1097.01
620.94	1089.75
621.29	1083.90
621.63	1086.48
621.98	1088.12
622.32	1095.37
622.67	1108.95
623.02	1108.24
623.36	1104.26
623.71	1106.14
624.05	1095.37
624.40	1076.65
624.75	1069.16
625.09	1065.18
625.44	1064.24
625.78	1070.09
626.13	1081.09
626.48	1088.58
626.82	1089.05
627.17	1093.73
627.51	1096.31
627.86	1092.80
628.20	1094.20
628.55	1096.78
628.89	1095.84
629.24	1094.90
629.58	1102.16
629.93	1107.07
630.28	1111.05
630.62	1108.01
630.97	1104.73
631.31	1096.78
631.66	1093.50
632.00	1090.22
632.35	1095.14
632.69	1099.82
633.04	1094.67
633.38	1094.43
633.73	1080.86
634.07	1071.03
634.42	1060.03
634.76	1059.79
635.11	1047.39
635.45	1059.79
635.79	1061.67
636.14	1071.26
636.48	1086.48
636.83	1089.99
637.17	1088.58
637.52	1093.26
637.86	1099.58
638.21	1096.31
638.55	1099.82
638.89	1102.86
639.24	1097.24
639.58	1091.63
639.93	1085.31
640.27	1085.31
640.61	1080.63
640.96	1078.05
641.30	1076.65
641.65	1077.11
641.99	1078.75
642.33	1081.09
642.68	1082.26
643.02	1083.43
643.37	1090.22
643.71	1091.86
644.05	1097.48
644.40	1100.29
644.74	1097.71
645.08	1093.26
645.43	1090.92
645.77	1077.35
646.11	1078.05
646.46	1071.97
646.80	1066.58
647.14	1064.94
647.49	1082.97
647.83	1088.82
648.17	1101.69
648.52	1102.86
648.86	1101.92
649.20	1096.54
649.55	1094.67
649.89	1096.07
650.23	1106.61
650.57	1114.10
650.92	1116.20
651.26	1123.22
651.60	1115.27
651.95	1100.75
652.29	1093.03
652.63	1079.92
652.97	1071.73
653.32	1071.97
653.66	1084.60
654.00	1084.14
654.34	1096.78
654.69	1100.75
655.03	1104.50
655.37	1094.43
655.71	1095.37
656.05	1091.39
656.40	1088.35
656.74	1078.75
657.08	1078.52
657.42	1081.56
657.76	1083.67
658.11	1079.69
658.45	1086.71
658.79	1102.39
659.13	1100.29
659.47	1100.29
659.82	1102.63
660.16	1100.75
660.50	1088.35
660.84	1085.31
661.18	1084.60
661.52	1092.56
661.87	1093.50
662.21	1089.52
662.55	1095.37
662.89	1096.07
663.23	1087.18
663.57	1086.48
663.91	1096.07
664.25	1101.69
664.60	1100.29
664.94	1094.43
665.28	1099.12
665.62	1092.80
665.96	1086.24
666.30	1089.05
666.64	1092.09
666.98	1080.16
667.32	1072.43
667.66	1067.99
668.01	1070.56
668.35	1084.37
668.69	1102.63
669.03	1109.18
669.37	1114.10
669.71	1108.95
670.05	1096.07
670.39	1077.82
670.73	1082.26
671.07	1081.56
671.41	1080.39
671.75	1084.14
672.09	1096.31
672.43	1093.50
672.77	1095.14
673.11	1096.31
673.45	1093.73
673.79	1087.18
674.13	1083.90
674.47	1083.43
674.81	1080.16
675.15	1073.84
675.49	1074.77
675.83	1065.41
676.17	1065.65
676.51	1060.50
676.85	1065.88
677.19	1068.92
677.53	1078.52
677.87	1073.37
678.21	1089.75
678.55	1097.48
678.89	1091.16
679.23	1087.88
679.57	1087.18
679.90	1073.37
680.24	1064.71
680.58	1076.41
680.92	1081.33
681.26	1085.54
681.60	1093.73
681.94	1090.92
682.28	1086.94
682.62	1089.05
682.96	1093.26
683.29	1088.58
683.63	1097.95
683.97	1086.71
684.31	1089.99
684.65	1085.07
684.99	1081.33
685.33	1076.18
685.67	1084.60
686.00	1071.97
686.34	1064.48
686.68	1065.65
687.02	1067.28
687.36	1062.84
687.70	1077.35
688.03	1088.58
688.37	1096.31
688.71	1089.29
689.05	1089.29
689.39	1083.20
689.72	1085.31
690.06	1079.46
690.40	1076.65
690.74	1074.31
691.08	1070.33
691.41	1067.28
691.75	1072.67
692.09	1079.22
692.43	1079.69
692.76	1086.01
693.10	1085.07
693.44	1086.01
693.78	1093.26
694.11	1101.46
694.45	1093.03
694.79	1089.05
695.13	1068.45
695.46	1060.26
695.80	1056.99
696.14	1063.54
696.48	1061.90
696.81	1075.94
697.15	1082.73
697.49	1083.67
697.82	1087.41
698.16	1099.35
698.50	1097.01
698.83	1095.14
699.17	1089.99
699.51	1086.71
699.84	1073.14
700.18	1083.67
700.52	1084.84
700.85	1091.16
701.19	1085.31
701.53	1102.39
701.86	1095.14
702.20	1098.41
702.54	1099.12
702.87	1106.37
703.21	1091.39
703.55	1091.39
703.88	1090.69
704.22	1086.24
704.55	1086.01
704.89	1085.07
705.23	1081.33
705.56	1074.07
705.90	1077.58
706.23	1090.92
706.57	1096.07
706.91	1102.39
707.24	1101.69
707.58	1099.35
707.91	1082.26
708.25	1091.63
708.58	1090.46
708.92	1088.82
709.26	1095.37
709.59	1104.26
709.93	1098.88
710.26	1090.69
710.60	1093.50
710.93	1098.65
711.27	1088.58
711.60	1082.97
711.94	1090.69
712.27	1083.43
712.61	1079.92
712.94	1083.20
713.28	1088.12
713.61	1082.26
713.95	1083.67
714.28	1079.69
714.62	1077.58
714.95	1072.90
715.29	1078.05
715.62	1091.16
715.96	1090.92
716.29	1091.16
716.63	1089.75
716.96	1094.43
717.29	1086.24
717.63	1076.65
717.96	1074.31
718.30	1088.58
718.63	1075.94
718.97	1088.58
719.30	1088.12
719.63	1091.63
719.97	1075.71
720.30	1079.46
720.64	1070.33
720.97	1082.50
721.30	1084.37
721.64	1093.26
721.97	1101.69
722.31	1098.65
722.64	1090.92
722.97	1093.26
723.31	1085.07
723.64	1078.99
723.97	1076.65
724.31	1073.84
724.64	1068.92
724.98	1065.88
725.31	1069.86
725.64	1069.62
725.98	1074.07
726.31	1077.35
726.64	1088.82
726.97	1087.88
727.31	1087.18
727.64	1085.54
727.97	1087.18
728.31	1088.58
728.64	1085.07
728.97	1095.37
729.31	1097.01
729.64	1089.29
729.97	1085.54
730.30	1088.82
730.64	1082.26
730.97	1089.29
731.30	1091.16
731.63	1098.65
731.97	1089.99
732.30	1085.07
732.63	1081.09
732.96	1085.07
733.30	1075.24
733.63	1090.69
733.96	1091.16
734.29	1085.31
734.63	1084.14
734.96	1074.07
735.29	1053.48
735.62	1058.62
735.95	1056.05
736.29	1053.48
736.62	1062.14
736.95	1074.31
737.28	1066.35
737.61	1076.41
737.94	1083.90
738.28	1080.16
738.61	1067.05
738.94	1073.84
739.27	1063.77
739.60	1050.20
739.93	1057.22
740.27	1072.67
740.60	1079.46
740.93	1081.09
741.26	1093.26
741.59	1091.63
741.92	1086.94
742.25	1087.41
742.58	1094.20
742.91	1081.09
743.25	1080.63
743.58	1083.90
743.91	1082.26
744.24	1064.48
744.57	1080.16
744.90	1082.50
745.23	1082.97
745.56	1074.07
745.89	1082.03
746.22	1065.18
746.55	1063.77
746.88	1063.31
747.21	1060.50
747.54	1060.03
747.87	1069.39
748.20	1072.20
748.53	1074.54
748.87	1078.52
749.20	1090.69
749.53	1105.20
749.86	1110.12
750.19	1108.24
750.52	1111.99
750.85	1112.69
751.18	1099.12
751.51	1098.18
751.84	1095.84
752.16	1094.43
752.49	1081.56
752.82	1085.54
753.15	1083.90
753.48	1084.60
753.81	1088.35
754.14	1093.50
754.47	1092.33
754.80	1084.14
755.13	1089.05
755.46	1088.35
755.79	1095.37
756.12	1097.95
756.45	1090.69
756.78	1089.29
757.11	1082.73
757.43	1068.22
757.76	1056.52
758.09	1064.24
758.42	1058.39
758.75	1064.01
759.08	1070.80
759.41	1076.18
759.74	1081.80
760.07	1087.18
760.39	1090.46
760.72	1090.22
761.05	1084.60
761.38	1085.77
761.71	1080.63
762.04	1079.69
762.36	1079.69
762.69	1089.75
763.02	1080.39
763.35	1078.99
763.68	1075.24
764.01	1076.41
764.33	1072.67
764.66	1085.07
764.99	1100.75
765.32	1100.29
765.65	1103.33
765.97	1094.67
766.30	1083.67
766.63	1062.37
766.96	1055.11
767.28	1043.41
767.61	1052.54
767.94	1054.41
768.27	1059.56
768.59	1069.86
768.92	1076.88
769.25	1067.52
769.58	1062.84
769.90	1056.05
770.23	1051.13
770.56	1047.39
770.89	1058.39
771.21	1063.77
771.54	1080.86
771.87	1080.63
772.19	1087.41
772.52	1088.82
772.85	1086.01
773.17	1078.99
773.50	1082.50
773.83	1078.99
774.15	1077.82
774.48	1077.58
774.81	1081.80
775.13	1082.03
775.46	1076.65
775.79	1082.03
776.11	1081.09
776.44	1069.16
776.77	1064.94
777.09	1077.82
777.42	1069.39
777.74	1061.20
778.07	1071.26
778.40	1070.56
778.72	1066.35
779.05	1070.56
779.37	1090.46
779.70	1090.69
780.03	1097.24
780.35	1102.16
780.68	1098.65
781.00	1094.43
781.33	1085.31
781.65	1085.31
781.98	1072.43
782.31	1071.03
782.63	1067.75
782.96	1069.86
783.28	1066.58
783.61	1073.37
783.93	1075.24
784.26	1077.35
784.58	1084.14
784.91	1085.77
785.23	1092.33
785.56	1085.54
785.88	1093.03
786.21	1084.14
786.53	1095.84
786.86	1085.77
787.18	1097.95
787.51	1095.84
787.83	1107.07
788.16	1096.78
788.48	1097.95
788.81	1094.67
789.13	1088.12
789.46	1082.50
789.78	1084.37
790.10	1078.05
790.43	1079.69
790.75	1078.05
791.08	1088.35
791.40	1079.92
791.73	1101.69
792.05	1107.54
792.37	1112.92
792.70	1110.58
793.02	1115.73
793.35	1099.12
793.67	1084.60
793.99	1082.73
794.32	1076.41
794.64	1077.58
794.96	1073.37
795.29	1076.88
795.61	1081.09
795.93	1070.09
796.26	1058.39
796.58	1071.73
796.91	1079.46
797.23	1080.63
797.55	1086.71
797.87	1099.58
798.20	1094.90
798.52	1089.75
798.84	1080.39
799.17	1082.73
799.49	1079.46
799.81	1077.35
800.14	1074.07
800.46	1081.33
800.78	1086.71
801.10	1089.29
801.43	1087.65
801.75	1084.14
802.07	1080.39
802.40	1083.67
802.72	1076.41
803.04	1079.92
803.36	1082.97
803.69	1078.75
804.01	1070.09
804.33	1075.24
804.65	1067.05
804.97	1060.73
805.30	1066.58
805.62	1066.58
805.94	1066.35
806.26	1073.37
806.58	1082.03
806.91	1083.43
807.23	1085.77
807.55	1082.50
807.87	1089.52
808.19	1085.07
808.52	1079.46
808.84	1077.58
809.16	1073.84
809.48	1069.86
809.80	1073.14
810.12	1084.14
810.44	1086.48
810.77	1088.82
811.09	1083.90
811.41	1075.94
811.73	1066.82
812.05	1074.77
812.37	1074.31
812.69	1074.31
813.01	1090.46
813.33	1094.90
813.66	1087.18
813.98	1086.48
814.30	1095.60
814.62	1079.46
814.94	1078.28
815.26	1080.86
815.58	1085.54
815.90	1084.60
816.22	1107.31
816.54	1100.52
816.86	1098.18
817.18	1104.03
817.50	1093.03
817.82	1075.48
818.14	1074.77
818.46	1074.54
818.78	1068.22
819.10	1063.31
819.42	1071.26
819.74	1075.01
820.06	1083.20
820.38	1079.92
820.70	1094.67
821.02	1086.48
821.34	1086.94
821.66	1076.88
821.98	1074.54
822.30	1079.22
822.62	1085.54
822.94	1085.31
823.26	1087.18
823.58	1098.65
823.90	1090.46
824.22	1086.94
824.54	1079.46
824.86	1077.82
825.18	1067.52
825.50	1060.96
825.81	1056.99
826.13	1055.11
826.45	1050.90
826.77	1055.35
827.09	1057.69
827.41	1071.26
827.73	1080.39
828.05	1082.03
828.36	1087.88
828.68	1097.24
829.00	1076.88
829.32	1082.50
829.64	1090.22
829.96	1088.58
830.28	1085.07
830.59	1094.20
830.91	1086.71
831.23	1073.84
831.55	1062.37
831.87	1058.39
832.19	1069.62
832.50	1081.33
832.82	1088.82
833.14	1085.31
833.46	1093.50
833.78	1082.03
834.09	1071.26
834.41	1073.14
834.73	1079.46
835.05	1074.07
835.36	1081.09
835.68	1073.60
836.00	1065.65
836.32	1074.54
836.63	1072.67
836.95	1065.88
837.27	1073.60
837.59	1083.20
837.90	1079.69
838.22	1073.37
838.54	1083.67
838.85	1092.33
839.17	1088.12
839.49	1080.63
839.80	1082.97
840.12	1073.14
840.44	1062.84
840.76	1061.67
841.07	1067.05
841.39	1074.31
841.71	1077.11
842.02	1078.75
842.34	1089.75
842.65	1086.24
842.97	1082.97
843.29	1087.41
843.60	1094.43
843.92	1091.63
844.24	1095.37
844.55	1095.14
844.87	1090.69
845.18	1079.46
845.50	1071.97
845.82	1066.11
846.13	1062.14
846.45	1064.48
846.76	1069.16
847.08	1076.18
847.40	1077.11
847.71	1079.22
848.03	1082.26
848.34	1086.24
848.66	1075.24
848.97	1080.63
849.29	1082.73
849.60	1079.22
849.92	1070.09
850.24	1072.67
850.55	1074.31
850.87	1073.14
851.18	1075.01
851.50	1078.75
851.81	1078.05
852.13	1074.07
852.44	1079.22
852.76	1075.01
853.07	1072.67
853.39	1071.97
853.70	1065.65
854.01	1060.03
854.33	1058.62
854.64	1071.03
854.96	1074.07
855.27	1089.99
855.59	1093.97
855.90	1099.58
856.22	1083.43
856.53	1087.18
856.84	1078.28
857.16	1078.28
857.47	1075.94
857.79	1084.84
858.10	1091.63
858.41	1096.54
858.73	1091.39
859.04	1093.73
859.36	1095.37
859.67	1086.01
859.98	1085.54
860.30	1094.43
860.61	1097.71
860.92	1090.69
861.24	1095.84
861.55	1094.67
861.87	1093.50
862.18	1086.94
862.49	1087.18
862.81	1086.94
863.12	1087.18
863.43	1091.63
863.74	1093.26
864.06	1096.07
864.37	1090.92
864.68	1086.01
865.00	1083.20
865.31	1085.07
865.62	1084.60
865.94	1080.16
866.25	1083.43
866.56	1080.86
866.87	1070.80
867.19	1067.52
867.50	1070.09
867.81	1078.05
868.12	1078.05
868.44	1093.50
868.75	1108.01
869.06	1108.01
869.37	1102.63
869.68	1092.56
870.00	1080.16
870.31	1061.20
870.62	1072.20
870.93	1065.65
871.24	1064.71
871.56	1067.28
871.87	1072.43
872.18	1070.80
872.49	1081.80
872.80	1093.97
873.12	1090.69
873.43	1085.54
873.74	1076.41
874.05	1067.28
874.36	1062.14
874.67	1073.60
874.98	1082.26
875.29	1088.12
875.61	1099.35
875.92	1100.99
876.23	1092.09
876.54	1086.94
876.85	1079.92
877.16	1081.09
877.47	1084.37
877.78	1088.58
878.09	1091.16
878.40	1098.18
878.72	1087.18
879.03	1089.52
879.34	1083.20
879.65	1084.60
879.96	1084.60
880.27	1086.48
880.58	1077.82
880.89	1071.26
881.20	1069.16
881.51	1058.86
881.82	1065.65
882.13	1067.05
882.44	1076.65
882.75	1079.46
883.06	1088.58
883.37	1078.52
883.68	1075.48
883.99	1084.37
884.30	1074.77
884.61	1073.37
884.92	1080.86
885.23	1090.69
885.54	1078.99
885.85	1084.37
886.16	1082.73
886.47	1066.35
886.78	1066.58
887.08	1062.60
887.39	1062.14
887.70	1066.35
888.01	1088.12
888.32	1082.50
888.63	1090.92
888.94	1101.69
889.25	1105.67
889.56	1089.99
889.87	1083.43
890.17	1090.69
890.48	1082.73
890.79	1082.03
891.10	1087.88
891.41	1093.97
891.72	1090.92
892.03	1085.31
892.34	1074.07
892.64	1072.67
892.95	1072.20
893.26	1069.86
893.57	1074.31
893.88	1078.05
894.18	1072.43
894.49	1074.31
894.80	1071.97
895.11	1072.20
895.42	1069.86
895.72	1080.16
896.03	1079.92
896.34	1081.09
896.65	1081.09
896.96	1087.88
897.26	1087.41
897.57	1093.97
897.88	1095.60
898.19	1091.39
898.49	1080.16
898.80	1073.14
899.11	1068.45
899.41	1066.35
899.72	1068.69
900.03	1073.84
900.34	1079.92
900.64	1081.80
900.95	1084.60
901.26	1089.29
901.56	1091.16
901.87	1090.46
902.18	1083.90
902.48	1084.84
902.79	1085.31
903.10	1087.65
903.40	1087.88
903.71	1086.94
904.02	1073.14
904.32	1075.71
904.63	1066.82
904.94	1070.33
905.24	1067.99
905.55	1075.94
905.85	1071.03
906.16	1074.31
906.47	1067.75
906.77	1067.28
907.08	1064.48
907.38	1059.79
907.69	1053.48
908.00	1070.56
908.30	1081.56
908.61	1092.33
908.91	1106.61
909.22	1117.37
909.52	1095.60
909.83	1084.60
910.14	1066.11
910.44	1055.82
910.75	1057.45
911.05	1064.48
911.36	1067.28
911.66	1074.31
911.97	1079.46
912.27	1076.65
912.58	1071.03
912.88	1070.33
913.19	1075.01
913.49	1068.45
913.80	1075.01
914.10	1071.50
914.41	1072.20
914.71	1066.35
915.01	1076.18
915.32	1068.22
915.62	1076.65
915.93	1072.20
916.23	1078.52
916.54	1071.03
916.84	1074.77
917.15	1072.90
917.45	1068.45
917.75	1053.71
918.06	1050.43
918.36	1047.62
918.67	1049.96
918.97	1073.84
919.27	1086.94
919.58	1090.69
919.88	1093.97
920.18	1091.39
920.49	1070.56
920.79	1064.94
921.10	1064.01
921.40	1065.65
921.70	1061.43
922.01	1069.86
922.31	1081.33
922.61	1074.77
922.92	1069.39
923.22	1072.43
923.52	1072.43
923.82	1068.22
924.13	1071.26
924.43	1066.11
924.73	1071.50
925.04	1072.20
925.34	1064.48
925.64	1067.52
925.94	1070.33
926.25	1068.22
926.55	1068.69
926.85	1071.26
927.15	1071.73
927.46	1086.24
927.76	1086.24
928.06	1085.07
928.36	1085.54
928.67	1081.09
928.97	1074.07
929.27	1081.33
929.57	1080.16
929.87	1078.28
930.18	1076.65
930.48	1071.97
930.78	1071.03
931.08	1065.88
931.38	1075.01
931.69	1079.92
931.99	1082.50
932.29	1071.73
932.59	1074.31
932.89	1064.48
933.19	1074.77
933.49	1077.82
933.80	1077.11
934.10	1088.35
934.40	1095.14
934.70	1085.77
935.00	1083.20
935.30	1090.22
935.60	1087.65
935.90	1087.41
936.20	1087.41
936.50	1085.77
936.81	1083.43
937.11	1071.73
937.41	1064.24
937.71	1070.09
938.01	1064.94
938.31	1070.33
938.61	1083.43
938.91	1096.54
939.21	1098.18
939.51	1101.22
939.81	1092.33
940.11	1093.97
940.41	1090.92
940.71	1089.05
941.01	1084.37
941.31	1093.50
941.61	1089.29
941.91	1086.71
942.21	1082.26
942.51	1086.48
942.81	1085.77
943.11	1081.09
943.41	1078.99
943.71	1080.63
944.01	1080.63
944.31	1075.71
944.61	1085.54
944.90	1088.12
945.20	1082.73
945.50	1083.20
945.80	1084.14
946.10	1077.35
946.40	1080.86
946.70	1083.90
947.00	1072.43
947.30	1078.52
947.60	1073.84
947.89	1063.77
948.19	1057.69
948.49	1075.01
948.79	1071.97
949.09	1077.11
949.39	1076.41
949.69	1080.86
949.98	1064.24
950.28	1057.45
950.58	1057.22
950.88	1066.11
951.18	1072.67
951.48	1083.43
951.77	1088.82
952.07	1083.90
952.37	1083.43
952.67	1084.14
952.97	1084.84
953.26	1075.24
953.56	1064.71
953.86	1063.77
954.16	1064.71
954.45	1071.73
954.75	1069.86
955.05	1078.99
955.35	1078.99
955.64	1082.73
955.94	1068.69
956.24	1078.05
956.54	1089.29
956.83	1088.12
957.13	1071.50
957.43	1077.58
957.72	1075.24
958.02	1065.18
958.32	1061.90
958.61	1066.82
958.91	1049.50
959.21	1044.82
959.50	1044.82
959.80	1049.50
960.10	1059.09
960.39	1078.99
960.69	1092.33
960.99	1099.35
961.28	1098.18
961.58	1097.01
961.87	1088.82
962.17	1084.84
962.47	1077.82
962.76	1077.35
963.06	1065.65
963.36	1073.37
963.65	1069.16
963.95	1068.45
964.24	1065.41
964.54	1070.09
964.83	1080.16
965.13	1075.24
965.42	1076.18
965.72	1075.01
966.02	1074.31
966.31	1067.75
966.61	1069.62
966.90	1075.01
967.20	1080.86
967.49	1076.88
967.79	1064.48
968.08	1070.33
968.38	1069.39
968.67	1060.96
968.97	1069.86
969.26	1080.16
969.56	1077.58
969.85	1075.71
970.15	1087.18
970.44	1086.48
970.74	1083.20
971.03	1077.11
971.32	1079.22
971.62	1071.50
971.91	1072.20
972.21	1082.03
972.50	1094.67
972.80	1092.80
973.09	1092.56
973.38	1092.56
973.68	1090.46
973.97	1085.77
974.27	1081.33
974.56	1087.18
974.85	1084.60
975.15	1079.92
975.44	1080.39
975.73	1083.67
976.03	1077.11
976.32	1080.86
976.61	1071.50
976.91	1073.14
977.20	1079.46
977.49	1081.09
977.79	1080.86
978.08	1094.43
978.37	1089.52
978.67	1083.20
978.96	1086.48
979.25	1074.07
979.55	1070.80
979.84	1073.84
980.13	1079.69
980.42	1077.35
980.72	1092.56
981.01	1085.77
981.30	1077.58
981.59	1069.86
981.89	1070.56
982.18	1065.88
982.47	1075.24
982.76	1090.22
983.06	1089.99
983.35	1093.97
983.64	1102.86
983.93	1092.09
984.22	1089.29
984.52	1097.01
984.81	1097.01
985.10	1087.88
985.39	1086.48
985.68	1082.26
985.97	1092.33
986.27	1099.82
986.56	1103.80
986.85	1109.88
987.14	1111.29
987.43	1092.33
987.72	1074.31
988.01	1062.84
988.31	1058.39
988.60	1060.50
988.89	1061.43
989.18	1067.28
989.47	1075.94
989.76	1089.75
990.05	1084.60
990.34	1086.48
990.63	1085.07
990.92	1083.43
991.21	1071.73
991.51	1072.20
991.80	1080.86
992.09	1086.24
992.38	1082.73
992.67	1089.99
992.96	1098.18
993.25	1093.26
993.54	1083.20
993.83	1085.31
994.12	1078.28
994.41	1065.65
994.70	1055.11
994.99	1067.28
995.28	1071.03
995.57	1067.99
995.86	1075.24
996.15	1082.73
996.44	1076.18
996.73	1075.24
997.02	1082.97
997.31	1082.50
997.59	1081.33
997.88	1083.20
998.17	1086.01
998.46	1094.43
998.75	1097.95
999.04	1092.80
999.33	1095.14
999.62	1096.31
999.91	1083.20
1000.20	1074.77
1000.49	1085.31
1000.77	1088.35
1001.06	1088.58
1001.35	1095.60
1001.64	1100.75
1001.93	1097.71
1002.22	1088.58
1002.51	1074.31
1002.79	1067.75
1003.08	1066.58
1003.37	1073.14
1003.66	1077.11
1003.95	1088.35
1004.23	1091.16
1004.52	1094.43
1004.81	1084.84
1005.10	1086.94
1005.39	1089.75
1005.67	1082.73
1005.96	1070.80
1006.25	1070.80
1006.54	1069.62
1006.83	1071.73
1007.11	1081.80
1007.40	1092.56
1007.69	1094.90
1007.97	1108.71
1008.26	1095.60
1008.55	1098.65
1008.84	1100.29
1009.12	1100.29
1009.41	1084.84
1009.70	1086.24
1009.98	1085.31
1010.27	1082.26
1010.56	1079.69
1010.85	1089.52
1011.13	1087.88
1011.42	1083.90
1011.71	1073.37
1011.99	1071.97
1012.28	1066.35
1012.56	1075.71
1012.85	1075.01
1013.14	1086.48
1013.42	1092.80
1013.71	1092.09
1014.00	1082.03
1014.28	1067.52
1014.57	1069.39
1014.85	1060.73
1015.14	1057.92
1015.43	1065.65
1015.71	1092.80
1016.00	1090.22
1016.28	1099.82
1016.57	1098.65
1016.85	1103.33
1017.14	1092.56
1017.43	1091.86
1017.71	1089.75
1018.00	1096.78
1018.28	1092.80
1018.57	1091.63
1018.85	1086.24
1019.14	1086.01
1019.42	1084.14
1019.71	1081.33
1019.99	1070.80
1020.28	1076.18
1020.56	1078.75
1020.85	1072.67
1021.13	1080.16
1021.42	1088.35
1021.70	1097.01
1021.99	1096.78
1022.27	1091.39
1022.55	1096.54
1022.84	1045.05
>>>>>End Processed Spectral Data<<<<<
