SpectraSuite Data File
++++++++++++++++++++++++++++++++++++
Date: Mon Aug 26 10:24:43 PDT 2019
User: corrico
Dark Spectrum Present: No
Reference Spectrum Present: No
Number of Sampled Component Spectra: 1
Spectrometers: USB2+H06089
Integration Time (usec): 10000 (USB2+H06089)
Spectra Averaged: 2 (USB2+H06089)
Boxcar Smoothing: 2 (USB2+H06089)
Correct for Electrical Dark: No (USB2+H06089)
Strobe/Lamp Enabled: No (USB2+H06089)
Correct for Detector Non-linearity: No (USB2+H06089)
Correct for Stray Light: No (USB2+H06089)
Number of Pixels in Processed Spectrum: 2048
>>>>>Begin Processed Spectral Data<<<<<
339.70	1001.75
340.07	1001.75
340.45	980.22
340.82	965.47
341.19	945.34
341.57	924.98
341.94	914.92
342.31	913.28
342.69	909.53
343.06	917.96
343.43	923.11
343.81	918.19
344.18	910.47
344.55	915.15
344.93	915.62
345.30	917.72
345.67	934.34
346.04	953.30
346.42	948.15
346.79	950.73
347.16	958.68
347.54	959.15
347.91	962.19
348.28	984.20
348.65	998.47
349.03	1010.41
349.40	1023.98
349.77	1030.77
350.14	1039.43
350.52	1042.71
350.89	1043.18
351.26	1050.20
351.63	1067.05
352.01	1080.86
352.38	1078.05
352.75	1085.77
353.12	1084.14
353.50	1086.01
353.87	1084.37
354.24	1094.90
354.61	1100.75
354.98	1109.88
355.36	1118.54
355.73	1118.31
356.10	1114.56
356.47	1116.44
356.84	1112.92
357.22	1101.46
357.59	1097.95
357.96	1101.92
358.33	1097.01
358.70	1091.16
359.08	1081.56
359.45	1079.22
359.82	1078.52
360.19	1083.67
360.56	1092.09
360.94	1110.12
361.31	1103.09
361.68	1112.46
362.05	1112.69
362.42	1118.31
362.79	1108.01
363.16	1111.52
363.54	1105.20
363.91	1101.46
364.28	1089.52
364.65	1088.12
365.02	1105.90
365.39	1118.07
365.76	1130.95
366.14	1124.63
366.51	1130.95
366.88	1118.31
367.25	1111.52
367.62	1104.73
367.99	1110.12
368.36	1108.71
368.73	1108.01
369.10	1110.82
369.48	1092.56
369.85	1090.92
370.22	1087.65
370.59	1086.01
370.96	1076.88
371.33	1084.14
371.70	1083.43
372.07	1093.03
372.44	1097.95
372.81	1090.46
373.18	1097.71
373.55	1101.69
373.93	1093.03
374.30	1085.07
374.67	1088.35
375.04	1086.01
375.41	1079.69
375.78	1071.26
376.15	1082.73
376.52	1084.84
376.89	1085.31
377.26	1090.22
377.63	1102.39
378.00	1098.88
378.37	1101.46
378.74	1103.09
379.11	1111.29
379.48	1117.14
379.85	1117.84
380.22	1122.29
380.59	1114.33
380.96	1111.75
381.33	1100.75
381.70	1107.07
382.07	1109.65
382.44	1111.75
382.81	1118.07
383.18	1119.24
383.55	1110.58
383.92	1108.71
384.29	1111.99
384.66	1107.07
385.03	1109.18
385.40	1114.33
385.77	1112.92
386.14	1126.27
386.51	1119.24
386.88	1122.75
387.25	1119.71
387.62	1122.29
387.99	1115.97
388.36	1127.90
388.73	1132.82
389.10	1134.69
389.46	1137.50
389.83	1139.84
390.20	1140.78
390.57	1133.05
390.94	1132.59
391.31	1129.54
391.68	1130.95
392.05	1125.33
392.42	1131.88
392.79	1137.50
393.16	1138.90
393.53	1140.78
393.89	1146.39
394.26	1141.95
394.63	1141.71
395.00	1139.37
395.37	1135.63
395.74	1138.67
396.11	1148.27
396.48	1144.05
396.84	1158.80
397.21	1163.25
397.58	1155.99
397.95	1159.97
398.32	1174.71
398.69	1169.33
399.06	1173.78
399.42	1185.01
399.79	1186.89
400.16	1187.12
400.53	1186.65
400.90	1190.63
401.27	1200.93
401.64	1208.18
402.00	1215.44
402.37	1219.89
402.74	1231.59
403.11	1236.51
403.48	1242.82
403.84	1251.48
404.21	1269.74
404.58	1276.29
404.95	1287.29
405.32	1314.44
405.68	1342.30
406.05	1366.40
406.42	1386.77
406.79	1425.85
407.16	1441.30
407.52	1462.83
407.89	1491.16
408.26	1531.65
408.63	1563.01
408.99	1605.84
409.36	1644.46
409.73	1684.02
410.10	1740.89
410.47	1775.53
410.83	1838.96
411.20	1899.34
411.57	1970.97
411.94	2019.41
412.30	2102.74
412.67	2169.68
413.04	2256.51
413.40	2345.22
413.77	2445.39
414.14	2545.10
414.51	2665.40
414.87	2789.68
415.24	2932.69
415.61	3109.87
415.97	3286.58
416.34	3459.31
416.71	3628.53
417.08	3835.44
417.44	4006.06
417.81	4191.90
418.18	4407.46
418.54	4647.84
418.91	4878.14
419.28	5153.39
419.64	5452.28
420.01	5760.29
420.38	6080.24
420.74	6433.20
421.11	6824.07
421.48	7197.62
421.84	7601.59
422.21	8033.89
422.58	8478.12
422.94	8926.34
423.31	9443.59
423.68	10005.09
424.04	10609.65
424.41	11214.68
424.77	11851.30
425.14	12459.84
425.51	13077.98
425.87	13744.80
426.24	14452.81
426.61	15296.81
426.97	16271.17
427.34	17145.59
427.70	18204.69
428.07	19162.43
428.44	20044.11
428.80	21028.78
429.17	22150.83
429.53	23176.22
429.90	24404.30
430.27	25583.46
430.63	26718.15
431.00	28015.04
431.36	29335.81
431.73	30579.57
432.09	31844.39
432.46	33157.20
432.83	34369.36
433.19	35544.31
433.56	36873.03
433.92	38333.53
434.29	39631.12
434.65	40956.10
435.02	42130.58
435.38	43298.74
435.75	44141.33
436.11	45351.39
436.48	46345.18
436.84	47357.46
437.21	48230.48
437.57	49159.68
437.94	49796.30
438.30	50472.48
438.67	51015.02
439.03	51271.31
439.40	51542.58
439.76	51481.25
440.13	51156.39
440.49	50980.38
440.86	50655.98
441.22	50312.86
441.59	49819.47
441.95	49420.88
442.32	48563.31
442.68	47820.19
443.05	46834.12
443.41	45937.69
443.78	44831.09
444.14	43820.91
444.51	42607.81
444.87	41677.69
445.24	40449.37
445.60	39307.19
445.96	38178.12
446.33	37300.18
446.69	36125.93
447.06	35255.96
447.42	34287.91
447.79	33215.95
448.15	32194.54
448.51	31319.41
448.88	30490.16
449.24	29578.29
449.61	28947.51
449.97	28217.50
450.33	27395.03
450.70	26550.10
451.06	26026.99
451.43	25273.81
451.79	24777.15
452.15	24261.06
452.52	23674.99
452.88	23046.55
453.24	22603.26
453.61	21938.31
453.97	21385.94
454.34	20754.00
454.70	20192.27
455.06	19535.98
455.43	18909.66
455.79	18178.94
456.15	17629.15
456.52	16917.39
456.88	16401.77
457.24	15828.11
457.61	15361.40
457.97	14840.17
458.33	14400.15
458.70	13864.63
459.06	13332.39
459.42	12860.78
459.79	12417.48
460.15	12018.42
460.51	11595.72
460.88	11249.32
461.24	10845.11
461.60	10505.03
461.96	10143.65
462.33	9815.50
462.69	9475.89
463.05	9193.16
463.42	8898.25
463.78	8652.26
464.14	8426.16
464.50	8228.86
464.87	7976.08
465.23	7768.00
465.59	7533.95
465.95	7305.98
466.32	7101.19
466.68	6919.79
467.04	6716.64
467.40	6534.07
467.77	6382.87
468.13	6204.53
468.49	6044.20
468.85	5918.75
469.22	5806.64
469.58	5663.63
469.94	5542.39
470.30	5428.40
470.66	5309.97
471.03	5182.18
471.39	5096.05
471.75	4991.19
472.11	4913.49
472.47	4821.27
472.84	4717.58
473.20	4593.77
473.56	4507.64
473.92	4380.08
474.28	4290.90
474.65	4218.58
475.01	4141.11
475.37	4054.04
475.73	3977.97
476.09	3874.76
476.45	3779.73
476.81	3691.96
477.18	3601.62
477.54	3532.34
477.90	3474.76
478.26	3393.78
478.62	3332.92
478.98	3293.60
479.34	3249.83
479.71	3210.51
480.07	3196.47
480.43	3165.57
480.79	3101.44
481.15	3052.99
481.51	2991.44
481.87	2935.27
482.23	2868.56
482.59	2826.90
482.96	2766.28
483.32	2715.72
483.68	2673.59
484.04	2634.74
484.40	2604.55
484.76	2586.29
485.12	2540.18
485.48	2498.29
485.84	2475.82
486.20	2428.54
486.56	2390.16
486.92	2380.09
487.28	2355.05
487.64	2318.53
488.00	2283.19
488.37	2241.53
488.73	2199.64
489.09	2166.63
489.45	2148.14
489.81	2125.44
490.17	2099.93
490.53	2075.59
490.89	2048.20
491.25	2019.18
491.61	1998.12
491.97	1987.82
492.33	1970.97
492.69	1940.54
493.05	1917.13
493.41	1896.77
493.77	1870.79
494.13	1849.02
494.49	1839.43
494.85	1807.13
495.21	1773.89
495.57	1759.61
495.93	1734.57
496.29	1712.10
496.64	1702.27
497.00	1678.63
497.36	1641.42
497.72	1617.54
498.08	1609.12
498.44	1588.52
498.80	1591.56
499.16	1595.78
499.52	1584.54
499.88	1566.29
500.24	1549.20
500.60	1537.50
500.96	1515.26
501.32	1502.62
501.68	1478.75
502.03	1479.22
502.39	1451.60
502.75	1431.71
503.11	1424.22
503.47	1426.56
503.83	1423.51
504.19	1418.13
504.55	1422.34
504.91	1423.98
505.26	1423.51
505.62	1403.39
505.98	1404.79
506.34	1388.41
506.70	1365.23
507.06	1345.81
507.42	1337.85
507.78	1334.11
508.13	1336.68
508.49	1336.21
508.85	1326.85
509.21	1323.81
509.57	1312.10
509.93	1295.72
510.28	1295.02
510.64	1288.93
511.00	1280.51
511.36	1274.66
511.72	1275.12
512.07	1263.19
512.43	1262.95
512.79	1260.38
513.15	1253.12
513.51	1241.89
513.86	1246.34
514.22	1239.78
514.58	1240.02
514.94	1242.36
515.30	1242.12
515.65	1239.08
516.01	1233.46
516.37	1227.85
516.73	1226.91
517.08	1220.12
517.44	1211.23
517.80	1214.74
518.16	1212.16
518.51	1198.35
518.87	1200.46
519.23	1198.35
519.59	1192.97
519.94	1195.08
520.30	1208.89
520.66	1203.04
521.01	1200.69
521.37	1203.97
521.73	1198.82
522.09	1187.35
522.44	1184.78
522.80	1179.40
523.16	1174.01
523.51	1163.95
523.87	1164.18
524.23	1166.29
524.58	1166.52
524.94	1159.50
525.30	1163.48
525.65	1167.46
526.01	1170.97
526.37	1173.31
526.72	1181.74
527.08	1175.65
527.44	1170.50
527.79	1170.27
528.15	1174.25
528.51	1168.63
528.86	1165.59
529.22	1160.20
529.58	1154.82
529.93	1148.97
530.29	1162.54
530.65	1167.69
531.00	1161.84
531.36	1155.05
531.71	1153.88
532.07	1138.44
532.43	1129.78
532.78	1138.90
533.14	1140.78
533.49	1140.31
533.85	1137.03
534.21	1145.93
534.56	1150.14
534.92	1140.31
535.27	1136.56
535.63	1137.27
535.98	1132.35
536.34	1123.93
536.69	1137.03
537.05	1145.22
537.41	1145.46
537.76	1147.33
538.12	1143.35
538.47	1143.35
538.83	1139.14
539.18	1135.16
539.54	1136.56
539.89	1137.97
540.25	1130.71
540.60	1123.69
540.96	1135.39
541.31	1140.54
541.67	1135.86
542.02	1148.97
542.38	1152.95
542.73	1139.37
543.09	1132.59
543.44	1134.22
543.80	1125.33
544.15	1121.12
544.51	1137.73
544.86	1137.97
545.22	1144.52
545.57	1147.10
545.93	1145.22
546.28	1136.10
546.64	1130.48
546.99	1120.88
547.35	1107.07
547.70	1110.82
548.05	1104.26
548.41	1107.54
548.76	1113.63
549.12	1123.69
549.47	1127.44
549.83	1133.29
550.18	1123.22
550.53	1111.99
550.89	1118.54
551.24	1114.10
551.60	1110.58
551.95	1129.31
552.30	1144.52
552.66	1134.22
553.01	1135.63
553.37	1135.86
553.72	1127.67
554.07	1119.71
554.43	1122.29
554.78	1113.86
555.13	1117.14
555.49	1114.10
555.84	1116.67
556.19	1120.88
556.55	1126.97
556.90	1120.41
557.26	1116.67
557.61	1109.65
557.96	1111.05
558.32	1109.65
558.67	1117.37
559.02	1128.14
559.37	1132.12
559.73	1127.44
560.08	1130.01
560.43	1120.65
560.79	1112.46
561.14	1114.10
561.49	1113.16
561.85	1106.37
562.20	1111.29
562.55	1109.88
562.90	1100.75
563.26	1100.99
563.61	1108.01
563.96	1106.61
564.32	1105.67
564.67	1114.80
565.02	1111.99
565.37	1100.75
565.73	1103.56
566.08	1097.01
566.43	1092.80
566.78	1096.31
567.14	1100.52
567.49	1093.03
567.84	1101.92
568.19	1110.58
568.54	1099.58
568.90	1098.65
569.25	1102.16
569.60	1112.22
569.95	1108.48
570.31	1118.07
570.66	1122.05
571.01	1129.31
571.36	1112.69
571.71	1100.05
572.06	1100.52
572.42	1110.12
572.77	1109.41
573.12	1109.18
573.47	1122.75
573.82	1116.67
574.18	1114.56
574.53	1116.44
574.88	1115.97
575.23	1114.33
575.58	1112.92
575.93	1106.37
576.28	1095.14
576.64	1102.63
576.99	1100.29
577.34	1109.41
577.69	1105.90
578.04	1112.46
578.39	1110.35
578.74	1103.80
579.09	1099.12
579.44	1103.33
579.80	1102.16
580.15	1115.73
580.50	1127.44
580.85	1131.65
581.20	1125.33
581.55	1119.95
581.90	1108.71
582.25	1098.65
582.60	1104.03
582.95	1103.80
583.30	1108.95
583.65	1112.22
584.00	1107.07
584.35	1098.88
584.71	1104.73
585.06	1104.26
585.41	1102.16
585.76	1115.27
586.11	1111.05
586.46	1104.50
586.81	1097.01
587.16	1095.37
587.51	1094.90
587.86	1098.18
588.21	1105.90
588.56	1115.97
588.91	1116.67
589.26	1113.86
589.61	1113.39
589.96	1107.78
590.31	1098.41
590.66	1095.60
591.01	1098.88
591.36	1105.44
591.71	1108.01
592.06	1125.80
592.41	1124.16
592.76	1126.50
593.10	1121.82
593.45	1129.31
593.80	1124.16
594.15	1129.54
594.50	1120.65
594.85	1116.67
595.20	1103.09
595.55	1091.16
595.90	1084.37
596.25	1087.88
596.60	1095.84
596.95	1103.56
597.30	1104.26
597.64	1155.76
597.99	1155.29
598.34	1156.93
598.69	1146.86
599.04	1150.61
599.39	1100.99
599.74	1094.67
600.09	1081.09
600.44	1088.12
600.78	1089.75
601.13	1092.09
601.48	1093.50
601.83	1104.73
602.18	1104.03
602.53	1098.88
602.88	1095.60
603.22	1097.24
603.57	1097.01
603.92	1101.46
604.27	1103.56
604.62	1107.54
604.97	1102.86
605.31	1096.07
605.66	1086.94
606.01	1079.92
606.36	1076.88
606.71	1094.43
607.05	1099.58
607.40	1100.05
607.75	1107.31
608.10	1109.18
608.44	1109.65
608.79	1105.90
609.14	1113.39
609.49	1116.20
609.84	1111.05
610.18	1099.82
610.53	1105.20
610.88	1109.41
611.23	1105.20
611.57	1113.39
611.92	1124.86
612.27	1125.10
612.62	1123.93
612.96	1118.07
613.31	1108.24
613.66	1098.88
614.00	1091.63
614.35	1095.14
614.70	1109.65
615.05	1115.50
615.39	1102.16
615.74	1103.33
616.09	1094.90
616.43	1101.92
616.78	1098.41
617.13	1109.18
617.47	1113.63
617.82	1111.75
618.17	1093.26
618.51	1096.54
618.86	1101.69
619.21	1103.09
619.55	1113.63
619.90	1119.71
620.25	1122.75
620.59	1114.33
620.94	1108.01
621.29	1100.05
621.63	1092.80
621.98	1084.60
622.32	1089.05
622.67	1085.07
623.02	1077.35
623.36	1071.73
623.71	1078.28
624.05	1081.09
624.40	1092.80
624.75	1101.46
625.09	1118.54
625.44	1119.24
625.78	1124.16
626.13	1124.39
626.48	1119.95
626.82	1114.10
627.17	1113.63
627.51	1096.78
627.86	1084.37
628.20	1084.14
628.55	1078.28
628.89	1067.28
629.24	1069.86
629.58	1080.16
629.93	1076.88
630.28	1093.03
630.62	1111.52
630.97	1112.46
631.31	1106.37
631.66	1111.52
632.00	1097.95
632.35	1082.26
632.69	1094.20
633.04	1092.56
633.38	1094.20
633.73	1088.35
634.07	1095.14
634.42	1091.39
634.76	1097.01
635.11	1097.48
635.45	1104.97
635.79	1099.82
636.14	1094.90
636.48	1090.92
636.83	1087.65
637.17	1090.46
637.52	1090.92
637.86	1093.50
638.21	1098.65
638.55	1103.09
638.89	1099.58
639.24	1090.46
639.58	1097.48
639.93	1082.97
640.27	1081.33
640.61	1082.26
640.96	1095.37
641.30	1085.77
641.65	1104.73
641.99	1099.58
642.33	1102.16
642.68	1095.37
643.02	1093.97
643.37	1078.75
643.71	1082.97
644.05	1075.48
644.40	1089.99
644.74	1095.14
645.08	1101.69
645.43	1099.82
645.77	1109.41
646.11	1098.65
646.46	1093.50
646.80	1081.80
647.14	1077.11
647.49	1080.86
647.83	1084.37
648.17	1092.56
648.52	1097.48
648.86	1100.52
649.20	1089.29
649.55	1085.54
649.89	1080.63
650.23	1082.50
650.57	1094.67
650.92	1099.12
651.26	1104.50
651.60	1098.18
651.95	1101.92
652.29	1089.99
652.63	1089.99
652.97	1089.05
653.32	1097.01
653.66	1106.84
654.00	1116.90
654.34	1114.80
654.69	1113.63
655.03	1103.56
655.37	1102.63
655.71	1100.05
656.05	1092.80
656.40	1093.50
656.74	1090.69
657.08	1076.88
657.42	1070.33
657.76	1085.31
658.11	1076.88
658.45	1081.80
658.79	1100.29
659.13	1103.80
659.47	1084.84
659.82	1094.43
660.16	1097.95
660.50	1084.14
660.84	1089.52
661.18	1097.48
661.52	1095.84
661.87	1100.99
662.21	1107.54
662.55	1100.05
662.89	1102.63
663.23	1099.35
663.57	1103.09
663.91	1105.90
664.25	1102.39
664.60	1105.20
664.94	1102.63
665.28	1091.39
665.62	1087.18
665.96	1101.69
666.30	1097.01
666.64	1100.05
666.98	1100.75
667.32	1100.75
667.66	1082.73
668.01	1081.80
668.35	1078.05
668.69	1084.60
669.03	1070.09
669.37	1081.80
669.71	1087.88
670.05	1083.67
670.39	1080.63
670.73	1095.60
671.07	1092.09
671.41	1087.88
671.75	1095.37
672.09	1094.90
672.43	1085.31
672.77	1083.20
673.11	1086.71
673.45	1089.75
673.79	1089.75
674.13	1095.14
674.47	1101.92
674.81	1097.95
675.15	1098.41
675.49	1100.05
675.83	1100.29
676.17	1101.46
676.51	1110.35
676.85	1113.86
677.19	1113.39
677.53	1106.14
677.87	1101.92
678.21	1092.80
678.55	1083.43
678.89	1084.84
679.23	1092.33
679.57	1085.77
679.90	1085.07
680.24	1084.60
680.58	1086.48
680.92	1084.37
681.26	1086.94
681.60	1089.52
681.94	1099.35
682.28	1097.01
682.62	1093.97
682.96	1094.90
683.29	1093.26
683.63	1089.75
683.97	1084.14
684.31	1095.60
684.65	1100.29
684.99	1101.22
685.33	1092.56
685.67	1101.22
686.00	1090.69
686.34	1079.22
686.68	1075.71
687.02	1079.69
687.36	1076.65
687.70	1080.63
688.03	1082.26
688.37	1092.80
688.71	1090.69
689.05	1078.75
689.39	1074.07
689.72	1070.33
690.06	1068.45
690.40	1072.67
690.74	1079.69
691.08	1082.03
691.41	1079.69
691.75	1067.75
692.09	1059.79
692.43	1057.69
692.76	1052.30
693.10	1054.88
693.44	1062.14
693.78	1070.33
694.11	1070.33
694.45	1067.52
694.79	1070.56
695.13	1075.94
695.46	1081.09
695.80	1088.82
696.14	1100.29
696.48	1100.75
696.81	1084.60
697.15	1083.43
697.49	1072.20
697.82	1064.48
698.16	1074.77
698.50	1086.01
698.83	1079.69
699.17	1078.75
699.51	1084.84
699.84	1078.05
700.18	1072.67
700.52	1071.26
700.85	1079.22
701.19	1077.35
701.53	1072.67
701.86	1077.35
702.20	1081.80
702.54	1068.22
702.87	1058.62
703.21	1060.03
703.55	1049.03
703.88	1047.16
704.22	1064.24
704.55	1063.31
704.89	1063.31
705.23	1064.01
705.56	1071.26
705.90	1060.50
706.23	1068.92
706.57	1083.43
706.91	1095.14
707.24	1080.63
707.58	1089.05
707.91	1083.43
708.25	1074.77
708.58	1076.18
708.92	1079.92
709.26	1066.58
709.59	1078.75
709.93	1079.46
710.26	1073.37
710.60	1070.09
710.93	1080.39
711.27	1079.69
711.60	1075.94
711.94	1085.31
712.27	1096.54
712.61	1097.24
712.94	1099.35
713.28	1111.99
713.61	1102.16
713.95	1096.54
714.28	1102.86
714.62	1100.29
714.95	1092.56
715.29	1091.63
715.62	1087.41
715.96	1077.58
716.29	1065.88
716.63	1056.52
716.96	1066.11
717.29	1076.18
717.63	1080.63
717.96	1092.33
718.30	1101.69
718.63	1094.67
718.97	1091.86
719.30	1093.50
719.63	1089.75
719.97	1085.77
720.30	1081.56
720.64	1078.05
720.97	1081.56
721.30	1087.41
721.64	1093.26
721.97	1098.88
722.31	1104.03
722.64	1096.31
722.97	1088.35
723.31	1082.50
723.64	1078.75
723.97	1076.65
724.31	1070.09
724.64	1070.33
724.98	1073.14
725.31	1077.11
725.64	1076.65
725.98	1086.01
726.31	1098.18
726.64	1094.67
726.97	1093.97
727.31	1093.26
727.64	1094.43
727.97	1088.82
728.31	1089.29
728.64	1092.80
728.97	1092.33
729.31	1098.88
729.64	1093.26
729.97	1089.75
730.30	1097.71
730.64	1091.16
730.97	1078.99
731.30	1075.24
731.63	1084.84
731.97	1067.75
732.30	1072.43
732.63	1076.88
732.96	1078.75
733.30	1074.31
733.63	1082.26
733.96	1084.14
734.29	1077.11
734.63	1080.16
734.96	1074.77
735.29	1080.16
735.62	1075.94
735.95	1073.37
736.29	1071.73
736.62	1082.03
736.95	1078.75
737.28	1079.69
737.61	1082.73
737.94	1078.52
738.28	1067.05
738.61	1076.41
738.94	1082.26
739.27	1085.31
739.60	1084.84
739.93	1090.69
740.27	1078.99
740.60	1078.05
740.93	1079.69
741.26	1081.56
741.59	1076.41
741.92	1073.60
742.25	1066.58
742.58	1068.69
742.91	1077.58
743.25	1093.73
743.58	1087.65
743.91	1082.26
744.24	1083.43
744.57	1083.20
744.90	1071.03
745.23	1088.82
745.56	1086.24
745.89	1076.41
746.22	1078.75
746.55	1076.18
746.88	1060.96
747.21	1075.71
747.54	1082.26
747.87	1071.26
748.20	1071.50
748.53	1072.43
748.87	1077.58
749.20	1085.07
749.53	1089.52
749.86	1088.82
750.19	1084.60
750.52	1068.45
750.85	1057.22
751.18	1056.28
751.51	1055.82
751.84	1059.09
752.16	1071.73
752.49	1071.73
752.82	1077.11
753.15	1086.24
753.48	1088.58
753.81	1091.39
754.14	1090.69
754.47	1085.54
754.80	1077.35
755.13	1080.39
755.46	1074.31
755.79	1086.48
756.12	1089.05
756.45	1091.86
756.78	1082.97
757.11	1073.60
757.43	1064.01
757.76	1066.35
758.09	1075.24
758.42	1081.33
758.75	1089.99
759.08	1097.71
759.41	1097.71
759.74	1089.29
760.07	1098.18
760.39	1096.07
760.72	1093.03
761.05	1081.33
761.38	1086.48
761.71	1084.60
762.04	1083.90
762.36	1080.16
762.69	1087.88
763.02	1086.01
763.35	1076.88
763.68	1082.26
764.01	1079.46
764.33	1081.09
764.66	1078.05
764.99	1090.22
765.32	1087.18
765.65	1095.37
765.97	1091.16
766.30	1086.01
766.63	1080.86
766.96	1081.80
767.28	1080.63
767.61	1081.09
767.94	1075.71
768.27	1069.16
768.59	1079.69
768.92	1083.20
769.25	1084.60
769.58	1095.60
769.90	1094.90
770.23	1086.48
770.56	1081.09
770.89	1074.77
771.21	1073.60
771.54	1073.60
771.87	1062.84
772.19	1063.77
772.52	1073.14
772.85	1078.28
773.17	1080.86
773.50	1093.50
773.83	1096.31
774.15	1092.80
774.48	1085.07
774.81	1082.97
775.13	1071.73
775.46	1063.54
775.79	1067.28
776.11	1070.33
776.44	1082.97
776.77	1090.69
777.09	1096.07
777.42	1085.31
777.74	1077.11
778.07	1078.52
778.40	1078.99
778.72	1075.24
779.05	1084.37
779.37	1086.24
779.70	1075.01
780.03	1071.03
780.35	1078.05
780.68	1070.80
781.00	1074.07
781.33	1078.05
781.65	1077.35
781.98	1070.33
782.31	1078.75
782.63	1083.67
782.96	1080.39
783.28	1082.26
783.61	1087.18
783.93	1078.05
784.26	1078.05
784.58	1091.63
784.91	1089.52
785.23	1077.58
785.56	1082.26
785.88	1088.82
786.21	1077.82
786.53	1085.77
786.86	1099.58
787.18	1091.16
787.51	1091.39
787.83	1087.41
788.16	1089.29
788.48	1084.14
788.81	1092.09
789.13	1067.05
789.46	1062.84
789.78	1061.67
790.10	1058.86
790.43	1060.73
790.75	1077.82
791.08	1089.52
791.40	1086.48
791.73	1098.65
792.05	1103.33
792.37	1102.39
792.70	1098.18
793.02	1096.78
793.35	1099.58
793.67	1090.69
793.99	1096.31
794.32	1089.75
794.64	1091.86
794.96	1077.58
795.29	1083.67
795.61	1074.07
795.93	1073.84
796.26	1075.94
796.58	1076.41
796.91	1072.67
797.23	1082.50
797.55	1093.03
797.87	1083.43
798.20	1084.14
798.52	1082.03
798.84	1080.39
799.17	1078.52
799.49	1080.16
799.81	1087.88
800.14	1091.16
800.46	1089.29
800.78	1081.56
801.10	1083.90
801.43	1065.88
801.75	1067.52
802.07	1064.24
802.40	1075.48
802.72	1076.18
803.04	1082.03
803.36	1083.43
803.69	1086.48
804.01	1076.88
804.33	1076.18
804.65	1083.20
804.97	1087.41
805.30	1084.84
805.62	1090.46
805.94	1091.39
806.26	1089.29
806.58	1084.84
806.91	1082.26
807.23	1069.39
807.55	1074.31
807.87	1072.20
808.19	1062.14
808.52	1060.26
808.84	1070.80
809.16	1066.82
809.48	1066.35
809.80	1076.88
810.12	1078.05
810.44	1083.43
810.77	1080.63
811.09	1086.01
811.41	1072.43
811.73	1072.20
812.05	1061.43
812.37	1062.60
812.69	1062.60
813.01	1073.14
813.33	1085.31
813.66	1089.29
813.98	1088.35
814.30	1093.50
814.62	1092.09
814.94	1077.58
815.26	1073.84
815.58	1071.50
815.90	1063.31
816.22	1063.31
816.54	1063.54
816.86	1059.33
817.18	1064.94
817.50	1061.90
817.82	1058.86
818.14	1068.92
818.46	1075.94
818.78	1066.35
819.10	1074.31
819.42	1081.80
819.74	1083.90
820.06	1083.20
820.38	1091.16
820.70	1087.88
821.02	1075.94
821.34	1066.35
821.66	1064.94
821.98	1075.01
822.30	1073.84
822.62	1087.41
822.94	1100.99
823.26	1104.03
823.58	1092.56
823.90	1096.78
824.22	1094.43
824.54	1088.82
824.86	1084.84
825.18	1092.80
825.50	1085.31
825.81	1086.01
826.13	1073.60
826.45	1074.77
826.77	1063.54
827.09	1065.65
827.41	1060.50
827.73	1045.99
828.05	1057.45
828.36	1057.45
828.68	1059.56
829.00	1070.56
829.32	1090.69
829.64	1085.31
829.96	1093.03
830.28	1094.90
830.59	1087.18
830.91	1088.12
831.23	1090.69
831.55	1089.29
831.87	1089.99
832.19	1097.95
832.50	1096.07
832.82	1096.31
833.14	1093.26
833.46	1090.22
833.78	1081.80
834.09	1085.54
834.41	1079.92
834.73	1082.26
835.05	1078.99
835.36	1079.69
835.68	1076.88
836.00	1080.39
836.32	1072.43
836.63	1069.62
836.95	1072.67
837.27	1064.01
837.59	1057.45
837.90	1065.65
838.22	1068.45
838.54	1076.88
838.85	1093.03
839.17	1102.63
839.49	1100.75
839.80	1101.22
840.12	1095.60
840.44	1087.41
840.76	1089.29
841.07	1100.29
841.39	1107.07
841.71	1100.05
842.02	1099.82
842.34	1089.75
842.65	1071.73
842.97	1061.43
843.29	1062.60
843.60	1067.05
843.92	1071.03
844.24	1086.24
844.55	1093.03
844.87	1098.18
845.18	1099.35
845.50	1092.80
845.82	1075.01
846.13	1074.31
846.45	1060.50
846.76	1059.56
847.08	1063.31
847.40	1073.37
847.71	1073.37
848.03	1078.52
848.34	1077.82
848.66	1072.90
848.97	1074.77
849.29	1077.82
849.60	1092.56
849.92	1092.09
850.24	1103.33
850.55	1101.46
850.87	1101.92
851.18	1093.26
851.50	1089.29
851.81	1085.07
852.13	1081.09
852.44	1077.58
852.76	1064.71
853.07	1066.58
853.39	1064.71
853.70	1065.18
854.01	1061.67
854.33	1070.80
854.64	1075.48
854.96	1081.33
855.27	1086.01
855.59	1086.01
855.90	1086.48
856.22	1082.50
856.53	1077.58
856.84	1070.09
857.16	1086.48
857.47	1083.67
857.79	1088.35
858.10	1092.09
858.41	1096.07
858.73	1082.97
859.04	1088.35
859.36	1079.92
859.67	1063.77
859.98	1072.67
860.30	1066.82
860.61	1060.96
860.92	1059.56
861.24	1079.22
861.55	1085.07
861.87	1097.01
862.18	1105.44
862.49	1117.84
862.81	1113.39
863.12	1099.58
863.43	1091.86
863.74	1085.31
864.06	1073.84
864.37	1075.01
864.68	1084.84
865.00	1086.48
865.31	1085.54
865.62	1084.14
865.94	1088.35
866.25	1079.92
866.56	1088.12
866.87	1088.35
867.19	1093.73
867.50	1078.99
867.81	1080.63
868.12	1065.41
868.44	1067.52
868.75	1067.99
869.06	1078.99
869.37	1081.80
869.68	1091.86
870.00	1095.14
870.31	1092.56
870.62	1089.29
870.93	1088.82
871.24	1078.52
871.56	1080.39
871.87	1078.75
872.18	1077.11
872.49	1077.11
872.80	1072.67
873.12	1062.14
873.43	1067.99
873.74	1059.56
874.05	1059.79
874.36	1069.62
874.67	1073.37
874.98	1073.84
875.29	1066.82
875.61	1063.54
875.92	1063.31
876.23	1064.24
876.54	1054.65
876.85	1074.54
877.16	1072.67
877.47	1077.82
877.78	1079.46
878.09	1093.26
878.40	1085.31
878.72	1092.09
879.03	1088.35
879.34	1087.18
879.65	1078.75
879.96	1081.80
880.27	1078.05
880.58	1080.16
880.89	1069.16
881.20	1068.45
881.51	1073.14
881.82	1077.11
882.13	1080.39
882.44	1090.92
882.75	1079.46
883.06	1074.77
883.37	1060.26
883.68	1056.28
883.99	1053.94
884.30	1075.24
884.61	1080.63
884.92	1087.88
885.23	1086.24
885.54	1089.75
885.85	1078.05
886.16	1075.01
886.47	1072.43
886.78	1070.33
887.08	1066.11
887.39	1066.11
887.70	1058.39
888.01	1062.37
888.32	1074.31
888.63	1075.24
888.94	1084.84
889.25	1088.58
889.56	1094.90
889.87	1089.99
890.17	1087.18
890.48	1080.39
890.79	1082.03
891.10	1079.46
891.41	1079.22
891.72	1081.80
892.03	1088.12
892.34	1081.09
892.64	1072.90
892.95	1066.58
893.26	1073.60
893.57	1072.67
893.88	1085.77
894.18	1089.05
894.49	1085.07
894.80	1092.80
895.11	1091.16
895.42	1083.67
895.72	1083.67
896.03	1091.63
896.34	1075.01
896.65	1074.54
896.96	1080.39
897.26	1079.92
897.57	1074.31
897.88	1085.54
898.19	1089.52
898.49	1082.73
898.80	1081.33
899.11	1085.77
899.41	1074.07
899.72	1068.45
900.03	1079.69
900.34	1079.22
900.64	1077.82
900.95	1085.77
901.26	1082.03
901.56	1079.69
901.87	1085.07
902.18	1083.67
902.48	1073.14
902.79	1076.88
903.10	1062.14
903.40	1059.09
903.71	1068.22
904.02	1075.24
904.32	1073.60
904.63	1082.73
904.94	1087.41
905.24	1080.63
905.55	1081.80
905.85	1085.77
906.16	1077.58
906.47	1073.84
906.77	1070.80
907.08	1074.31
907.38	1072.20
907.69	1084.37
908.00	1082.50
908.30	1088.58
908.61	1085.54
908.91	1087.65
909.22	1079.46
909.52	1084.37
909.83	1083.67
910.14	1082.97
910.44	1080.86
910.75	1094.67
911.05	1096.54
911.36	1095.60
911.66	1090.46
911.97	1088.58
912.27	1070.80
912.58	1065.18
912.88	1066.35
913.19	1064.94
913.49	1058.16
913.80	1060.03
914.10	1068.45
914.41	1072.90
914.71	1081.33
915.01	1087.18
915.32	1097.71
915.62	1093.03
915.93	1091.86
916.23	1082.26
916.54	1078.99
916.84	1068.69
917.15	1066.35
917.45	1058.39
917.75	1064.24
918.06	1073.60
918.36	1084.84
918.67	1087.88
918.97	1093.50
919.27	1087.88
919.58	1083.20
919.88	1070.09
920.18	1061.67
920.49	1052.77
920.79	1060.03
921.10	1061.20
921.40	1064.01
921.70	1065.65
922.01	1072.43
922.31	1063.31
922.61	1070.09
922.92	1071.73
923.22	1071.73
923.52	1065.65
923.82	1067.99
924.13	1062.14
924.43	1070.09
924.73	1072.20
925.04	1069.62
925.34	1068.69
925.64	1075.71
925.94	1071.73
926.25	1071.03
926.55	1074.31
926.85	1081.09
927.15	1078.28
927.46	1075.71
927.76	1077.11
928.06	1077.35
928.36	1078.52
928.67	1069.16
928.97	1065.88
929.27	1054.41
929.57	1060.73
929.87	1056.99
930.18	1060.26
930.48	1064.94
930.78	1075.48
931.08	1072.20
931.38	1079.92
931.69	1089.75
931.99	1085.77
932.29	1082.97
932.59	1086.94
932.89	1079.92
933.19	1072.90
933.49	1071.97
933.80	1086.01
934.10	1088.12
934.40	1093.50
934.70	1097.95
935.00	1108.48
935.30	1105.90
935.60	1101.69
935.90	1094.90
936.20	1087.65
936.50	1078.75
936.81	1071.26
937.11	1086.24
937.41	1084.37
937.71	1087.88
938.01	1090.69
938.31	1087.41
938.61	1073.37
938.91	1080.63
939.21	1082.73
939.51	1089.29
939.81	1099.12
940.11	1095.37
940.41	1101.46
940.71	1098.18
941.01	1083.67
941.31	1077.82
941.61	1083.67
941.91	1061.90
942.21	1070.80
942.51	1080.16
942.81	1078.28
943.11	1075.94
943.41	1092.80
943.71	1084.14
944.01	1081.80
944.31	1079.22
944.61	1081.33
944.90	1081.56
945.20	1082.50
945.50	1087.41
945.80	1090.69
946.10	1079.22
946.40	1072.20
946.70	1064.01
947.00	1058.16
947.30	1055.82
947.60	1064.24
947.89	1064.24
948.19	1066.11
948.49	1074.54
948.79	1080.63
949.09	1081.56
949.39	1082.26
949.69	1081.56
949.98	1078.28
950.28	1077.58
950.58	1082.03
950.88	1090.92
951.18	1086.71
951.48	1091.16
951.77	1099.58
952.07	1095.14
952.37	1089.29
952.67	1092.33
952.97	1078.05
953.26	1062.37
953.56	1060.73
953.86	1054.18
954.16	1070.09
954.45	1074.07
954.75	1078.05
955.05	1075.01
955.35	1085.31
955.64	1077.82
955.94	1079.69
956.24	1082.26
956.54	1084.14
956.83	1077.11
957.13	1075.01
957.43	1072.43
957.72	1077.82
958.02	1083.20
958.32	1084.60
958.61	1082.03
958.91	1080.39
959.21	1074.31
959.50	1084.14
959.80	1094.67
960.10	1096.31
960.39	1099.58
960.69	1091.63
960.99	1067.28
961.28	1064.71
961.58	1068.45
961.87	1082.50
962.17	1092.09
962.47	1101.92
962.76	1099.12
963.06	1097.48
963.36	1088.82
963.65	1082.73
963.95	1086.24
964.24	1082.50
964.54	1084.84
964.83	1081.80
965.13	1083.67
965.42	1087.18
965.72	1084.84
966.02	1076.18
966.31	1071.97
966.61	1075.71
966.90	1063.07
967.20	1067.99
967.49	1071.97
967.79	1075.71
968.08	1073.84
968.38	1089.29
968.67	1080.16
968.97	1078.75
969.26	1078.99
969.56	1078.52
969.85	1076.18
970.15	1076.41
970.44	1070.56
970.74	1067.75
971.03	1071.03
971.32	1054.88
971.62	1057.92
971.91	1060.03
972.21	1062.14
972.50	1068.92
972.80	1083.67
973.09	1085.31
973.38	1093.97
973.68	1096.31
973.97	1078.28
974.27	1077.58
974.56	1085.77
974.85	1080.63
975.15	1082.97
975.44	1082.73
975.73	1078.05
976.03	1077.35
976.32	1086.48
976.61	1081.09
976.91	1077.11
977.20	1076.88
977.49	1071.26
977.79	1068.69
978.08	1060.73
978.37	1070.56
978.67	1074.31
978.96	1073.14
979.25	1068.92
979.55	1072.90
979.84	1080.86
980.13	1076.88
980.42	1081.80
980.72	1087.65
981.01	1087.88
981.30	1085.77
981.59	1083.67
981.89	1078.52
982.18	1073.60
982.47	1075.48
982.76	1072.20
983.06	1082.26
983.35	1079.69
983.64	1078.05
983.93	1080.16
984.22	1084.14
984.52	1076.41
984.81	1080.39
985.10	1075.94
985.39	1075.71
985.68	1070.33
985.97	1064.01
986.27	1069.16
986.56	1067.05
986.85	1072.43
987.14	1070.09
987.43	1074.54
987.72	1063.31
988.01	1079.46
988.31	1075.94
988.60	1082.73
988.89	1084.84
989.18	1089.05
989.47	1078.52
989.76	1073.60
990.05	1067.99
990.34	1062.14
990.63	1069.39
990.92	1074.07
991.21	1079.69
991.51	1082.26
991.80	1089.05
992.09	1073.84
992.38	1065.65
992.67	1066.11
992.96	1066.11
993.25	1063.54
993.54	1073.14
993.83	1067.28
994.12	1061.20
994.41	1061.20
994.70	1065.65
994.99	1066.35
995.28	1080.86
995.57	1091.86
995.86	1100.05
996.15	1091.39
996.44	1093.50
996.73	1101.46
997.02	1087.65
997.31	1078.05
997.59	1088.12
997.88	1087.65
998.17	1077.58
998.46	1089.05
998.75	1091.16
999.04	1085.54
999.33	1078.28
999.62	1080.16
999.91	1088.12
1000.20	1083.20
1000.49	1091.16
1000.77	1090.69
1001.06	1097.71
1001.35	1070.56
1001.64	1074.54
1001.93	1063.07
1002.22	1064.24
1002.51	1050.43
1002.79	1069.39
1003.08	1072.90
1003.37	1085.77
1003.66	1091.16
1003.95	1096.07
1004.23	1093.50
1004.52	1091.86
1004.81	1087.41
1005.10	1089.75
1005.39	1083.43
1005.67	1082.50
1005.96	1075.71
1006.25	1086.48
1006.54	1076.18
1006.83	1076.41
1007.11	1082.03
1007.40	1083.90
1007.69	1072.67
1007.97	1077.82
1008.26	1080.39
1008.55	1074.54
1008.84	1077.82
1009.12	1078.99
1009.41	1080.86
1009.70	1083.43
1009.98	1073.60
1010.27	1077.11
1010.56	1065.88
1010.85	1070.56
1011.13	1064.94
1011.42	1075.71
1011.71	1069.16
1011.99	1078.52
1012.28	1076.41
1012.56	1078.05
1012.85	1071.03
1013.14	1070.80
1013.42	1072.20
1013.71	1067.52
1014.00	1079.46
1014.28	1082.26
1014.57	1085.31
1014.85	1085.77
1015.14	1092.56
1015.43	1077.11
1015.71	1081.33
1016.00	1082.03
1016.28	1071.50
1016.57	1073.37
1016.85	1086.94
1017.14	1087.65
1017.43	1086.24
1017.71	1085.07
1018.00	1077.35
1018.28	1067.05
1018.57	1075.01
1018.85	1073.14
1019.14	1080.86
1019.42	1075.71
1019.71	1073.14
1019.99	1061.90
1020.28	1060.73
1020.56	1063.07
1020.85	1073.37
1021.13	1083.43
1021.42	1087.18
1021.70	1088.58
1021.99	1081.09
1022.27	1082.97
1022.55	1054.41
1022.84	1107.07
>>>>>End Processed Spectral Data<<<<<
