SpectraSuite Data File
++++++++++++++++++++++++++++++++++++
Date: Mon Aug 26 10:24:41 PDT 2019
User: corrico
Dark Spectrum Present: No
Reference Spectrum Present: No
Number of Sampled Component Spectra: 1
Spectrometers: USB2+H06089
Integration Time (usec): 10000 (USB2+H06089)
Spectra Averaged: 2 (USB2+H06089)
Boxcar Smoothing: 2 (USB2+H06089)
Correct for Electrical Dark: No (USB2+H06089)
Strobe/Lamp Enabled: No (USB2+H06089)
Correct for Detector Non-linearity: No (USB2+H06089)
Correct for Stray Light: No (USB2+H06089)
Number of Pixels in Processed Spectrum: 2048
>>>>>Begin Processed Spectral Data<<<<<
339.70	1045.05
340.07	1045.05
340.45	1010.64
340.82	995.43
341.19	963.60
341.57	943.00
341.94	934.81
342.31	913.04
342.69	891.98
343.06	895.49
343.43	882.85
343.81	874.19
344.18	878.64
344.55	889.87
344.93	885.66
345.30	892.91
345.67	905.09
346.04	924.98
346.42	926.15
346.79	951.66
347.16	965.94
347.54	979.75
347.91	984.43
348.28	996.13
348.65	990.05
349.03	997.07
349.40	1011.81
349.77	1022.58
350.14	1033.11
350.52	1046.22
350.89	1055.82
351.26	1061.20
351.63	1065.65
352.01	1080.39
352.38	1091.86
352.75	1098.41
353.12	1096.54
353.50	1094.20
353.87	1091.86
354.24	1095.37
354.61	1098.18
354.98	1095.14
355.36	1102.86
355.73	1102.39
356.10	1092.80
356.47	1089.52
356.84	1093.73
357.22	1094.67
357.59	1100.29
357.96	1100.75
358.33	1108.95
358.70	1107.54
359.08	1105.20
359.45	1108.48
359.82	1108.71
360.19	1095.60
360.56	1091.16
360.94	1084.60
361.31	1067.99
361.68	1065.18
362.05	1061.67
362.42	1056.28
362.79	1072.43
363.16	1075.94
363.54	1090.69
363.91	1099.58
364.28	1112.22
364.65	1092.09
365.02	1096.07
365.39	1083.43
365.76	1084.84
366.14	1081.80
366.51	1095.60
366.88	1098.65
367.25	1103.56
367.62	1107.31
367.99	1108.01
368.36	1099.58
368.73	1089.52
369.10	1085.07
369.48	1081.09
369.85	1080.86
370.22	1086.71
370.59	1089.99
370.96	1093.26
371.33	1091.16
371.70	1094.43
372.07	1090.69
372.44	1097.01
372.81	1100.29
373.18	1096.78
373.55	1094.20
373.93	1095.14
374.30	1104.73
374.67	1098.88
375.04	1097.01
375.41	1102.63
375.78	1117.37
376.15	1105.20
376.52	1112.92
376.89	1122.05
377.26	1123.46
377.63	1114.10
378.00	1117.14
378.37	1115.27
378.74	1121.82
379.11	1111.99
379.48	1112.22
379.85	1112.92
380.22	1111.05
380.59	1106.37
380.96	1115.97
381.33	1104.03
381.70	1103.56
382.07	1108.95
382.44	1100.52
382.81	1099.35
383.18	1112.69
383.55	1111.29
383.92	1112.92
384.29	1116.90
384.66	1122.52
385.03	1119.95
385.40	1126.73
385.77	1123.22
386.14	1128.37
386.51	1126.73
386.88	1128.37
387.25	1124.86
387.62	1111.99
387.99	1119.48
388.36	1112.69
388.73	1109.18
389.10	1115.97
389.46	1133.05
389.83	1123.93
390.20	1126.73
390.57	1130.95
390.94	1126.27
391.31	1123.93
391.68	1123.22
392.05	1125.80
392.42	1124.86
392.79	1120.41
393.16	1125.56
393.53	1115.27
393.89	1116.44
394.26	1122.29
394.63	1133.05
395.00	1130.48
395.37	1148.97
395.74	1149.20
396.11	1158.57
396.48	1162.31
396.84	1165.12
397.21	1160.44
397.58	1162.54
397.95	1164.88
398.32	1163.25
398.69	1164.88
399.06	1177.52
399.42	1173.54
399.79	1174.95
400.16	1175.18
400.53	1177.76
400.90	1185.01
401.27	1201.16
401.64	1197.89
402.00	1207.48
402.37	1218.95
402.74	1213.57
403.11	1223.40
403.48	1240.48
403.84	1255.23
404.21	1265.53
404.58	1302.51
404.95	1309.06
405.32	1316.08
405.68	1331.53
406.05	1350.49
406.42	1356.34
406.79	1396.36
407.16	1428.19
407.52	1446.92
407.89	1475.47
408.26	1509.41
408.63	1534.22
408.99	1582.90
409.36	1636.74
409.73	1693.61
410.10	1748.85
410.47	1797.30
410.83	1845.28
411.20	1908.00
411.57	1968.16
411.94	2043.29
412.30	2112.33
412.67	2197.76
413.04	2279.68
413.40	2370.26
413.77	2457.80
414.14	2581.61
414.51	2696.30
414.87	2831.81
415.24	2984.18
415.61	3141.00
415.97	3294.30
416.34	3474.06
416.71	3654.28
417.08	3846.90
417.44	4027.13
417.81	4264.22
418.18	4478.15
418.54	4726.48
418.91	4975.28
419.28	5265.97
419.64	5541.45
420.01	5857.42
420.38	6207.57
420.74	6553.73
421.11	6968.95
421.48	7382.05
421.84	7803.58
422.21	8239.86
422.58	8723.64
422.94	9207.67
423.31	9676.94
423.68	10246.40
424.04	10829.42
424.41	11449.90
424.77	12038.08
425.14	12703.02
425.51	13349.71
425.87	14063.11
426.24	14763.63
426.61	15658.18
426.97	16670.00
427.34	17653.26
427.70	18656.18
428.07	19700.06
428.44	20684.48
428.80	21651.83
429.17	22698.28
429.53	23754.80
429.90	24957.37
430.27	26041.27
430.63	27175.49
431.00	28437.27
431.36	29743.06
431.73	30960.84
432.09	32217.01
432.46	33462.87
432.83	34783.64
433.19	36010.31
433.56	37549.92
433.92	39202.10
434.29	40768.86
434.65	42187.45
435.02	43574.69
435.38	44685.51
435.75	45494.16
436.11	46674.73
436.48	47701.76
436.84	48685.02
437.21	49627.78
437.57	50594.89
437.94	51275.05
438.30	51778.03
438.67	52110.86
439.03	52205.88
439.40	52388.21
439.76	52227.42
440.13	52057.73
440.49	52039.00
440.86	51753.69
441.22	51403.31
441.59	50829.18
441.95	50292.26
442.32	49355.34
442.68	48596.54
443.05	47614.45
443.41	46690.41
443.78	45508.67
444.14	44535.71
444.51	43275.57
444.87	42260.24
445.24	40971.78
445.60	39848.79
445.96	38687.18
446.33	37848.33
446.69	36756.71
447.06	35950.16
447.42	35012.78
447.79	33916.23
448.15	32901.85
448.51	31894.48
448.88	31059.14
449.24	30105.61
449.61	29471.32
449.97	28641.37
450.33	27924.00
450.70	27028.04
451.06	26449.22
451.43	25675.44
451.79	25147.65
452.15	24589.20
452.52	24038.47
452.88	23426.66
453.24	22966.74
453.61	22389.56
453.97	21772.60
454.34	21200.81
454.70	20692.68
455.06	20054.41
455.43	19341.72
455.79	18618.96
456.15	18057.94
456.52	17402.12
456.88	16835.94
457.24	16260.64
457.61	15808.21
457.97	15252.80
458.33	14720.80
458.70	14123.26
459.06	13609.04
459.42	13163.17
459.79	12689.68
460.15	12285.94
460.51	11940.71
460.88	11575.35
461.24	11129.95
461.60	10749.14
461.96	10362.25
462.33	10005.32
462.69	9678.82
463.05	9366.82
463.42	9110.77
463.78	8863.37
464.14	8570.57
464.50	8342.61
464.87	8120.72
465.23	7838.22
465.59	7594.10
465.95	7420.20
466.32	7192.00
466.68	6964.26
467.04	6798.55
467.40	6625.59
467.77	6447.24
468.13	6271.70
468.49	6147.42
468.85	5991.54
469.22	5869.36
469.58	5715.82
469.94	5581.94
470.30	5433.79
470.66	5327.06
471.03	5182.18
471.39	5100.03
471.75	5003.60
472.11	4903.19
472.47	4825.72
472.84	4732.56
473.20	4614.83
473.56	4523.55
473.92	4392.02
474.28	4286.69
474.65	4201.96
475.01	4121.45
475.37	4026.89
475.73	3984.29
476.09	3896.52
476.45	3819.52
476.81	3733.62
477.18	3663.87
477.54	3586.17
477.90	3516.42
478.26	3425.14
478.62	3370.37
478.98	3305.30
479.34	3263.17
479.71	3225.02
480.07	3205.83
480.43	3175.40
480.79	3123.91
481.15	3067.97
481.51	2997.99
481.87	2952.12
482.23	2887.52
482.59	2850.30
482.96	2803.03
483.32	2773.07
483.68	2734.68
484.04	2693.25
484.40	2661.66
484.76	2626.32
485.12	2575.29
485.48	2541.82
485.84	2509.52
486.20	2480.03
486.56	2450.31
486.92	2422.22
487.28	2373.30
487.64	2334.92
488.00	2281.79
488.37	2237.08
488.73	2204.08
489.09	2175.76
489.45	2154.46
489.81	2132.46
490.17	2106.95
490.53	2088.23
490.89	2061.54
491.25	2029.48
491.61	2008.65
491.97	1989.22
492.33	1955.05
492.69	1923.92
493.05	1902.62
493.41	1884.13
493.77	1862.60
494.13	1843.87
494.49	1836.85
494.85	1824.45
495.21	1796.60
495.57	1760.55
495.93	1744.17
496.29	1713.04
496.64	1690.33
497.00	1680.97
497.36	1665.76
497.72	1635.10
498.08	1626.20
498.44	1600.69
498.80	1567.46
499.16	1558.09
499.52	1551.54
499.88	1544.05
500.24	1527.20
500.60	1531.88
500.96	1527.90
501.32	1519.71
501.68	1490.45
502.03	1480.86
502.39	1453.94
502.75	1444.81
503.11	1436.39
503.47	1431.71
503.83	1426.79
504.19	1420.00
504.55	1410.17
504.91	1402.45
505.26	1402.21
505.62	1398.94
505.98	1395.43
506.34	1385.83
506.70	1369.68
507.06	1356.11
507.42	1346.51
507.78	1344.87
508.13	1343.94
508.49	1340.42
508.85	1329.19
509.21	1320.06
509.57	1316.32
509.93	1304.61
510.28	1296.42
510.64	1295.95
511.00	1295.49
511.36	1282.85
511.72	1274.42
512.07	1275.83
512.43	1277.00
512.79	1267.63
513.15	1265.76
513.51	1255.00
513.86	1255.23
514.22	1244.23
514.58	1249.61
514.94	1245.87
515.30	1255.93
515.65	1247.04
516.01	1245.17
516.37	1228.31
516.73	1225.97
517.08	1218.72
517.44	1218.72
517.80	1219.19
518.16	1215.91
518.51	1208.89
518.87	1204.44
519.23	1200.46
519.59	1191.10
519.94	1192.03
520.30	1195.08
520.66	1194.61
521.01	1185.72
521.37	1188.29
521.73	1187.35
522.09	1173.08
522.44	1177.76
522.80	1182.20
523.16	1181.97
523.51	1179.63
523.87	1178.23
524.23	1166.99
524.58	1166.99
524.94	1167.46
525.30	1164.65
525.65	1169.57
526.01	1167.69
526.37	1163.01
526.72	1166.52
527.08	1178.46
527.44	1183.84
527.79	1185.72
528.15	1185.72
528.51	1166.05
528.86	1154.59
529.22	1156.46
529.58	1155.05
529.93	1156.22
530.29	1166.99
530.65	1160.67
531.00	1138.20
531.36	1133.99
531.71	1123.69
532.07	1120.18
532.43	1119.95
532.78	1130.95
533.14	1138.20
533.49	1140.54
533.85	1142.88
534.21	1152.48
534.56	1144.29
534.92	1137.73
535.27	1135.63
535.63	1130.48
535.98	1115.50
536.34	1118.31
536.69	1121.35
537.05	1125.33
537.41	1123.46
537.76	1137.50
538.12	1138.44
538.47	1133.99
538.83	1135.39
539.18	1125.56
539.54	1116.44
539.89	1120.65
540.25	1115.97
540.60	1117.14
540.96	1130.01
541.31	1137.03
541.67	1142.18
542.02	1146.16
542.38	1137.50
542.73	1141.48
543.09	1139.84
543.44	1132.82
543.80	1136.80
544.15	1141.01
544.51	1128.14
544.86	1125.80
545.22	1122.99
545.57	1122.05
545.93	1122.75
546.28	1122.52
546.64	1118.31
546.99	1114.56
547.35	1109.18
547.70	1105.44
548.05	1111.99
548.41	1117.14
548.76	1120.18
549.12	1117.61
549.47	1113.39
549.83	1115.50
550.18	1118.31
550.53	1121.58
550.89	1126.97
551.24	1141.95
551.60	1141.71
551.95	1138.20
552.30	1132.12
552.66	1128.84
553.01	1118.54
553.37	1111.52
553.72	1100.99
554.07	1100.05
554.43	1100.99
554.78	1104.50
555.13	1113.16
555.49	1117.14
555.84	1123.69
556.19	1132.59
556.55	1123.22
556.90	1125.56
557.26	1133.99
557.61	1133.05
557.96	1126.50
558.32	1137.50
558.67	1120.65
559.02	1114.33
559.37	1116.44
559.73	1120.88
560.08	1119.01
560.43	1127.67
560.79	1136.80
561.14	1134.69
561.49	1130.48
561.85	1123.69
562.20	1128.37
562.55	1124.39
562.90	1121.58
563.26	1108.48
563.61	1112.69
563.96	1104.50
564.32	1095.84
564.67	1102.63
565.02	1115.50
565.37	1108.48
565.73	1103.80
566.08	1098.88
566.43	1086.01
566.78	1077.82
567.14	1075.71
567.49	1079.46
567.84	1088.82
568.19	1096.78
568.54	1099.12
568.90	1101.92
569.25	1099.12
569.60	1093.73
569.95	1088.12
570.31	1081.09
570.66	1085.54
571.01	1097.01
571.36	1094.90
571.71	1094.67
572.06	1106.37
572.42	1108.48
572.77	1101.92
573.12	1108.71
573.47	1116.90
573.82	1120.18
574.18	1117.61
574.53	1119.24
574.88	1126.27
575.23	1130.24
575.58	1122.99
575.93	1128.84
576.28	1128.37
576.64	1118.78
576.99	1115.97
577.34	1118.07
577.69	1111.52
578.04	1114.56
578.39	1116.20
578.74	1114.10
579.09	1114.56
579.44	1115.03
579.80	1104.26
580.15	1105.67
580.50	1104.73
580.85	1098.41
581.20	1097.71
581.55	1102.63
581.90	1096.54
582.25	1089.05
582.60	1093.73
582.95	1092.80
583.30	1095.37
583.65	1096.31
584.00	1103.80
584.35	1106.37
584.71	1101.22
585.06	1095.37
585.41	1105.20
585.76	1094.43
586.11	1091.16
586.46	1096.07
586.81	1098.41
587.16	1089.29
587.51	1092.80
587.86	1086.94
588.21	1103.09
588.56	1107.31
588.91	1107.78
589.26	1102.86
589.61	1100.52
589.96	1083.20
590.31	1073.14
590.66	1076.88
591.01	1092.09
591.36	1105.20
591.71	1114.80
592.06	1121.58
592.41	1122.75
592.76	1122.52
593.10	1118.78
593.45	1111.75
593.80	1106.37
594.15	1104.73
594.50	1107.31
594.85	1110.35
595.20	1123.22
595.55	1127.67
595.90	1123.46
596.25	1119.01
596.60	1108.48
596.95	1097.24
597.30	1094.43
597.64	1149.20
597.99	1151.78
598.34	1155.29
598.69	1153.42
599.04	1163.01
599.39	1106.61
599.74	1099.35
600.09	1095.37
600.44	1093.73
600.78	1088.58
601.13	1088.12
601.48	1096.54
601.83	1091.63
602.18	1095.14
602.53	1094.20
602.88	1093.50
603.22	1084.84
603.57	1090.92
603.92	1093.73
604.27	1081.09
604.62	1078.28
604.97	1077.58
605.31	1079.92
605.66	1073.37
606.01	1088.58
606.36	1094.90
606.71	1089.29
607.05	1100.29
607.40	1105.44
607.75	1093.97
608.10	1087.41
608.44	1091.63
608.79	1075.01
609.14	1063.77
609.49	1076.18
609.84	1081.80
610.18	1085.54
610.53	1090.46
610.88	1093.03
611.23	1097.95
611.57	1101.69
611.92	1101.69
612.27	1107.07
612.62	1118.54
612.96	1115.50
613.31	1119.48
613.66	1121.82
614.00	1117.61
614.35	1108.71
614.70	1112.46
615.05	1103.80
615.39	1101.69
615.74	1096.31
616.09	1098.88
616.43	1095.37
616.78	1097.01
617.13	1096.31
617.47	1104.26
617.82	1096.54
618.17	1098.41
618.51	1100.29
618.86	1097.71
619.21	1108.71
619.55	1115.50
619.90	1116.44
620.25	1112.46
620.59	1107.31
620.94	1092.09
621.29	1091.63
621.63	1080.63
621.98	1077.58
622.32	1086.48
622.67	1091.86
623.02	1087.41
623.36	1089.52
623.71	1104.26
624.05	1106.84
624.40	1099.35
624.75	1096.54
625.09	1100.99
625.44	1097.48
625.78	1097.01
626.13	1096.54
626.48	1110.12
626.82	1106.14
627.17	1094.90
627.51	1087.88
627.86	1093.03
628.20	1086.01
628.55	1089.75
628.89	1091.16
629.24	1094.43
629.58	1103.09
629.93	1101.92
630.28	1093.03
630.62	1086.71
630.97	1085.54
631.31	1075.71
631.66	1083.43
632.00	1093.03
632.35	1107.07
632.69	1108.48
633.04	1111.05
633.38	1113.39
633.73	1118.31
634.07	1116.20
634.42	1114.56
634.76	1122.52
635.11	1114.56
635.45	1104.97
635.79	1093.50
636.14	1095.14
636.48	1087.88
636.83	1087.65
637.17	1085.31
637.52	1092.56
637.86	1080.86
638.21	1078.05
638.55	1078.05
638.89	1077.11
639.24	1075.24
639.58	1089.99
639.93	1091.63
640.27	1084.60
640.61	1100.75
640.96	1109.88
641.30	1104.73
641.65	1107.31
641.99	1111.75
642.33	1101.69
642.68	1103.09
643.02	1102.86
643.37	1105.67
643.71	1109.41
644.05	1109.88
644.40	1097.95
644.74	1088.12
645.08	1086.24
645.43	1074.31
645.77	1076.41
646.11	1079.22
646.46	1087.88
646.80	1078.28
647.14	1096.07
647.49	1086.01
647.83	1087.65
648.17	1085.77
648.52	1079.69
648.86	1078.75
649.20	1092.80
649.55	1096.54
649.89	1098.88
650.23	1110.58
650.57	1104.26
650.92	1098.41
651.26	1098.18
651.60	1101.22
651.95	1090.69
652.29	1094.20
652.63	1080.86
652.97	1075.01
653.32	1069.86
653.66	1082.73
654.00	1079.22
654.34	1092.80
654.69	1108.01
655.03	1106.61
655.37	1107.78
655.71	1112.22
656.05	1111.29
656.40	1105.90
656.74	1114.56
657.08	1110.82
657.42	1099.82
657.76	1102.86
658.11	1093.73
658.45	1092.33
658.79	1087.41
659.13	1098.41
659.47	1092.80
659.82	1091.86
660.16	1086.24
660.50	1094.90
660.84	1094.90
661.18	1091.86
661.52	1089.05
661.87	1094.67
662.21	1093.50
662.55	1088.12
662.89	1094.20
663.23	1099.35
663.57	1096.54
663.91	1091.63
664.25	1092.56
664.60	1093.73
664.94	1097.48
665.28	1093.73
665.62	1094.20
665.96	1093.97
666.30	1082.73
666.64	1087.88
666.98	1097.71
667.32	1099.12
667.66	1093.50
668.01	1101.46
668.35	1100.05
668.69	1092.80
669.03	1097.48
669.37	1107.78
669.71	1106.84
670.05	1094.20
670.39	1088.82
670.73	1079.69
671.07	1063.77
671.41	1066.58
671.75	1076.65
672.09	1076.88
672.43	1076.88
672.77	1094.20
673.11	1092.33
673.45	1090.22
673.79	1097.71
674.13	1094.20
674.47	1094.67
674.81	1095.14
675.15	1093.73
675.49	1094.90
675.83	1111.29
676.17	1107.31
676.51	1105.20
676.85	1097.24
677.19	1091.16
677.53	1085.07
677.87	1073.37
678.21	1071.97
678.55	1079.22
678.89	1086.01
679.23	1077.82
679.57	1081.80
679.90	1079.69
680.24	1068.69
680.58	1062.14
680.92	1058.86
681.26	1061.90
681.60	1062.84
681.94	1077.11
682.28	1076.41
682.62	1070.09
682.96	1065.88
683.29	1061.90
683.63	1062.14
683.97	1059.79
684.31	1064.48
684.65	1066.11
684.99	1074.54
685.33	1075.01
685.67	1079.69
686.00	1090.22
686.34	1095.37
686.68	1091.86
687.02	1087.18
687.36	1093.03
687.70	1087.65
688.03	1087.18
688.37	1090.22
688.71	1081.56
689.05	1071.73
689.39	1070.56
689.72	1066.58
690.06	1060.73
690.40	1065.65
690.74	1070.56
691.08	1082.03
691.41	1085.31
691.75	1094.43
692.09	1098.18
692.43	1093.03
692.76	1083.20
693.10	1085.77
693.44	1078.28
693.78	1079.46
694.11	1080.63
694.45	1078.52
694.79	1076.41
695.13	1077.82
695.46	1079.92
695.80	1082.97
696.14	1092.09
696.48	1096.78
696.81	1097.48
697.15	1095.84
697.49	1097.71
697.82	1086.24
698.16	1083.90
698.50	1087.41
698.83	1090.92
699.17	1084.14
699.51	1095.84
699.84	1091.86
700.18	1090.46
700.52	1084.37
700.85	1086.94
701.19	1082.26
701.53	1090.46
701.86	1100.99
702.20	1099.58
702.54	1109.18
702.87	1101.69
703.21	1092.33
703.55	1086.01
703.88	1092.80
704.22	1090.46
704.55	1100.52
704.89	1107.54
705.23	1100.52
705.56	1095.37
705.90	1091.39
706.23	1093.26
706.57	1091.86
706.91	1091.39
707.24	1099.58
707.58	1095.60
707.91	1090.69
708.25	1087.65
708.58	1099.82
708.92	1089.99
709.26	1102.39
709.59	1096.31
709.93	1088.82
710.26	1078.28
710.60	1086.94
710.93	1067.28
711.27	1069.39
711.60	1080.39
711.94	1080.86
712.27	1069.16
712.61	1075.24
712.94	1079.46
713.28	1072.67
713.61	1064.01
713.95	1074.31
714.28	1084.37
714.62	1080.39
714.95	1085.07
715.29	1087.88
715.62	1083.67
715.96	1076.18
716.29	1071.50
716.63	1072.67
716.96	1080.39
717.29	1072.20
717.63	1075.94
717.96	1090.22
718.30	1083.67
718.63	1071.97
718.97	1082.50
719.30	1082.03
719.63	1080.63
719.97	1090.46
720.30	1105.20
720.64	1101.92
720.97	1102.86
721.30	1099.58
721.64	1088.82
721.97	1079.46
722.31	1086.94
722.64	1096.54
722.97	1104.50
723.31	1111.99
723.64	1117.61
723.97	1118.54
724.31	1112.46
724.64	1100.52
724.98	1095.84
725.31	1097.24
725.64	1094.67
725.98	1088.82
726.31	1101.22
726.64	1101.46
726.97	1097.71
727.31	1080.63
727.64	1082.97
727.97	1079.69
728.31	1091.39
728.64	1087.88
728.97	1097.71
729.31	1096.54
729.64	1098.41
729.97	1082.73
730.30	1080.63
730.64	1076.18
730.97	1076.18
731.30	1066.58
731.63	1071.73
731.97	1071.26
732.30	1080.63
732.63	1073.60
732.96	1074.77
733.30	1083.43
733.63	1079.46
733.96	1078.05
734.29	1088.35
734.63	1092.09
734.96	1076.41
735.29	1079.92
735.62	1077.11
735.95	1076.18
736.29	1071.26
736.62	1073.14
736.95	1086.71
737.28	1097.71
737.61	1101.22
737.94	1097.71
738.28	1102.63
738.61	1096.07
738.94	1085.31
739.27	1085.77
739.60	1093.73
739.93	1088.12
740.27	1083.67
740.60	1082.73
740.93	1070.09
741.26	1071.73
741.59	1079.69
741.92	1079.92
742.25	1087.18
742.58	1090.69
742.91	1089.99
743.25	1090.22
743.58	1092.56
743.91	1086.94
744.24	1090.22
744.57	1088.35
744.90	1085.07
745.23	1084.84
745.56	1088.35
745.89	1083.90
746.22	1084.60
746.55	1093.26
746.88	1094.67
747.21	1092.80
747.54	1098.41
747.87	1090.22
748.20	1077.82
748.53	1080.39
748.87	1081.56
749.20	1086.71
749.53	1101.69
749.86	1114.10
750.19	1105.90
750.52	1093.26
750.85	1087.18
751.18	1075.94
751.51	1064.94
751.84	1070.33
752.16	1081.33
752.49	1072.90
752.82	1064.71
753.15	1073.60
753.48	1079.22
753.81	1076.18
754.14	1089.29
754.47	1100.05
754.80	1080.16
755.13	1071.97
755.46	1063.77
755.79	1068.69
756.12	1072.20
756.45	1092.09
756.78	1099.82
757.11	1108.71
757.43	1095.14
757.76	1093.03
758.09	1091.39
758.42	1086.94
758.75	1091.63
759.08	1099.12
759.41	1090.46
759.74	1077.35
760.07	1075.48
760.39	1068.22
760.72	1052.77
761.05	1068.22
761.38	1082.26
761.71	1076.88
762.04	1075.48
762.36	1083.67
762.69	1078.99
763.02	1078.75
763.35	1078.99
763.68	1074.54
764.01	1070.33
764.33	1059.33
764.66	1061.20
764.99	1065.41
765.32	1076.41
765.65	1078.52
765.97	1086.48
766.30	1082.73
766.63	1081.33
766.96	1073.60
767.28	1073.37
767.61	1067.28
767.94	1063.77
768.27	1063.54
768.59	1065.41
768.92	1064.01
769.25	1068.69
769.58	1076.18
769.90	1078.52
770.23	1086.24
770.56	1093.73
770.89	1089.52
771.21	1085.77
771.54	1086.71
771.87	1075.01
772.19	1064.24
772.52	1066.11
772.85	1063.07
773.17	1065.18
773.50	1073.84
773.83	1080.63
774.15	1086.71
774.48	1093.03
774.81	1096.31
775.13	1088.58
775.46	1087.65
775.79	1090.69
776.11	1076.65
776.44	1070.56
776.77	1071.73
777.09	1067.28
777.42	1065.41
777.74	1073.37
778.07	1072.43
778.40	1083.90
778.72	1096.78
779.05	1092.80
779.37	1092.80
779.70	1090.92
780.03	1075.71
780.35	1065.88
780.68	1056.28
781.00	1060.96
781.33	1060.96
781.65	1070.80
781.98	1059.56
782.31	1069.16
782.63	1060.96
782.96	1064.48
783.28	1053.01
783.61	1067.05
783.93	1070.33
784.26	1078.75
784.58	1069.86
784.91	1087.41
785.23	1089.52
785.56	1086.71
785.88	1076.88
786.21	1075.48
786.53	1060.73
786.86	1057.92
787.18	1056.52
787.51	1068.22
787.83	1086.01
788.16	1096.07
788.48	1095.60
788.81	1092.80
789.13	1083.67
789.46	1076.65
789.78	1078.75
790.10	1079.92
790.43	1087.18
790.75	1082.50
791.08	1082.73
791.40	1072.67
791.73	1073.14
792.05	1070.56
792.37	1083.20
792.70	1088.82
793.02	1101.69
793.35	1103.09
793.67	1103.56
793.99	1103.09
794.32	1089.52
794.64	1077.82
794.96	1072.90
795.29	1071.03
795.61	1061.90
795.93	1065.88
796.26	1070.09
796.58	1071.26
796.91	1070.09
797.23	1074.77
797.55	1071.73
797.87	1065.65
798.20	1059.79
798.52	1057.92
798.84	1053.48
799.17	1056.52
799.49	1062.37
799.81	1069.62
800.14	1077.11
800.46	1086.94
800.78	1100.75
801.10	1106.84
801.43	1102.16
801.75	1100.05
802.07	1086.01
802.40	1076.88
802.72	1071.26
803.04	1083.67
803.36	1077.11
803.69	1088.12
804.01	1084.60
804.33	1089.29
804.65	1088.12
804.97	1095.84
805.30	1100.52
805.62	1100.75
805.94	1091.39
806.26	1086.24
806.58	1077.58
806.91	1065.65
807.23	1067.75
807.55	1067.99
807.87	1066.11
808.19	1067.52
808.52	1071.50
808.84	1073.60
809.16	1082.97
809.48	1080.39
809.80	1082.50
810.12	1081.09
810.44	1085.31
810.77	1070.80
811.09	1076.41
811.41	1072.67
811.73	1065.65
812.05	1056.52
812.37	1057.45
812.69	1056.75
813.01	1062.37
813.33	1067.28
813.66	1062.37
813.98	1067.05
814.30	1068.45
814.62	1073.60
814.94	1079.92
815.26	1086.94
815.58	1086.24
815.90	1082.03
816.22	1064.01
816.54	1058.16
816.86	1065.65
817.18	1064.01
817.50	1064.48
817.82	1075.94
818.14	1084.14
818.46	1083.43
818.78	1091.63
819.10	1088.35
819.42	1083.20
819.74	1071.97
820.06	1064.48
820.38	1054.18
820.70	1059.56
821.02	1060.26
821.34	1058.86
821.66	1058.39
821.98	1058.62
822.30	1070.09
822.62	1081.80
822.94	1090.46
823.26	1091.39
823.58	1101.92
823.90	1095.14
824.22	1092.09
824.54	1085.77
824.86	1090.22
825.18	1090.69
825.50	1081.09
825.81	1076.88
826.13	1086.48
826.45	1081.09
826.77	1082.26
827.09	1090.22
827.41	1090.69
827.73	1086.24
828.05	1092.80
828.36	1096.07
828.68	1096.07
829.00	1102.63
829.32	1104.73
829.64	1095.60
829.96	1078.05
830.28	1085.31
830.59	1075.24
830.91	1067.28
831.23	1067.99
831.55	1085.07
831.87	1082.26
832.19	1080.63
832.50	1087.18
832.82	1079.22
833.14	1067.05
833.46	1062.84
833.78	1063.77
834.09	1061.20
834.41	1083.67
834.73	1091.39
835.05	1093.50
835.36	1106.14
835.68	1104.50
836.00	1100.05
836.32	1095.37
836.63	1088.12
836.95	1073.37
837.27	1077.35
837.59	1059.79
837.90	1065.41
838.22	1066.11
838.54	1072.90
838.85	1077.11
839.17	1088.35
839.49	1077.82
839.80	1079.22
840.12	1077.58
840.44	1058.86
840.76	1063.07
841.07	1067.52
841.39	1063.77
841.71	1070.09
842.02	1083.43
842.34	1085.77
842.65	1099.35
842.97	1100.99
843.29	1092.80
843.60	1092.33
843.92	1093.26
844.24	1073.14
844.55	1072.67
844.87	1071.97
845.18	1075.48
845.50	1076.41
845.82	1081.56
846.13	1089.29
846.45	1085.77
846.76	1085.07
847.08	1076.88
847.40	1084.14
847.71	1080.16
848.03	1084.14
848.34	1087.18
848.66	1092.33
848.97	1085.54
849.29	1090.92
849.60	1099.12
849.92	1089.52
850.24	1091.39
850.55	1098.18
850.87	1087.18
851.18	1082.50
851.50	1085.07
851.81	1076.18
852.13	1066.11
852.44	1072.20
852.76	1068.22
853.07	1075.24
853.39	1078.75
853.70	1085.77
854.01	1080.39
854.33	1082.73
854.64	1076.65
854.96	1075.71
855.27	1075.24
855.59	1082.26
855.90	1091.39
856.22	1083.43
856.53	1091.63
856.84	1098.41
857.16	1094.90
857.47	1093.03
857.79	1094.43
858.10	1079.69
858.41	1075.01
858.73	1071.50
859.04	1069.62
859.36	1086.01
859.67	1091.16
859.98	1088.82
860.30	1097.48
860.61	1093.50
860.92	1075.01
861.24	1065.41
861.55	1064.01
861.87	1056.28
862.18	1058.62
862.49	1065.65
862.81	1075.01
863.12	1082.26
863.43	1085.77
863.74	1090.22
864.06	1092.80
864.37	1092.80
864.68	1088.35
865.00	1088.12
865.31	1080.63
865.62	1081.33
865.94	1081.80
866.25	1088.12
866.56	1088.82
866.87	1087.88
867.19	1080.16
867.50	1078.05
867.81	1071.03
868.12	1070.56
868.44	1079.22
868.75	1088.82
869.06	1088.35
869.37	1088.12
869.68	1083.43
870.00	1072.43
870.31	1066.58
870.62	1071.26
870.93	1067.52
871.24	1078.28
871.56	1082.03
871.87	1078.52
872.18	1066.82
872.49	1074.07
872.80	1061.20
873.12	1069.16
873.43	1072.43
873.74	1075.24
874.05	1072.43
874.36	1076.65
874.67	1072.43
874.98	1079.46
875.29	1080.16
875.61	1074.31
875.92	1079.22
876.23	1076.65
876.54	1073.37
876.85	1078.75
877.16	1086.94
877.47	1081.80
877.78	1089.29
878.09	1100.75
878.40	1101.69
878.72	1110.58
879.03	1113.39
879.34	1099.82
879.65	1095.84
879.96	1097.48
880.27	1072.90
880.58	1067.75
880.89	1068.45
881.20	1060.96
881.51	1065.88
881.82	1078.28
882.13	1084.14
882.44	1090.69
882.75	1089.75
883.06	1081.56
883.37	1078.52
883.68	1079.92
883.99	1078.05
884.30	1078.05
884.61	1078.28
884.92	1088.82
885.23	1083.90
885.54	1081.56
885.85	1088.12
886.16	1086.24
886.47	1078.28
886.78	1078.52
887.08	1084.60
887.39	1071.03
887.70	1070.09
888.01	1076.88
888.32	1074.31
888.63	1070.56
888.94	1071.97
889.25	1078.05
889.56	1073.37
889.87	1078.99
890.17	1080.63
890.48	1081.56
890.79	1078.99
891.10	1082.26
891.41	1078.52
891.72	1078.75
892.03	1082.97
892.34	1079.46
892.64	1078.05
892.95	1081.80
893.26	1076.18
893.57	1076.88
893.88	1080.63
894.18	1078.99
894.49	1080.16
894.80	1080.16
895.11	1071.50
895.42	1064.94
895.72	1063.31
896.03	1068.92
896.34	1068.22
896.65	1079.46
896.96	1085.07
897.26	1089.29
897.57	1074.77
897.88	1075.71
898.19	1070.56
898.49	1078.28
898.80	1074.07
899.11	1083.43
899.41	1081.33
899.72	1087.41
900.03	1073.14
900.34	1074.54
900.64	1075.01
900.95	1080.39
901.26	1071.73
901.56	1078.52
901.87	1075.94
902.18	1079.22
902.48	1074.07
902.79	1075.94
903.10	1070.33
903.40	1066.35
903.71	1057.69
904.02	1062.14
904.32	1062.37
904.63	1073.84
904.94	1085.54
905.24	1095.14
905.55	1092.56
905.85	1096.78
906.16	1087.41
906.47	1074.31
906.77	1074.54
907.08	1084.14
907.38	1081.80
907.69	1088.82
908.00	1085.31
908.30	1078.28
908.61	1066.82
908.91	1064.94
909.22	1057.92
909.52	1062.14
909.83	1068.92
910.14	1076.88
910.44	1080.86
910.75	1086.71
911.05	1089.05
911.36	1079.92
911.66	1072.67
911.97	1077.11
912.27	1075.71
912.58	1092.09
912.88	1095.37
913.19	1095.60
913.49	1099.82
913.80	1100.75
914.10	1092.33
914.41	1097.71
914.71	1095.60
915.01	1086.24
915.32	1086.94
915.62	1080.16
915.93	1065.41
916.23	1065.18
916.54	1068.69
916.84	1069.86
917.15	1083.20
917.45	1102.16
917.75	1102.16
918.06	1098.18
918.36	1095.60
918.67	1087.65
918.97	1076.65
919.27	1081.33
919.58	1085.77
919.88	1089.75
920.18	1088.82
920.49	1086.71
920.79	1091.16
921.10	1095.60
921.40	1099.12
921.70	1096.78
922.01	1097.24
922.31	1090.69
922.61	1076.88
922.92	1064.48
923.22	1075.24
923.52	1077.11
923.82	1083.20
924.13	1095.37
924.43	1098.88
924.73	1091.63
925.04	1093.03
925.34	1096.31
925.64	1087.18
925.94	1086.24
926.25	1083.90
926.55	1087.88
926.85	1085.77
927.15	1096.54
927.46	1090.22
927.76	1084.37
928.06	1078.99
928.36	1083.67
928.67	1070.33
928.97	1073.37
929.27	1085.54
929.57	1086.71
929.87	1074.54
930.18	1071.73
930.48	1064.94
930.78	1052.07
931.08	1049.03
931.38	1059.09
931.69	1057.92
931.99	1065.65
932.29	1075.48
932.59	1080.16
932.89	1065.88
933.19	1072.20
933.49	1079.69
933.80	1075.24
934.10	1076.41
934.40	1084.14
934.70	1078.52
935.00	1074.77
935.30	1081.09
935.60	1072.67
935.90	1069.62
936.20	1073.84
936.50	1068.92
936.81	1058.16
937.11	1057.45
937.41	1052.30
937.71	1058.16
938.01	1060.26
938.31	1065.18
938.61	1068.22
938.91	1073.14
939.21	1078.28
939.51	1073.84
939.81	1064.01
940.11	1075.01
940.41	1084.60
940.71	1069.86
941.01	1082.50
941.31	1082.73
941.61	1070.56
941.91	1063.07
942.21	1077.11
942.51	1072.43
942.81	1081.56
943.11	1083.43
943.41	1076.18
943.71	1067.75
944.01	1072.20
944.31	1063.31
944.61	1066.11
944.90	1071.03
945.20	1075.01
945.50	1066.11
945.80	1081.80
946.10	1083.67
946.40	1086.24
946.70	1090.69
947.00	1093.50
947.30	1081.56
947.60	1078.28
947.89	1076.65
948.19	1057.69
948.49	1055.82
948.79	1064.94
949.09	1063.54
949.39	1072.43
949.69	1088.35
949.98	1094.43
950.28	1086.71
950.58	1080.63
950.88	1073.84
951.18	1067.52
951.48	1058.86
951.77	1064.01
952.07	1064.24
952.37	1056.28
952.67	1061.67
952.97	1065.41
953.26	1063.31
953.56	1071.03
953.86	1090.22
954.16	1086.01
954.45	1091.39
954.75	1087.65
955.05	1085.77
955.35	1071.50
955.64	1072.43
955.94	1068.22
956.24	1069.16
956.54	1075.48
956.83	1076.65
957.13	1084.37
957.43	1089.05
957.72	1092.09
958.02	1087.18
958.32	1094.90
958.61	1086.01
958.91	1077.58
959.21	1078.75
959.50	1082.03
959.80	1071.26
960.10	1079.69
960.39	1083.67
960.69	1087.41
960.99	1090.69
961.28	1106.61
961.58	1102.16
961.87	1104.97
962.17	1099.82
962.47	1093.50
962.76	1092.56
963.06	1089.29
963.36	1084.60
963.65	1073.60
963.95	1076.65
964.24	1064.94
964.54	1058.39
964.83	1060.73
965.13	1069.62
965.42	1068.69
965.72	1065.18
966.02	1066.58
966.31	1065.41
966.61	1067.52
966.90	1066.58
967.20	1075.48
967.49	1079.69
967.79	1080.39
968.08	1083.90
968.38	1078.99
968.67	1071.26
968.97	1073.37
969.26	1070.09
969.56	1074.77
969.85	1075.01
970.15	1078.52
970.44	1073.14
970.74	1075.01
971.03	1063.54
971.32	1059.09
971.62	1050.43
971.91	1052.54
972.21	1057.92
972.50	1059.79
972.80	1070.80
973.09	1091.63
973.38	1099.82
973.68	1101.92
973.97	1096.78
974.27	1092.33
974.56	1071.50
974.85	1073.14
975.15	1072.20
975.44	1072.67
975.73	1072.20
976.03	1086.01
976.32	1080.16
976.61	1080.16
976.91	1083.90
977.20	1087.65
977.49	1078.28
977.79	1082.97
978.08	1086.71
978.37	1086.01
978.67	1090.22
978.96	1093.97
979.25	1084.84
979.55	1082.03
979.84	1092.33
980.13	1090.46
980.42	1095.14
980.72	1109.41
981.01	1112.22
981.30	1102.63
981.59	1097.01
981.89	1095.37
982.18	1081.56
982.47	1084.37
982.76	1097.95
983.06	1089.52
983.35	1098.88
983.64	1095.60
983.93	1086.24
984.22	1074.07
984.52	1083.90
984.81	1067.28
985.10	1072.43
985.39	1066.58
985.68	1064.71
985.97	1063.54
986.27	1065.88
986.56	1068.69
986.85	1076.65
987.14	1081.80
987.43	1085.07
987.72	1088.12
988.01	1086.48
988.31	1085.07
988.60	1081.80
988.89	1077.58
989.18	1079.92
989.47	1075.94
989.76	1067.05
990.05	1064.01
990.34	1068.22
990.63	1061.43
990.92	1064.94
991.21	1068.69
991.51	1076.88
991.80	1071.26
992.09	1084.84
992.38	1088.82
992.67	1091.39
992.96	1086.94
993.25	1084.37
993.54	1075.71
993.83	1065.18
994.12	1068.22
994.41	1075.94
994.70	1082.97
994.99	1088.58
995.28	1100.99
995.57	1093.03
995.86	1088.82
996.15	1088.58
996.44	1073.60
996.73	1066.35
997.02	1072.90
997.31	1072.90
997.59	1067.75
997.88	1087.41
998.17	1098.41
998.46	1097.24
998.75	1089.05
999.04	1099.12
999.33	1091.86
999.62	1090.92
999.91	1094.20
1000.20	1094.90
1000.49	1085.77
1000.77	1094.67
1001.06	1086.71
1001.35	1085.07
1001.64	1083.20
1001.93	1085.54
1002.22	1080.39
1002.51	1075.48
1002.79	1077.58
1003.08	1080.86
1003.37	1078.75
1003.66	1068.45
1003.95	1074.77
1004.23	1066.58
1004.52	1067.05
1004.81	1071.97
1005.10	1075.01
1005.39	1069.86
1005.67	1070.09
1005.96	1067.52
1006.25	1064.48
1006.54	1064.94
1006.83	1057.69
1007.11	1058.86
1007.40	1063.54
1007.69	1067.05
1007.97	1064.94
1008.26	1078.05
1008.55	1073.84
1008.84	1079.69
1009.12	1075.24
1009.41	1080.39
1009.70	1080.39
1009.98	1089.52
1010.27	1082.03
1010.56	1088.35
1010.85	1082.73
1011.13	1080.16
1011.42	1073.14
1011.71	1075.48
1011.99	1067.52
1012.28	1066.35
1012.56	1070.33
1012.85	1074.77
1013.14	1072.67
1013.42	1067.28
1013.71	1063.07
1014.00	1053.24
1014.28	1060.26
1014.57	1061.43
1014.85	1069.39
1015.14	1076.18
1015.43	1079.69
1015.71	1067.28
1016.00	1075.94
1016.28	1080.39
1016.57	1085.54
1016.85	1100.75
1017.14	1106.14
1017.43	1098.18
1017.71	1092.56
1018.00	1091.39
1018.28	1072.43
1018.57	1059.79
1018.85	1055.82
1019.14	1062.14
1019.42	1054.65
1019.71	1054.88
1019.99	1064.24
1020.28	1069.86
1020.56	1065.88
1020.85	1074.77
1021.13	1083.43
1021.42	1082.73
1021.70	1082.73
1021.99	1078.28
1022.27	1067.75
1022.55	1060.26
1022.84	1047.39
>>>>>End Processed Spectral Data<<<<<
