SpectraSuite Data File
++++++++++++++++++++++++++++++++++++
Date: Mon Aug 26 10:24:40 PDT 2019
User: corrico
Dark Spectrum Present: No
Reference Spectrum Present: No
Number of Sampled Component Spectra: 1
Spectrometers: USB2+H06089
Integration Time (usec): 10000 (USB2+H06089)
Spectra Averaged: 2 (USB2+H06089)
Boxcar Smoothing: 2 (USB2+H06089)
Correct for Electrical Dark: No (USB2+H06089)
Strobe/Lamp Enabled: No (USB2+H06089)
Correct for Detector Non-linearity: No (USB2+H06089)
Correct for Stray Light: No (USB2+H06089)
Number of Pixels in Processed Spectrum: 2048
>>>>>Begin Processed Spectral Data<<<<<
339.70	1012.28
340.07	1012.28
340.45	981.39
340.82	967.34
341.19	945.11
341.57	917.72
341.94	907.43
342.31	889.40
342.69	888.47
343.06	886.36
343.43	895.02
343.81	911.64
344.18	926.62
344.55	919.36
344.93	925.45
345.30	927.55
345.67	924.28
346.04	930.36
346.42	944.17
346.79	951.43
347.16	967.58
347.54	970.62
347.91	980.68
348.28	992.39
348.65	1007.37
349.03	1009.00
349.40	1022.11
349.77	1028.20
350.14	1034.05
350.52	1036.16
350.89	1034.05
351.26	1041.77
351.63	1051.37
352.01	1066.35
352.38	1078.52
352.75	1093.03
353.12	1101.22
353.50	1103.56
353.87	1094.90
354.24	1085.07
354.61	1092.80
354.98	1093.03
355.36	1092.80
355.73	1090.69
356.10	1097.24
356.47	1086.71
356.84	1093.97
357.22	1097.24
357.59	1102.16
357.96	1101.69
358.33	1105.90
358.70	1111.29
359.08	1112.46
359.45	1112.22
359.82	1101.69
360.19	1109.18
360.56	1093.97
360.94	1086.71
361.31	1088.58
361.68	1100.99
362.05	1089.05
362.42	1092.56
362.79	1089.75
363.16	1088.35
363.54	1089.29
363.91	1093.73
364.28	1087.65
364.65	1097.48
365.02	1098.41
365.39	1096.31
365.76	1089.75
366.14	1088.58
366.51	1084.37
366.88	1087.41
367.25	1089.05
367.62	1105.67
367.99	1104.73
368.36	1104.26
368.73	1093.73
369.10	1096.07
369.48	1090.69
369.85	1097.95
370.22	1098.18
370.59	1108.01
370.96	1109.41
371.33	1112.69
371.70	1111.05
372.07	1107.31
372.44	1097.95
372.81	1099.35
373.18	1095.60
373.55	1093.73
373.93	1095.37
374.30	1086.24
374.67	1079.46
375.04	1075.48
375.41	1082.03
375.78	1082.50
376.15	1096.31
376.52	1097.48
376.89	1100.99
377.26	1093.26
377.63	1096.78
378.00	1096.07
378.37	1096.54
378.74	1094.43
379.11	1103.80
379.48	1108.95
379.85	1117.84
380.22	1123.69
380.59	1129.54
380.96	1122.99
381.33	1129.31
381.70	1128.84
382.07	1129.54
382.44	1136.33
382.81	1141.71
383.18	1138.20
383.55	1134.22
383.92	1131.88
384.29	1119.48
384.66	1114.56
385.03	1112.69
385.40	1117.61
385.77	1119.24
386.14	1127.44
386.51	1131.41
386.88	1135.16
387.25	1133.76
387.62	1122.99
387.99	1115.73
388.36	1112.22
388.73	1099.35
389.10	1103.56
389.46	1115.03
389.83	1121.12
390.20	1114.56
390.57	1120.18
390.94	1118.07
391.31	1116.67
391.68	1117.14
392.05	1123.93
392.42	1130.01
392.79	1125.33
393.16	1120.41
393.53	1122.99
393.89	1137.27
394.26	1139.14
394.63	1147.80
395.00	1153.18
395.37	1159.03
395.74	1156.46
396.11	1163.01
396.48	1161.14
396.84	1156.93
397.21	1144.99
397.58	1148.27
397.95	1141.71
398.32	1149.67
398.69	1152.25
399.06	1164.42
399.42	1169.33
399.79	1175.65
400.16	1177.99
400.53	1194.61
400.90	1201.63
401.27	1201.63
401.64	1212.63
402.00	1222.93
402.37	1229.48
402.74	1238.14
403.11	1248.91
403.48	1266.70
403.84	1269.97
404.21	1288.00
404.58	1301.81
404.95	1317.25
405.32	1321.23
405.68	1334.11
406.05	1348.15
406.42	1380.21
406.79	1405.49
407.16	1437.09
407.52	1466.58
407.89	1486.47
408.26	1512.69
408.63	1549.90
408.99	1575.88
409.36	1618.48
409.73	1685.42
410.10	1723.80
410.47	1766.17
410.83	1843.64
411.20	1910.35
411.57	1963.94
411.94	2044.22
412.30	2124.97
412.67	2188.17
413.04	2267.28
413.40	2366.05
413.77	2476.29
414.14	2592.14
414.51	2729.30
414.87	2877.22
415.24	3016.25
415.61	3162.77
415.97	3309.52
416.34	3464.93
416.71	3649.83
417.08	3852.05
417.44	4069.72
417.81	4317.35
418.18	4569.19
418.54	4820.33
418.91	5061.64
419.28	5330.57
419.64	5619.86
420.01	5946.13
420.38	6297.45
420.74	6673.10
421.11	7067.72
421.48	7456.95
421.84	7852.26
422.21	8258.35
422.58	8759.22
422.94	9247.46
423.31	9754.42
423.68	10356.87
424.04	10965.41
424.41	11586.82
424.77	12234.68
425.14	12889.33
425.51	13556.38
425.87	14344.21
426.24	15038.18
426.61	15924.30
426.97	16928.86
427.34	17836.99
427.70	18841.31
428.07	19875.60
428.44	20865.64
428.80	21899.69
429.17	23025.72
429.53	24027.00
429.90	25317.34
430.27	26478.48
430.63	27614.81
431.00	28905.85
431.36	30374.54
431.73	31532.63
432.09	32797.46
432.46	34104.41
432.83	35405.28
433.19	36575.79
433.56	38096.20
433.92	39696.66
434.29	41167.92
434.65	42711.03
435.02	44178.08
435.38	45373.16
435.75	46213.88
436.11	47506.09
436.48	48505.73
436.84	49456.46
437.21	50462.65
437.57	51473.30
437.94	52105.47
438.30	52641.22
438.67	52883.47
439.03	52889.32
439.40	52994.88
439.76	52825.19
440.13	52563.05
440.49	52550.18
440.86	52259.95
441.22	51845.21
441.59	51299.39
441.95	50707.47
442.32	49756.75
442.68	49125.74
443.05	48222.29
443.41	47272.27
443.78	46190.24
444.14	45250.28
444.51	43909.15
444.87	42977.38
445.24	41693.84
445.60	40643.17
445.96	39521.12
446.33	38632.88
446.69	37374.14
447.06	36617.68
447.42	35644.25
447.79	34468.13
448.15	33405.30
448.51	32502.32
448.88	31615.25
449.24	30557.57
449.61	29938.49
449.97	29203.10
450.33	28434.93
450.70	27514.87
451.06	26912.18
451.43	26104.23
451.79	25539.22
452.15	24946.83
452.52	24427.94
452.88	23806.29
453.24	23299.10
453.61	22605.83
453.97	22016.48
454.34	21411.92
454.70	20871.03
455.06	20240.25
455.43	19581.62
455.79	18834.52
456.15	18246.11
456.52	17566.66
456.88	17071.87
457.24	16509.90
457.61	16040.39
457.97	15455.03
458.33	14922.55
458.70	14314.48
459.06	13780.61
459.42	13290.50
459.79	12802.03
460.15	12416.78
460.51	11971.84
460.88	11595.48
461.24	11192.44
461.60	10848.15
461.96	10479.28
462.33	10167.52
462.69	9851.78
463.05	9506.32
463.42	9228.50
463.78	8952.08
464.14	8677.07
464.50	8445.36
464.87	8184.39
465.23	7899.31
465.59	7664.32
465.95	7437.52
466.32	7196.45
466.68	7033.31
467.04	6834.83
467.40	6664.21
467.77	6504.58
468.13	6318.28
468.49	6165.21
468.85	6048.41
469.22	5889.26
469.58	5743.21
469.94	5658.48
470.30	5544.73
470.66	5440.34
471.03	5325.42
471.39	5239.76
471.75	5084.81
472.11	4967.32
472.47	4854.04
472.84	4763.93
473.20	4648.54
473.56	4583.47
473.92	4474.87
474.28	4373.29
474.65	4286.69
475.01	4192.60
475.37	4115.13
475.73	4061.30
476.09	3988.27
476.45	3910.10
476.81	3839.88
477.18	3741.11
477.54	3655.45
477.90	3568.61
478.26	3479.91
478.62	3415.08
478.98	3362.88
479.34	3304.60
479.71	3255.45
480.07	3239.30
480.43	3183.83
480.79	3127.66
481.15	3078.04
481.51	3027.25
481.87	2947.67
482.23	2880.50
482.59	2832.75
482.96	2781.73
483.32	2750.13
483.68	2707.53
484.04	2701.45
484.40	2681.55
484.76	2655.81
485.12	2609.70
485.48	2577.87
485.84	2520.76
486.20	2459.90
486.56	2406.77
486.92	2357.15
487.28	2327.90
487.64	2306.60
488.00	2285.30
488.37	2270.09
488.73	2262.83
489.09	2235.68
489.45	2193.55
489.81	2158.68
490.17	2125.91
490.53	2100.63
490.89	2065.76
491.25	2053.35
491.61	2027.84
491.97	2002.09
492.33	1971.20
492.69	1945.45
493.05	1913.39
493.41	1885.30
493.77	1853.47
494.13	1822.58
494.49	1805.96
494.85	1787.70
495.21	1764.53
495.57	1746.04
495.93	1733.87
496.29	1721.70
496.64	1707.19
497.00	1708.36
497.36	1695.72
497.72	1677.93
498.08	1645.40
498.44	1624.57
498.80	1595.78
499.16	1583.61
499.52	1567.22
499.88	1557.39
500.24	1547.56
500.60	1536.80
500.96	1515.03
501.32	1507.07
501.68	1501.69
502.03	1487.88
502.39	1482.73
502.75	1481.09
503.11	1461.20
503.47	1459.79
503.83	1452.30
504.19	1429.83
504.55	1417.19
504.91	1415.32
505.26	1399.17
505.62	1397.30
505.98	1402.21
506.34	1388.87
506.70	1365.23
507.06	1356.57
507.42	1337.38
507.78	1330.36
508.13	1327.08
508.49	1324.28
508.85	1318.89
509.21	1316.55
509.57	1308.13
509.93	1311.64
510.28	1314.21
510.64	1306.72
511.00	1293.61
511.36	1280.74
511.72	1266.46
512.07	1264.83
512.43	1263.89
512.79	1259.21
513.15	1264.12
513.51	1258.74
513.86	1252.42
514.22	1242.59
514.58	1238.38
514.94	1234.63
515.30	1232.99
515.65	1225.97
516.01	1225.27
516.37	1227.38
516.73	1219.89
517.08	1219.42
517.44	1213.10
517.80	1208.89
518.16	1211.23
518.51	1202.80
518.87	1200.69
519.23	1201.87
519.59	1195.31
519.94	1189.93
520.30	1190.40
520.66	1178.69
521.01	1179.63
521.37	1179.63
521.73	1181.97
522.09	1177.52
522.44	1183.14
522.80	1178.46
523.16	1178.23
523.51	1172.37
523.87	1172.84
524.23	1164.65
524.58	1162.08
524.94	1161.61
525.30	1152.48
525.65	1148.73
526.01	1153.65
526.37	1156.46
526.72	1157.86
527.08	1163.71
527.44	1166.99
527.79	1169.80
528.15	1159.74
528.51	1163.25
528.86	1166.99
529.22	1165.59
529.58	1166.76
529.93	1172.37
530.29	1160.44
530.65	1158.10
531.00	1155.76
531.36	1144.29
531.71	1143.12
532.07	1144.76
532.43	1146.63
532.78	1152.25
533.14	1167.23
533.49	1170.74
533.85	1170.74
534.21	1166.29
534.56	1170.03
534.92	1156.69
535.27	1150.37
535.63	1143.82
535.98	1133.76
536.34	1120.18
536.69	1119.01
537.05	1112.69
537.41	1114.33
537.76	1111.99
538.12	1114.56
538.47	1108.48
538.83	1103.56
539.18	1108.95
539.54	1119.71
539.89	1116.90
540.25	1123.46
540.60	1144.76
540.96	1150.14
541.31	1140.07
541.67	1139.61
542.02	1138.20
542.38	1131.18
542.73	1122.05
543.09	1129.78
543.44	1132.59
543.80	1128.37
544.15	1116.20
544.51	1116.90
544.86	1115.50
545.22	1123.46
545.57	1133.99
545.93	1149.44
546.28	1151.54
546.64	1141.01
546.99	1137.97
547.35	1131.88
547.70	1130.01
548.05	1127.20
548.41	1134.46
548.76	1123.46
549.12	1117.84
549.47	1104.73
549.83	1099.12
550.18	1106.84
550.53	1117.61
550.89	1118.78
551.24	1127.20
551.60	1126.03
551.95	1124.39
552.30	1114.56
552.66	1115.27
553.01	1113.39
553.37	1122.99
553.72	1121.12
554.07	1127.44
554.43	1131.88
554.78	1133.52
555.13	1130.95
555.49	1127.90
555.84	1125.80
556.19	1121.35
556.55	1117.61
556.90	1111.99
557.26	1108.48
557.61	1108.48
557.96	1101.92
558.32	1096.54
558.67	1092.33
559.02	1086.71
559.37	1087.18
559.73	1092.33
560.08	1087.88
560.43	1087.88
560.79	1099.35
561.14	1097.71
561.49	1102.63
561.85	1113.39
562.20	1132.35
562.55	1129.78
562.90	1127.20
563.26	1130.01
563.61	1133.52
563.96	1121.82
564.32	1124.86
564.67	1133.76
565.02	1137.03
565.37	1131.65
565.73	1129.78
566.08	1133.29
566.43	1130.95
566.78	1115.50
567.14	1115.03
567.49	1111.75
567.84	1105.20
568.19	1101.92
568.54	1111.52
568.90	1110.12
569.25	1114.80
569.60	1113.86
569.95	1107.78
570.31	1113.39
570.66	1125.80
571.01	1124.39
571.36	1118.31
571.71	1129.78
572.06	1119.48
572.42	1117.14
572.77	1114.56
573.12	1119.48
573.47	1106.37
573.82	1102.63
574.18	1093.03
574.53	1100.75
574.88	1102.63
575.23	1106.14
575.58	1097.48
575.93	1095.84
576.28	1095.60
576.64	1098.18
576.99	1099.82
577.34	1115.97
577.69	1110.35
578.04	1108.95
578.39	1099.58
578.74	1101.69
579.09	1098.88
579.44	1113.86
579.80	1110.82
580.15	1111.99
580.50	1109.65
580.85	1121.58
581.20	1123.69
581.55	1120.88
581.90	1123.46
582.25	1119.01
582.60	1101.69
582.95	1089.99
583.30	1091.39
583.65	1086.71
584.00	1099.35
584.35	1100.99
584.71	1107.78
585.06	1104.73
585.41	1110.58
585.76	1099.58
586.11	1106.84
586.46	1095.37
586.81	1088.35
587.16	1091.16
587.51	1092.56
587.86	1088.82
588.21	1101.22
588.56	1112.46
588.91	1120.18
589.26	1120.88
589.61	1123.93
589.96	1111.05
590.31	1101.46
590.66	1084.84
591.01	1072.67
591.36	1055.35
591.71	1065.65
592.06	1082.26
592.41	1077.58
592.76	1087.88
593.10	1109.65
593.45	1102.39
593.80	1097.01
594.15	1112.46
594.50	1111.29
594.85	1104.26
595.20	1107.31
595.55	1105.90
595.90	1109.65
596.25	1114.80
596.60	1106.37
596.95	1109.88
597.30	1108.48
597.64	1140.54
597.99	1137.97
598.34	1147.33
598.69	1155.05
599.04	1144.99
599.39	1115.27
599.74	1110.35
600.09	1106.61
600.44	1099.82
600.78	1116.44
601.13	1106.61
601.48	1106.37
601.83	1107.07
602.18	1102.39
602.53	1098.88
602.88	1096.78
603.22	1105.44
603.57	1105.20
603.92	1109.18
604.27	1107.31
604.62	1103.80
604.97	1099.35
605.31	1104.03
605.66	1097.71
606.01	1098.18
606.36	1102.63
606.71	1098.65
607.05	1096.31
607.40	1104.26
607.75	1104.03
608.10	1089.75
608.44	1101.69
608.79	1100.75
609.14	1099.35
609.49	1101.92
609.84	1127.20
610.18	1115.27
610.53	1120.41
610.88	1119.71
611.23	1109.65
611.57	1107.31
611.92	1118.78
612.27	1112.46
612.62	1110.12
612.96	1114.80
613.31	1111.29
613.66	1104.26
614.00	1104.73
614.35	1107.31
614.70	1111.99
615.05	1109.65
615.39	1111.52
615.74	1111.75
616.09	1112.69
616.43	1109.65
616.78	1099.12
617.13	1086.48
617.47	1091.39
617.82	1085.31
618.17	1080.63
618.51	1092.80
618.86	1101.69
619.21	1092.80
619.55	1089.52
619.90	1095.37
620.25	1087.65
620.59	1092.33
620.94	1095.84
621.29	1102.63
621.63	1093.26
621.98	1095.37
622.32	1091.86
622.67	1092.80
623.02	1093.50
623.36	1103.56
623.71	1113.39
624.05	1106.14
624.40	1111.52
624.75	1115.97
625.09	1108.01
625.44	1103.09
625.78	1118.78
626.13	1111.52
626.48	1108.24
626.82	1110.58
627.17	1108.95
627.51	1092.09
627.86	1093.26
628.20	1093.97
628.55	1094.90
628.89	1086.94
629.24	1092.33
629.58	1096.07
629.93	1087.88
630.28	1086.71
630.62	1081.09
630.97	1080.16
631.31	1076.18
631.66	1078.75
632.00	1088.82
632.35	1093.26
632.69	1104.50
633.04	1100.05
633.38	1108.71
633.73	1099.12
634.07	1098.88
634.42	1090.46
634.76	1087.65
635.11	1077.35
635.45	1078.52
635.79	1069.39
636.14	1072.20
636.48	1078.75
636.83	1070.09
637.17	1073.60
637.52	1094.20
637.86	1091.39
638.21	1085.31
638.55	1093.03
638.89	1101.46
639.24	1097.24
639.58	1097.24
639.93	1102.63
640.27	1108.24
640.61	1104.97
640.96	1101.22
641.30	1107.31
641.65	1105.44
641.99	1099.35
642.33	1091.16
642.68	1093.97
643.02	1095.14
643.37	1094.43
643.71	1097.95
644.05	1101.92
644.40	1101.92
644.74	1102.39
645.08	1110.12
645.43	1111.05
645.77	1108.48
646.11	1112.46
646.46	1109.65
646.80	1104.50
647.14	1100.52
647.49	1098.65
647.83	1098.18
648.17	1089.29
648.52	1094.90
648.86	1100.99
649.20	1104.73
649.55	1090.46
649.89	1092.80
650.23	1096.78
650.57	1094.43
650.92	1103.09
651.26	1121.82
651.60	1138.67
651.95	1131.18
652.29	1121.58
652.63	1116.44
652.97	1101.22
653.32	1088.82
653.66	1090.92
654.00	1105.20
654.34	1097.95
654.69	1101.46
655.03	1095.84
655.37	1095.14
655.71	1090.92
656.05	1080.63
656.40	1088.58
656.74	1090.22
657.08	1082.97
657.42	1080.86
657.76	1097.48
658.11	1096.78
658.45	1102.39
658.79	1104.50
659.13	1099.12
659.47	1094.90
659.82	1094.20
660.16	1089.05
660.50	1090.69
660.84	1101.92
661.18	1106.84
661.52	1102.63
661.87	1107.54
662.21	1108.95
662.55	1100.99
662.89	1101.22
663.23	1099.58
663.57	1095.14
663.91	1093.73
664.25	1090.22
664.60	1088.58
664.94	1083.43
665.28	1083.67
665.62	1082.03
665.96	1093.03
666.30	1086.01
666.64	1093.97
666.98	1091.63
667.32	1091.39
667.66	1085.31
668.01	1082.97
668.35	1078.75
668.69	1085.54
669.03	1080.63
669.37	1081.80
669.71	1096.54
670.05	1100.05
670.39	1100.05
670.73	1111.05
671.07	1114.33
671.41	1114.56
671.75	1111.52
672.09	1108.48
672.43	1102.86
672.77	1102.86
673.11	1088.82
673.45	1093.26
673.79	1090.46
674.13	1091.16
674.47	1083.90
674.81	1096.31
675.15	1095.84
675.49	1096.78
675.83	1097.48
676.17	1106.84
676.51	1095.84
676.85	1091.39
677.19	1098.88
677.53	1096.07
677.87	1097.71
678.21	1104.97
678.55	1116.67
678.89	1105.67
679.23	1109.18
679.57	1093.50
679.90	1093.97
680.24	1090.92
680.58	1091.86
680.92	1089.99
681.26	1099.12
681.60	1096.07
681.94	1088.58
682.28	1088.82
682.62	1093.50
682.96	1103.33
683.29	1094.90
683.63	1104.03
683.97	1104.26
684.31	1097.71
684.65	1082.50
684.99	1090.22
685.33	1076.18
685.67	1072.20
686.00	1081.09
686.34	1081.33
686.68	1078.28
687.02	1077.58
687.36	1089.29
687.70	1079.92
688.03	1089.99
688.37	1096.07
688.71	1096.07
689.05	1086.71
689.39	1078.99
689.72	1071.73
690.06	1067.52
690.40	1080.39
690.74	1093.03
691.08	1100.29
691.41	1109.65
691.75	1112.69
692.09	1100.29
692.43	1096.07
692.76	1095.37
693.10	1089.05
693.44	1086.71
693.78	1093.97
694.11	1085.54
694.45	1093.73
694.79	1082.97
695.13	1079.69
695.46	1073.84
695.80	1086.01
696.14	1087.65
696.48	1092.80
696.81	1096.31
697.15	1096.31
697.49	1087.18
697.82	1080.16
698.16	1087.18
698.50	1097.95
698.83	1099.58
699.17	1093.73
699.51	1097.48
699.84	1086.48
700.18	1079.46
700.52	1079.46
700.85	1093.26
701.19	1089.75
701.53	1100.05
701.86	1090.46
702.20	1084.60
702.54	1077.82
702.87	1071.97
703.21	1074.77
703.55	1082.03
703.88	1094.20
704.22	1095.60
704.55	1110.82
704.89	1106.84
705.23	1110.12
705.56	1117.84
705.90	1120.88
706.23	1113.39
706.57	1116.67
706.91	1103.80
707.24	1092.56
707.58	1095.37
707.91	1094.90
708.25	1086.01
708.58	1090.22
708.92	1091.86
709.26	1087.88
709.59	1087.41
709.93	1091.63
710.26	1091.39
710.60	1088.58
710.93	1081.09
711.27	1086.71
711.60	1096.78
711.94	1106.84
712.27	1108.95
712.61	1118.31
712.94	1111.75
713.28	1102.86
713.61	1094.67
713.95	1101.92
714.28	1100.05
714.62	1098.88
714.95	1097.24
715.29	1108.95
715.62	1106.61
715.96	1100.52
716.29	1113.63
716.63	1108.71
716.96	1091.63
717.29	1078.28
717.63	1083.20
717.96	1067.28
718.30	1075.48
718.63	1084.84
718.97	1085.77
719.30	1084.60
719.63	1089.29
719.97	1072.90
720.30	1058.39
720.64	1063.31
720.97	1074.07
721.30	1070.56
721.64	1087.88
721.97	1102.86
722.31	1103.56
722.64	1091.86
722.97	1092.33
723.31	1088.35
723.64	1086.94
723.97	1095.14
724.31	1102.39
724.64	1109.41
724.98	1105.67
725.31	1101.46
725.64	1094.67
725.98	1087.18
726.31	1081.09
726.64	1083.67
726.97	1075.24
727.31	1076.18
727.64	1075.24
727.97	1075.24
728.31	1074.54
728.64	1087.88
728.97	1080.39
729.31	1084.37
729.64	1092.56
729.97	1099.35
730.30	1097.95
730.64	1108.24
730.97	1101.69
731.30	1095.84
731.63	1095.14
731.97	1085.54
732.30	1080.86
732.63	1085.54
732.96	1078.28
733.30	1067.99
733.63	1071.97
733.96	1068.22
734.29	1064.94
734.63	1062.84
734.96	1066.35
735.29	1067.75
735.62	1073.37
735.95	1076.88
736.29	1081.33
736.62	1097.24
736.95	1098.65
737.28	1099.82
737.61	1102.63
737.94	1101.69
738.28	1088.82
738.61	1087.18
738.94	1081.56
739.27	1087.18
739.60	1086.01
739.93	1081.80
740.27	1087.18
740.60	1089.52
740.93	1077.11
741.26	1076.41
741.59	1080.63
741.92	1075.71
742.25	1070.80
742.58	1079.92
742.91	1079.69
743.25	1076.41
743.58	1077.35
743.91	1082.26
744.24	1070.56
744.57	1066.35
744.90	1071.97
745.23	1065.88
745.56	1063.54
745.89	1077.11
746.22	1089.05
746.55	1080.16
746.88	1084.84
747.21	1075.01
747.54	1072.90
747.87	1076.18
748.20	1086.48
748.53	1080.16
748.87	1099.35
749.20	1084.84
749.53	1075.01
749.86	1078.05
750.19	1094.20
750.52	1092.56
750.85	1099.12
751.18	1105.44
751.51	1093.50
751.84	1087.88
752.16	1082.26
752.49	1089.05
752.82	1081.80
753.15	1089.75
753.48	1086.24
753.81	1087.41
754.14	1077.35
754.47	1083.20
754.80	1073.14
755.13	1077.35
755.46	1087.18
755.79	1093.97
756.12	1090.22
756.45	1087.41
756.78	1077.58
757.11	1075.24
757.43	1072.90
757.76	1077.11
758.09	1088.35
758.42	1092.33
758.75	1081.56
759.08	1089.75
759.41	1086.01
759.74	1085.77
760.07	1095.14
760.39	1096.54
760.72	1081.33
761.05	1093.50
761.38	1088.58
761.71	1076.88
762.04	1082.97
762.36	1090.46
762.69	1085.07
763.02	1083.90
763.35	1088.58
763.68	1086.48
764.01	1083.67
764.33	1075.24
764.66	1077.58
764.99	1071.97
765.32	1068.69
765.65	1063.54
765.97	1059.56
766.30	1059.33
766.63	1067.52
766.96	1068.22
767.28	1079.92
767.61	1096.31
767.94	1093.03
768.27	1091.63
768.59	1096.78
768.92	1092.09
769.25	1083.67
769.58	1084.37
769.90	1083.43
770.23	1083.90
770.56	1087.41
770.89	1089.29
771.21	1089.05
771.54	1089.05
771.87	1087.88
772.19	1092.56
772.52	1095.37
772.85	1102.86
773.17	1094.90
773.50	1084.84
773.83	1068.69
774.15	1061.43
774.48	1053.24
774.81	1058.39
775.13	1062.84
775.46	1068.22
775.79	1069.62
776.11	1081.09
776.44	1089.99
776.77	1093.97
777.09	1093.03
777.42	1094.90
777.74	1086.71
778.07	1076.65
778.40	1070.33
778.72	1071.73
779.05	1071.50
779.37	1080.39
779.70	1085.07
780.03	1092.09
780.35	1096.78
780.68	1091.63
781.00	1077.11
781.33	1080.86
781.65	1076.65
781.98	1069.16
782.31	1075.94
782.63	1075.01
782.96	1076.88
783.28	1076.65
783.61	1093.03
783.93	1094.20
784.26	1091.39
784.58	1079.46
784.91	1076.88
785.23	1060.96
785.56	1059.09
785.88	1075.71
786.21	1070.80
786.53	1075.94
786.86	1082.73
787.18	1079.46
787.51	1077.11
787.83	1080.39
788.16	1072.67
788.48	1072.90
788.81	1077.82
789.13	1082.26
789.46	1079.69
789.78	1082.73
790.10	1083.43
790.43	1078.28
790.75	1068.69
791.08	1073.60
791.40	1077.35
791.73	1077.82
792.05	1073.84
792.37	1070.80
792.70	1075.71
793.02	1076.18
793.35	1074.31
793.67	1083.43
793.99	1088.12
794.32	1087.41
794.64	1077.58
794.96	1074.54
795.29	1074.54
795.61	1081.56
795.93	1080.63
796.26	1086.71
796.58	1098.41
796.91	1095.60
797.23	1087.88
797.55	1086.48
797.87	1088.58
798.20	1076.18
798.52	1083.90
798.84	1078.75
799.17	1082.26
799.49	1081.33
799.81	1086.48
800.14	1079.92
800.46	1079.22
800.78	1083.67
801.10	1083.43
801.43	1084.60
801.75	1087.65
802.07	1086.94
802.40	1081.09
802.72	1081.80
803.04	1085.77
803.36	1086.48
803.69	1092.56
804.01	1087.88
804.33	1082.50
804.65	1075.71
804.97	1072.20
805.30	1071.50
805.62	1071.26
805.94	1084.84
806.26	1072.67
806.58	1073.37
806.91	1073.84
807.23	1080.86
807.55	1075.24
807.87	1083.67
808.19	1087.88
808.52	1095.14
808.84	1100.52
809.16	1091.39
809.48	1090.92
809.80	1077.11
810.12	1068.22
810.44	1059.56
810.77	1071.50
811.09	1082.26
811.41	1085.54
811.73	1084.37
812.05	1093.03
812.37	1091.63
812.69	1082.73
813.01	1088.58
813.33	1088.58
813.66	1077.35
813.98	1076.65
814.30	1073.60
814.62	1078.28
814.94	1086.01
815.26	1082.73
815.58	1082.03
815.90	1081.80
816.22	1080.63
816.54	1077.35
816.86	1085.54
817.18	1079.92
817.50	1083.67
817.82	1078.05
818.14	1071.26
818.46	1068.69
818.78	1070.33
819.10	1071.97
819.42	1069.62
819.74	1076.41
820.06	1080.63
820.38	1082.03
820.70	1068.69
821.02	1071.97
821.34	1064.24
821.66	1068.45
821.98	1065.18
822.30	1073.60
822.62	1073.84
822.94	1081.80
823.26	1069.39
823.58	1073.37
823.90	1076.18
824.22	1082.50
824.54	1091.63
824.86	1098.88
825.18	1086.71
825.50	1081.80
825.81	1069.86
826.13	1058.16
826.45	1065.18
826.77	1076.18
827.09	1073.84
827.41	1079.22
827.73	1083.20
828.05	1074.07
828.36	1085.54
828.68	1093.73
829.00	1102.16
829.32	1102.63
829.64	1105.67
829.96	1103.80
830.28	1105.44
830.59	1099.82
830.91	1094.67
831.23	1095.37
831.55	1085.54
831.87	1074.54
832.19	1067.28
832.50	1076.41
832.82	1070.33
833.14	1071.73
833.46	1084.14
833.78	1085.31
834.09	1078.75
834.41	1076.18
834.73	1070.33
835.05	1062.84
835.36	1064.71
835.68	1065.65
836.00	1068.92
836.32	1072.90
836.63	1080.39
836.95	1082.97
837.27	1089.29
837.59	1094.67
837.90	1098.18
838.22	1095.14
838.54	1093.97
838.85	1083.90
839.17	1085.77
839.49	1085.77
839.80	1086.24
840.12	1078.75
840.44	1083.90
840.76	1077.58
841.07	1081.33
841.39	1080.39
841.71	1090.92
842.02	1094.20
842.34	1097.48
842.65	1096.54
842.97	1091.16
843.29	1085.77
843.60	1075.01
843.92	1076.88
844.24	1074.07
844.55	1082.50
844.87	1088.82
845.18	1096.78
845.50	1091.63
845.82	1088.82
846.13	1083.67
846.45	1090.92
846.76	1094.20
847.08	1098.18
847.40	1092.33
847.71	1089.75
848.03	1083.43
848.34	1075.71
848.66	1067.99
848.97	1081.09
849.29	1086.71
849.60	1082.97
849.92	1094.20
850.24	1090.92
850.55	1083.67
850.87	1081.33
851.18	1078.28
851.50	1067.75
851.81	1078.28
852.13	1083.67
852.44	1080.16
852.76	1084.84
853.07	1088.82
853.39	1089.29
853.70	1071.97
854.01	1076.41
854.33	1078.52
854.64	1075.24
854.96	1067.28
855.27	1076.88
855.59	1078.05
855.90	1070.80
856.22	1068.22
856.53	1078.28
856.84	1078.52
857.16	1076.65
857.47	1085.31
857.79	1088.58
858.10	1074.77
858.41	1067.28
858.73	1058.39
859.04	1055.82
859.36	1049.03
859.67	1055.82
859.98	1069.39
860.30	1080.16
860.61	1083.67
860.92	1089.75
861.24	1087.41
861.55	1084.60
861.87	1087.88
862.18	1076.65
862.49	1072.20
862.81	1078.75
863.12	1082.26
863.43	1076.18
863.74	1081.09
864.06	1086.94
864.37	1071.26
864.68	1064.48
865.00	1066.58
865.31	1075.01
865.62	1065.18
865.94	1085.54
866.25	1091.16
866.56	1091.16
866.87	1085.54
867.19	1094.67
867.50	1089.29
867.81	1091.39
868.12	1095.37
868.44	1093.26
868.75	1098.65
869.06	1093.97
869.37	1089.75
869.68	1089.05
870.00	1088.82
870.31	1079.69
870.62	1077.35
870.93	1081.56
871.24	1078.75
871.56	1079.22
871.87	1078.28
872.18	1078.75
872.49	1067.52
872.80	1058.16
873.12	1055.82
873.43	1062.37
873.74	1077.58
874.05	1089.05
874.36	1095.60
874.67	1094.67
874.98	1088.82
875.29	1073.60
875.61	1062.14
875.92	1060.03
876.23	1065.65
876.54	1077.58
876.85	1079.92
877.16	1091.63
877.47	1094.67
877.78	1098.41
878.09	1087.88
878.40	1096.07
878.72	1091.86
879.03	1093.26
879.34	1090.22
879.65	1095.37
879.96	1092.80
880.27	1090.69
880.58	1089.05
880.89	1083.67
881.20	1080.63
881.51	1071.73
881.82	1082.50
882.13	1090.46
882.44	1095.84
882.75	1102.16
883.06	1100.29
883.37	1095.60
883.68	1100.05
883.99	1092.56
884.30	1082.97
884.61	1088.82
884.92	1087.88
885.23	1080.86
885.54	1078.99
885.85	1077.11
886.16	1078.99
886.47	1077.11
886.78	1066.58
887.08	1074.31
887.39	1081.80
887.70	1088.58
888.01	1089.05
888.32	1082.73
888.63	1078.05
888.94	1076.65
889.25	1077.11
889.56	1072.20
889.87	1080.16
890.17	1081.80
890.48	1087.18
890.79	1071.73
891.10	1067.52
891.41	1071.26
891.72	1078.05
892.03	1067.75
892.34	1072.67
892.64	1074.77
892.95	1076.41
893.26	1065.65
893.57	1068.92
893.88	1072.67
894.18	1080.63
894.49	1081.33
894.80	1086.94
895.11	1091.16
895.42	1089.75
895.72	1086.94
896.03	1085.07
896.34	1078.52
896.65	1079.92
896.96	1086.48
897.26	1078.05
897.57	1072.67
897.88	1077.35
898.19	1072.43
898.49	1065.88
898.80	1066.35
899.11	1075.01
899.41	1074.54
899.72	1085.54
900.03	1089.52
900.34	1100.29
900.64	1091.86
900.95	1089.05
901.26	1082.73
901.56	1069.62
901.87	1060.73
902.18	1077.58
902.48	1084.84
902.79	1085.54
903.10	1096.54
903.40	1096.54
903.71	1086.24
904.02	1087.41
904.32	1080.39
904.63	1076.65
904.94	1079.46
905.24	1084.84
905.55	1083.67
905.85	1081.56
906.16	1089.52
906.47	1096.78
906.77	1088.12
907.08	1080.63
907.38	1077.58
907.69	1071.26
908.00	1065.41
908.30	1064.01
908.61	1059.33
908.91	1073.14
909.22	1079.22
909.52	1082.97
909.83	1090.22
910.14	1093.03
910.44	1075.48
910.75	1064.24
911.05	1060.26
911.36	1055.58
911.66	1060.03
911.97	1071.26
912.27	1079.92
912.58	1081.33
912.88	1087.41
913.19	1085.07
913.49	1082.97
913.80	1074.31
914.10	1073.84
914.41	1062.84
914.71	1069.62
915.01	1071.26
915.32	1075.24
915.62	1079.92
915.93	1084.60
916.23	1075.71
916.54	1069.16
916.84	1068.45
917.15	1071.50
917.45	1070.80
917.75	1077.58
918.06	1082.50
918.36	1088.82
918.67	1074.07
918.97	1071.73
919.27	1058.62
919.58	1066.35
919.88	1061.20
920.18	1066.35
920.49	1070.33
920.79	1085.07
921.10	1086.48
921.40	1093.50
921.70	1097.71
922.01	1096.31
922.31	1087.41
922.61	1076.65
922.92	1071.73
923.22	1059.56
923.52	1060.96
923.82	1066.82
924.13	1074.31
924.43	1072.90
924.73	1081.56
925.04	1083.67
925.34	1080.63
925.64	1079.92
925.94	1077.11
926.25	1080.63
926.55	1081.09
926.85	1088.58
927.15	1092.80
927.46	1089.29
927.76	1088.12
928.06	1097.71
928.36	1099.82
928.67	1094.67
928.97	1107.31
929.27	1111.99
929.57	1101.22
929.87	1093.26
930.18	1088.58
930.48	1082.03
930.78	1075.71
931.08	1082.03
931.38	1082.97
931.69	1077.11
931.99	1067.28
932.29	1068.92
932.59	1068.22
932.89	1068.92
933.19	1078.52
933.49	1081.33
933.80	1083.67
934.10	1076.88
934.40	1082.50
934.70	1072.90
935.00	1081.56
935.30	1085.77
935.60	1085.54
935.90	1079.69
936.20	1089.99
936.50	1087.65
936.81	1073.84
937.11	1069.16
937.41	1072.20
937.71	1068.22
938.01	1070.09
938.31	1078.52
938.61	1080.16
938.91	1078.99
939.21	1078.52
939.51	1077.82
939.81	1078.52
940.11	1080.39
940.41	1078.99
940.71	1076.41
941.01	1074.07
941.31	1077.35
941.61	1081.33
941.91	1087.65
942.21	1092.80
942.51	1093.26
942.81	1084.14
943.11	1088.12
943.41	1080.16
943.71	1078.05
944.01	1078.28
944.31	1086.48
944.61	1088.12
944.90	1090.46
945.20	1089.05
945.50	1089.05
945.80	1084.60
946.10	1077.58
946.40	1083.20
946.70	1087.41
947.00	1089.52
947.30	1091.86
947.60	1093.03
947.89	1082.97
948.19	1079.92
948.49	1089.05
948.79	1077.35
949.09	1081.80
949.39	1087.18
949.69	1088.35
949.98	1069.39
950.28	1082.26
950.58	1072.67
950.88	1070.80
951.18	1070.09
951.48	1075.94
951.77	1065.88
952.07	1076.88
952.37	1077.11
952.67	1075.71
952.97	1084.14
953.26	1095.37
953.56	1091.16
953.86	1098.88
954.16	1103.80
954.45	1103.33
954.75	1100.05
955.05	1089.99
955.35	1079.46
955.64	1075.24
955.94	1066.82
956.24	1061.43
956.54	1061.67
956.83	1073.14
957.13	1071.73
957.43	1081.80
957.72	1083.43
958.02	1090.69
958.32	1091.16
958.61	1091.39
958.91	1087.65
959.21	1086.71
959.50	1078.99
959.80	1069.86
960.10	1078.75
960.39	1071.03
960.69	1074.54
960.99	1076.65
961.28	1074.07
961.58	1062.84
961.87	1071.73
962.17	1069.16
962.47	1078.75
962.76	1071.73
963.06	1069.39
963.36	1064.71
963.65	1061.20
963.95	1063.77
964.24	1075.24
964.54	1077.35
964.83	1078.52
965.13	1079.92
965.42	1068.45
965.72	1060.03
966.02	1071.50
966.31	1066.82
966.61	1056.28
966.90	1064.24
967.20	1081.09
967.49	1082.73
967.79	1077.11
968.08	1087.41
968.38	1076.41
968.67	1065.88
968.97	1057.92
969.26	1068.69
969.56	1070.09
969.85	1083.43
970.15	1075.24
970.44	1075.48
970.74	1067.75
971.03	1065.41
971.32	1061.20
971.62	1061.20
971.91	1054.88
972.21	1056.52
972.50	1049.26
972.80	1051.60
973.09	1060.73
973.38	1069.39
973.68	1077.58
973.97	1096.78
974.27	1092.56
974.56	1093.50
974.85	1088.35
975.15	1085.54
975.44	1071.97
975.73	1072.20
976.03	1071.73
976.32	1076.88
976.61	1073.37
976.91	1080.86
977.20	1068.22
977.49	1065.65
977.79	1065.41
978.08	1067.99
978.37	1067.28
978.67	1082.73
978.96	1083.90
979.25	1089.75
979.55	1091.16
979.84	1090.46
980.13	1081.09
980.42	1085.77
980.72	1074.07
981.01	1074.54
981.30	1067.99
981.59	1074.31
981.89	1072.20
982.18	1078.75
982.47	1074.77
982.76	1083.67
983.06	1078.99
983.35	1071.97
983.64	1068.22
983.93	1067.05
984.22	1067.05
984.52	1067.99
984.81	1075.48
985.10	1076.18
985.39	1076.41
985.68	1082.97
985.97	1086.01
986.27	1077.11
986.56	1066.35
986.85	1074.07
987.14	1067.28
987.43	1065.41
987.72	1072.20
988.01	1083.43
988.31	1080.16
988.60	1063.07
988.89	1065.65
989.18	1060.73
989.47	1059.33
989.76	1058.39
990.05	1075.01
990.34	1077.58
990.63	1075.48
990.92	1082.03
991.21	1089.75
991.51	1090.69
991.80	1095.60
992.09	1104.97
992.38	1101.92
992.67	1099.12
992.96	1096.54
993.25	1092.09
993.54	1092.56
993.83	1091.39
994.12	1093.50
994.41	1093.97
994.70	1091.16
994.99	1091.86
995.28	1098.88
995.57	1086.94
995.86	1084.84
996.15	1089.75
996.44	1085.07
996.73	1080.86
997.02	1089.52
997.31	1092.56
997.59	1084.84
997.88	1079.92
998.17	1074.77
998.46	1074.77
998.75	1075.94
999.04	1087.18
999.33	1094.90
999.62	1097.01
999.91	1093.26
1000.20	1086.94
1000.49	1078.99
1000.77	1077.82
1001.06	1083.90
1001.35	1090.46
1001.64	1086.94
1001.93	1079.92
1002.22	1073.37
1002.51	1056.05
1002.79	1055.58
1003.08	1060.26
1003.37	1064.24
1003.66	1075.01
1003.95	1094.67
1004.23	1086.24
1004.52	1084.37
1004.81	1079.22
1005.10	1080.63
1005.39	1080.16
1005.67	1082.50
1005.96	1079.69
1006.25	1089.99
1006.54	1079.69
1006.83	1063.77
1007.11	1069.39
1007.40	1069.16
1007.69	1065.18
1007.97	1067.52
1008.26	1071.97
1008.55	1064.94
1008.84	1070.56
1009.12	1062.60
1009.41	1049.96
1009.70	1060.26
1009.98	1064.71
1010.27	1068.69
1010.56	1079.92
1010.85	1091.39
1011.13	1087.65
1011.42	1080.63
1011.71	1077.82
1011.99	1079.69
1012.28	1083.20
1012.56	1091.39
1012.85	1105.20
1013.14	1104.26
1013.42	1107.78
1013.71	1110.12
1014.00	1098.18
1014.28	1081.56
1014.57	1078.28
1014.85	1067.52
1015.14	1065.18
1015.43	1065.65
1015.71	1074.31
1016.00	1070.09
1016.28	1066.58
1016.57	1064.94
1016.85	1069.62
1017.14	1066.82
1017.43	1069.39
1017.71	1075.48
1018.00	1083.43
1018.28	1073.14
1018.57	1075.48
1018.85	1077.58
1019.14	1080.86
1019.42	1077.58
1019.71	1080.39
1019.99	1072.90
1020.28	1079.92
1020.56	1081.33
1020.85	1069.86
1021.13	1067.75
1021.42	1073.60
1021.70	1065.65
1021.99	1058.62
1022.27	1071.03
1022.55	1063.77
1022.84	1107.07
>>>>>End Processed Spectral Data<<<<<
