SpectraSuite Data File
++++++++++++++++++++++++++++++++++++
Date: Mon Aug 26 10:24:44 PDT 2019
User: corrico
Dark Spectrum Present: No
Reference Spectrum Present: No
Number of Sampled Component Spectra: 1
Spectrometers: USB2+H06089
Integration Time (usec): 10000 (USB2+H06089)
Spectra Averaged: 2 (USB2+H06089)
Boxcar Smoothing: 2 (USB2+H06089)
Correct for Electrical Dark: No (USB2+H06089)
Strobe/Lamp Enabled: No (USB2+H06089)
Correct for Detector Non-linearity: No (USB2+H06089)
Correct for Stray Light: No (USB2+H06089)
Number of Pixels in Processed Spectrum: 2048
>>>>>Begin Processed Spectral Data<<<<<
339.70	1004.09
340.07	1004.09
340.45	971.56
340.82	953.53
341.19	943.70
341.57	931.30
341.94	939.26
342.31	932.47
342.69	924.28
343.06	900.17
343.43	890.11
343.81	880.74
344.18	890.11
344.55	889.17
344.93	907.19
345.30	908.60
345.67	922.41
346.04	921.94
346.42	946.04
346.79	960.56
347.16	976.94
347.54	978.58
347.91	983.49
348.28	988.41
348.65	986.07
349.03	993.09
349.40	1006.20
349.77	1022.81
350.14	1027.96
350.52	1050.90
350.89	1059.33
351.26	1061.20
351.63	1069.86
352.01	1072.90
352.38	1070.33
352.75	1075.94
353.12	1090.22
353.50	1081.33
353.87	1087.41
354.24	1095.60
354.61	1106.14
354.98	1102.39
355.36	1108.48
355.73	1117.37
356.10	1115.50
356.47	1100.75
356.84	1101.22
357.22	1104.97
357.59	1105.20
357.96	1100.99
358.33	1115.97
358.70	1115.73
359.08	1115.03
359.45	1108.95
359.82	1111.75
360.19	1102.63
360.56	1101.46
360.94	1105.20
361.31	1090.46
361.68	1084.37
362.05	1072.43
362.42	1081.09
362.79	1073.84
363.16	1082.73
363.54	1081.33
363.91	1085.31
364.28	1075.48
364.65	1075.48
365.02	1085.31
365.39	1086.24
365.76	1093.97
366.14	1096.31
366.51	1094.20
366.88	1088.35
367.25	1091.86
367.62	1096.31
367.99	1083.43
368.36	1088.82
368.73	1085.54
369.10	1087.18
369.48	1083.90
369.85	1086.71
370.22	1082.03
370.59	1086.48
370.96	1081.56
371.33	1078.99
371.70	1091.39
372.07	1094.43
372.44	1090.22
372.81	1088.35
373.18	1098.88
373.55	1095.84
373.93	1090.92
374.30	1098.41
374.67	1107.31
375.04	1089.52
375.41	1094.90
375.78	1101.46
376.15	1104.97
376.52	1101.69
376.89	1108.48
377.26	1096.31
377.63	1094.90
378.00	1091.16
378.37	1079.69
378.74	1077.82
379.11	1085.07
379.48	1087.18
379.85	1086.71
380.22	1097.71
380.59	1111.99
380.96	1117.61
381.33	1115.50
381.70	1116.67
382.07	1109.88
382.44	1098.41
382.81	1094.20
383.18	1094.90
383.55	1095.84
383.92	1107.07
384.29	1109.65
384.66	1100.99
385.03	1099.58
385.40	1100.52
385.77	1104.73
386.14	1116.20
386.51	1125.33
386.88	1120.18
387.25	1126.73
387.62	1127.44
387.99	1111.52
388.36	1107.78
388.73	1115.73
389.10	1105.44
389.46	1101.92
389.83	1114.80
390.20	1125.56
390.57	1124.86
390.94	1131.65
391.31	1137.73
391.68	1136.33
392.05	1129.07
392.42	1127.20
392.79	1124.86
393.16	1125.56
393.53	1123.69
393.89	1131.65
394.26	1140.78
394.63	1143.12
395.00	1144.29
395.37	1153.42
395.74	1152.48
396.11	1155.05
396.48	1159.03
396.84	1149.67
397.21	1143.12
397.58	1149.67
397.95	1150.14
398.32	1142.42
398.69	1158.10
399.06	1169.33
399.42	1168.86
399.79	1180.80
400.16	1201.87
400.53	1203.97
400.90	1199.99
401.27	1202.80
401.64	1199.29
402.00	1194.61
402.37	1196.95
402.74	1211.46
403.11	1222.46
403.48	1234.63
403.84	1243.06
404.21	1260.85
404.58	1282.85
404.95	1302.27
405.32	1311.87
405.68	1329.89
406.05	1339.25
406.42	1352.36
406.79	1378.11
407.16	1411.11
407.52	1440.37
407.89	1482.96
408.26	1514.79
408.63	1551.54
408.99	1590.16
409.36	1638.84
409.73	1676.53
410.10	1718.42
410.47	1757.27
410.83	1796.83
411.20	1854.64
411.57	1914.32
411.94	1981.73
412.30	2051.95
412.67	2141.82
413.04	2214.61
413.40	2305.43
413.77	2409.35
414.14	2514.91
414.51	2624.91
414.87	2736.79
415.24	2865.75
415.61	3003.14
415.97	3142.40
416.34	3298.75
416.71	3491.61
417.08	3673.00
417.44	3837.54
417.81	4056.85
418.18	4275.46
418.54	4508.34
418.91	4737.24
419.28	5005.00
419.64	5277.91
420.01	5565.33
420.38	5868.19
420.74	6213.42
421.11	6590.48
421.48	6953.73
421.84	7350.92
422.21	7735.47
422.58	8171.28
422.94	8630.49
423.31	9135.11
423.68	9665.01
424.04	10222.52
424.41	10793.61
424.77	11392.09
425.14	11981.90
425.51	12595.12
425.87	13282.07
426.24	13981.89
426.61	14743.97
426.97	15658.65
427.34	16510.14
427.70	17439.80
428.07	18347.46
428.44	19265.65
428.80	20154.35
429.17	21224.68
429.53	22246.56
429.90	23377.97
430.27	24452.75
430.63	25571.29
431.00	26778.30
431.36	28041.02
431.73	29266.06
432.09	30518.48
432.46	31761.77
432.83	32920.10
433.19	34027.88
433.56	35300.19
433.92	36671.75
434.29	37947.57
434.65	39274.42
435.02	40440.24
435.38	41576.57
435.75	42398.57
436.11	43539.58
436.48	44454.73
436.84	45448.76
437.21	46325.05
437.57	47214.22
437.94	47916.85
438.30	48600.52
438.67	49140.72
439.03	49454.58
439.40	49755.81
439.76	49596.19
440.13	49277.64
440.49	49177.46
440.86	48798.30
441.22	48425.92
441.59	48019.60
441.95	47623.11
442.32	46693.92
442.68	45969.76
443.05	45021.37
443.41	44095.69
443.78	42962.17
444.14	42003.49
444.51	40838.14
444.87	39937.97
445.24	38789.46
445.60	37801.29
445.96	36751.56
446.33	35944.08
446.69	34849.64
447.06	34015.71
447.42	33023.55
447.79	32000.04
448.15	31040.42
448.51	30129.01
448.88	29305.38
449.24	28456.23
449.61	27861.50
449.97	27054.49
450.33	26299.43
450.70	25493.35
451.06	24934.20
451.43	24218.69
451.79	23756.44
452.15	23238.95
452.52	22725.20
452.88	22168.38
453.24	21648.08
453.61	21081.44
453.97	20544.29
454.34	19927.79
454.70	19391.34
455.06	18769.93
455.43	18110.60
455.79	17452.91
456.15	16926.29
456.52	16307.92
456.88	15875.85
457.24	15291.19
457.61	14832.44
457.97	14331.33
458.33	13842.86
458.70	13286.52
459.06	12840.18
459.42	12397.58
459.79	11944.92
460.15	11535.10
460.51	11146.57
460.88	10792.68
461.24	10422.41
461.60	10118.14
461.96	9818.31
462.33	9492.98
462.69	9166.71
463.05	8882.33
463.42	8610.13
463.78	8358.76
464.14	8108.32
464.50	7887.14
464.87	7651.21
465.23	7429.33
465.59	7207.91
465.95	7059.29
466.32	6878.13
466.68	6714.29
467.04	6526.58
467.40	6361.34
467.77	6193.06
468.13	6043.50
468.49	5903.07
468.85	5769.42
469.22	5644.90
469.58	5501.66
469.94	5359.36
470.30	5234.37
470.66	5137.01
471.03	5001.02
471.39	4914.66
471.75	4828.99
472.11	4729.05
472.47	4623.26
472.84	4567.32
473.20	4449.59
473.56	4349.65
473.92	4251.82
474.28	4168.03
474.65	4060.13
475.01	3987.80
475.37	3914.31
475.73	3841.52
476.09	3755.62
476.45	3682.36
476.81	3597.87
477.18	3519.70
477.54	3439.42
477.90	3397.29
478.26	3324.50
478.62	3272.54
478.98	3225.49
479.34	3198.11
479.71	3126.02
480.07	3092.78
480.43	3066.57
480.79	3008.29
481.15	2944.86
481.51	2906.48
481.87	2862.71
482.23	2812.86
482.59	2767.45
482.96	2713.85
483.32	2674.30
483.68	2621.63
484.04	2570.14
484.40	2538.08
484.76	2523.10
485.12	2483.31
485.48	2468.09
485.84	2439.31
486.20	2396.94
486.56	2350.13
486.92	2326.96
487.28	2289.51
487.64	2267.75
488.00	2241.53
488.37	2212.27
488.73	2188.87
489.09	2158.91
489.45	2120.53
489.81	2111.87
490.17	2085.42
490.53	2048.20
490.89	2023.63
491.25	2017.07
491.61	1978.45
491.97	1961.84
492.33	1927.43
492.69	1904.73
493.05	1854.87
493.41	1841.07
493.77	1816.96
494.13	1799.87
494.49	1775.30
494.85	1770.62
495.21	1743.70
495.57	1731.76
495.93	1714.44
496.29	1704.38
496.64	1667.87
497.00	1644.69
497.36	1618.48
497.72	1607.71
498.08	1576.82
498.44	1577.76
498.80	1564.41
499.16	1557.16
499.52	1548.26
499.88	1549.67
500.24	1530.01
500.60	1526.26
500.96	1520.65
501.32	1512.69
501.68	1504.26
502.03	1499.35
502.39	1490.92
502.75	1467.28
503.11	1453.47
503.47	1435.45
503.83	1433.81
504.19	1419.07
504.55	1422.81
504.91	1419.77
505.26	1418.60
505.62	1400.34
505.98	1389.11
506.34	1372.72
506.70	1351.43
507.06	1333.40
507.42	1322.87
507.78	1310.47
508.13	1304.38
508.49	1308.36
508.85	1314.68
509.21	1304.38
509.57	1306.72
509.93	1296.66
510.28	1283.32
510.64	1271.61
511.00	1267.87
511.36	1254.29
511.72	1251.25
512.07	1258.97
512.43	1257.57
512.79	1259.21
513.15	1265.53
513.51	1266.23
513.86	1250.08
514.22	1237.21
514.58	1236.51
514.94	1234.40
515.30	1225.04
515.65	1224.10
516.01	1225.74
516.37	1224.10
516.73	1218.01
517.08	1212.16
517.44	1207.48
517.80	1204.44
518.16	1201.16
518.51	1194.84
518.87	1203.97
519.23	1205.61
519.59	1209.12
519.94	1200.69
520.30	1199.29
520.66	1189.69
521.01	1189.46
521.37	1172.37
521.73	1184.08
522.09	1186.42
522.44	1179.16
522.80	1175.18
523.16	1174.25
523.51	1166.99
523.87	1169.10
524.23	1174.71
524.58	1170.27
524.94	1169.33
525.30	1159.74
525.65	1144.76
526.01	1138.20
526.37	1134.69
526.72	1136.33
527.08	1138.20
527.44	1152.01
527.79	1162.31
528.15	1160.67
528.51	1157.63
528.86	1160.67
529.22	1160.44
529.58	1142.18
529.93	1137.03
530.29	1141.48
530.65	1141.25
531.00	1125.56
531.36	1139.14
531.71	1152.71
532.07	1149.20
532.43	1144.52
532.78	1155.76
533.14	1145.93
533.49	1134.22
533.85	1121.82
534.21	1124.63
534.56	1111.05
534.92	1119.24
535.27	1126.73
535.63	1137.73
535.98	1139.37
536.34	1150.37
536.69	1147.80
537.05	1139.37
537.41	1136.56
537.76	1139.37
538.12	1145.46
538.47	1139.84
538.83	1146.39
539.18	1159.50
539.54	1154.59
539.89	1135.63
540.25	1138.44
540.60	1138.67
540.96	1133.76
541.31	1129.54
541.67	1141.71
542.02	1132.12
542.38	1130.71
542.73	1116.67
543.09	1111.52
543.44	1100.29
543.80	1106.37
544.15	1107.31
544.51	1112.46
544.86	1117.84
545.22	1122.75
545.57	1123.22
545.93	1126.73
546.28	1134.46
546.64	1131.18
546.99	1131.41
547.35	1130.95
547.70	1124.63
548.05	1123.22
548.41	1126.50
548.76	1122.52
549.12	1120.41
549.47	1121.12
549.83	1117.61
550.18	1115.50
550.53	1121.82
550.89	1122.05
551.24	1123.22
551.60	1119.24
551.95	1115.27
552.30	1112.92
552.66	1119.01
553.01	1120.65
553.37	1124.86
553.72	1131.18
554.07	1127.90
554.43	1121.82
554.78	1109.18
555.13	1110.35
555.49	1107.78
555.84	1112.46
556.19	1114.33
556.55	1120.18
556.90	1111.52
557.26	1105.20
557.61	1103.09
557.96	1096.78
558.32	1095.84
558.67	1106.84
559.02	1106.37
559.37	1092.33
559.73	1102.86
560.08	1102.86
560.43	1093.97
560.79	1097.48
561.14	1111.29
561.49	1099.82
561.85	1102.63
562.20	1105.67
562.55	1115.03
562.90	1112.22
563.26	1123.69
563.61	1117.61
563.96	1120.18
564.32	1112.69
564.67	1122.05
565.02	1123.69
565.37	1127.67
565.73	1120.18
566.08	1109.41
566.43	1103.56
566.78	1089.29
567.14	1086.01
567.49	1092.09
567.84	1095.84
568.19	1095.14
568.54	1100.99
568.90	1098.65
569.25	1091.16
569.60	1073.84
569.95	1069.86
570.31	1071.73
570.66	1072.43
571.01	1082.50
571.36	1109.65
571.71	1110.35
572.06	1108.24
572.42	1114.56
572.77	1109.88
573.12	1106.37
573.47	1108.95
573.82	1112.69
574.18	1110.12
574.53	1106.14
574.88	1104.26
575.23	1102.63
575.58	1106.84
575.93	1111.75
576.28	1117.61
576.64	1124.63
576.99	1128.84
577.34	1130.01
577.69	1130.71
578.04	1131.18
578.39	1124.16
578.74	1120.41
579.09	1112.69
579.44	1115.03
579.80	1114.56
580.15	1116.20
580.50	1118.54
580.85	1120.88
581.20	1117.14
581.55	1115.73
581.90	1109.18
582.25	1099.12
582.60	1092.80
582.95	1094.67
583.30	1104.73
583.65	1106.61
584.00	1117.14
584.35	1109.41
584.71	1110.12
585.06	1103.33
585.41	1104.50
585.76	1106.61
586.11	1115.73
586.46	1105.20
586.81	1097.95
587.16	1094.90
587.51	1093.26
587.86	1091.86
588.21	1096.07
588.56	1098.41
588.91	1109.65
589.26	1103.80
589.61	1110.35
589.96	1108.24
590.31	1100.52
590.66	1097.24
591.01	1096.54
591.36	1099.12
591.71	1096.78
592.06	1107.31
592.41	1104.97
592.76	1103.09
593.10	1102.86
593.45	1107.07
593.80	1103.09
594.15	1104.03
594.50	1113.16
594.85	1105.90
595.20	1108.95
595.55	1112.46
595.90	1113.16
596.25	1111.29
596.60	1116.44
596.95	1110.35
597.30	1105.67
597.64	1151.78
597.99	1155.52
598.34	1141.95
598.69	1144.76
599.04	1139.84
599.39	1093.03
599.74	1077.58
600.09	1085.07
600.44	1087.65
600.78	1101.69
601.13	1093.03
601.48	1109.41
601.83	1101.92
602.18	1099.35
602.53	1100.52
602.88	1112.22
603.22	1115.03
603.57	1118.31
603.92	1120.41
604.27	1121.82
604.62	1119.95
604.97	1115.97
605.31	1118.31
605.66	1112.22
606.01	1104.26
606.36	1116.90
606.71	1115.97
607.05	1122.75
607.40	1124.86
607.75	1116.90
608.10	1093.26
608.44	1090.92
608.79	1079.69
609.14	1079.92
609.49	1088.82
609.84	1095.37
610.18	1089.52
610.53	1092.80
610.88	1095.84
611.23	1089.29
611.57	1088.58
611.92	1091.39
612.27	1097.24
612.62	1092.56
612.96	1095.37
613.31	1086.71
613.66	1086.24
614.00	1086.94
614.35	1084.14
614.70	1092.80
615.05	1102.39
615.39	1093.03
615.74	1090.46
616.09	1100.99
616.43	1087.88
616.78	1095.14
617.13	1108.01
617.47	1113.16
617.82	1106.14
618.17	1112.22
618.51	1105.44
618.86	1099.82
619.21	1094.67
619.55	1095.14
619.90	1092.09
620.25	1093.50
620.59	1090.92
620.94	1092.33
621.29	1096.07
621.63	1104.97
621.98	1104.97
622.32	1114.09
622.67	1116.44
623.02	1112.92
623.36	1097.01
623.71	1093.97
624.05	1091.86
624.40	1082.97
624.75	1082.26
625.09	1094.43
625.44	1100.99
625.78	1099.35
626.13	1105.44
626.48	1109.41
626.82	1102.63
627.17	1098.41
627.51	1097.95
627.86	1092.56
628.20	1090.69
628.55	1093.03
628.89	1087.18
629.24	1089.05
629.58	1108.48
629.93	1108.24
630.28	1113.39
630.62	1111.99
630.97	1102.16
631.31	1089.29
631.66	1078.52
632.00	1074.77
632.35	1082.03
632.69	1088.12
633.04	1084.60
633.38	1091.39
633.73	1089.75
634.07	1093.26
634.42	1095.60
634.76	1099.35
635.11	1107.07
635.45	1110.82
635.79	1108.95
636.14	1099.35
636.48	1083.20
636.83	1073.14
637.17	1073.14
637.52	1077.82
637.86	1089.05
638.21	1108.48
638.55	1116.67
638.89	1112.22
639.24	1103.80
639.58	1093.50
639.93	1089.29
640.27	1089.29
640.61	1095.37
640.96	1104.50
641.30	1106.14
641.65	1105.67
641.99	1100.52
642.33	1093.73
642.68	1084.60
643.02	1090.46
643.37	1084.37
643.71	1081.56
644.05	1095.37
644.40	1098.65
644.74	1098.41
645.08	1097.48
645.43	1098.88
645.77	1082.26
646.11	1077.11
646.46	1075.71
646.80	1086.48
647.14	1095.37
647.49	1106.37
647.83	1116.90
648.17	1111.52
648.52	1109.18
648.86	1100.29
649.20	1093.26
649.55	1085.54
649.89	1094.67
650.23	1098.88
650.57	1109.88
650.92	1097.48
651.26	1100.52
651.60	1097.95
651.95	1094.67
652.29	1084.84
652.63	1100.29
652.97	1098.41
653.32	1099.82
653.66	1098.18
654.00	1099.82
654.34	1091.39
654.69	1089.05
655.03	1086.48
655.37	1092.09
655.71	1097.01
656.05	1097.01
656.40	1089.29
656.74	1086.01
657.08	1068.22
657.42	1063.77
657.76	1065.65
658.11	1081.80
658.45	1091.39
658.79	1096.54
659.13	1089.52
659.47	1092.09
659.82	1075.24
660.16	1077.82
660.50	1070.33
660.84	1075.01
661.18	1078.52
661.52	1095.84
661.87	1081.80
662.21	1097.01
662.55	1100.75
662.89	1101.46
663.23	1088.12
663.57	1094.67
663.91	1086.48
664.25	1086.48
664.60	1090.69
664.94	1097.95
665.28	1093.73
665.62	1096.54
665.96	1100.05
666.30	1096.07
666.64	1092.33
666.98	1094.20
667.32	1104.26
667.66	1096.54
668.01	1093.50
668.35	1095.84
668.69	1096.07
669.03	1098.41
669.37	1095.37
669.71	1099.35
670.05	1099.35
670.39	1100.52
670.73	1087.41
671.07	1092.09
671.41	1081.33
671.75	1080.39
672.09	1084.84
672.43	1087.65
672.77	1086.71
673.11	1087.18
673.45	1093.26
673.79	1085.07
674.13	1088.35
674.47	1094.43
674.81	1100.99
675.15	1097.24
675.49	1110.12
675.83	1107.31
676.17	1105.20
676.51	1098.41
676.85	1084.84
677.19	1085.54
677.53	1093.73
677.87	1080.63
678.21	1081.33
678.55	1090.46
678.89	1083.67
679.23	1079.22
679.57	1092.33
679.90	1091.63
680.24	1089.99
680.58	1086.94
680.92	1081.56
681.26	1084.60
681.60	1084.60
681.94	1093.26
682.28	1092.80
682.62	1098.18
682.96	1096.54
683.29	1097.01
683.63	1084.14
683.97	1089.05
684.31	1080.86
684.65	1075.48
684.99	1079.46
685.33	1087.41
685.67	1076.41
686.00	1077.58
686.34	1079.92
686.68	1086.71
687.02	1094.90
687.36	1089.05
687.70	1098.65
688.03	1096.31
688.37	1094.67
688.71	1082.73
689.05	1087.65
689.39	1075.71
689.72	1071.73
690.06	1077.58
690.40	1086.01
690.74	1090.69
691.08	1089.75
691.41	1100.99
691.75	1093.50
692.09	1088.12
692.43	1098.18
692.76	1113.86
693.10	1110.12
693.44	1111.05
693.78	1104.26
694.11	1096.31
694.45	1093.03
694.79	1096.78
695.13	1092.09
695.46	1104.03
695.80	1101.22
696.14	1091.39
696.48	1084.37
696.81	1088.12
697.15	1086.24
697.49	1083.20
697.82	1091.39
698.16	1101.46
698.50	1100.52
698.83	1096.78
699.17	1104.50
699.51	1098.41
699.84	1096.07
700.18	1099.82
700.52	1094.90
700.85	1096.31
701.19	1110.35
701.53	1105.90
701.86	1095.14
702.20	1104.26
702.54	1100.05
702.87	1086.01
703.21	1084.84
703.55	1086.24
703.88	1080.39
704.22	1080.16
704.55	1078.75
704.89	1083.43
705.23	1090.69
705.56	1087.41
705.90	1080.86
706.23	1086.48
706.57	1089.75
706.91	1084.37
707.24	1093.26
707.58	1099.82
707.91	1095.60
708.25	1079.22
708.58	1080.16
708.92	1082.26
709.26	1083.67
709.59	1089.05
709.93	1095.60
710.26	1100.75
710.60	1093.73
710.93	1087.41
711.27	1075.48
711.60	1083.20
711.94	1087.65
712.27	1091.86
712.61	1095.14
712.94	1097.71
713.28	1096.31
713.61	1087.41
713.95	1077.82
714.28	1073.37
714.62	1073.60
714.95	1071.03
715.29	1069.39
715.62	1080.63
715.96	1085.54
716.29	1082.26
716.63	1085.31
716.96	1086.01
717.29	1076.41
717.63	1074.31
717.96	1080.39
718.30	1078.75
718.63	1079.22
718.97	1078.75
719.30	1081.56
719.63	1079.46
719.97	1077.58
720.30	1076.65
720.64	1088.58
720.97	1096.54
721.30	1093.50
721.64	1092.09
721.97	1096.54
722.31	1095.84
722.64	1085.54
722.97	1088.82
723.31	1086.01
723.64	1086.71
723.97	1076.41
724.31	1074.77
724.64	1074.31
724.98	1073.84
725.31	1069.62
725.64	1071.97
725.98	1079.92
726.31	1087.88
726.64	1086.01
726.97	1084.14
727.31	1081.33
727.64	1074.07
727.97	1076.18
728.31	1082.50
728.64	1086.94
728.97	1089.05
729.31	1088.12
729.64	1077.82
729.97	1073.84
730.30	1074.77
730.64	1077.11
730.97	1077.82
731.30	1087.41
731.63	1075.48
731.97	1075.94
732.30	1074.31
732.63	1071.03
732.96	1059.79
733.30	1071.50
733.63	1071.97
733.96	1070.56
734.29	1081.80
734.63	1089.29
734.96	1089.52
735.29	1086.24
735.62	1089.05
735.95	1091.39
736.29	1089.29
736.62	1091.86
736.95	1090.46
737.28	1088.35
737.61	1078.99
737.94	1066.11
738.28	1063.31
738.61	1070.09
738.94	1063.77
739.27	1066.58
739.60	1081.33
739.93	1077.58
740.27	1076.88
740.60	1087.88
740.93	1081.09
741.26	1074.07
741.59	1088.58
741.92	1085.77
742.25	1084.84
742.58	1091.39
742.91	1097.24
743.25	1080.16
743.58	1061.43
743.91	1057.92
744.24	1053.01
744.57	1050.43
744.90	1053.48
745.23	1077.82
745.56	1083.67
745.89	1085.54
746.22	1087.41
746.55	1083.67
746.88	1075.94
747.21	1072.43
747.54	1083.67
747.87	1082.97
748.20	1094.90
748.53	1098.41
748.87	1091.86
749.20	1081.33
749.53	1080.39
749.86	1070.56
750.19	1064.24
750.52	1073.14
750.85	1070.33
751.18	1080.86
751.51	1100.29
751.84	1089.99
752.16	1089.29
752.49	1102.63
752.82	1097.24
753.15	1086.24
753.48	1097.24
753.81	1095.60
754.14	1085.54
754.47	1076.88
754.80	1076.88
755.13	1076.18
755.46	1082.73
755.79	1089.29
756.12	1096.78
756.45	1089.75
756.78	1081.80
757.11	1071.26
757.43	1068.69
757.76	1061.20
758.09	1062.14
758.42	1070.56
758.75	1081.80
759.08	1086.48
759.41	1086.24
759.74	1089.99
760.07	1095.60
760.39	1085.31
760.72	1081.33
761.05	1084.37
761.38	1093.26
761.71	1091.16
762.04	1090.92
762.36	1095.37
762.69	1090.69
763.02	1078.99
763.35	1079.69
763.68	1086.01
764.01	1083.90
764.33	1088.35
764.66	1089.75
764.99	1087.65
765.32	1086.94
765.65	1086.01
765.97	1089.75
766.30	1094.67
766.63	1097.01
766.96	1099.35
767.28	1099.35
767.61	1099.35
767.94	1091.63
768.27	1085.07
768.59	1078.99
768.92	1069.39
769.25	1068.92
769.58	1065.18
769.90	1073.60
770.23	1063.54
770.56	1072.67
770.89	1062.37
771.21	1059.79
771.54	1055.11
771.87	1062.60
772.19	1056.99
772.52	1059.79
772.85	1068.22
773.17	1067.99
773.50	1067.75
773.83	1066.35
774.15	1072.67
774.48	1077.82
774.81	1086.24
775.13	1093.73
775.46	1093.73
775.79	1090.22
776.11	1086.71
776.44	1071.50
776.77	1068.45
777.09	1071.03
777.42	1081.09
777.74	1083.90
778.07	1094.43
778.40	1095.37
778.72	1097.71
779.05	1095.14
779.37	1092.33
779.70	1090.92
780.03	1085.77
780.35	1086.48
780.68	1085.07
781.00	1084.60
781.33	1087.18
781.65	1086.01
781.98	1086.94
782.31	1082.03
782.63	1086.24
782.96	1086.48
783.28	1096.07
783.61	1095.37
783.93	1088.35
784.26	1083.43
784.58	1068.92
784.91	1058.39
785.23	1059.09
785.56	1075.48
785.88	1073.37
786.21	1075.94
786.53	1070.80
786.86	1065.88
787.18	1054.65
787.51	1063.07
787.83	1063.54
788.16	1067.99
788.48	1073.60
788.81	1081.33
789.13	1081.80
789.46	1088.35
789.78	1091.86
790.10	1082.73
790.43	1082.26
790.75	1080.16
791.08	1078.99
791.40	1085.07
791.73	1097.24
792.05	1090.22
792.37	1090.46
792.70	1097.95
793.02	1096.78
793.35	1085.54
793.67	1084.37
793.99	1071.50
794.32	1065.41
794.64	1067.52
794.96	1069.16
795.29	1074.31
795.61	1075.71
795.93	1068.45
796.26	1062.37
796.58	1070.80
796.91	1070.56
797.23	1074.54
797.55	1087.18
797.87	1088.82
798.20	1080.86
798.52	1079.69
798.84	1087.18
799.17	1084.84
799.49	1078.28
799.81	1081.09
800.14	1085.77
800.46	1078.99
800.78	1072.43
801.10	1074.31
801.43	1072.67
801.75	1064.94
802.07	1060.26
802.40	1060.73
802.72	1059.33
803.04	1056.28
803.36	1064.01
803.69	1075.01
804.01	1076.65
804.33	1091.39
804.65	1095.14
804.97	1082.97
805.30	1083.90
805.62	1080.63
805.94	1073.14
806.26	1080.63
806.58	1088.35
806.91	1091.86
807.23	1087.41
807.55	1085.77
807.87	1081.33
808.19	1080.63
808.52	1075.48
808.84	1089.05
809.16	1093.97
809.48	1102.63
809.80	1102.16
810.12	1107.31
810.44	1101.92
810.77	1097.95
811.09	1086.94
811.41	1087.88
811.73	1077.82
812.05	1069.86
812.37	1068.69
812.69	1072.90
813.01	1085.77
813.33	1096.78
813.66	1105.90
813.98	1098.88
814.30	1095.84
814.62	1078.05
814.94	1076.88
815.26	1074.54
815.58	1081.80
815.90	1084.14
816.22	1093.26
816.54	1093.50
816.86	1094.67
817.18	1094.20
817.50	1081.09
817.82	1082.73
818.14	1072.67
818.46	1077.82
818.78	1090.22
819.10	1103.56
819.42	1099.35
819.74	1098.65
820.06	1092.80
820.38	1077.58
820.70	1077.11
821.02	1068.69
821.34	1075.01
821.66	1076.88
821.98	1077.58
822.30	1072.43
822.62	1076.41
822.94	1065.41
823.26	1068.69
823.58	1064.94
823.90	1071.50
824.22	1071.03
824.54	1082.26
824.86	1080.39
825.18	1085.07
825.50	1073.14
825.81	1069.86
826.13	1066.58
826.45	1060.73
826.77	1056.75
827.09	1055.11
827.41	1058.16
827.73	1063.77
828.05	1065.65
828.36	1072.90
828.68	1083.43
829.00	1078.99
829.32	1072.20
829.64	1074.31
829.96	1072.43
830.28	1064.01
830.59	1069.86
830.91	1072.67
831.23	1075.94
831.55	1075.24
831.87	1074.54
832.19	1078.75
832.50	1074.31
832.82	1072.43
833.14	1075.48
833.46	1084.84
833.78	1075.01
834.09	1075.48
834.41	1084.37
834.73	1085.07
835.05	1074.77
835.36	1085.07
835.68	1085.54
836.00	1074.54
836.32	1065.65
836.63	1066.82
836.95	1067.52
837.27	1068.22
837.59	1062.60
837.90	1066.82
838.22	1074.07
838.54	1069.62
838.85	1071.50
839.17	1081.33
839.49	1086.48
839.80	1087.65
840.12	1100.75
840.44	1101.92
840.76	1092.80
841.07	1089.75
841.39	1097.01
841.71	1084.84
842.02	1093.73
842.34	1094.43
842.65	1089.75
842.97	1089.52
843.29	1097.01
843.60	1087.88
843.92	1089.99
844.24	1101.22
844.55	1087.18
844.87	1088.12
845.18	1086.01
845.50	1083.20
845.82	1081.80
846.13	1091.39
846.45	1084.60
846.76	1089.05
847.08	1097.71
847.40	1086.94
847.71	1074.77
848.03	1068.22
848.34	1054.88
848.66	1061.43
848.97	1071.26
849.29	1093.97
849.60	1106.61
849.92	1114.33
850.24	1100.29
850.55	1100.99
850.87	1078.99
851.18	1077.35
851.50	1071.03
851.81	1075.94
852.13	1074.31
852.44	1078.28
852.76	1076.18
853.07	1086.48
853.39	1089.05
853.70	1078.52
854.01	1084.37
854.33	1076.65
854.64	1074.77
854.96	1071.50
855.27	1075.48
855.59	1071.50
855.90	1082.97
856.22	1078.28
856.53	1070.80
856.84	1072.20
857.16	1061.43
857.47	1055.58
857.79	1060.96
858.10	1064.94
858.41	1067.05
858.73	1071.03
859.04	1056.99
859.36	1053.48
859.67	1059.09
859.98	1045.99
860.30	1050.90
860.61	1066.58
860.92	1075.24
861.24	1069.86
861.55	1091.39
861.87	1095.60
862.18	1094.43
862.49	1092.56
862.81	1096.07
863.12	1082.50
863.43	1075.01
863.74	1075.24
864.06	1066.58
864.37	1063.07
864.68	1063.07
865.00	1066.35
865.31	1067.52
865.62	1067.28
865.94	1064.01
866.25	1070.80
866.56	1072.90
866.87	1074.54
867.19	1082.97
867.50	1085.07
867.81	1091.63
868.12	1098.41
868.44	1090.69
868.75	1085.54
869.06	1092.09
869.37	1082.97
869.68	1081.80
870.00	1087.88
870.31	1086.48
870.62	1089.52
870.93	1092.56
871.24	1093.26
871.56	1100.75
871.87	1098.18
872.18	1093.97
872.49	1083.90
872.80	1081.80
873.12	1069.62
873.43	1078.99
873.74	1083.67
874.05	1093.26
874.36	1085.77
874.67	1080.16
874.98	1075.48
875.29	1063.31
875.61	1053.94
875.92	1056.99
876.23	1064.01
876.54	1063.54
876.85	1072.90
877.16	1079.46
877.47	1084.14
877.78	1093.50
878.09	1090.69
878.40	1088.58
878.72	1092.56
879.03	1093.97
879.34	1085.54
879.65	1090.92
879.96	1087.18
880.27	1086.24
880.58	1089.75
880.89	1090.69
881.20	1085.77
881.51	1092.56
881.82	1097.48
882.13	1087.65
882.44	1079.92
882.75	1077.82
883.06	1078.99
883.37	1084.60
883.68	1082.97
883.99	1086.94
884.30	1090.92
884.61	1085.54
884.92	1065.88
885.23	1064.94
885.54	1064.24
885.85	1066.11
886.16	1059.09
886.47	1064.48
886.78	1072.67
887.08	1072.67
887.39	1072.43
887.70	1075.24
888.01	1074.77
888.32	1070.33
888.63	1077.58
888.94	1075.24
889.25	1085.07
889.56	1088.35
889.87	1082.97
890.17	1075.94
890.48	1073.14
890.79	1073.37
891.10	1070.33
891.41	1080.86
891.72	1077.82
892.03	1072.67
892.34	1068.45
892.64	1071.97
892.95	1068.92
893.26	1082.26
893.57	1079.46
893.88	1068.22
894.18	1062.84
894.49	1058.62
894.80	1045.52
895.11	1062.84
895.42	1069.62
895.72	1079.22
896.03	1082.97
896.34	1086.71
896.65	1079.22
896.96	1076.18
897.26	1069.39
897.57	1070.80
897.88	1066.35
898.19	1061.90
898.49	1075.24
898.80	1073.84
899.11	1072.90
899.41	1074.77
899.72	1083.67
900.03	1071.97
900.34	1079.69
900.64	1076.18
900.95	1079.22
901.26	1082.26
901.56	1078.28
901.87	1071.50
902.18	1073.84
902.48	1075.71
902.79	1073.14
903.10	1079.69
903.40	1077.35
903.71	1084.14
904.02	1091.16
904.32	1082.03
904.63	1079.46
904.94	1086.01
905.24	1074.77
905.55	1067.52
905.85	1072.20
906.16	1082.73
906.47	1073.84
906.77	1075.24
907.08	1075.48
907.38	1084.14
907.69	1074.77
908.00	1078.05
908.30	1087.41
908.61	1085.54
908.91	1078.99
909.22	1076.65
909.52	1081.56
909.83	1081.33
910.14	1074.07
910.44	1071.03
910.75	1075.71
911.05	1072.20
911.36	1068.92
911.66	1070.56
911.97	1068.45
912.27	1057.45
912.58	1054.88
912.88	1055.35
913.19	1062.37
913.49	1074.07
913.80	1087.65
914.10	1093.97
914.41	1085.07
914.71	1078.05
915.01	1077.58
915.32	1076.41
915.62	1083.20
915.93	1094.20
916.23	1094.43
916.54	1082.50
916.84	1088.82
917.15	1080.63
917.45	1073.37
917.75	1089.29
918.06	1094.20
918.36	1092.56
918.67	1091.63
918.97	1090.46
919.27	1080.63
919.58	1079.22
919.88	1085.07
920.18	1083.20
920.49	1078.99
920.79	1075.48
921.10	1075.24
921.40	1064.48
921.70	1064.01
922.01	1072.67
922.31	1072.67
922.61	1071.26
922.92	1071.73
923.22	1068.69
923.52	1068.22
923.82	1068.69
924.13	1071.73
924.43	1067.99
924.73	1075.94
925.04	1071.26
925.34	1062.84
925.64	1063.54
925.94	1064.94
926.25	1060.73
926.55	1064.01
926.85	1083.90
927.15	1087.18
927.46	1088.58
927.76	1096.31
928.06	1103.56
928.36	1089.75
928.67	1093.73
928.97	1100.52
929.27	1100.05
929.57	1097.24
929.87	1110.35
930.18	1109.88
930.48	1107.07
930.78	1095.84
931.08	1093.03
931.38	1085.54
931.69	1071.50
931.99	1072.67
932.29	1071.73
932.59	1068.22
932.89	1067.75
933.19	1071.73
933.49	1063.07
933.80	1073.14
934.10	1070.09
934.40	1075.71
934.70	1075.48
935.00	1076.41
935.30	1067.75
935.60	1068.92
935.90	1065.65
936.20	1070.33
936.50	1074.54
936.81	1076.88
937.11	1080.16
937.41	1086.24
937.71	1090.69
938.01	1085.77
938.31	1089.75
938.61	1083.43
938.91	1075.71
939.21	1065.88
939.51	1076.18
939.81	1079.22
940.11	1081.80
940.41	1080.39
940.71	1084.84
941.01	1071.73
941.31	1067.05
941.61	1066.11
941.91	1064.48
942.21	1062.84
942.51	1067.75
942.81	1066.82
943.11	1064.71
943.41	1077.35
943.71	1079.92
944.01	1074.54
944.31	1075.94
944.61	1095.84
944.90	1096.54
945.20	1096.31
945.50	1106.37
945.80	1104.97
946.10	1092.33
946.40	1075.94
946.70	1067.28
947.00	1064.48
947.30	1064.01
947.60	1070.09
947.89	1073.84
948.19	1082.50
948.49	1078.52
948.79	1081.56
949.09	1075.01
949.39	1079.92
949.69	1075.71
949.98	1084.84
950.28	1094.43
950.58	1103.80
950.88	1096.31
951.18	1095.37
951.48	1091.86
951.77	1084.60
952.07	1071.03
952.37	1075.94
952.67	1078.75
952.97	1063.31
953.26	1063.77
953.56	1075.94
953.86	1073.37
954.16	1080.63
954.45	1092.56
954.75	1089.52
955.05	1077.58
955.35	1087.88
955.64	1078.52
955.94	1085.77
956.24	1085.54
956.54	1088.12
956.83	1086.94
957.13	1086.24
957.43	1072.20
957.72	1068.22
958.02	1078.05
958.32	1074.77
958.61	1082.73
958.91	1088.35
959.21	1085.31
959.50	1074.31
959.80	1072.43
960.10	1063.77
960.39	1070.33
960.69	1080.39
960.99	1086.94
961.28	1086.94
961.58	1093.73
961.87	1099.82
962.17	1093.03
962.47	1092.33
962.76	1092.56
963.06	1094.67
963.36	1084.37
963.65	1087.41
963.95	1079.22
964.24	1076.41
964.54	1080.63
964.83	1082.03
965.13	1073.60
965.42	1080.16
965.72	1079.92
966.02	1068.69
966.31	1072.20
966.61	1079.22
966.90	1075.94
967.20	1070.33
967.49	1064.24
967.79	1058.16
968.08	1062.84
968.38	1067.28
968.67	1075.48
968.97	1089.52
969.26	1092.33
969.56	1089.29
969.85	1081.33
970.15	1074.31
970.44	1062.60
970.74	1067.99
971.03	1076.65
971.32	1086.48
971.62	1086.48
971.91	1099.35
972.21	1095.60
972.50	1089.75
972.80	1077.11
973.09	1076.88
973.38	1068.45
973.68	1067.99
973.97	1061.67
974.27	1059.79
974.56	1064.24
974.85	1063.77
975.15	1061.20
975.44	1068.45
975.73	1065.88
976.03	1064.01
976.32	1053.94
976.61	1058.62
976.91	1053.48
977.20	1067.99
977.49	1068.69
977.79	1078.28
978.08	1072.20
978.37	1072.90
978.67	1071.97
978.96	1076.41
979.25	1080.63
979.55	1079.69
979.84	1078.28
980.13	1085.54
980.42	1083.67
980.72	1080.16
981.01	1092.33
981.30	1093.50
981.59	1090.46
981.89	1089.29
982.18	1089.05
982.47	1074.54
982.76	1076.65
983.06	1072.67
983.35	1077.58
983.64	1082.26
983.93	1081.33
984.22	1081.33
984.52	1076.18
984.81	1080.16
985.10	1079.92
985.39	1087.88
985.68	1088.35
985.97	1093.97
986.27	1094.43
986.56	1096.54
986.85	1097.01
987.14	1101.22
987.43	1096.78
987.72	1091.39
988.01	1081.80
988.31	1076.41
988.60	1068.92
988.89	1063.07
989.18	1061.90
989.47	1058.39
989.76	1059.79
990.05	1062.37
990.34	1069.39
990.63	1068.69
990.92	1072.20
991.21	1075.71
991.51	1075.71
991.80	1082.50
992.09	1086.48
992.38	1092.56
992.67	1085.07
992.96	1082.50
993.25	1081.80
993.54	1073.60
993.83	1073.37
994.12	1082.97
994.41	1078.75
994.70	1072.43
994.99	1073.84
995.28	1082.73
995.57	1079.69
995.86	1096.54
996.15	1094.43
996.44	1097.95
996.73	1089.05
997.02	1090.22
997.31	1077.11
997.59	1076.41
997.88	1075.94
998.17	1083.67
998.46	1086.24
998.75	1085.31
999.04	1093.73
999.33	1080.39
999.62	1074.54
999.91	1071.73
1000.20	1086.01
1000.49	1078.52
1000.77	1087.65
1001.06	1086.71
1001.35	1080.86
1001.64	1064.94
1001.93	1066.11
1002.22	1071.73
1002.51	1078.28
1002.79	1084.14
1003.08	1085.54
1003.37	1084.37
1003.66	1084.14
1003.95	1073.84
1004.23	1058.39
1004.52	1063.54
1004.81	1063.07
1005.10	1066.35
1005.39	1075.01
1005.67	1083.67
1005.96	1077.82
1006.25	1075.48
1006.54	1079.69
1006.83	1069.39
1007.11	1074.77
1007.40	1081.80
1007.69	1089.05
1007.97	1081.09
1008.26	1086.48
1008.55	1089.52
1008.84	1087.88
1009.12	1090.22
1009.41	1093.26
1009.70	1097.24
1009.98	1091.63
1010.27	1081.09
1010.56	1075.94
1010.85	1078.05
1011.13	1070.09
1011.42	1069.62
1011.71	1072.90
1011.99	1067.99
1012.28	1056.52
1012.56	1051.37
1012.85	1052.30
1013.14	1054.65
1013.42	1055.11
1013.71	1062.60
1014.00	1064.94
1014.28	1062.14
1014.57	1070.56
1014.85	1072.20
1015.14	1061.90
1015.43	1072.43
1015.71	1076.18
1016.00	1066.35
1016.28	1069.16
1016.57	1081.80
1016.85	1068.69
1017.14	1069.39
1017.43	1075.24
1017.71	1075.24
1018.00	1065.88
1018.28	1074.31
1018.57	1076.88
1018.85	1074.07
1019.14	1076.88
1019.42	1081.80
1019.71	1082.50
1019.99	1087.18
1020.28	1085.31
1020.56	1080.63
1020.85	1079.92
1021.13	1075.24
1021.42	1069.16
1021.70	1069.39
1021.99	1071.73
1022.27	1062.60
1022.55	1071.97
1022.84	1029.84
>>>>>End Processed Spectral Data<<<<<
