SpectraSuite Data File
++++++++++++++++++++++++++++++++++++
Date: Mon Aug 26 10:24:42 PDT 2019
User: corrico
Dark Spectrum Present: No
Reference Spectrum Present: No
Number of Sampled Component Spectra: 1
Spectrometers: USB2+H06089
Integration Time (usec): 10000 (USB2+H06089)
Spectra Averaged: 2 (USB2+H06089)
Boxcar Smoothing: 2 (USB2+H06089)
Correct for Electrical Dark: No (USB2+H06089)
Strobe/Lamp Enabled: No (USB2+H06089)
Correct for Detector Non-linearity: No (USB2+H06089)
Correct for Stray Light: No (USB2+H06089)
Number of Pixels in Processed Spectrum: 2048
>>>>>Begin Processed Spectral Data<<<<<
339.70	1006.43
340.07	1006.43
340.45	981.62
340.82	976.94
341.19	956.11
341.57	932.47
341.94	923.81
342.31	909.30
342.69	892.91
343.06	894.79
343.43	897.83
343.81	905.79
344.18	906.49
344.55	909.53
344.93	913.75
345.30	916.79
345.67	923.58
346.04	938.79
346.42	944.87
346.79	957.28
347.16	973.66
347.54	978.34
347.91	988.88
348.28	996.83
348.65	997.77
349.03	1008.07
349.40	1023.28
349.77	1024.92
350.14	1040.13
350.52	1050.67
350.89	1052.77
351.26	1057.22
351.63	1067.52
352.01	1068.92
352.38	1080.16
352.75	1078.75
353.12	1078.28
353.50	1086.24
353.87	1092.56
354.24	1086.71
354.61	1093.26
354.98	1088.82
355.36	1084.37
355.73	1084.84
356.10	1085.54
356.47	1089.75
356.84	1098.41
357.22	1103.09
357.59	1104.97
357.96	1105.20
358.33	1102.63
358.70	1103.09
359.08	1106.37
359.45	1107.31
359.82	1111.05
360.19	1104.03
360.56	1099.82
360.94	1090.22
361.31	1088.82
361.68	1083.67
362.05	1086.71
362.42	1096.31
362.79	1107.07
363.16	1097.48
363.54	1102.86
363.91	1099.35
364.28	1092.09
364.65	1078.99
365.02	1087.18
365.39	1079.69
365.76	1084.37
366.14	1083.20
366.51	1093.03
366.88	1093.26
367.25	1097.24
367.62	1098.18
367.99	1104.03
368.36	1100.99
368.73	1094.90
369.10	1092.80
369.48	1101.69
369.85	1099.35
370.22	1106.14
370.59	1115.27
370.96	1123.22
371.33	1111.99
371.70	1113.63
372.07	1105.67
372.44	1099.82
372.81	1090.46
373.18	1089.29
373.55	1080.63
373.93	1091.39
374.30	1084.14
374.67	1078.05
375.04	1078.05
375.41	1082.50
375.78	1075.94
376.15	1081.56
376.52	1096.31
376.89	1095.14
377.26	1094.90
377.63	1098.41
378.00	1102.16
378.37	1102.39
378.74	1111.05
379.11	1115.27
379.48	1106.84
379.85	1105.67
380.22	1104.50
380.59	1099.58
380.96	1098.65
381.33	1107.07
381.70	1115.50
382.07	1111.75
382.44	1111.75
382.81	1107.07
383.18	1094.67
383.55	1087.18
383.92	1095.60
384.29	1100.75
384.66	1104.97
385.03	1111.75
385.40	1112.69
385.77	1109.88
386.14	1110.12
386.51	1104.03
386.88	1111.29
387.25	1105.67
387.62	1102.16
387.99	1093.03
388.36	1101.46
388.73	1092.09
389.10	1111.29
389.46	1111.52
389.83	1121.35
390.20	1126.73
390.57	1141.25
390.94	1134.69
391.31	1133.29
391.68	1128.14
392.05	1125.33
392.42	1115.73
392.79	1108.71
393.16	1126.27
393.53	1131.88
393.89	1127.20
394.26	1130.24
394.63	1139.84
395.00	1128.14
395.37	1135.63
395.74	1141.95
396.11	1151.78
396.48	1161.37
396.84	1165.35
397.21	1168.40
397.58	1171.44
397.95	1161.84
398.32	1151.54
398.69	1153.65
399.06	1157.63
399.42	1169.10
399.79	1174.71
400.16	1174.71
400.53	1187.12
400.90	1197.89
401.27	1199.99
401.64	1206.08
402.00	1224.80
402.37	1243.53
402.74	1239.08
403.11	1250.08
403.48	1268.80
403.84	1268.57
404.21	1269.97
404.58	1289.64
404.95	1295.95
405.32	1309.53
405.68	1342.30
406.05	1363.60
406.42	1390.04
406.79	1411.34
407.16	1440.83
407.52	1471.26
407.89	1497.24
408.26	1533.05
408.63	1585.95
408.99	1627.61
409.36	1658.97
409.73	1697.36
410.10	1742.76
410.47	1795.19
410.83	1854.41
411.20	1930.71
411.57	2010.29
411.94	2067.86
412.30	2128.02
412.67	2198.23
413.04	2282.72
413.40	2379.39
413.77	2500.39
414.14	2636.38
414.51	2769.56
414.87	2904.14
415.24	3045.04
415.61	3201.85
415.97	3361.95
416.34	3544.04
416.71	3736.20
417.08	3937.95
417.44	4154.92
417.81	4374.70
418.18	4612.49
418.54	4870.65
418.91	5126.71
419.28	5391.42
419.64	5692.18
420.01	6014.47
420.38	6349.87
420.74	6717.10
421.11	7146.36
421.48	7566.25
421.84	8016.10
422.21	8452.38
422.58	8980.87
422.94	9475.19
423.31	9995.73
423.68	10552.31
424.04	11208.36
424.41	11827.66
424.77	12498.93
425.14	13198.51
425.51	13904.65
425.87	14653.39
426.24	15427.41
426.61	16299.26
426.97	17326.52
427.34	18295.03
427.70	19309.65
428.07	20349.79
428.44	21346.62
428.80	22342.29
429.17	23421.51
429.53	24537.71
429.90	25785.45
430.27	27003.23
430.63	28213.52
431.00	29546.45
431.36	30932.05
431.73	32142.58
432.09	33429.64
432.46	34714.83
432.83	36038.87
433.19	37330.84
433.56	38954.94
433.92	40581.14
434.29	42081.43
434.65	43439.87
435.02	44700.25
435.38	45814.82
435.75	46623.47
436.11	47809.89
436.48	48903.86
436.84	49983.78
437.21	50893.78
437.57	51898.80
437.94	52578.73
438.30	53179.08
438.67	53482.18
439.03	53694.00
439.40	53890.83
439.76	53728.40
440.13	53525.01
440.49	53564.33
440.86	53234.55
441.22	52848.59
441.59	52428.94
441.95	51947.02
442.32	50984.36
442.68	50230.24
443.05	49283.72
443.41	48307.49
443.78	47191.52
444.14	46202.41
444.51	44860.58
444.87	43856.02
445.24	42590.26
445.60	41414.84
445.96	40250.43
446.33	39514.09
446.69	38300.76
447.06	37399.42
447.42	36408.67
447.79	35193.93
448.15	34036.77
448.51	33087.45
448.88	32250.94
449.24	31199.11
449.61	30575.59
449.97	29838.09
450.33	29031.07
450.70	28085.02
451.06	27518.15
451.43	26749.98
451.79	26171.64
452.15	25629.80
452.52	25078.84
452.88	24479.19
453.24	23914.19
453.61	23185.81
453.97	22527.19
454.34	21838.37
454.70	21201.51
455.06	20600.93
455.43	19938.32
455.79	19209.48
456.15	18614.05
456.52	17945.59
456.88	17381.75
457.24	16762.21
457.61	16242.85
457.97	15693.76
458.33	15125.01
458.70	14525.36
459.06	14000.15
459.42	13548.66
459.79	13069.32
460.15	12688.04
460.51	12264.64
460.88	11858.79
461.24	11385.07
461.60	11053.41
461.96	10658.33
462.33	10313.80
462.69	9967.64
463.05	9694.26
463.42	9371.27
463.78	9102.81
464.14	8822.65
464.50	8594.45
464.87	8317.33
465.23	8060.57
465.59	7848.28
465.95	7643.02
466.32	7441.03
466.68	7252.62
467.04	7054.84
467.40	6863.39
467.77	6664.44
468.13	6470.65
468.49	6313.36
468.85	6184.87
469.22	6051.92
469.58	5931.39
469.94	5823.02
470.30	5693.12
470.66	5581.94
471.03	5435.89
471.39	5338.76
471.75	5221.03
472.11	5104.94
472.47	4994.70
472.84	4887.97
473.20	4766.74
473.56	4670.07
473.92	4564.51
474.28	4473.70
474.65	4390.14
475.01	4301.44
475.37	4215.77
475.73	4114.43
476.09	4018.47
476.45	3933.04
476.81	3836.37
477.18	3754.22
477.54	3704.60
477.90	3626.89
478.26	3561.13
478.62	3508.93
478.98	3439.65
479.34	3390.50
479.71	3347.67
480.07	3286.81
480.43	3225.49
480.79	3167.45
481.15	3128.13
481.51	3066.34
481.87	3017.42
482.23	2985.59
482.59	2924.73
482.96	2860.13
483.32	2814.26
483.68	2769.79
484.04	2728.83
484.40	2705.66
484.76	2655.81
485.12	2611.57
485.48	2580.67
485.84	2534.80
486.20	2506.01
486.56	2477.69
486.92	2458.73
487.28	2435.33
487.64	2398.35
488.00	2359.03
488.37	2330.00
488.73	2289.75
489.09	2246.91
489.45	2217.66
489.81	2179.74
490.17	2144.16
490.53	2124.74
490.89	2101.57
491.25	2078.86
491.61	2054.29
491.97	2033.46
492.33	1993.20
492.69	1965.35
493.05	1938.67
493.41	1911.98
493.77	1881.32
494.13	1855.11
494.49	1835.45
494.85	1807.60
495.21	1792.62
495.57	1780.68
495.93	1767.34
496.29	1738.08
496.64	1718.19
497.00	1701.34
497.36	1682.61
497.72	1675.12
498.08	1661.08
498.44	1650.55
498.80	1624.57
499.16	1602.80
499.52	1578.46
499.88	1569.56
500.24	1556.69
500.60	1553.18
500.96	1539.60
501.32	1523.45
501.68	1508.01
502.03	1490.45
502.39	1476.41
502.75	1461.90
503.11	1453.24
503.47	1438.96
503.83	1432.64
504.19	1427.02
504.55	1419.30
504.91	1407.13
505.26	1392.15
505.62	1381.38
505.98	1376.00
506.34	1364.77
506.70	1374.60
507.06	1386.07
507.42	1383.72
507.78	1373.66
508.13	1369.92
508.49	1364.53
508.85	1350.96
509.21	1333.40
509.57	1320.30
509.93	1313.98
510.28	1286.36
510.64	1272.78
511.00	1263.42
511.36	1268.34
511.72	1278.40
512.07	1280.51
512.43	1280.98
512.79	1292.44
513.15	1276.29
513.51	1260.85
513.86	1263.66
514.22	1256.17
514.58	1247.51
514.94	1251.25
515.30	1237.68
515.65	1225.50
516.01	1217.55
516.37	1208.42
516.73	1210.29
517.08	1216.14
517.44	1215.44
517.80	1211.93
518.16	1199.52
518.51	1192.74
518.87	1185.01
519.23	1186.42
519.59	1194.14
519.94	1213.33
520.30	1194.84
520.66	1198.35
521.01	1187.12
521.37	1181.27
521.73	1169.57
522.09	1176.59
522.44	1177.29
522.80	1177.29
523.16	1176.82
523.51	1175.89
523.87	1181.50
524.23	1173.78
524.58	1177.06
524.94	1177.06
525.30	1185.95
525.65	1187.12
526.01	1187.35
526.37	1184.55
526.72	1177.29
527.08	1171.67
527.44	1175.42
527.79	1171.20
528.15	1167.23
528.51	1168.16
528.86	1159.74
529.22	1154.35
529.58	1144.52
529.93	1144.05
530.29	1139.61
530.65	1144.99
531.00	1136.10
531.36	1146.39
531.71	1139.61
532.07	1133.52
532.43	1127.90
532.78	1130.01
533.14	1122.29
533.49	1121.35
533.85	1138.20
534.21	1138.44
534.56	1133.99
534.92	1142.18
535.27	1146.63
535.63	1136.10
535.98	1139.84
536.34	1142.65
536.69	1133.76
537.05	1130.71
537.41	1128.61
537.76	1123.69
538.12	1115.03
538.47	1117.37
538.83	1130.01
539.18	1133.76
539.54	1129.31
539.89	1122.52
540.25	1120.88
540.60	1112.69
540.96	1111.99
541.31	1116.44
541.67	1125.80
542.02	1128.61
542.38	1125.56
542.73	1127.44
543.09	1126.27
543.44	1132.12
543.80	1138.90
544.15	1148.73
544.51	1152.95
544.86	1154.35
545.22	1159.27
545.57	1154.12
545.93	1144.76
546.28	1140.78
546.64	1141.95
546.99	1133.52
547.35	1134.93
547.70	1130.71
548.05	1120.41
548.41	1115.97
548.76	1119.01
549.12	1116.67
549.47	1124.86
549.83	1117.61
550.18	1119.01
550.53	1113.39
550.89	1115.27
551.24	1110.82
551.60	1124.63
551.95	1132.12
552.30	1128.14
552.66	1122.99
553.01	1126.03
553.37	1130.71
553.72	1122.99
554.07	1133.05
554.43	1133.76
554.78	1131.18
555.13	1132.12
555.49	1136.33
555.84	1143.82
556.19	1148.03
556.55	1146.86
556.90	1132.82
557.26	1129.54
557.61	1115.03
557.96	1110.35
558.32	1113.86
558.67	1115.73
559.02	1120.41
559.37	1119.71
559.73	1123.69
560.08	1124.86
560.43	1125.10
560.79	1116.20
561.14	1120.65
561.49	1109.88
561.85	1094.67
562.20	1097.01
562.55	1097.48
562.90	1091.39
563.26	1095.14
563.61	1096.07
563.96	1097.01
564.32	1091.86
564.67	1096.78
565.02	1103.56
565.37	1111.05
565.73	1112.46
566.08	1119.01
566.43	1118.31
566.78	1112.92
567.14	1115.73
567.49	1113.39
567.84	1111.05
568.19	1118.78
568.54	1119.01
568.90	1121.35
569.25	1123.46
569.60	1119.71
569.95	1112.69
570.31	1110.12
570.66	1101.22
571.01	1099.58
571.36	1111.99
571.71	1103.56
572.06	1104.97
572.42	1121.35
572.77	1135.86
573.12	1125.10
573.47	1133.29
573.82	1134.69
574.18	1123.22
574.53	1104.26
574.88	1107.07
575.23	1100.75
575.58	1111.99
575.93	1114.33
576.28	1107.31
576.64	1101.92
576.99	1102.39
577.34	1093.26
577.69	1087.41
578.04	1091.63
578.39	1105.67
578.74	1101.46
579.09	1096.54
579.44	1101.69
579.80	1118.54
580.15	1114.80
580.50	1115.73
580.85	1116.20
581.20	1112.92
581.55	1113.86
581.90	1111.52
582.25	1116.44
582.60	1116.44
582.95	1120.18
583.30	1112.46
583.65	1107.31
584.00	1105.20
584.35	1112.92
584.71	1113.39
585.06	1114.80
585.41	1110.12
585.76	1121.82
586.11	1114.10
586.46	1115.27
586.81	1107.07
587.16	1113.63
587.51	1107.07
587.86	1113.63
588.21	1109.88
588.56	1125.56
588.91	1128.61
589.26	1131.41
589.61	1121.82
589.96	1115.27
590.31	1100.52
590.66	1097.95
591.01	1089.52
591.36	1094.20
591.71	1097.24
592.06	1105.90
592.41	1105.67
592.76	1110.58
593.10	1105.67
593.45	1098.41
593.80	1086.71
594.15	1084.84
594.50	1077.58
594.85	1080.86
595.20	1087.65
595.55	1100.99
595.90	1105.20
596.25	1106.37
596.60	1116.20
596.95	1118.78
597.30	1106.61
597.64	1156.93
597.99	1158.10
598.34	1151.08
598.69	1146.63
599.04	1151.31
599.39	1093.50
599.74	1103.80
600.09	1110.58
600.44	1108.24
600.78	1114.10
601.13	1123.69
601.48	1109.88
601.83	1104.26
602.18	1108.24
602.53	1104.50
602.88	1108.71
603.22	1118.54
603.57	1128.37
603.92	1136.80
604.27	1124.63
604.62	1108.24
604.97	1108.71
605.31	1104.50
605.66	1104.50
606.01	1111.99
606.36	1124.63
606.71	1122.52
607.05	1115.73
607.40	1105.90
607.75	1104.03
608.10	1089.52
608.44	1091.16
608.79	1073.60
609.14	1081.56
609.49	1088.58
609.84	1100.29
610.18	1097.95
610.53	1110.12
610.88	1114.80
611.23	1102.39
611.57	1101.69
611.92	1096.54
612.27	1095.37
612.62	1076.88
612.96	1076.18
613.31	1077.11
613.66	1080.16
614.00	1082.97
614.35	1098.88
614.70	1101.92
615.05	1097.24
615.39	1100.05
615.74	1108.48
616.09	1099.12
616.43	1105.90
616.78	1108.48
617.13	1112.92
617.47	1105.44
617.82	1105.44
618.17	1102.39
618.51	1101.69
618.86	1097.48
619.21	1098.88
619.55	1100.29
619.90	1100.99
620.25	1099.58
620.59	1093.97
620.94	1094.67
621.29	1102.39
621.63	1107.54
621.98	1099.35
622.32	1097.71
622.67	1092.33
623.02	1082.26
623.36	1073.37
623.71	1085.77
624.05	1088.12
624.40	1097.48
624.75	1105.67
625.09	1115.50
625.44	1115.27
625.78	1117.14
626.13	1115.97
626.48	1104.50
626.82	1100.29
627.17	1097.01
627.51	1092.80
627.86	1080.39
628.20	1081.56
628.55	1067.99
628.89	1074.07
629.24	1081.56
629.58	1094.20
629.93	1098.41
630.28	1119.48
630.62	1112.69
630.97	1112.22
631.31	1117.37
631.66	1119.01
632.00	1108.24
632.35	1107.07
632.69	1099.58
633.04	1090.22
633.38	1091.16
633.73	1084.60
634.07	1093.50
634.42	1104.50
634.76	1096.31
635.11	1092.56
635.45	1096.31
635.79	1080.39
636.14	1069.86
636.48	1070.33
636.83	1071.97
637.17	1075.94
637.52	1086.24
637.86	1091.63
638.21	1096.07
638.55	1095.60
638.89	1097.48
639.24	1095.37
639.58	1099.82
639.93	1089.99
640.27	1082.73
640.61	1086.24
640.96	1093.50
641.30	1093.50
641.65	1115.97
641.99	1125.80
642.33	1122.05
642.68	1108.95
643.02	1096.31
643.37	1084.14
643.71	1078.99
644.05	1079.46
644.40	1086.24
644.74	1091.86
645.08	1089.52
645.43	1095.60
645.77	1095.84
646.11	1086.94
646.46	1087.88
646.80	1090.92
647.14	1084.60
647.49	1081.56
647.83	1080.86
648.17	1081.80
648.52	1077.58
648.86	1081.56
649.20	1078.52
649.55	1094.43
649.89	1089.05
650.23	1096.31
650.57	1100.52
650.92	1099.82
651.26	1089.05
651.60	1096.07
651.95	1089.75
652.29	1088.82
652.63	1092.56
652.97	1093.03
653.32	1086.24
653.66	1091.63
654.00	1081.80
654.34	1086.24
654.69	1080.16
655.03	1089.52
655.37	1098.88
655.71	1111.99
656.05	1114.33
656.40	1117.61
656.74	1107.31
657.08	1096.54
657.42	1087.88
657.76	1080.63
658.11	1087.65
658.45	1092.33
658.79	1091.39
659.13	1097.01
659.47	1096.78
659.82	1097.01
660.16	1103.80
660.50	1108.95
660.84	1099.82
661.18	1100.05
661.52	1097.48
661.87	1090.92
662.21	1081.80
662.55	1093.50
662.89	1092.09
663.23	1082.73
663.57	1085.77
663.91	1081.56
664.25	1069.39
664.60	1080.86
664.94	1090.92
665.28	1085.07
665.62	1092.33
665.96	1099.58
666.30	1080.39
666.64	1086.94
666.98	1091.63
667.32	1083.43
667.66	1077.82
668.01	1085.54
668.35	1077.82
668.69	1081.56
669.03	1088.12
669.37	1102.16
669.71	1106.84
670.05	1117.14
670.39	1111.05
670.73	1119.48
671.07	1111.52
671.41	1105.20
671.75	1097.71
672.09	1096.78
672.43	1087.88
672.77	1084.60
673.11	1089.75
673.45	1087.65
673.79	1090.46
674.13	1093.73
674.47	1097.01
674.81	1096.78
675.15	1096.07
675.49	1090.22
675.83	1089.52
676.17	1084.14
676.51	1084.60
676.85	1090.46
677.19	1096.31
677.53	1098.88
677.87	1101.46
678.21	1093.73
678.55	1083.43
678.89	1080.63
679.23	1080.63
679.57	1080.86
679.90	1089.99
680.24	1101.69
680.58	1099.82
680.92	1098.65
681.26	1096.78
681.60	1089.52
681.94	1087.18
682.28	1095.84
682.62	1090.69
682.96	1085.07
683.29	1086.24
683.63	1082.73
683.97	1082.97
684.31	1086.48
684.65	1088.82
684.99	1090.69
685.33	1088.58
685.67	1078.99
686.00	1072.20
686.34	1070.80
686.68	1067.28
687.02	1071.97
687.36	1075.24
687.70	1083.90
688.03	1095.14
688.37	1101.92
688.71	1093.26
689.05	1086.48
689.39	1088.58
689.72	1078.99
690.06	1075.24
690.40	1077.58
690.74	1072.67
691.08	1076.18
691.41	1077.11
691.75	1075.71
692.09	1080.39
692.43	1093.03
692.76	1093.26
693.10	1091.63
693.44	1091.39
693.78	1089.52
694.11	1088.58
694.45	1085.31
694.79	1081.80
695.13	1082.97
695.46	1089.75
695.80	1093.73
696.14	1083.43
696.48	1093.50
696.81	1096.54
697.15	1087.88
697.49	1079.46
697.82	1083.67
698.16	1083.90
698.50	1081.80
698.83	1079.22
699.17	1087.88
699.51	1088.82
699.84	1083.20
700.18	1081.09
700.52	1088.35
700.85	1086.94
701.19	1094.90
701.53	1090.22
701.86	1089.29
702.20	1077.82
702.54	1073.84
702.87	1062.37
703.21	1063.54
703.55	1063.07
703.88	1068.69
704.22	1064.94
704.55	1077.82
704.89	1080.16
705.23	1085.31
705.56	1082.26
705.90	1088.82
706.23	1083.43
706.57	1093.03
706.91	1095.14
707.24	1092.33
707.58	1094.20
707.91	1087.65
708.25	1081.33
708.58	1071.50
708.92	1085.31
709.26	1076.88
709.59	1077.82
709.93	1083.20
710.26	1080.39
710.60	1077.11
710.93	1086.94
711.27	1091.16
711.60	1080.86
711.94	1085.07
712.27	1077.58
712.61	1073.14
712.94	1058.16
713.28	1063.54
713.61	1065.41
713.95	1066.58
714.28	1065.88
714.62	1091.16
714.95	1086.24
715.29	1086.48
715.62	1090.92
715.96	1089.99
716.29	1074.07
716.63	1076.88
716.96	1079.69
717.29	1076.65
717.63	1072.67
717.96	1087.88
718.30	1086.94
718.63	1085.54
718.97	1092.80
719.30	1099.82
719.63	1080.39
719.97	1083.43
720.30	1086.24
720.64	1073.37
720.97	1067.75
721.30	1079.46
721.64	1080.16
721.97	1085.31
722.31	1092.80
722.64	1097.24
722.97	1088.35
723.31	1088.58
723.64	1081.80
723.97	1080.63
724.31	1071.50
724.64	1079.92
724.98	1082.73
725.31	1080.39
725.64	1079.69
725.98	1093.03
726.31	1094.43
726.64	1089.29
726.97	1102.16
727.31	1108.01
727.64	1097.24
727.97	1104.26
728.31	1109.18
728.64	1090.92
728.97	1089.05
729.31	1093.97
729.64	1081.80
729.97	1083.67
730.30	1088.35
730.64	1085.31
730.97	1089.29
731.30	1088.35
731.63	1080.16
731.97	1078.99
732.30	1078.05
732.63	1064.94
732.96	1052.54
733.30	1047.39
733.63	1043.64
733.96	1041.30
734.29	1050.43
734.63	1070.56
734.96	1074.07
735.29	1086.01
735.62	1091.86
735.95	1086.71
736.29	1066.58
736.62	1063.54
736.95	1060.96
737.28	1059.56
737.61	1062.37
737.94	1082.73
738.28	1089.75
738.61	1089.05
738.94	1089.52
739.27	1087.88
739.60	1086.71
739.93	1090.22
740.27	1086.01
740.60	1089.75
740.93	1100.75
741.26	1087.18
741.59	1072.20
741.92	1069.86
742.25	1058.62
742.58	1041.30
742.91	1055.11
743.25	1063.54
743.58	1065.18
743.91	1069.39
744.24	1072.43
744.57	1073.14
744.90	1076.41
745.23	1070.80
745.56	1064.71
745.89	1071.26
746.22	1072.43
746.55	1065.65
746.88	1077.11
747.21	1090.69
747.54	1088.35
747.87	1082.73
748.20	1084.37
748.53	1090.92
748.87	1084.37
749.20	1089.05
749.53	1083.43
749.86	1090.92
750.19	1085.31
750.52	1079.69
750.85	1076.18
751.18	1075.94
751.51	1062.60
751.84	1059.09
752.16	1070.80
752.49	1064.48
752.82	1075.01
753.15	1084.84
753.48	1086.94
753.81	1092.56
754.14	1094.20
754.47	1090.69
754.80	1086.01
755.13	1079.46
755.46	1065.65
755.79	1084.37
756.12	1097.01
756.45	1108.24
756.78	1112.46
757.11	1116.67
757.43	1097.24
757.76	1080.39
758.09	1082.73
758.42	1080.63
758.75	1083.43
759.08	1080.86
759.41	1084.14
759.74	1078.99
760.07	1081.80
760.39	1078.99
760.72	1086.94
761.05	1084.60
761.38	1079.69
761.71	1080.39
762.04	1082.26
762.36	1076.88
762.69	1073.14
763.02	1073.60
763.35	1076.41
763.68	1066.58
764.01	1073.14
764.33	1071.26
764.66	1078.99
764.99	1076.18
765.32	1091.16
765.65	1090.46
765.97	1096.31
766.30	1086.94
766.63	1087.18
766.96	1076.41
767.28	1079.22
767.61	1072.67
767.94	1078.99
768.27	1076.18
768.59	1076.41
768.92	1072.43
769.25	1084.84
769.58	1084.84
769.90	1086.94
770.23	1082.26
770.56	1088.12
770.89	1080.39
771.21	1079.92
771.54	1081.09
771.87	1091.86
772.19	1086.01
772.52	1081.09
772.85	1069.39
773.17	1071.03
773.50	1070.09
773.83	1070.80
774.15	1081.80
774.48	1084.60
774.81	1075.94
775.13	1062.60
775.46	1055.58
775.79	1053.71
776.11	1064.24
776.44	1073.84
776.77	1074.31
777.09	1080.16
777.42	1072.43
777.74	1064.94
778.07	1065.65
778.40	1077.11
778.72	1081.56
779.05	1085.31
779.37	1081.09
779.70	1073.14
780.03	1064.01
780.35	1064.94
780.68	1063.07
781.00	1072.43
781.33	1078.75
781.65	1079.46
781.98	1074.31
782.31	1084.84
782.63	1077.82
782.96	1070.09
783.28	1076.88
783.61	1073.60
783.93	1080.16
784.26	1080.63
784.58	1094.90
784.91	1092.56
785.23	1095.14
785.56	1078.28
785.88	1085.31
786.21	1079.22
786.53	1087.18
786.86	1093.97
787.18	1098.88
787.51	1096.07
787.83	1093.97
788.16	1083.67
788.48	1076.88
788.81	1069.16
789.13	1067.99
789.46	1061.67
789.78	1072.67
790.10	1070.09
790.43	1073.60
790.75	1076.88
791.08	1074.77
791.40	1069.39
791.73	1076.88
792.05	1079.69
792.37	1071.97
792.70	1076.65
793.02	1083.67
793.35	1089.52
793.67	1093.26
793.99	1099.35
794.32	1101.46
794.64	1090.46
794.96	1083.43
795.29	1078.99
795.61	1078.52
795.93	1083.20
796.26	1081.80
796.58	1081.33
796.91	1080.39
797.23	1082.97
797.55	1073.60
797.87	1078.28
798.20	1072.67
798.52	1066.58
798.84	1060.26
799.17	1067.75
799.49	1069.62
799.81	1072.90
800.14	1075.24
800.46	1079.92
800.78	1077.58
801.10	1072.43
801.43	1070.56
801.75	1075.94
802.07	1077.58
802.40	1076.18
802.72	1079.92
803.04	1080.16
803.36	1077.82
803.69	1078.52
804.01	1076.65
804.33	1073.14
804.65	1068.69
804.97	1064.24
805.30	1069.62
805.62	1078.28
805.94	1076.41
806.26	1081.09
806.58	1084.60
806.91	1071.73
807.23	1050.20
807.55	1053.01
807.87	1055.35
808.19	1064.48
808.52	1072.43
808.84	1092.80
809.16	1096.31
809.48	1099.82
809.80	1098.88
810.12	1099.35
810.44	1091.86
810.77	1089.29
811.09	1087.18
811.41	1081.56
811.73	1077.82
812.05	1077.82
812.37	1068.92
812.69	1066.35
813.01	1067.75
813.33	1063.77
813.66	1070.56
813.98	1078.28
814.30	1081.56
814.62	1078.28
814.94	1081.56
815.26	1072.20
815.58	1068.22
815.90	1055.35
816.22	1057.92
816.54	1053.24
816.86	1055.82
817.18	1065.88
817.50	1075.71
817.82	1083.67
818.14	1091.63
818.46	1090.92
818.78	1085.77
819.10	1094.20
819.42	1079.22
819.74	1080.16
820.06	1085.54
820.38	1090.22
820.70	1084.84
821.02	1088.12
821.34	1095.14
821.66	1093.97
821.98	1088.82
822.30	1085.31
822.62	1080.16
822.94	1064.71
823.26	1058.62
823.58	1058.86
823.90	1065.88
824.22	1077.35
824.54	1080.39
824.86	1074.07
825.18	1068.92
825.50	1067.99
825.81	1066.35
826.13	1068.92
826.45	1075.71
826.77	1085.07
827.09	1080.16
827.41	1081.33
827.73	1077.82
828.05	1074.77
828.36	1074.07
828.68	1064.94
829.00	1060.50
829.32	1055.58
829.64	1063.31
829.96	1070.09
830.28	1085.54
830.59	1088.58
830.91	1092.56
831.23	1087.65
831.55	1084.14
831.87	1075.48
832.19	1071.73
832.50	1077.11
832.82	1085.77
833.14	1083.90
833.46	1088.58
833.78	1095.84
834.09	1101.22
834.41	1104.50
834.73	1095.14
835.05	1097.95
835.36	1089.52
835.68	1087.88
836.00	1079.46
836.32	1090.69
836.63	1085.54
836.95	1087.41
837.27	1087.65
837.59	1091.63
837.90	1084.37
838.22	1089.52
838.54	1090.22
838.85	1082.50
839.17	1075.24
839.49	1081.80
839.80	1075.01
840.12	1076.88
840.44	1082.73
840.76	1082.03
841.07	1075.94
841.39	1087.18
841.71	1084.37
842.02	1078.75
842.34	1080.86
842.65	1083.43
842.97	1071.97
843.29	1078.52
843.60	1083.90
843.92	1087.88
844.24	1098.65
844.55	1096.54
844.87	1093.50
845.18	1088.82
845.50	1086.48
845.82	1071.73
846.13	1067.99
846.45	1070.33
846.76	1062.60
847.08	1056.75
847.40	1056.99
847.71	1061.20
848.03	1054.88
848.34	1067.28
848.66	1071.97
848.97	1073.37
849.29	1076.88
849.60	1080.63
849.92	1080.86
850.24	1081.33
850.55	1081.33
850.87	1076.18
851.18	1072.67
851.50	1077.11
851.81	1083.90
852.13	1084.37
852.44	1088.82
852.76	1087.88
853.07	1085.07
853.39	1086.48
853.70	1087.18
854.01	1083.43
854.33	1082.97
854.64	1076.65
854.96	1068.69
855.27	1067.52
855.59	1067.05
855.90	1070.33
856.22	1070.80
856.53	1069.39
856.84	1071.73
857.16	1075.01
857.47	1071.03
857.79	1072.67
858.10	1076.41
858.41	1062.60
858.73	1070.80
859.04	1069.39
859.36	1066.58
859.67	1057.92
859.98	1066.82
860.30	1060.26
860.61	1062.14
860.92	1069.16
861.24	1079.92
861.55	1081.09
861.87	1071.73
862.18	1075.48
862.49	1068.69
862.81	1069.62
863.12	1076.18
863.43	1076.65
863.74	1075.94
864.06	1079.22
864.37	1072.43
864.68	1062.37
865.00	1068.69
865.31	1073.37
865.62	1072.67
865.94	1080.16
866.25	1088.12
866.56	1089.99
866.87	1083.20
867.19	1082.03
867.50	1075.24
867.81	1071.73
868.12	1077.82
868.44	1078.05
868.75	1078.05
869.06	1075.94
869.37	1079.22
869.68	1088.35
870.00	1092.33
870.31	1106.14
870.62	1113.86
870.93	1106.61
871.24	1092.56
871.56	1085.31
871.87	1077.35
872.18	1076.18
872.49	1088.82
872.80	1086.71
873.12	1095.37
873.43	1095.84
873.74	1090.46
874.05	1080.63
874.36	1088.12
874.67	1092.80
874.98	1089.99
875.29	1093.97
875.61	1092.09
875.92	1083.43
876.23	1070.56
876.54	1057.69
876.85	1049.96
877.16	1055.11
877.47	1060.96
877.78	1075.71
878.09	1082.03
878.40	1087.41
878.72	1093.03
879.03	1092.56
879.34	1081.09
879.65	1085.77
879.96	1092.33
880.27	1088.58
880.58	1088.35
880.89	1076.88
881.20	1068.92
881.51	1068.69
881.82	1071.03
882.13	1066.35
882.44	1084.84
882.75	1089.75
883.06	1093.50
883.37	1083.90
883.68	1081.33
883.99	1074.77
884.30	1075.71
884.61	1060.50
884.92	1068.45
885.23	1081.56
885.54	1076.88
885.85	1079.92
886.16	1088.35
886.47	1075.01
886.78	1066.35
887.08	1064.94
887.39	1064.71
887.70	1050.43
888.01	1053.24
888.32	1050.43
888.63	1050.90
888.94	1044.35
889.25	1052.54
889.56	1060.03
889.87	1073.84
890.17	1076.88
890.48	1081.80
890.79	1081.56
891.10	1090.46
891.41	1085.77
891.72	1090.22
892.03	1093.97
892.34	1103.33
892.64	1088.82
892.95	1086.94
893.26	1078.05
893.57	1078.52
893.88	1073.14
894.18	1080.39
894.49	1074.07
894.80	1078.75
895.11	1074.31
895.42	1078.28
895.72	1070.09
896.03	1081.09
896.34	1086.24
896.65	1083.20
896.96	1082.03
897.26	1081.33
897.57	1076.18
897.88	1063.77
898.19	1074.07
898.49	1073.60
898.80	1074.77
899.11	1079.22
899.41	1092.33
899.72	1087.41
900.03	1090.69
900.34	1093.73
900.64	1081.33
900.95	1089.05
901.26	1078.99
901.56	1081.56
901.87	1083.20
902.18	1091.63
902.48	1080.16
902.79	1085.54
903.10	1079.69
903.40	1080.16
903.71	1067.28
904.02	1074.07
904.32	1073.60
904.63	1068.69
904.94	1070.33
905.24	1089.29
905.55	1085.31
905.85	1090.69
906.16	1089.05
906.47	1084.60
906.77	1077.82
907.08	1067.99
907.38	1065.88
907.69	1065.18
908.00	1069.62
908.30	1072.43
908.61	1078.52
908.91	1078.99
909.22	1091.39
909.52	1093.26
909.83	1091.86
910.14	1094.67
910.44	1093.03
910.75	1089.75
911.05	1082.73
911.36	1073.84
911.66	1073.14
911.97	1069.62
912.27	1069.39
912.58	1077.58
912.88	1085.07
913.19	1094.67
913.49	1096.78
913.80	1082.03
914.10	1082.50
914.41	1075.71
914.71	1057.45
915.01	1059.33
915.32	1060.50
915.62	1064.48
915.93	1073.37
916.23	1081.33
916.54	1079.46
916.84	1089.52
917.15	1079.92
917.45	1080.39
917.75	1078.05
918.06	1073.37
918.36	1066.11
918.67	1067.28
918.97	1064.01
919.27	1066.11
919.58	1079.92
919.88	1087.18
920.18	1086.48
920.49	1084.14
920.79	1086.24
921.10	1087.41
921.40	1088.58
921.70	1087.88
922.01	1077.58
922.31	1083.43
922.61	1074.07
922.92	1057.45
923.22	1063.31
923.52	1063.31
923.82	1047.62
924.13	1046.45
924.43	1059.56
924.73	1052.07
925.04	1065.65
925.34	1075.94
925.64	1072.20
925.94	1074.07
926.25	1081.09
926.55	1069.62
926.85	1066.35
927.15	1072.20
927.46	1069.16
927.76	1067.28
928.06	1080.16
928.36	1080.86
928.67	1075.24
928.97	1078.05
929.27	1072.20
929.57	1068.22
929.87	1064.01
930.18	1068.45
930.48	1071.03
930.78	1080.16
931.08	1080.16
931.38	1097.71
931.69	1094.43
931.99	1097.95
932.29	1092.33
932.59	1094.67
932.89	1082.50
933.19	1091.63
933.49	1089.29
933.80	1090.92
934.10	1090.69
934.40	1089.75
934.70	1085.54
935.00	1078.75
935.30	1075.71
935.60	1077.11
935.90	1072.67
936.20	1077.58
936.50	1077.82
936.81	1077.82
937.11	1070.09
937.41	1082.03
937.71	1078.28
938.01	1081.56
938.31	1085.31
938.61	1087.88
938.91	1067.75
939.21	1076.18
939.51	1073.37
939.81	1071.26
940.11	1067.52
940.41	1087.18
940.71	1067.99
941.01	1076.65
941.31	1075.01
941.61	1079.92
941.91	1071.97
942.21	1081.09
942.51	1071.50
942.81	1069.39
943.11	1069.62
943.41	1066.82
943.71	1067.52
944.01	1069.62
944.31	1068.92
944.61	1069.86
944.90	1070.80
945.20	1062.60
945.50	1060.03
945.80	1065.18
946.10	1077.58
946.40	1086.71
946.70	1092.80
947.00	1101.92
947.30	1105.44
947.60	1094.43
947.89	1091.39
948.19	1095.14
948.49	1085.07
948.79	1078.05
949.09	1070.33
949.39	1065.88
949.69	1060.26
949.98	1064.24
950.28	1067.75
950.58	1074.31
950.88	1084.37
951.18	1097.95
951.48	1111.29
951.77	1113.39
952.07	1116.90
952.37	1110.12
952.67	1098.41
952.97	1083.67
953.26	1085.07
953.56	1079.22
953.86	1080.86
954.16	1076.88
954.45	1078.75
954.75	1070.33
955.05	1066.58
955.35	1065.65
955.64	1067.05
955.94	1073.14
956.24	1077.82
956.54	1073.84
956.83	1070.80
957.13	1078.52
957.43	1075.01
957.72	1068.69
958.02	1073.84
958.32	1068.92
958.61	1068.22
958.91	1060.96
959.21	1078.75
959.50	1087.65
959.80	1092.80
960.10	1088.58
960.39	1089.05
960.69	1071.03
960.99	1066.82
961.28	1059.79
961.58	1061.20
961.87	1072.90
962.17	1078.28
962.47	1082.03
962.76	1082.73
963.06	1080.16
963.36	1072.43
963.65	1073.37
963.95	1066.11
964.24	1080.63
964.54	1077.82
964.83	1079.69
965.13	1081.80
965.42	1078.99
965.72	1075.24
966.02	1086.24
966.31	1086.24
966.61	1088.35
966.90	1098.18
967.20	1089.05
967.49	1083.43
967.79	1084.60
968.08	1081.56
968.38	1070.80
968.67	1082.97
968.97	1075.94
969.26	1075.71
969.56	1063.77
969.85	1072.20
970.15	1061.20
970.44	1068.92
970.74	1063.07
971.03	1068.45
971.32	1068.22
971.62	1077.11
971.91	1079.92
972.21	1089.99
972.50	1096.54
972.80	1104.26
973.09	1100.52
973.38	1095.84
973.68	1096.07
973.97	1100.29
974.27	1089.75
974.56	1083.90
974.85	1087.41
975.15	1080.39
975.44	1067.28
975.73	1064.71
976.03	1071.97
976.32	1069.16
976.61	1065.88
976.91	1072.43
977.20	1072.43
977.49	1065.65
977.79	1060.03
978.08	1068.45
978.37	1072.43
978.67	1068.22
978.96	1070.09
979.25	1073.37
979.55	1068.92
979.84	1067.75
980.13	1078.75
980.42	1084.37
980.72	1081.56
981.01	1080.86
981.30	1078.99
981.59	1076.88
981.89	1070.33
982.18	1079.69
982.47	1068.69
982.76	1066.82
983.06	1067.99
983.35	1067.99
983.64	1071.97
983.93	1081.33
984.22	1082.50
984.52	1082.97
984.81	1097.01
985.10	1089.75
985.39	1091.86
985.68	1089.99
985.97	1086.24
986.27	1072.90
986.56	1082.50
986.85	1083.67
987.14	1083.67
987.43	1082.50
987.72	1081.80
988.01	1070.33
988.31	1069.16
988.60	1067.99
988.89	1064.94
989.18	1069.16
989.47	1072.67
989.76	1071.73
990.05	1076.18
990.34	1081.33
990.63	1074.31
990.92	1076.41
991.21	1077.11
991.51	1076.41
991.80	1071.73
992.09	1080.16
992.38	1076.18
992.67	1071.26
992.96	1070.33
993.25	1082.03
993.54	1077.82
993.83	1071.26
994.12	1078.28
994.41	1071.97
994.70	1061.67
994.99	1064.94
995.28	1070.80
995.57	1066.82
995.86	1078.75
996.15	1081.09
996.44	1068.92
996.73	1070.09
997.02	1075.01
997.31	1067.99
997.59	1072.43
997.88	1079.46
998.17	1077.11
998.46	1067.75
998.75	1067.05
999.04	1058.39
999.33	1061.90
999.62	1075.71
999.91	1076.65
1000.20	1074.77
1000.49	1072.90
1000.77	1073.84
1001.06	1063.77
1001.35	1065.41
1001.64	1065.18
1001.93	1074.31
1002.22	1077.11
1002.51	1085.07
1002.79	1091.63
1003.08	1104.50
1003.37	1099.12
1003.66	1097.01
1003.95	1076.65
1004.23	1076.41
1004.52	1075.01
1004.81	1079.69
1005.10	1076.65
1005.39	1089.99
1005.67	1080.86
1005.96	1077.35
1006.25	1080.39
1006.54	1081.33
1006.83	1070.09
1007.11	1072.90
1007.40	1067.99
1007.69	1069.16
1007.97	1068.22
1008.26	1088.35
1008.55	1090.92
1008.84	1095.84
1009.12	1090.46
1009.41	1093.03
1009.70	1077.82
1009.98	1086.24
1010.27	1082.97
1010.56	1083.43
1010.85	1091.63
1011.13	1103.80
1011.42	1094.43
1011.71	1093.03
1011.99	1098.18
1012.28	1092.09
1012.56	1077.82
1012.85	1077.58
1013.14	1086.48
1013.42	1077.82
1013.71	1066.82
1014.00	1071.03
1014.28	1072.90
1014.57	1064.01
1014.85	1066.35
1015.14	1083.67
1015.43	1086.48
1015.71	1085.07
1016.00	1085.77
1016.28	1087.65
1016.57	1074.07
1016.85	1067.28
1017.14	1069.62
1017.43	1076.18
1017.71	1073.14
1018.00	1087.41
1018.28	1091.39
1018.57	1091.16
1018.85	1087.88
1019.14	1082.73
1019.42	1068.22
1019.71	1074.07
1019.99	1076.88
1020.28	1076.88
1020.56	1084.37
1020.85	1072.90
1021.13	1066.58
1021.42	1061.43
1021.70	1065.65
1021.99	1059.33
1022.27	1072.20
1022.55	1049.73
1022.84	1060.26
>>>>>End Processed Spectral Data<<<<<
