SpectraSuite Data File
++++++++++++++++++++++++++++++++++++
Date: Mon Aug 26 10:24:44 PDT 2019
User: corrico
Dark Spectrum Present: No
Reference Spectrum Present: No
Number of Sampled Component Spectra: 1
Spectrometers: USB2+H06089
Integration Time (usec): 10000 (USB2+H06089)
Spectra Averaged: 2 (USB2+H06089)
Boxcar Smoothing: 2 (USB2+H06089)
Correct for Electrical Dark: No (USB2+H06089)
Strobe/Lamp Enabled: No (USB2+H06089)
Correct for Detector Non-linearity: No (USB2+H06089)
Correct for Stray Light: No (USB2+H06089)
Number of Pixels in Processed Spectrum: 2048
>>>>>Begin Processed Spectral Data<<<<<
339.70	1049.73
340.07	1049.73
340.45	1011.58
340.82	988.88
341.19	964.77
341.57	935.04
341.94	924.98
342.31	912.11
342.69	900.87
343.06	892.45
343.43	888.94
343.81	891.28
344.18	899.47
344.55	908.60
344.93	923.34
345.30	938.32
345.67	932.47
346.04	941.13
346.42	954.94
346.79	959.15
347.16	966.41
347.54	986.54
347.91	992.15
348.28	994.96
348.65	1006.43
349.03	1004.09
349.40	1009.71
349.77	1024.69
350.14	1028.43
350.52	1037.33
350.89	1053.71
351.26	1066.82
351.63	1071.26
352.01	1085.77
352.38	1082.03
352.75	1090.46
353.12	1085.31
353.50	1084.37
353.87	1088.58
354.24	1099.58
354.61	1101.92
354.98	1112.92
355.36	1115.03
355.73	1108.01
356.10	1100.05
356.47	1101.46
356.84	1083.43
357.22	1085.54
357.59	1093.73
357.96	1103.80
358.33	1096.07
358.70	1110.82
359.08	1111.99
359.45	1108.01
359.82	1102.63
360.19	1108.71
360.56	1111.05
360.94	1115.03
361.31	1111.05
361.68	1107.07
362.05	1108.24
362.42	1095.37
362.79	1093.50
363.16	1096.54
363.54	1100.99
363.91	1102.86
364.28	1114.10
364.65	1107.31
365.02	1106.14
365.39	1095.14
365.76	1094.20
366.14	1095.14
366.51	1098.88
366.88	1093.73
367.25	1102.39
367.62	1093.03
367.99	1091.16
368.36	1091.86
368.73	1101.69
369.10	1108.24
369.48	1105.90
369.85	1100.05
370.22	1091.86
370.59	1089.29
370.96	1084.84
371.33	1094.43
371.70	1092.56
372.07	1093.73
372.44	1087.88
372.81	1084.14
373.18	1078.52
373.55	1081.56
373.93	1078.52
374.30	1082.26
374.67	1088.35
375.04	1093.26
375.41	1096.07
375.78	1112.69
376.15	1112.22
376.52	1112.92
376.89	1116.20
377.26	1115.50
377.63	1108.71
378.00	1115.03
378.37	1108.71
378.74	1108.71
379.11	1113.39
379.48	1111.99
379.85	1111.99
380.22	1108.95
380.59	1108.01
380.96	1103.33
381.33	1108.95
381.70	1109.65
382.07	1116.67
382.44	1106.84
382.81	1115.03
383.18	1115.50
383.55	1113.86
383.92	1113.86
384.29	1128.84
384.66	1122.52
385.03	1116.44
385.40	1114.56
385.77	1116.67
386.14	1107.54
386.51	1100.99
386.88	1105.67
387.25	1102.39
387.62	1107.31
387.99	1106.84
388.36	1117.14
388.73	1121.58
389.10	1128.14
389.46	1119.48
389.83	1116.20
390.20	1119.71
390.57	1116.44
390.94	1104.26
391.31	1114.10
391.68	1119.95
392.05	1121.82
392.42	1120.18
392.79	1134.93
393.16	1120.65
393.53	1111.99
393.89	1112.92
394.26	1120.18
394.63	1120.18
395.00	1124.86
395.37	1137.97
395.74	1134.93
396.11	1140.31
396.48	1146.39
396.84	1150.37
397.21	1146.63
397.58	1155.99
397.95	1155.99
398.32	1150.61
398.69	1153.88
399.06	1160.44
399.42	1156.22
399.79	1150.61
400.16	1155.52
400.53	1174.25
400.90	1189.69
401.27	1203.74
401.64	1216.14
402.00	1233.70
402.37	1226.21
402.74	1222.93
403.11	1225.97
403.48	1233.46
403.84	1241.65
404.21	1255.46
404.58	1269.04
404.95	1284.49
405.32	1299.70
405.68	1317.72
406.05	1340.42
406.42	1367.58
406.79	1388.64
407.16	1413.68
407.52	1425.39
407.89	1456.52
408.26	1494.20
408.63	1530.94
408.99	1569.10
409.36	1609.59
409.73	1648.21
410.10	1684.95
410.47	1728.95
410.83	1778.10
411.20	1843.64
411.57	1886.71
411.94	1945.69
412.30	2018.48
412.67	2098.76
413.04	2164.76
413.40	2281.32
413.77	2372.84
414.14	2484.48
414.51	2586.06
414.87	2708.23
415.24	2819.88
415.61	2967.57
415.97	3085.29
416.34	3248.43
416.71	3412.74
417.08	3593.66
417.44	3779.50
417.81	4006.29
418.18	4204.30
418.54	4443.27
418.91	4686.45
419.28	4942.28
419.64	5191.54
420.01	5504.47
420.38	5805.93
420.74	6114.88
421.11	6460.11
421.48	6832.26
421.84	7183.81
422.21	7551.74
422.58	7969.99
422.94	8395.03
423.31	8861.97
423.68	9388.82
424.04	9958.75
424.41	10517.90
424.77	11073.07
425.14	11647.21
425.51	12219.47
425.87	12866.16
426.24	13567.38
426.61	14354.04
426.97	15288.61
427.34	16116.23
427.70	17036.53
428.07	17909.08
428.44	18783.27
428.80	19662.14
429.17	20701.80
429.53	21668.68
429.90	22857.44
430.27	23916.76
430.63	24922.26
431.00	26078.25
431.36	27383.33
431.73	28474.72
432.09	29749.61
432.46	31013.27
432.83	32200.86
433.19	33197.69
433.56	34477.26
433.92	35794.98
434.29	37011.59
434.65	38283.21
435.02	39500.52
435.38	40594.95
435.75	41366.63
436.11	42531.51
436.48	43492.30
436.84	44428.05
437.21	45321.20
437.57	46301.18
437.94	46964.96
438.30	47623.11
438.67	48155.12
439.03	48392.45
439.40	48626.74
439.76	48506.43
440.13	48196.55
440.49	48055.65
440.86	47622.18
441.22	47229.67
441.59	46733.94
441.95	46300.71
442.32	45431.90
442.68	44786.85
443.05	43826.77
443.41	42920.51
443.78	41866.33
444.14	40941.82
444.51	39799.17
444.87	38961.26
445.24	37888.59
445.60	36911.65
445.96	35839.22
446.33	35068.71
446.69	33978.03
447.06	33178.26
447.42	32198.28
447.79	31198.87
448.15	30262.66
448.51	29366.70
448.88	28627.33
449.24	27724.58
449.61	27123.53
449.97	26411.31
450.33	25720.15
450.70	24839.87
451.06	24338.53
451.43	23677.80
451.79	23171.54
452.15	22649.36
452.52	22180.55
452.88	21645.51
453.24	21115.61
453.61	20520.65
453.97	20011.58
454.34	19417.32
454.70	18911.76
455.06	18389.59
455.43	17794.62
455.79	17069.76
456.15	16521.84
456.52	15857.60
456.88	15340.57
457.24	14799.21
457.61	14411.85
457.97	13952.40
458.33	13517.30
458.70	13031.17
459.06	12555.10
459.42	12142.23
459.79	11682.78
460.15	11321.87
460.51	10940.83
460.88	10584.84
461.24	10199.12
461.60	9916.85
461.96	9566.71
462.33	9262.90
462.69	8986.49
463.05	8708.20
463.42	8464.31
463.78	8205.22
464.14	7943.08
464.50	7723.30
464.87	7498.14
465.23	7270.17
465.59	7078.95
465.95	6909.73
466.32	6702.59
466.68	6545.54
467.04	6319.68
467.40	6159.35
467.77	5995.52
468.13	5831.21
468.49	5687.97
468.85	5601.84
469.22	5492.07
469.58	5359.59
469.94	5259.18
470.30	5139.35
470.66	5039.64
471.03	4902.72
471.39	4826.42
471.75	4746.84
472.11	4650.18
472.47	4531.51
472.84	4457.08
473.20	4338.18
473.56	4233.09
473.92	4146.49
474.28	4075.34
474.65	3998.10
475.01	3935.61
475.37	3846.90
475.73	3767.09
476.09	3683.07
476.45	3599.98
476.81	3505.89
477.18	3439.42
477.54	3375.29
477.90	3328.01
478.26	3281.43
478.62	3253.34
478.98	3214.96
479.34	3170.72
479.71	3124.15
480.07	3083.19
480.43	3033.80
480.79	2972.01
481.15	2909.99
481.51	2854.05
481.87	2808.17
482.23	2764.64
482.59	2726.72
482.96	2709.64
483.32	2671.49
483.68	2614.85
484.04	2581.14
484.40	2556.57
484.76	2506.01
485.12	2471.84
485.48	2454.52
485.84	2443.52
486.20	2399.52
486.56	2357.15
486.92	2328.36
487.28	2292.09
487.64	2227.72
488.00	2194.25
488.37	2179.97
488.73	2149.31
489.09	2121.70
489.45	2091.74
489.81	2062.25
490.17	2032.29
490.53	2012.86
490.89	1989.92
491.25	1973.31
491.61	1963.01
491.97	1941.01
492.33	1915.03
492.69	1893.73
493.05	1864.94
493.41	1832.17
493.77	1806.43
494.13	1796.36
494.49	1769.68
494.85	1750.25
495.21	1722.40
495.57	1708.59
495.93	1676.76
496.29	1652.65
496.64	1653.35
497.00	1648.44
497.36	1632.76
497.72	1614.97
498.08	1614.50
498.44	1589.93
498.80	1579.16
499.16	1562.54
499.52	1548.03
499.88	1528.60
500.24	1508.48
500.60	1487.64
500.96	1478.52
501.32	1473.37
501.68	1456.98
502.03	1456.28
502.39	1454.17
502.75	1442.24
503.11	1419.77
503.47	1414.62
503.83	1404.56
504.19	1404.32
504.55	1392.85
504.91	1390.51
505.26	1374.36
505.62	1357.51
505.98	1332.00
506.34	1320.06
506.70	1309.53
507.06	1314.44
507.42	1308.36
507.78	1304.15
508.13	1308.13
508.49	1307.19
508.85	1306.96
509.21	1312.34
509.57	1310.93
509.93	1300.17
510.28	1297.83
510.64	1284.25
511.00	1273.95
511.36	1272.78
511.72	1268.34
512.07	1262.95
512.43	1263.66
512.79	1261.08
513.15	1256.17
513.51	1245.40
513.86	1230.65
514.22	1220.12
514.58	1218.01
514.94	1213.33
515.30	1210.76
515.65	1214.97
516.01	1212.16
516.37	1205.38
516.73	1192.97
517.08	1186.89
517.44	1189.23
517.80	1189.69
518.16	1183.37
518.51	1189.23
518.87	1188.29
519.23	1184.55
519.59	1175.65
519.94	1182.91
520.30	1176.12
520.66	1184.78
521.01	1176.59
521.37	1178.69
521.73	1172.61
522.09	1179.16
522.44	1171.91
522.80	1175.18
523.16	1173.31
523.51	1173.54
523.87	1168.63
524.23	1167.93
524.58	1171.67
524.94	1175.65
525.30	1183.14
525.65	1180.33
526.01	1176.82
526.37	1165.12
526.72	1158.10
527.08	1154.59
527.44	1155.76
527.79	1161.61
528.15	1168.63
528.51	1159.03
528.86	1147.80
529.22	1145.93
529.58	1133.29
529.93	1142.18
530.29	1146.16
530.65	1146.39
531.00	1144.29
531.36	1151.54
531.71	1137.03
532.07	1139.84
532.43	1138.20
532.78	1138.20
533.14	1133.29
533.49	1127.90
533.85	1126.03
534.21	1120.18
534.56	1114.10
534.92	1123.69
535.27	1123.46
535.63	1123.46
535.98	1126.50
536.34	1131.18
536.69	1118.07
537.05	1124.86
537.41	1122.99
537.76	1118.54
538.12	1116.20
538.47	1117.14
538.83	1120.65
539.18	1121.12
539.54	1126.50
539.89	1121.12
540.25	1121.35
540.60	1106.14
540.96	1111.99
541.31	1108.01
541.67	1119.48
542.02	1120.41
542.38	1131.41
542.73	1129.31
543.09	1141.01
543.44	1139.37
543.80	1151.78
544.15	1147.10
544.51	1137.50
544.86	1124.16
545.22	1127.67
545.57	1120.41
545.93	1132.59
546.28	1133.76
546.64	1148.03
546.99	1132.82
547.35	1131.88
547.70	1116.90
548.05	1115.27
548.41	1097.48
548.76	1105.90
549.12	1100.05
549.47	1106.37
549.83	1104.73
550.18	1113.16
550.53	1109.88
550.89	1106.37
551.24	1107.78
551.60	1119.24
551.95	1110.82
552.30	1110.12
552.66	1117.61
553.01	1107.31
553.37	1112.46
553.72	1118.07
554.07	1112.92
554.43	1109.41
554.78	1114.80
555.13	1098.88
555.49	1103.33
555.84	1115.03
556.19	1119.48
556.55	1117.84
556.90	1118.31
557.26	1113.86
557.61	1095.60
557.96	1099.82
558.32	1103.56
558.67	1109.65
559.02	1107.78
559.37	1127.67
559.73	1124.63
560.08	1125.80
560.43	1134.46
560.79	1132.12
561.14	1131.18
561.49	1137.03
561.85	1127.67
562.20	1121.35
562.55	1128.14
562.90	1120.41
563.26	1109.41
563.61	1112.69
563.96	1123.22
564.32	1116.20
564.67	1116.90
565.02	1108.95
565.37	1102.63
565.73	1087.88
566.08	1092.33
566.43	1090.46
566.78	1106.37
567.14	1116.44
567.49	1116.90
567.84	1107.31
568.19	1105.20
568.54	1094.67
568.90	1092.33
569.25	1091.16
569.60	1104.50
569.95	1112.22
570.31	1112.92
570.66	1108.01
571.01	1108.24
571.36	1114.56
571.71	1110.12
572.06	1118.31
572.42	1113.16
572.77	1111.05
573.12	1109.41
573.47	1112.46
573.82	1113.63
574.18	1128.14
574.53	1126.27
574.88	1122.99
575.23	1110.58
575.58	1099.35
575.93	1101.22
576.28	1109.41
576.64	1107.31
576.99	1111.05
577.34	1111.99
577.69	1115.97
578.04	1113.63
578.39	1110.82
578.74	1108.95
579.09	1108.01
579.44	1098.18
579.80	1098.18
580.15	1089.99
580.50	1103.56
580.85	1112.92
581.20	1108.48
581.55	1102.86
581.90	1113.16
582.25	1116.67
582.60	1113.86
582.95	1107.07
583.30	1108.71
583.65	1101.92
584.00	1093.03
584.35	1084.14
584.71	1087.88
585.06	1089.52
585.41	1086.48
585.76	1083.43
586.11	1085.54
586.46	1098.88
586.81	1106.37
587.16	1109.41
587.51	1110.12
587.86	1109.88
588.21	1100.29
588.56	1093.97
588.91	1104.73
589.26	1093.73
589.61	1090.46
589.96	1099.82
590.31	1098.88
590.66	1096.54
591.01	1118.07
591.36	1123.93
591.71	1114.80
592.06	1115.27
592.41	1109.41
592.76	1104.50
593.10	1111.75
593.45	1111.52
593.80	1110.35
594.15	1110.12
594.50	1108.01
594.85	1106.61
595.20	1110.82
595.55	1109.41
595.90	1110.58
596.25	1107.07
596.60	1095.37
596.95	1089.29
597.30	1100.05
597.64	1133.99
597.99	1140.31
598.34	1150.37
598.69	1144.29
599.04	1131.18
599.39	1097.71
599.74	1097.01
600.09	1099.58
600.44	1109.88
600.78	1116.44
601.13	1116.44
601.48	1109.65
601.83	1099.82
602.18	1108.71
602.53	1115.03
602.88	1114.09
603.22	1113.39
603.57	1118.31
603.92	1111.52
604.27	1108.01
604.62	1116.20
604.97	1122.99
605.31	1128.84
605.66	1125.80
606.01	1115.50
606.36	1109.88
606.71	1115.97
607.05	1109.41
607.40	1114.80
607.75	1115.50
608.10	1112.22
608.44	1098.88
608.79	1109.41
609.14	1100.52
609.49	1103.33
609.84	1112.92
610.18	1115.03
610.53	1104.73
610.88	1116.20
611.23	1118.31
611.57	1116.90
611.92	1115.97
612.27	1118.78
612.62	1106.84
612.96	1109.88
613.31	1107.54
613.66	1111.52
614.00	1109.65
614.35	1116.20
614.70	1116.20
615.05	1110.35
615.39	1101.92
615.74	1109.88
616.09	1106.14
616.43	1100.75
616.78	1111.75
617.13	1116.20
617.47	1098.65
617.82	1096.31
618.17	1094.20
618.51	1086.71
618.86	1086.48
619.21	1096.54
619.55	1101.22
619.90	1111.75
620.25	1106.84
620.59	1106.14
620.94	1102.86
621.29	1103.56
621.63	1090.22
621.98	1082.73
622.32	1077.35
622.67	1075.48
623.02	1074.77
623.36	1088.12
623.71	1101.22
624.05	1116.44
624.40	1120.88
624.75	1120.18
625.09	1117.61
625.44	1101.22
625.78	1090.92
626.13	1085.77
626.48	1083.67
626.82	1081.56
627.17	1082.73
627.51	1093.03
627.86	1085.07
628.20	1085.07
628.55	1076.41
628.89	1091.39
629.24	1073.60
629.58	1083.20
629.93	1087.41
630.28	1095.14
630.62	1087.41
630.97	1097.24
631.31	1093.50
631.66	1092.09
632.00	1087.18
632.35	1096.31
632.69	1100.29
633.04	1108.24
633.38	1118.31
633.73	1124.63
634.07	1112.69
634.42	1107.31
634.76	1102.16
635.11	1084.60
635.45	1082.97
635.79	1080.16
636.14	1085.77
636.48	1086.01
636.83	1095.60
637.17	1088.82
637.52	1090.92
637.86	1084.60
638.21	1088.12
638.55	1092.33
638.89	1094.43
639.24	1106.14
639.58	1104.26
639.93	1098.65
640.27	1093.26
640.61	1097.01
640.96	1088.82
641.30	1083.90
641.65	1082.97
641.99	1076.88
642.33	1072.90
642.68	1076.18
643.02	1083.20
643.37	1087.41
643.71	1085.77
644.05	1078.75
644.40	1068.22
644.74	1067.28
645.08	1068.22
645.43	1066.58
645.77	1068.92
646.11	1079.92
646.46	1089.75
646.80	1092.56
647.14	1092.80
647.49	1100.99
647.83	1100.05
648.17	1088.82
648.52	1079.69
648.86	1088.82
649.20	1080.86
649.55	1081.56
649.89	1084.14
650.23	1094.20
650.57	1092.80
650.92	1098.65
651.26	1102.39
651.60	1102.63
651.95	1093.50
652.29	1094.43
652.63	1092.09
652.97	1087.65
653.32	1083.20
653.66	1082.97
654.00	1075.48
654.34	1079.69
654.69	1085.07
655.03	1094.67
655.37	1100.52
655.71	1095.14
656.05	1088.35
656.40	1085.31
656.74	1082.26
657.08	1072.20
657.42	1078.99
657.76	1089.99
658.11	1086.01
658.45	1083.43
658.79	1091.16
659.13	1088.12
659.47	1082.26
659.82	1092.56
660.16	1099.58
660.50	1102.63
660.84	1114.10
661.18	1112.69
661.52	1098.65
661.87	1090.92
662.21	1083.90
662.55	1068.22
662.89	1075.48
663.23	1084.84
663.57	1083.43
663.91	1081.33
664.25	1091.86
664.60	1093.26
664.94	1089.99
665.28	1094.20
665.62	1097.24
665.96	1097.48
666.30	1087.88
666.64	1094.43
666.98	1087.88
667.32	1089.29
667.66	1090.92
668.01	1098.18
668.35	1090.69
668.69	1091.86
669.03	1092.56
669.37	1089.99
669.71	1085.31
670.05	1083.43
670.39	1090.92
670.73	1096.78
671.07	1108.24
671.41	1108.95
671.75	1114.80
672.09	1105.44
672.43	1102.39
672.77	1083.67
673.11	1089.75
673.45	1083.67
673.79	1091.63
674.13	1091.16
674.47	1099.35
674.81	1104.97
675.15	1097.48
675.49	1089.05
675.83	1089.05
676.17	1088.35
676.51	1078.75
676.85	1094.20
677.19	1095.14
677.53	1092.09
677.87	1105.20
678.21	1109.88
678.55	1107.07
678.89	1113.86
679.23	1119.01
679.57	1102.86
679.90	1092.80
680.24	1089.05
680.58	1089.05
680.92	1086.94
681.26	1095.37
681.60	1096.78
681.94	1096.78
682.28	1094.20
682.62	1090.69
682.96	1080.63
683.29	1084.60
683.63	1084.14
683.97	1086.01
684.31	1090.69
684.65	1089.05
684.99	1081.80
685.33	1079.69
685.67	1076.18
686.00	1077.11
686.34	1082.73
686.68	1083.67
687.02	1093.73
687.36	1096.31
687.70	1093.50
688.03	1095.37
688.37	1095.37
688.71	1085.07
689.05	1084.60
689.39	1082.73
689.72	1082.26
690.06	1093.03
690.40	1087.41
690.74	1077.58
691.08	1077.35
691.41	1076.41
691.75	1062.37
692.09	1064.71
692.43	1079.46
692.76	1086.71
693.10	1087.88
693.44	1088.82
693.78	1086.94
694.11	1082.03
694.45	1073.84
694.79	1066.35
695.13	1083.67
695.46	1097.48
695.80	1097.48
696.14	1098.65
696.48	1106.14
696.81	1097.71
697.15	1094.90
697.49	1094.43
697.82	1092.33
698.16	1087.88
698.50	1088.82
698.83	1087.41
699.17	1083.20
699.51	1081.33
699.84	1089.75
700.18	1088.12
700.52	1085.07
700.85	1089.52
701.19	1099.35
701.53	1093.03
701.86	1087.65
702.20	1086.71
702.54	1089.29
702.87	1091.86
703.21	1096.78
703.55	1099.82
703.88	1099.35
704.22	1079.92
704.55	1063.54
704.89	1050.67
705.23	1049.73
705.56	1047.39
705.90	1065.41
706.23	1075.24
706.57	1079.69
706.91	1082.50
707.24	1095.14
707.58	1098.65
707.91	1103.33
708.25	1107.78
708.58	1097.95
708.92	1097.01
709.26	1098.18
709.59	1086.94
709.93	1093.73
710.26	1095.60
710.60	1088.12
710.93	1086.01
711.27	1084.14
711.60	1072.20
711.94	1083.43
712.27	1082.73
712.61	1073.37
712.94	1079.92
713.28	1089.05
713.61	1078.28
713.95	1086.48
714.28	1097.24
714.62	1099.12
714.95	1098.65
715.29	1109.18
715.62	1099.58
715.96	1098.88
716.29	1097.95
716.63	1089.05
716.96	1081.09
717.29	1082.73
717.63	1075.48
717.96	1080.39
718.30	1093.26
718.63	1090.92
718.97	1104.73
719.30	1104.26
719.63	1097.24
719.97	1086.48
720.30	1098.65
720.64	1085.77
720.97	1089.75
721.30	1100.99
721.64	1104.03
721.97	1091.16
722.31	1088.82
722.64	1083.20
722.97	1081.33
723.31	1082.03
723.64	1077.35
723.97	1087.65
724.31	1095.84
724.64	1093.26
724.98	1088.82
725.31	1103.80
725.64	1089.05
725.98	1084.84
726.31	1086.24
726.64	1089.75
726.97	1079.22
727.31	1080.39
727.64	1077.11
727.97	1072.67
728.31	1075.48
728.64	1072.67
728.97	1081.33
729.31	1079.46
729.64	1075.71
729.97	1074.54
730.30	1081.56
730.64	1076.18
730.97	1075.94
731.30	1080.39
731.63	1086.24
731.97	1088.12
732.30	1087.88
732.63	1093.73
732.96	1090.46
733.30	1082.97
733.63	1085.07
733.96	1094.43
734.29	1087.41
734.63	1087.65
734.96	1085.31
735.29	1082.26
735.62	1076.88
735.95	1089.52
736.29	1093.03
736.62	1086.71
736.95	1084.84
737.28	1089.99
737.61	1079.69
737.94	1079.92
738.28	1080.86
738.61	1076.65
738.94	1070.09
739.27	1076.65
739.60	1067.28
739.93	1067.75
740.27	1076.18
740.60	1071.03
740.93	1074.77
741.26	1083.90
741.59	1086.01
741.92	1087.18
742.25	1103.80
742.58	1095.14
742.91	1093.97
743.25	1097.95
743.58	1088.58
743.91	1070.80
744.24	1080.86
744.57	1074.31
744.90	1081.56
745.23	1083.67
745.56	1091.63
745.89	1085.07
746.22	1086.94
746.55	1078.05
746.88	1081.80
747.21	1090.69
747.54	1096.78
747.87	1099.82
748.20	1100.05
748.53	1104.50
748.87	1091.16
749.20	1078.05
749.53	1076.88
749.86	1079.69
750.19	1073.37
750.52	1069.86
750.85	1079.69
751.18	1091.16
751.51	1089.29
751.84	1094.90
752.16	1098.65
752.49	1093.73
752.82	1076.88
753.15	1077.11
753.48	1074.07
753.81	1077.58
754.14	1075.01
754.47	1080.86
754.80	1080.86
755.13	1086.71
755.46	1088.58
755.79	1093.26
756.12	1094.90
756.45	1091.39
756.78	1083.90
757.11	1085.31
757.43	1084.84
757.76	1086.48
758.09	1090.22
758.42	1091.63
758.75	1088.12
759.08	1094.20
759.41	1084.14
759.74	1081.56
760.07	1080.16
760.39	1082.26
760.72	1073.14
761.05	1082.26
761.38	1084.84
761.71	1091.39
762.04	1082.26
762.36	1086.94
762.69	1092.09
763.02	1093.73
763.35	1090.46
763.68	1090.92
764.01	1089.52
764.33	1080.16
764.66	1078.52
764.99	1075.24
765.32	1079.92
765.65	1083.20
765.97	1089.05
766.30	1085.31
766.63	1082.73
766.96	1080.86
767.28	1077.82
767.61	1071.97
767.94	1073.84
768.27	1078.52
768.59	1083.20
768.92	1081.56
769.25	1080.63
769.58	1082.26
769.90	1080.16
770.23	1076.88
770.56	1070.56
770.89	1070.33
771.21	1065.18
771.54	1064.24
771.87	1058.16
772.19	1069.39
772.52	1072.20
772.85	1077.35
773.17	1076.88
773.50	1074.77
773.83	1068.92
774.15	1060.96
774.48	1060.50
774.81	1068.22
775.13	1079.92
775.46	1083.67
775.79	1086.24
776.11	1085.07
776.44	1073.60
776.77	1069.86
777.09	1072.67
777.42	1078.28
777.74	1078.99
778.07	1086.24
778.40	1092.56
778.72	1089.29
779.05	1093.73
779.37	1093.26
779.70	1091.39
780.03	1083.20
780.35	1085.54
780.68	1078.75
781.00	1082.97
781.33	1077.11
781.65	1075.48
781.98	1068.45
782.31	1071.97
782.63	1069.86
782.96	1066.58
783.28	1078.52
783.61	1085.77
783.93	1086.01
784.26	1091.39
784.58	1099.82
784.91	1086.24
785.23	1084.37
785.56	1085.31
785.88	1077.58
786.21	1090.92
786.53	1106.61
786.86	1103.56
787.18	1102.86
787.51	1103.56
787.83	1085.54
788.16	1078.28
788.48	1083.20
788.81	1089.29
789.13	1090.69
789.46	1102.39
789.78	1108.71
790.10	1108.71
790.43	1096.78
790.75	1095.60
791.08	1087.41
791.40	1072.90
791.73	1060.96
792.05	1071.73
792.37	1068.22
792.70	1077.35
793.02	1078.75
793.35	1081.33
793.67	1076.88
793.99	1084.60
794.32	1073.14
794.64	1081.09
794.96	1082.50
795.29	1089.29
795.61	1077.82
795.93	1076.41
796.26	1067.75
796.58	1066.11
796.91	1054.41
797.23	1054.65
797.55	1062.14
797.87	1068.69
798.20	1072.90
798.52	1070.33
798.84	1077.82
799.17	1085.31
799.49	1083.90
799.81	1086.94
800.14	1086.24
800.46	1093.50
800.78	1079.22
801.10	1084.37
801.43	1078.99
801.75	1088.12
802.07	1081.33
802.40	1086.48
802.72	1084.14
803.04	1080.39
803.36	1081.56
803.69	1085.54
804.01	1080.16
804.33	1078.99
804.65	1083.90
804.97	1086.01
805.30	1071.73
805.62	1070.33
805.94	1065.18
806.26	1067.28
806.58	1062.14
806.91	1074.77
807.23	1092.80
807.55	1095.60
807.87	1090.46
808.19	1095.60
808.52	1097.24
808.84	1093.97
809.16	1092.33
809.48	1099.12
809.80	1093.26
810.12	1083.67
810.44	1072.90
810.77	1070.80
811.09	1072.90
811.41	1086.01
811.73	1097.95
812.05	1101.92
812.37	1106.84
812.69	1107.78
813.01	1086.94
813.33	1086.94
813.66	1087.18
813.98	1089.75
814.30	1088.58
814.62	1099.35
814.94	1095.14
815.26	1094.90
815.58	1089.29
815.90	1083.67
816.22	1082.03
816.54	1080.39
816.86	1083.20
817.18	1078.99
817.50	1088.35
817.82	1090.46
818.14	1093.97
818.46	1094.43
818.78	1103.56
819.10	1094.90
819.42	1089.29
819.74	1085.31
820.06	1077.58
820.38	1076.41
820.70	1079.92
821.02	1075.48
821.34	1071.26
821.66	1063.07
821.98	1068.22
822.30	1061.67
822.62	1072.67
822.94	1071.97
823.26	1090.46
823.58	1084.84
823.90	1090.69
824.22	1085.54
824.54	1093.03
824.86	1091.16
825.18	1092.09
825.50	1083.20
825.81	1089.52
826.13	1078.52
826.45	1064.24
826.77	1060.26
827.09	1077.82
827.41	1072.20
827.73	1075.94
828.05	1093.03
828.36	1088.82
828.68	1077.82
829.00	1077.58
829.32	1081.80
829.64	1073.84
829.96	1075.94
830.28	1080.16
830.59	1082.03
830.91	1079.22
831.23	1077.58
831.55	1083.67
831.87	1077.82
832.19	1076.18
832.50	1073.84
832.82	1073.14
833.14	1076.65
833.46	1069.62
833.78	1067.75
834.09	1071.50
834.41	1083.43
834.73	1077.35
835.05	1082.03
835.36	1086.24
835.68	1089.52
836.00	1083.90
836.32	1077.11
836.63	1087.88
836.95	1082.26
837.27	1078.52
837.59	1078.99
837.90	1083.20
838.22	1066.58
838.54	1075.01
838.85	1073.60
839.17	1067.75
839.49	1071.03
839.80	1073.37
840.12	1060.03
840.44	1067.99
840.76	1068.69
841.07	1066.58
841.39	1071.26
841.71	1080.86
842.02	1080.39
842.34	1079.22
842.65	1080.16
842.97	1078.28
843.29	1078.52
843.60	1081.09
843.92	1079.92
844.24	1073.60
844.55	1067.05
844.87	1068.69
845.18	1054.18
845.50	1048.79
845.82	1055.11
846.13	1066.58
846.45	1061.43
846.76	1075.01
847.08	1073.14
847.40	1075.71
847.71	1080.63
848.03	1075.24
848.34	1062.84
848.66	1074.54
848.97	1070.09
849.29	1079.69
849.60	1082.73
849.92	1089.29
850.24	1086.01
850.55	1098.18
850.87	1086.71
851.18	1087.41
851.50	1081.80
851.81	1078.52
852.13	1065.18
852.44	1067.75
852.76	1063.07
853.07	1069.62
853.39	1079.46
853.70	1080.63
854.01	1064.71
854.33	1072.90
854.64	1067.75
854.96	1058.62
855.27	1065.65
855.59	1067.05
855.90	1070.33
856.22	1079.69
856.53	1081.09
856.84	1073.14
857.16	1080.86
857.47	1079.46
857.79	1074.54
858.10	1083.43
858.41	1091.16
858.73	1087.88
859.04	1087.88
859.36	1093.50
859.67	1081.33
859.98	1077.82
860.30	1084.37
860.61	1093.73
860.92	1085.07
861.24	1092.80
861.55	1083.43
861.87	1077.82
862.18	1060.96
862.49	1070.33
862.81	1060.50
863.12	1065.41
863.43	1075.24
863.74	1082.26
864.06	1072.67
864.37	1083.90
864.68	1093.73
865.00	1086.01
865.31	1076.18
865.62	1073.84
865.94	1074.07
866.25	1064.94
866.56	1067.75
866.87	1067.99
867.19	1082.97
867.50	1083.67
867.81	1094.90
868.12	1095.60
868.44	1092.80
868.75	1082.03
869.06	1077.82
869.37	1073.14
869.68	1078.99
870.00	1085.31
870.31	1092.09
870.62	1094.67
870.93	1100.29
871.24	1102.63
871.56	1113.86
871.87	1108.01
872.18	1107.54
872.49	1105.20
872.80	1090.69
873.12	1096.54
873.43	1095.84
873.74	1083.67
874.05	1082.03
874.36	1086.01
874.67	1076.18
874.98	1077.11
875.29	1092.33
875.61	1089.05
875.92	1080.63
876.23	1069.16
876.54	1073.14
876.85	1077.58
877.16	1073.60
877.47	1082.73
877.78	1097.95
878.09	1088.82
878.40	1084.14
878.72	1089.75
879.03	1084.84
879.34	1078.52
879.65	1085.07
879.96	1069.62
880.27	1064.48
880.58	1069.16
880.89	1061.20
881.20	1064.01
881.51	1074.07
881.82	1070.80
882.13	1070.56
882.44	1083.90
882.75	1077.82
883.06	1079.92
883.37	1087.18
883.68	1076.88
883.99	1066.35
884.30	1072.43
884.61	1083.43
884.92	1083.20
885.23	1102.16
885.54	1107.31
885.85	1109.88
886.16	1094.67
886.47	1097.71
886.78	1083.67
887.08	1077.35
887.39	1068.92
887.70	1065.65
888.01	1056.28
888.32	1055.35
888.63	1058.86
888.94	1058.86
889.25	1064.01
889.56	1068.92
889.87	1072.67
890.17	1075.94
890.48	1078.52
890.79	1067.28
891.10	1051.84
891.41	1057.22
891.72	1065.88
892.03	1064.24
892.34	1077.82
892.64	1089.05
892.95	1096.54
893.26	1083.90
893.57	1085.07
893.88	1086.24
894.18	1091.39
894.49	1086.71
894.80	1090.92
895.11	1090.22
895.42	1085.54
895.72	1084.37
896.03	1087.18
896.34	1084.84
896.65	1086.48
896.96	1089.99
897.26	1079.46
897.57	1056.99
897.88	1048.33
898.19	1048.33
898.49	1051.37
898.80	1061.20
899.11	1080.16
899.41	1091.63
899.72	1100.52
900.03	1100.75
900.34	1106.84
900.64	1098.18
900.95	1100.75
901.26	1097.95
901.56	1101.46
901.87	1091.63
902.18	1089.29
902.48	1087.41
902.79	1081.56
903.10	1066.35
903.40	1070.09
903.71	1077.82
904.02	1075.24
904.32	1067.75
904.63	1078.05
904.94	1076.18
905.24	1075.24
905.55	1083.43
905.85	1083.20
906.16	1083.20
906.47	1085.31
906.77	1088.35
907.08	1078.99
907.38	1082.26
907.69	1074.54
908.00	1069.86
908.30	1067.99
908.61	1067.52
908.91	1074.31
909.22	1073.37
909.52	1078.99
909.83	1083.67
910.14	1083.90
910.44	1083.43
910.75	1084.84
911.05	1078.75
911.36	1067.52
911.66	1067.05
911.97	1057.92
912.27	1061.67
912.58	1066.58
912.88	1067.52
913.19	1070.56
913.49	1073.37
913.80	1073.37
914.10	1074.77
914.41	1081.80
914.71	1084.84
915.01	1090.69
915.32	1089.99
915.62	1090.69
915.93	1088.58
916.23	1091.16
916.54	1090.69
916.84	1089.05
917.15	1086.01
917.45	1086.24
917.75	1083.90
918.06	1083.90
918.36	1083.90
918.67	1089.05
918.97	1084.60
919.27	1078.28
919.58	1077.58
919.88	1076.88
920.18	1072.67
920.49	1074.77
920.79	1070.56
921.10	1062.37
921.40	1068.92
921.70	1075.94
922.01	1084.37
922.31	1087.65
922.61	1092.33
922.92	1087.18
923.22	1074.07
923.52	1063.31
923.82	1078.05
924.13	1083.67
924.43	1088.35
924.73	1104.26
925.04	1111.99
925.34	1100.99
925.64	1089.99
925.94	1086.01
926.25	1080.39
926.55	1077.82
926.85	1070.09
927.15	1070.80
927.46	1073.84
927.76	1069.62
928.06	1069.62
928.36	1068.22
928.67	1070.56
928.97	1057.45
929.27	1060.50
929.57	1056.52
929.87	1067.75
930.18	1069.86
930.48	1078.99
930.78	1067.28
931.08	1069.16
931.38	1063.07
931.69	1068.45
931.99	1071.50
932.29	1089.75
932.59	1099.82
932.89	1102.16
933.19	1097.95
933.49	1095.84
933.80	1089.29
934.10	1080.39
934.40	1076.88
934.70	1072.20
935.00	1073.37
935.30	1073.60
935.60	1075.24
935.90	1074.54
936.20	1084.14
936.50	1081.56
936.81	1085.31
937.11	1071.50
937.41	1074.54
937.71	1066.11
938.01	1062.14
938.31	1050.67
938.61	1058.39
938.91	1061.67
939.21	1063.54
939.51	1078.05
939.81	1077.82
940.11	1084.84
940.41	1087.88
940.71	1093.73
941.01	1088.58
941.31	1097.24
941.61	1096.07
941.91	1100.29
942.21	1100.75
942.51	1093.26
942.81	1088.58
943.11	1086.01
943.41	1078.75
943.71	1073.37
944.01	1078.52
944.31	1072.43
944.61	1070.56
944.90	1075.01
945.20	1072.20
945.50	1076.41
945.80	1081.33
946.10	1085.77
946.40	1067.05
946.70	1070.80
947.00	1058.39
947.30	1062.60
947.60	1059.56
947.89	1070.33
948.19	1071.26
948.49	1082.03
948.79	1078.05
949.09	1080.63
949.39	1076.18
949.69	1069.16
949.98	1068.45
950.28	1080.63
950.58	1083.67
950.88	1089.99
951.18	1104.26
951.48	1102.39
951.77	1094.67
952.07	1084.84
952.37	1083.43
952.67	1076.18
952.97	1081.56
953.26	1087.41
953.56	1085.31
953.86	1086.48
954.16	1080.16
954.45	1079.69
954.75	1069.39
955.05	1075.94
955.35	1082.03
955.64	1092.80
955.94	1089.75
956.24	1081.56
956.54	1079.92
956.83	1070.33
957.13	1060.26
957.43	1053.94
957.72	1052.54
958.02	1053.24
958.32	1051.60
958.61	1049.26
958.91	1057.45
959.21	1076.65
959.50	1077.11
959.80	1087.18
960.10	1106.61
960.39	1105.44
960.69	1103.09
960.99	1110.82
961.28	1113.86
961.58	1096.54
961.87	1096.07
962.17	1081.09
962.47	1079.69
962.76	1067.28
963.06	1066.82
963.36	1064.48
963.65	1070.80
963.95	1066.58
964.24	1069.39
964.54	1072.20
964.83	1069.16
965.13	1077.82
965.42	1086.94
965.72	1093.97
966.02	1096.78
966.31	1102.16
966.61	1090.69
966.90	1075.01
967.20	1068.22
967.49	1063.07
967.79	1062.37
968.08	1069.86
968.38	1075.01
968.67	1084.84
968.97	1094.90
969.26	1093.50
969.56	1088.82
969.85	1085.31
970.15	1081.56
970.44	1069.62
970.74	1062.84
971.03	1070.56
971.32	1070.09
971.62	1064.94
971.91	1073.37
972.21	1081.80
972.50	1080.16
972.80	1075.48
973.09	1079.69
973.38	1079.69
973.68	1088.82
973.97	1089.05
974.27	1104.73
974.56	1097.71
974.85	1092.33
975.15	1079.69
975.44	1073.84
975.73	1068.22
976.03	1073.60
976.32	1084.60
976.61	1092.33
976.91	1100.52
977.20	1100.52
977.49	1097.48
977.79	1098.88
978.08	1086.24
978.37	1075.71
978.67	1067.52
978.96	1074.31
979.25	1077.35
979.55	1085.07
979.84	1096.78
980.13	1109.88
980.42	1108.95
980.72	1095.84
981.01	1100.75
981.30	1091.16
981.59	1085.77
981.89	1078.99
982.18	1075.01
982.47	1071.50
982.76	1085.31
983.06	1083.67
983.35	1084.84
983.64	1087.88
983.93	1079.69
984.22	1070.80
984.52	1070.56
984.81	1077.58
985.10	1075.71
985.39	1088.58
985.68	1089.05
985.97	1084.84
986.27	1091.16
986.56	1096.54
986.85	1091.86
987.14	1095.37
987.43	1100.75
987.72	1092.09
988.01	1093.97
988.31	1095.14
988.60	1086.24
988.89	1087.18
989.18	1078.05
989.47	1077.82
989.76	1072.43
990.05	1074.77
990.34	1081.33
990.63	1087.18
990.92	1079.69
991.21	1086.94
991.51	1093.26
991.80	1086.94
992.09	1081.56
992.38	1086.48
992.67	1083.20
992.96	1080.16
993.25	1078.75
993.54	1084.37
993.83	1087.18
994.12	1079.46
994.41	1080.63
994.70	1078.28
994.99	1079.46
995.28	1080.39
995.57	1092.09
995.86	1092.33
996.15	1091.39
996.44	1093.73
996.73	1086.48
997.02	1075.01
997.31	1075.24
997.59	1080.63
997.88	1080.16
998.17	1085.31
998.46	1098.41
998.75	1098.65
999.04	1095.84
999.33	1090.69
999.62	1085.77
999.91	1077.82
1000.20	1066.82
1000.49	1070.56
1000.77	1071.26
1001.06	1081.56
1001.35	1078.05
1001.64	1092.80
1001.93	1085.54
1002.22	1090.46
1002.51	1079.69
1002.79	1076.65
1003.08	1059.79
1003.37	1069.86
1003.66	1066.11
1003.95	1074.77
1004.23	1089.05
1004.52	1104.26
1004.81	1106.14
1005.10	1111.52
1005.39	1108.01
1005.67	1102.16
1005.96	1088.35
1006.25	1086.94
1006.54	1071.26
1006.83	1066.35
1007.11	1057.69
1007.40	1066.35
1007.69	1067.28
1007.97	1080.63
1008.26	1076.88
1008.55	1088.58
1008.84	1086.94
1009.12	1075.24
1009.41	1072.43
1009.70	1077.35
1009.98	1070.33
1010.27	1067.05
1010.56	1066.35
1010.85	1065.65
1011.13	1073.37
1011.42	1078.28
1011.71	1082.73
1011.99	1088.58
1012.28	1095.37
1012.56	1093.03
1012.85	1093.26
1013.14	1086.71
1013.42	1083.43
1013.71	1074.54
1014.00	1071.26
1014.28	1069.86
1014.57	1069.62
1014.85	1069.16
1015.14	1075.94
1015.43	1077.82
1015.71	1072.90
1016.00	1075.71
1016.28	1080.86
1016.57	1078.28
1016.85	1076.88
1017.14	1084.14
1017.43	1075.48
1017.71	1061.67
1018.00	1062.37
1018.28	1065.88
1018.57	1062.14
1018.85	1074.31
1019.14	1088.58
1019.42	1088.82
1019.71	1083.20
1019.99	1082.26
1020.28	1081.80
1020.56	1082.97
1020.85	1080.16
1021.13	1085.77
1021.42	1082.73
1021.70	1091.39
1021.99	1093.97
1022.27	1098.65
1022.55	1110.58
1022.84	1103.56
>>>>>End Processed Spectral Data<<<<<
