SpectraSuite Data File
++++++++++++++++++++++++++++++++++++
Date: Mon Aug 26 10:24:40 PDT 2019
User: corrico
Dark Spectrum Present: No
Reference Spectrum Present: No
Number of Sampled Component Spectra: 1
Spectrometers: USB2+H06089
Integration Time (usec): 10000 (USB2+H06089)
Spectra Averaged: 2 (USB2+H06089)
Boxcar Smoothing: 2 (USB2+H06089)
Correct for Electrical Dark: No (USB2+H06089)
Strobe/Lamp Enabled: No (USB2+H06089)
Correct for Detector Non-linearity: No (USB2+H06089)
Correct for Stray Light: No (USB2+H06089)
Number of Pixels in Processed Spectrum: 2048
>>>>>Begin Processed Spectral Data<<<<<
339.70	1035.69
340.07	1035.69
340.45	1009.94
340.82	983.49
341.19	965.94
341.57	937.15
341.94	920.53
342.31	899.47
342.69	891.04
343.06	872.08
343.43	868.81
343.81	872.32
344.18	876.53
344.55	890.11
344.93	900.40
345.30	907.66
345.67	921.00
346.04	934.81
346.42	938.32
346.79	950.26
347.16	966.17
347.54	972.26
347.91	980.45
348.28	994.49
348.65	1011.35
349.03	1022.58
349.40	1030.30
349.77	1037.56
350.14	1050.43
350.52	1055.35
350.89	1059.56
351.26	1065.88
351.63	1075.48
352.01	1065.41
352.38	1063.31
352.75	1064.01
353.12	1070.56
353.50	1075.94
353.87	1085.77
354.24	1097.48
354.61	1099.58
354.98	1100.05
355.36	1097.48
355.73	1099.35
356.10	1082.97
356.47	1094.90
356.84	1099.35
357.22	1100.75
357.59	1098.41
357.96	1114.80
358.33	1112.22
358.70	1102.63
359.08	1101.22
359.45	1104.97
359.82	1109.18
360.19	1109.18
360.56	1112.46
360.94	1105.20
361.31	1108.95
361.68	1097.48
362.05	1091.63
362.42	1088.58
362.79	1090.22
363.16	1092.09
363.54	1090.22
363.91	1084.84
364.28	1089.75
364.65	1102.63
365.02	1100.29
365.39	1101.46
365.76	1101.92
366.14	1096.78
366.51	1089.52
366.88	1078.28
367.25	1084.14
367.62	1096.78
367.99	1102.86
368.36	1106.84
368.73	1115.50
369.10	1117.84
369.48	1104.73
369.85	1097.48
370.22	1098.41
370.59	1095.37
370.96	1083.67
371.33	1091.39
371.70	1096.78
372.07	1095.14
372.44	1093.26
372.81	1094.90
373.18	1087.65
373.55	1078.75
373.93	1075.24
374.30	1081.09
374.67	1075.24
375.04	1078.75
375.41	1088.12
375.78	1091.39
376.15	1087.18
376.52	1100.05
376.89	1099.58
377.26	1101.69
377.63	1095.60
378.00	1093.26
378.37	1100.05
378.74	1095.60
379.11	1090.46
379.48	1096.31
379.85	1104.03
380.22	1096.31
380.59	1106.14
380.96	1115.27
381.33	1110.82
381.70	1114.10
382.07	1119.95
382.44	1111.29
382.81	1108.95
383.18	1114.80
383.55	1100.29
383.92	1100.75
384.29	1108.24
384.66	1103.56
385.03	1115.03
385.40	1122.75
385.77	1120.88
386.14	1127.90
386.51	1133.52
386.88	1123.22
387.25	1136.80
387.62	1136.80
387.99	1134.93
388.36	1136.10
388.73	1133.05
389.10	1122.99
389.46	1118.78
389.83	1123.46
390.20	1120.65
390.57	1129.78
390.94	1137.03
391.31	1138.20
391.68	1131.65
392.05	1133.05
392.42	1123.22
392.79	1113.63
393.16	1111.52
393.53	1107.54
393.89	1114.80
394.26	1122.05
394.63	1136.10
395.00	1142.88
395.37	1145.22
395.74	1134.46
396.11	1138.67
396.48	1132.12
396.84	1136.80
397.21	1148.27
397.58	1153.42
397.95	1153.18
398.32	1155.29
398.69	1148.50
399.06	1145.69
399.42	1148.27
399.79	1156.46
400.16	1159.27
400.53	1166.99
400.90	1176.35
401.27	1180.57
401.64	1187.12
402.00	1209.82
402.37	1228.55
402.74	1235.80
403.11	1263.19
403.48	1263.42
403.84	1278.40
404.21	1293.61
404.58	1311.87
404.95	1320.06
405.32	1348.38
405.68	1361.26
406.05	1376.24
406.42	1398.94
406.79	1420.94
407.16	1451.37
407.52	1476.41
407.89	1495.13
408.26	1541.24
408.63	1580.56
408.99	1622.46
409.36	1659.67
409.73	1720.53
410.10	1763.13
410.47	1821.17
410.83	1871.49
411.20	1939.13
411.57	2001.63
411.94	2077.69
412.30	2147.21
412.67	2230.53
413.04	2314.56
413.40	2408.88
413.77	2511.63
414.14	2637.32
414.51	2755.98
414.87	2884.24
415.24	3038.25
415.61	3203.26
415.97	3350.71
416.34	3533.97
416.71	3728.71
417.08	3940.06
417.44	4121.68
417.81	4374.46
418.18	4613.66
418.54	4864.80
418.91	5142.63
419.28	5463.28
419.64	5765.91
420.01	6093.58
420.38	6444.67
420.74	6779.13
421.11	7185.44
421.48	7570.46
421.84	8028.74
422.21	8461.27
422.58	8958.87
422.94	9441.02
423.31	9968.58
423.68	10531.71
424.04	11193.14
424.41	11860.66
424.77	12489.80
425.14	13199.69
425.51	13903.02
425.87	14682.41
426.24	15412.90
426.61	16372.98
426.97	17427.16
427.34	18411.36
427.70	19439.79
428.07	20534.69
428.44	21594.02
428.80	22617.30
429.17	23702.14
429.53	24780.66
429.90	26073.33
430.27	27182.51
430.63	28331.48
431.00	29718.02
431.36	31163.06
431.73	32400.74
432.09	33792.42
432.46	35126.99
432.83	36445.89
433.19	37646.58
433.56	39157.86
433.92	40723.21
434.29	42241.05
434.65	43748.12
435.02	45233.19
435.38	46539.21
435.75	47374.08
436.11	48692.97
436.48	49745.51
436.84	50718.94
437.21	51650.47
437.57	52710.50
437.94	53284.87
438.30	53784.34
438.67	54089.31
439.03	54107.33
439.40	54229.74
439.76	54151.34
440.13	53974.39
440.49	53926.65
440.86	53583.29
441.22	53196.63
441.59	52564.69
441.95	51957.79
442.32	50953.93
442.68	50260.20
443.05	49227.08
443.41	48342.36
443.78	47322.12
444.14	46442.08
444.51	45194.81
444.87	44283.40
445.24	42991.19
445.60	41753.52
445.96	40504.14
446.33	39608.89
446.69	38357.87
447.06	37488.59
447.42	36530.61
447.79	35421.67
448.15	34363.28
448.51	33406.93
448.88	32481.72
449.24	31448.37
449.61	30753.00
449.97	29901.05
450.33	29083.26
450.70	28132.54
451.06	27515.34
451.43	26707.85
451.79	26081.06
452.15	25520.03
452.52	24980.54
452.88	24294.29
453.24	23838.82
453.61	23227.94
453.97	22663.88
454.34	22023.74
454.70	21516.78
455.06	20805.96
455.43	20067.75
455.79	19234.29
456.15	18675.60
456.52	17971.10
456.88	17435.82
457.24	16886.26
457.61	16440.39
457.97	15874.22
458.33	15343.38
458.70	14770.65
459.06	14226.01
459.42	13767.50
459.79	13255.16
460.15	12813.03
460.51	12358.03
460.88	11914.03
461.24	11413.39
461.60	11046.39
461.96	10652.01
462.33	10312.17
462.69	9996.66
463.05	9712.99
463.42	9451.55
463.78	9167.18
464.14	8857.76
464.50	8642.43
464.87	8369.05
465.23	8062.44
465.59	7819.96
465.95	7609.55
466.32	7354.90
466.68	7133.25
467.04	6942.97
467.40	6777.96
467.77	6627.93
468.13	6462.69
468.49	6310.32
468.85	6181.12
469.22	6042.56
469.58	5900.72
469.94	5796.10
470.30	5686.80
470.66	5550.35
471.03	5429.34
471.39	5344.38
471.75	5211.67
472.11	5091.84
472.47	5027.94
472.84	4909.51
473.20	4753.63
473.56	4655.33
473.92	4544.85
474.28	4429.70
474.65	4342.40
475.01	4263.99
475.37	4166.15
475.73	4088.21
476.09	3999.74
476.45	3927.42
476.81	3842.46
477.18	3781.37
477.54	3714.43
477.90	3646.09
478.26	3560.19
478.62	3505.42
478.98	3442.69
479.34	3381.37
479.71	3323.09
480.07	3280.26
480.43	3234.62
480.79	3176.58
481.15	3134.68
481.51	3085.29
481.87	3045.74
482.23	2990.50
482.59	2937.84
482.96	2892.67
483.32	2834.15
483.68	2793.20
484.04	2764.17
484.40	2744.04
484.76	2709.64
485.12	2685.53
485.48	2633.80
485.84	2585.36
486.20	2527.54
486.56	2486.35
486.92	2447.03
487.28	2415.20
487.64	2373.07
488.00	2354.58
488.37	2317.13
488.73	2289.75
489.09	2256.74
489.45	2217.19
489.81	2179.27
490.17	2150.25
490.53	2112.33
490.89	2083.31
491.25	2063.42
491.61	2040.48
491.97	2015.67
492.33	2000.69
492.69	1965.35
493.05	1942.64
493.41	1905.43
493.77	1875.24
494.13	1846.21
494.49	1838.72
494.85	1815.32
495.21	1802.91
495.57	1790.51
495.93	1782.79
496.29	1757.51
496.64	1745.10
497.00	1722.17
497.36	1706.72
497.72	1667.40
498.08	1642.35
498.44	1612.86
498.80	1600.69
499.16	1574.24
499.52	1566.05
499.88	1569.56
500.24	1568.63
500.60	1545.22
500.96	1531.41
501.32	1515.26
501.68	1493.03
502.03	1479.22
502.39	1477.35
502.75	1469.62
503.11	1465.41
503.47	1461.43
503.83	1452.77
504.19	1446.92
504.55	1445.98
504.91	1430.77
505.26	1421.88
505.62	1408.77
505.98	1397.07
506.34	1382.09
506.70	1370.15
507.06	1353.77
507.42	1346.28
507.78	1335.51
508.13	1322.40
508.49	1320.53
508.85	1311.17
509.21	1306.02
509.57	1297.12
509.93	1298.76
510.28	1291.51
510.64	1293.61
511.00	1292.68
511.36	1292.44
511.72	1280.51
512.07	1278.40
512.43	1266.93
512.79	1251.48
513.15	1251.95
513.51	1249.85
513.86	1244.23
514.22	1239.78
514.58	1243.53
514.94	1227.61
515.30	1232.53
515.65	1231.82
516.01	1231.36
516.37	1221.76
516.73	1225.04
517.08	1209.12
517.44	1205.61
517.80	1206.78
518.16	1203.97
518.51	1192.74
518.87	1191.10
519.23	1187.82
519.59	1174.25
519.94	1181.50
520.30	1185.25
520.66	1188.06
521.01	1185.95
521.37	1187.12
521.73	1171.67
522.09	1181.27
522.44	1173.54
522.80	1181.97
523.16	1177.29
523.51	1189.93
523.87	1178.23
524.23	1182.91
524.58	1174.95
524.94	1185.72
525.30	1173.31
525.65	1177.52
526.01	1173.78
526.37	1172.14
526.72	1165.12
527.08	1162.08
527.44	1152.48
527.79	1144.52
528.15	1137.03
528.51	1150.61
528.86	1161.14
529.22	1161.61
529.58	1170.27
529.93	1174.25
530.29	1151.78
530.65	1139.61
531.00	1142.88
531.36	1141.48
531.71	1144.05
532.07	1141.01
532.43	1145.69
532.78	1144.05
533.14	1140.54
533.49	1137.73
533.85	1147.33
534.21	1149.44
534.56	1150.14
534.92	1157.16
535.27	1150.37
535.63	1156.22
535.98	1153.88
536.34	1149.91
536.69	1134.93
537.05	1130.01
537.41	1114.56
537.76	1116.44
538.12	1123.93
538.47	1130.71
538.83	1135.63
539.18	1134.69
539.54	1127.20
539.89	1111.75
540.25	1120.65
540.60	1128.61
540.96	1133.05
541.31	1135.39
541.67	1142.65
542.02	1133.05
542.38	1122.29
542.73	1124.86
543.09	1124.39
543.44	1121.12
543.80	1119.71
544.15	1119.71
544.51	1115.97
544.86	1121.12
545.22	1130.71
545.57	1133.99
545.93	1129.07
546.28	1132.82
546.64	1130.95
546.99	1115.27
547.35	1118.54
547.70	1131.41
548.05	1130.71
548.41	1130.01
548.76	1139.61
549.12	1131.88
549.47	1126.50
549.83	1129.78
550.18	1124.16
550.53	1121.12
550.89	1127.44
551.24	1127.67
551.60	1128.37
551.95	1137.73
552.30	1144.52
552.66	1137.97
553.01	1144.52
553.37	1144.76
553.72	1129.78
554.07	1123.93
554.43	1119.01
554.78	1111.05
555.13	1105.90
555.49	1120.41
555.84	1118.78
556.19	1123.93
556.55	1119.71
556.90	1109.18
557.26	1097.95
557.61	1094.90
557.96	1087.18
558.32	1090.92
558.67	1091.63
559.02	1097.95
559.37	1101.46
559.73	1109.18
560.08	1115.97
560.43	1123.69
560.79	1115.27
561.14	1118.54
561.49	1118.78
561.85	1118.31
562.20	1121.82
562.55	1120.41
562.90	1113.39
563.26	1113.39
563.61	1106.14
563.96	1105.67
564.32	1120.65
564.67	1126.27
565.02	1133.05
565.37	1131.18
565.73	1121.12
566.08	1114.56
566.43	1116.20
566.78	1118.07
567.14	1115.97
567.49	1130.48
567.84	1122.29
568.19	1118.31
568.54	1111.52
568.90	1109.18
569.25	1098.65
569.60	1103.33
569.95	1104.73
570.31	1094.20
570.66	1094.67
571.01	1094.43
571.36	1089.99
571.71	1099.12
572.06	1107.31
572.42	1109.65
572.77	1108.01
573.12	1116.67
573.47	1101.22
573.82	1092.80
574.18	1096.31
574.53	1085.54
574.88	1080.86
575.23	1083.43
575.58	1093.03
575.93	1086.48
576.28	1095.84
576.64	1090.69
576.99	1080.63
577.34	1080.39
577.69	1081.33
578.04	1088.12
578.39	1092.80
578.74	1106.84
579.09	1102.86
579.44	1108.71
579.80	1106.84
580.15	1108.95
580.50	1108.48
580.85	1115.03
581.20	1115.97
581.55	1114.80
581.90	1112.69
582.25	1107.54
582.60	1105.44
582.95	1100.75
583.30	1098.18
583.65	1104.03
584.00	1114.33
584.35	1118.31
584.71	1127.44
585.06	1121.82
585.41	1112.92
585.76	1102.16
586.11	1101.69
586.46	1091.16
586.81	1104.26
587.16	1111.52
587.51	1122.52
587.86	1108.95
588.21	1120.18
588.56	1118.78
588.91	1118.54
589.26	1119.01
589.61	1126.03
589.96	1118.31
590.31	1110.58
590.66	1114.33
591.01	1100.99
591.36	1099.12
591.71	1101.92
592.06	1103.80
592.41	1098.88
592.76	1105.20
593.10	1115.03
593.45	1112.46
593.80	1106.61
594.15	1105.67
594.50	1105.90
594.85	1103.56
595.20	1099.35
595.55	1103.56
595.90	1105.44
596.25	1105.90
596.60	1106.37
596.95	1115.73
597.30	1123.69
597.64	1175.42
597.99	1176.12
598.34	1175.18
598.69	1171.44
599.04	1151.78
599.39	1089.75
599.74	1079.46
600.09	1071.03
600.44	1069.39
600.78	1088.35
601.13	1098.18
601.48	1111.52
601.83	1113.86
602.18	1108.71
602.53	1105.44
602.88	1104.26
603.22	1094.43
603.57	1091.63
603.92	1093.03
604.27	1091.39
604.62	1081.33
604.97	1083.67
605.31	1089.52
605.66	1092.80
606.01	1100.52
606.36	1104.73
606.71	1106.61
607.05	1104.03
607.40	1110.58
607.75	1101.92
608.10	1110.82
608.44	1105.44
608.79	1111.29
609.14	1106.61
609.49	1109.18
609.84	1100.75
610.18	1106.61
610.53	1101.46
610.88	1100.99
611.23	1110.35
611.57	1118.78
611.92	1107.31
612.27	1103.33
612.62	1104.97
612.96	1100.52
613.31	1103.56
613.66	1126.50
614.00	1136.33
614.35	1128.61
614.70	1126.03
615.05	1115.97
615.39	1109.65
615.74	1105.44
616.09	1104.50
616.43	1099.12
616.78	1096.31
617.13	1090.46
617.47	1093.26
617.82	1096.54
618.17	1086.94
618.51	1091.16
618.86	1078.05
619.21	1076.88
619.55	1081.80
619.90	1099.35
620.25	1097.24
620.59	1100.05
620.94	1087.65
621.29	1082.73
621.63	1076.41
621.98	1069.39
622.32	1078.99
622.67	1081.09
623.02	1088.35
623.36	1093.97
623.71	1100.29
624.05	1098.41
624.40	1093.73
624.75	1081.33
625.09	1072.67
625.44	1075.71
625.78	1076.88
626.13	1089.99
626.48	1098.18
626.82	1111.75
627.17	1110.35
627.51	1104.50
627.86	1099.35
628.20	1093.73
628.55	1078.75
628.89	1087.65
629.24	1093.73
629.58	1090.46
629.93	1092.09
630.28	1103.80
630.62	1097.24
630.97	1100.05
631.31	1103.09
631.66	1105.90
632.00	1097.95
632.35	1091.63
632.69	1081.09
633.04	1082.03
633.38	1082.26
633.73	1085.54
634.07	1091.63
634.42	1104.03
634.76	1101.69
635.11	1090.92
635.45	1082.73
635.79	1077.35
636.14	1076.41
636.48	1085.07
636.83	1092.80
637.17	1097.01
637.52	1094.67
637.86	1087.41
638.21	1081.33
638.55	1078.75
638.89	1071.73
639.24	1076.65
639.58	1075.94
639.93	1078.75
640.27	1077.58
640.61	1087.88
640.96	1090.46
641.30	1096.78
641.65	1091.86
641.99	1105.44
642.33	1104.50
642.68	1104.26
643.02	1097.95
643.37	1109.41
643.71	1107.78
644.05	1103.80
644.40	1094.67
644.74	1091.86
645.08	1083.20
645.43	1078.05
645.77	1081.09
646.11	1082.50
646.46	1088.12
646.80	1082.26
647.14	1081.09
647.49	1084.37
647.83	1099.12
648.17	1096.78
648.52	1111.99
648.86	1108.71
649.20	1103.80
649.55	1086.94
649.89	1086.94
650.23	1076.41
650.57	1083.20
650.92	1086.24
651.26	1093.73
651.60	1098.41
651.95	1100.75
652.29	1091.39
652.63	1093.26
652.97	1092.33
653.32	1089.05
653.66	1087.41
654.00	1084.84
654.34	1079.69
654.69	1079.46
655.03	1083.67
655.37	1088.82
655.71	1101.46
656.05	1100.29
656.40	1102.63
656.74	1100.05
657.08	1104.26
657.42	1106.61
657.76	1101.46
658.11	1101.46
658.45	1102.16
658.79	1093.26
659.13	1084.60
659.47	1096.54
659.82	1093.50
660.16	1090.92
660.50	1090.46
660.84	1094.20
661.18	1090.69
661.52	1090.46
661.87	1098.41
662.21	1093.26
662.55	1081.80
662.89	1080.39
663.23	1086.01
663.57	1070.33
663.91	1081.80
664.25	1091.86
664.60	1095.14
664.94	1096.54
665.28	1097.48
665.62	1085.31
665.96	1079.22
666.30	1081.09
666.64	1074.54
666.98	1086.24
667.32	1099.82
667.66	1100.52
668.01	1107.54
668.35	1101.69
668.69	1089.52
669.03	1080.16
669.37	1087.18
669.71	1072.43
670.05	1082.73
670.39	1089.99
670.73	1089.29
671.07	1084.84
671.41	1084.84
671.75	1077.58
672.09	1078.52
672.43	1081.33
672.77	1081.09
673.11	1079.69
673.45	1089.75
673.79	1087.41
674.13	1087.41
674.47	1082.03
674.81	1088.82
675.15	1084.14
675.49	1085.77
675.83	1078.99
676.17	1086.48
676.51	1076.41
676.85	1072.90
677.19	1063.31
677.53	1064.01
677.87	1057.69
678.21	1064.24
678.55	1070.09
678.89	1082.97
679.23	1084.14
679.57	1093.50
679.90	1092.33
680.24	1092.80
680.58	1093.73
680.92	1106.14
681.26	1094.20
681.60	1092.80
681.94	1087.65
682.28	1093.03
682.62	1090.22
682.96	1099.58
683.29	1096.54
683.63	1102.39
683.97	1095.60
684.31	1091.39
684.65	1088.58
684.99	1093.50
685.33	1088.58
685.67	1097.01
686.00	1092.56
686.34	1095.60
686.68	1102.39
687.02	1100.75
687.36	1090.69
687.70	1093.97
688.03	1090.69
688.37	1086.24
688.71	1084.84
689.05	1078.75
689.39	1082.73
689.72	1082.50
690.06	1075.01
690.40	1069.62
690.74	1072.43
691.08	1070.56
691.41	1067.05
691.75	1071.26
692.09	1076.65
692.43	1080.16
692.76	1070.80
693.10	1079.22
693.44	1084.14
693.78	1084.84
694.11	1079.22
694.45	1089.75
694.79	1083.67
695.13	1075.01
695.46	1080.16
695.80	1071.03
696.14	1074.31
696.48	1082.97
696.81	1092.80
697.15	1088.12
697.49	1097.71
697.82	1097.95
698.16	1092.09
698.50	1083.67
698.83	1082.73
699.17	1080.63
699.51	1072.67
699.84	1076.18
700.18	1078.52
700.52	1082.50
700.85	1088.35
701.19	1089.29
701.53	1087.41
701.86	1081.56
702.20	1070.80
702.54	1061.20
702.87	1060.73
703.21	1052.07
703.55	1058.16
703.88	1075.01
704.22	1093.97
704.55	1100.05
704.89	1104.26
705.23	1105.67
705.56	1096.31
705.90	1090.22
706.23	1089.52
706.57	1092.56
706.91	1097.95
707.24	1108.71
707.58	1110.12
707.91	1103.56
708.25	1107.07
708.58	1096.78
708.92	1089.99
709.26	1081.80
709.59	1081.56
709.93	1073.60
710.26	1078.52
710.60	1072.90
710.93	1073.60
711.27	1075.94
711.60	1080.63
711.94	1078.75
712.27	1082.97
712.61	1084.84
712.94	1076.41
713.28	1079.22
713.61	1077.82
713.95	1084.14
714.28	1082.73
714.62	1085.54
714.95	1082.73
715.29	1084.14
715.62	1082.97
715.96	1079.46
716.29	1088.58
716.63	1080.86
716.96	1081.56
717.29	1071.73
717.63	1075.71
717.96	1074.77
718.30	1075.01
718.63	1072.43
718.97	1077.58
719.30	1082.97
719.63	1086.94
719.97	1092.80
720.30	1094.43
720.64	1083.90
720.97	1081.33
721.30	1061.43
721.64	1051.37
721.97	1053.01
722.31	1064.94
722.64	1063.07
722.97	1068.45
723.31	1079.92
723.64	1087.65
723.97	1082.03
724.31	1083.20
724.64	1082.73
724.98	1088.58
725.31	1077.35
725.64	1064.01
725.98	1059.33
726.31	1068.69
726.64	1062.14
726.97	1065.65
727.31	1070.80
727.64	1086.01
727.97	1082.03
728.31	1080.39
728.64	1090.22
728.97	1106.37
729.31	1093.03
729.64	1101.69
729.97	1094.90
730.30	1081.09
730.64	1076.41
730.97	1072.90
731.30	1055.35
731.63	1058.16
731.97	1066.58
732.30	1064.94
732.63	1077.35
732.96	1089.29
733.30	1103.56
733.63	1093.73
733.96	1090.69
734.29	1085.77
734.63	1082.50
734.96	1069.62
735.29	1062.14
735.62	1068.69
735.95	1060.50
736.29	1067.05
736.62	1076.88
736.95	1098.65
737.28	1090.22
737.61	1089.99
737.94	1082.73
738.28	1073.60
738.61	1060.50
738.94	1062.84
739.27	1070.80
739.60	1072.43
739.93	1074.77
740.27	1080.16
740.60	1082.50
740.93	1079.69
741.26	1092.56
741.59	1098.65
741.92	1097.01
742.25	1104.97
742.58	1098.65
742.91	1086.01
743.25	1086.01
743.58	1091.16
743.91	1082.73
744.24	1077.11
744.57	1071.03
744.90	1060.26
745.23	1059.56
745.56	1065.88
745.89	1075.24
746.22	1080.39
746.55	1079.46
746.88	1077.82
747.21	1075.24
747.54	1077.35
747.87	1082.73
748.20	1086.01
748.53	1086.71
748.87	1080.86
749.20	1077.11
749.53	1075.24
749.86	1068.92
750.19	1064.94
750.52	1067.99
750.85	1073.37
751.18	1072.90
751.51	1083.67
751.84	1081.56
752.16	1075.71
752.49	1066.82
752.82	1075.71
753.15	1071.97
753.48	1076.41
753.81	1077.82
754.14	1085.31
754.47	1078.75
754.80	1076.88
755.13	1068.69
755.46	1068.69
755.79	1070.56
756.12	1064.24
756.45	1071.26
756.78	1077.58
757.11	1075.01
757.43	1080.39
757.76	1085.54
758.09	1086.24
758.42	1083.43
758.75	1087.65
759.08	1088.35
759.41	1083.90
759.74	1082.03
760.07	1093.97
760.39	1105.67
760.72	1100.05
761.05	1095.37
761.38	1089.99
761.71	1087.18
762.04	1075.48
762.36	1079.46
762.69	1080.86
763.02	1091.63
763.35	1082.03
763.68	1082.50
764.01	1080.39
764.33	1091.86
764.66	1082.26
764.99	1083.67
765.32	1079.46
765.65	1082.26
765.97	1072.20
766.30	1080.63
766.63	1084.14
766.96	1096.54
767.28	1091.63
767.61	1094.90
767.94	1087.88
768.27	1092.33
768.59	1077.35
768.92	1075.24
769.25	1078.52
769.58	1076.65
769.90	1066.58
770.23	1081.56
770.56	1073.60
770.89	1064.94
771.21	1064.48
771.54	1068.45
771.87	1070.09
772.19	1083.67
772.52	1083.20
772.85	1085.07
773.17	1079.69
773.50	1076.41
773.83	1070.56
774.15	1075.24
774.48	1076.88
774.81	1083.43
775.13	1081.80
775.46	1081.09
775.79	1083.90
776.11	1081.33
776.44	1082.50
776.77	1078.05
777.09	1076.65
777.42	1067.52
777.74	1075.24
778.07	1068.92
778.40	1075.24
778.72	1078.99
779.05	1088.58
779.37	1081.56
779.70	1091.16
780.03	1096.07
780.35	1087.18
780.68	1080.16
781.00	1078.99
781.33	1082.03
781.65	1066.11
781.98	1074.54
782.31	1082.26
782.63	1078.52
782.96	1067.05
783.28	1080.63
783.61	1083.90
783.93	1078.75
784.26	1083.43
784.58	1094.90
784.91	1082.50
785.23	1080.16
785.56	1084.14
785.88	1080.16
786.21	1071.26
786.53	1082.73
786.86	1074.07
787.18	1071.50
787.51	1070.33
787.83	1078.75
788.16	1069.16
788.48	1076.88
788.81	1082.50
789.13	1098.41
789.46	1091.63
789.78	1098.65
790.10	1107.78
790.43	1105.44
790.75	1098.88
791.08	1102.39
791.40	1099.58
791.73	1104.03
792.05	1106.37
792.37	1094.20
792.70	1092.33
793.02	1098.18
793.35	1071.50
793.67	1058.62
793.99	1072.20
794.32	1074.07
794.64	1067.52
794.96	1081.33
795.29	1096.07
795.61	1087.41
795.93	1083.67
796.26	1089.29
796.58	1084.84
796.91	1079.46
797.23	1083.90
797.55	1076.65
797.87	1069.62
798.20	1072.20
798.52	1074.07
798.84	1069.16
799.17	1081.56
799.49	1078.05
799.81	1078.05
800.14	1071.73
800.46	1075.24
800.78	1069.62
801.10	1073.37
801.43	1073.84
801.75	1074.31
802.07	1074.31
802.40	1068.22
802.72	1069.62
803.04	1068.22
803.36	1073.14
803.69	1071.73
804.01	1074.77
804.33	1069.39
804.65	1078.52
804.97	1083.90
805.30	1088.12
805.62	1093.73
805.94	1086.71
806.26	1074.07
806.58	1070.56
806.91	1067.99
807.23	1072.20
807.55	1089.52
807.87	1089.29
808.19	1077.82
808.52	1075.01
808.84	1075.48
809.16	1067.28
809.48	1067.99
809.80	1073.60
810.12	1075.24
810.44	1062.84
810.77	1066.35
811.09	1072.90
811.41	1069.39
811.73	1065.88
812.05	1073.37
812.37	1076.88
812.69	1071.97
813.01	1079.22
813.33	1085.54
813.66	1072.90
813.98	1065.88
814.30	1078.05
814.62	1076.18
814.94	1075.71
815.26	1086.01
815.58	1097.95
815.90	1086.94
816.22	1092.80
816.54	1092.09
816.86	1093.73
817.18	1082.03
817.50	1086.71
817.82	1066.35
818.14	1067.52
818.46	1062.37
818.78	1071.26
819.10	1068.22
819.42	1093.97
819.74	1086.71
820.06	1085.31
820.38	1086.01
820.70	1089.52
821.02	1078.28
821.34	1091.63
821.66	1088.82
821.98	1085.07
822.30	1080.16
822.62	1077.11
822.94	1061.90
823.26	1063.54
823.58	1059.33
823.90	1051.84
824.22	1065.65
824.54	1067.28
824.86	1072.67
825.18	1076.88
825.50	1086.01
825.81	1082.26
826.13	1086.71
826.45	1092.33
826.77	1082.97
827.09	1080.63
827.41	1078.99
827.73	1085.54
828.05	1070.80
828.36	1073.60
828.68	1075.01
829.00	1063.31
829.32	1065.18
829.64	1075.01
829.96	1082.03
830.28	1077.82
830.59	1086.01
830.91	1078.75
831.23	1087.41
831.55	1083.67
831.87	1087.18
832.19	1091.63
832.50	1091.16
832.82	1084.60
833.14	1080.39
833.46	1079.69
833.78	1077.58
834.09	1083.90
834.41	1081.80
834.73	1090.69
835.05	1100.05
835.36	1100.29
835.68	1097.24
836.00	1092.56
836.32	1082.26
836.63	1077.58
836.95	1065.41
837.27	1066.11
837.59	1059.33
837.90	1063.54
838.22	1056.99
838.54	1066.35
838.85	1067.75
839.17	1075.71
839.49	1091.16
839.80	1094.90
840.12	1091.86
840.44	1084.14
840.76	1086.48
841.07	1067.05
841.39	1063.07
841.71	1065.18
842.02	1064.94
842.34	1077.35
842.65	1075.01
842.97	1074.77
843.29	1074.07
843.60	1081.56
843.92	1077.82
844.24	1085.31
844.55	1086.24
844.87	1089.29
845.18	1096.31
845.50	1086.48
845.82	1078.75
846.13	1085.07
846.45	1089.75
846.76	1085.77
847.08	1086.94
847.40	1092.56
847.71	1090.46
848.03	1084.60
848.34	1081.33
848.66	1086.94
848.97	1085.31
849.29	1086.71
849.60	1086.48
849.92	1094.43
850.24	1090.92
850.55	1096.54
850.87	1097.48
851.18	1100.05
851.50	1085.77
851.81	1088.82
852.13	1083.20
852.44	1078.52
852.76	1071.97
853.07	1069.39
853.39	1055.58
853.70	1050.43
854.01	1056.05
854.33	1059.79
854.64	1076.41
854.96	1080.16
855.27	1088.82
855.59	1079.22
855.90	1078.52
856.22	1073.84
856.53	1082.73
856.84	1084.14
857.16	1084.14
857.47	1078.99
857.79	1082.73
858.10	1083.67
858.41	1090.69
858.73	1099.58
859.04	1100.99
859.36	1090.22
859.67	1084.84
859.98	1068.69
860.30	1057.92
860.61	1055.11
860.92	1057.45
861.24	1052.07
861.55	1061.20
861.87	1072.90
862.18	1081.56
862.49	1069.62
862.81	1087.65
863.12	1085.07
863.43	1079.92
863.74	1073.37
864.06	1083.20
864.37	1071.50
864.68	1068.22
865.00	1072.67
865.31	1076.41
865.62	1074.31
865.94	1075.01
866.25	1092.33
866.56	1088.82
866.87	1085.31
867.19	1089.05
867.50	1078.99
867.81	1067.52
868.12	1073.37
868.44	1080.16
868.75	1080.63
869.06	1086.94
869.37	1088.35
869.68	1083.67
870.00	1074.77
870.31	1067.52
870.62	1065.65
870.93	1064.48
871.24	1065.88
871.56	1074.77
871.87	1083.90
872.18	1087.18
872.49	1085.31
872.80	1085.77
873.12	1079.92
873.43	1078.05
873.74	1072.90
874.05	1075.48
874.36	1058.62
874.67	1060.73
874.98	1057.45
875.29	1066.35
875.61	1071.03
875.92	1093.03
876.23	1097.48
876.54	1098.41
876.85	1096.07
877.16	1091.39
877.47	1081.80
877.78	1080.39
878.09	1077.58
878.40	1081.80
878.72	1086.24
879.03	1089.75
879.34	1083.43
879.65	1084.60
879.96	1072.90
880.27	1061.67
880.58	1055.58
880.89	1062.60
881.20	1065.41
881.51	1068.69
881.82	1072.20
882.13	1068.69
882.44	1070.80
882.75	1073.37
883.06	1083.43
883.37	1083.20
883.68	1096.31
883.99	1093.03
884.30	1090.92
884.61	1079.46
884.92	1078.05
885.23	1072.67
885.54	1072.43
885.85	1068.69
886.16	1069.16
886.47	1064.01
886.78	1063.07
887.08	1063.54
887.39	1062.84
887.70	1059.79
888.01	1066.11
888.32	1064.24
888.63	1067.05
888.94	1067.05
889.25	1069.86
889.56	1069.39
889.87	1072.20
890.17	1069.62
890.48	1067.99
890.79	1066.82
891.10	1071.97
891.41	1073.60
891.72	1075.01
892.03	1078.99
892.34	1092.33
892.64	1085.31
892.95	1084.14
893.26	1076.18
893.57	1089.75
893.88	1084.60
894.18	1088.12
894.49	1086.01
894.80	1094.43
895.11	1095.37
895.42	1087.88
895.72	1088.82
896.03	1082.73
896.34	1080.63
896.65	1061.20
896.96	1069.16
897.26	1066.82
897.57	1072.67
897.88	1074.07
898.19	1082.97
898.49	1078.99
898.80	1076.65
899.11	1075.94
899.41	1073.14
899.72	1064.94
900.03	1072.67
900.34	1079.46
900.64	1081.80
900.95	1079.22
901.26	1087.65
901.56	1079.92
901.87	1074.54
902.18	1082.50
902.48	1089.52
902.79	1084.14
903.10	1083.43
903.40	1090.92
903.71	1069.16
904.02	1062.84
904.32	1064.71
904.63	1061.43
904.94	1057.22
905.24	1064.71
905.55	1074.31
905.85	1079.22
906.16	1089.05
906.47	1093.03
906.77	1101.22
907.08	1096.07
907.38	1085.77
907.69	1087.18
908.00	1084.84
908.30	1078.99
908.61	1073.14
908.91	1078.28
909.22	1076.88
909.52	1079.92
909.83	1090.69
910.14	1088.58
910.44	1094.67
910.75	1091.63
911.05	1086.94
911.36	1067.75
911.66	1065.41
911.97	1061.43
912.27	1056.52
912.58	1056.75
912.88	1066.82
913.19	1074.07
913.49	1070.56
913.80	1076.18
914.10	1079.69
914.41	1076.88
914.71	1076.41
915.01	1077.35
915.32	1078.05
915.62	1078.05
915.93	1086.01
916.23	1084.84
916.54	1081.80
916.84	1078.05
917.15	1072.90
917.45	1071.03
917.75	1075.48
918.06	1081.09
918.36	1083.90
918.67	1086.71
918.97	1077.58
919.27	1060.73
919.58	1061.43
919.88	1062.14
920.18	1061.43
920.49	1059.56
920.79	1081.80
921.10	1074.31
921.40	1072.67
921.70	1065.88
922.01	1077.11
922.31	1074.07
922.61	1076.65
922.92	1075.71
923.22	1087.65
923.52	1080.16
923.82	1066.35
924.13	1070.09
924.43	1068.92
924.73	1064.48
925.04	1065.88
925.34	1073.37
925.64	1071.03
925.94	1074.07
926.25	1067.99
926.55	1073.14
926.85	1073.14
927.15	1077.82
927.46	1078.99
927.76	1083.67
928.06	1086.71
928.36	1091.86
928.67	1084.14
928.97	1086.71
929.27	1092.80
929.57	1092.33
929.87	1080.63
930.18	1092.56
930.48	1093.97
930.78	1086.24
931.08	1087.65
931.38	1094.67
931.69	1083.67
931.99	1089.05
932.29	1090.69
932.59	1089.29
932.89	1086.01
933.19	1099.82
933.49	1078.99
933.80	1081.80
934.10	1085.07
934.40	1084.84
934.70	1070.80
935.00	1079.22
935.30	1073.37
935.60	1060.96
935.90	1055.35
936.20	1053.48
936.50	1055.35
936.81	1059.79
937.11	1069.39
937.41	1075.01
937.71	1081.33
938.01	1073.84
938.31	1073.37
938.61	1065.18
938.91	1071.26
939.21	1069.62
939.51	1075.48
939.81	1072.67
940.11	1080.86
940.41	1078.75
940.71	1080.16
941.01	1088.35
941.31	1088.35
941.61	1090.46
941.91	1086.01
942.21	1093.73
942.51	1093.03
942.81	1090.69
943.11	1085.54
943.41	1087.65
943.71	1082.50
944.01	1073.60
944.31	1083.90
944.61	1083.20
944.90	1085.77
945.20	1081.80
945.50	1087.88
945.80	1086.24
946.10	1088.58
946.40	1084.84
946.70	1096.54
947.00	1105.20
947.30	1101.69
947.60	1100.29
947.89	1105.44
948.19	1100.99
948.49	1078.28
948.79	1071.97
949.09	1075.71
949.39	1074.07
949.69	1074.07
949.98	1084.84
950.28	1085.54
950.58	1074.07
950.88	1067.52
951.18	1055.82
951.48	1055.82
951.77	1062.37
952.07	1076.18
952.37	1078.52
952.67	1078.75
952.97	1073.37
953.26	1081.09
953.56	1073.84
953.86	1080.63
954.16	1078.75
954.45	1086.24
954.75	1077.35
955.05	1085.31
955.35	1082.26
955.64	1086.01
955.94	1080.39
956.24	1077.58
956.54	1071.97
956.83	1078.28
957.13	1089.52
957.43	1091.86
957.72	1086.94
958.02	1079.46
958.32	1072.67
958.61	1063.54
958.91	1067.52
959.21	1073.14
959.50	1084.84
959.80	1084.37
960.10	1087.41
960.39	1087.18
960.69	1091.63
960.99	1082.73
961.28	1082.26
961.58	1085.07
961.87	1082.97
962.17	1075.71
962.47	1087.41
962.76	1082.50
963.06	1081.56
963.36	1086.71
963.65	1094.43
963.95	1078.99
964.24	1081.33
964.54	1076.18
964.83	1063.54
965.13	1063.77
965.42	1074.77
965.72	1075.01
966.02	1079.69
966.31	1073.60
966.61	1066.58
966.90	1058.62
967.20	1063.07
967.49	1060.50
967.79	1067.75
968.08	1073.14
968.38	1075.01
968.67	1070.80
968.97	1077.11
969.26	1086.24
969.56	1084.14
969.85	1083.20
970.15	1078.05
970.44	1070.56
970.74	1066.58
971.03	1066.11
971.32	1065.65
971.62	1072.67
971.91	1079.92
972.21	1080.39
972.50	1075.71
972.80	1071.97
973.09	1072.90
973.38	1068.45
973.68	1070.33
973.97	1079.69
974.27	1089.05
974.56	1085.77
974.85	1082.73
975.15	1082.03
975.44	1071.26
975.73	1070.56
976.03	1076.65
976.32	1079.92
976.61	1078.75
976.91	1090.22
977.20	1097.24
977.49	1095.84
977.79	1085.77
978.08	1081.80
978.37	1071.97
978.67	1071.73
978.96	1075.01
979.25	1079.69
979.55	1084.84
979.84	1082.26
980.13	1065.41
980.42	1063.07
980.72	1061.90
981.01	1056.99
981.30	1065.41
981.59	1068.45
981.89	1071.26
982.18	1080.86
982.47	1082.26
982.76	1083.20
983.06	1083.20
983.35	1061.43
983.64	1055.58
983.93	1053.71
984.22	1056.99
984.52	1059.09
984.81	1070.56
985.10	1071.03
985.39	1074.07
985.68	1068.92
985.97	1073.37
986.27	1084.37
986.56	1069.86
986.85	1061.20
987.14	1065.88
987.43	1065.88
987.72	1050.20
988.01	1068.92
988.31	1072.43
988.60	1073.14
988.89	1065.65
989.18	1076.18
989.47	1070.80
989.76	1072.90
990.05	1068.69
990.34	1068.22
990.63	1064.24
990.92	1072.67
991.21	1079.46
991.51	1074.54
991.80	1083.43
992.09	1095.84
992.38	1086.01
992.67	1074.54
992.96	1078.05
993.25	1069.86
993.54	1059.56
993.83	1057.92
994.12	1071.50
994.41	1068.69
994.70	1077.35
994.99	1086.24
995.28	1101.92
995.57	1103.09
995.86	1108.48
996.15	1101.46
996.44	1091.86
996.73	1079.22
997.02	1072.90
997.31	1069.39
997.59	1064.71
997.88	1064.24
998.17	1062.60
998.46	1057.69
998.75	1059.09
999.04	1065.88
999.33	1064.71
999.62	1065.18
999.91	1065.88
1000.20	1065.88
1000.49	1079.69
1000.77	1097.71
1001.06	1102.16
1001.35	1099.35
1001.64	1102.86
1001.93	1086.71
1002.22	1081.80
1002.51	1077.11
1002.79	1085.07
1003.08	1086.24
1003.37	1087.65
1003.66	1079.46
1003.95	1081.09
1004.23	1091.86
1004.52	1088.82
1004.81	1082.73
1005.10	1068.69
1005.39	1065.88
1005.67	1053.48
1005.96	1064.71
1006.25	1067.75
1006.54	1083.43
1006.83	1089.52
1007.11	1092.56
1007.40	1076.41
1007.69	1081.09
1007.97	1082.73
1008.26	1087.65
1008.55	1083.20
1008.84	1078.99
1009.12	1081.80
1009.41	1070.56
1009.70	1057.22
1009.98	1052.30
1010.27	1064.48
1010.56	1059.56
1010.85	1062.84
1011.13	1067.05
1011.42	1076.18
1011.71	1072.90
1011.99	1077.35
1012.28	1079.46
1012.56	1075.48
1012.85	1068.69
1013.14	1058.62
1013.42	1062.84
1013.71	1061.90
1014.00	1071.50
1014.28	1075.24
1014.57	1081.56
1014.85	1074.77
1015.14	1080.39
1015.43	1075.48
1015.71	1083.43
1016.00	1096.31
1016.28	1094.90
1016.57	1085.77
1016.85	1090.69
1017.14	1088.35
1017.43	1085.31
1017.71	1086.24
1018.00	1099.35
1018.28	1095.84
1018.57	1088.58
1018.85	1082.26
1019.14	1077.82
1019.42	1068.69
1019.71	1074.07
1019.99	1071.97
1020.28	1066.58
1020.56	1078.52
1020.85	1074.77
1021.13	1068.22
1021.42	1067.52
1021.70	1075.94
1021.99	1071.03
1022.27	1068.92
1022.55	1081.33
1022.84	1038.03
>>>>>End Processed Spectral Data<<<<<
