SpectraSuite Data File
++++++++++++++++++++++++++++++++++++
Date: Mon Aug 26 10:24:41 PDT 2019
User: corrico
Dark Spectrum Present: No
Reference Spectrum Present: No
Number of Sampled Component Spectra: 1
Spectrometers: USB2+H06089
Integration Time (usec): 10000 (USB2+H06089)
Spectra Averaged: 2 (USB2+H06089)
Boxcar Smoothing: 2 (USB2+H06089)
Correct for Electrical Dark: No (USB2+H06089)
Strobe/Lamp Enabled: No (USB2+H06089)
Correct for Detector Non-linearity: No (USB2+H06089)
Correct for Stray Light: No (USB2+H06089)
Number of Pixels in Processed Spectrum: 2048
>>>>>Begin Processed Spectral Data<<<<<
339.70	1027.50
340.07	1027.50
340.45	989.34
340.82	978.81
341.19	953.30
341.57	921.94
341.94	914.92
342.31	908.36
342.69	899.47
343.06	897.60
343.43	912.11
343.81	910.00
344.18	912.11
344.55	913.28
344.93	910.70
345.30	907.89
345.67	911.87
346.04	918.89
346.42	930.83
346.79	940.90
347.16	945.34
347.54	955.17
347.91	967.58
348.28	970.39
348.65	995.90
349.03	1004.32
349.40	1013.45
349.77	1011.58
350.14	1022.58
350.52	1033.81
350.89	1040.37
351.26	1048.09
351.63	1063.31
352.01	1067.52
352.38	1062.84
352.75	1080.86
353.12	1082.26
353.50	1098.65
353.87	1105.90
354.24	1107.07
354.61	1100.29
354.98	1107.31
355.36	1104.73
355.73	1102.63
356.10	1099.82
356.47	1098.65
356.84	1094.90
357.22	1085.54
357.59	1081.09
357.96	1079.69
358.33	1082.50
358.70	1092.56
359.08	1086.24
359.45	1096.07
359.82	1099.58
360.19	1099.58
360.56	1100.29
360.94	1106.14
361.31	1102.86
361.68	1108.95
362.05	1103.33
362.42	1095.60
362.79	1095.84
363.16	1099.58
363.54	1099.82
363.91	1112.69
364.28	1124.16
364.65	1121.35
365.02	1115.97
365.39	1106.14
365.76	1089.05
366.14	1076.18
366.51	1082.73
366.88	1081.09
367.25	1077.58
367.62	1092.09
367.99	1098.18
368.36	1094.90
368.73	1087.18
369.10	1085.77
369.48	1083.90
369.85	1077.35
370.22	1072.90
370.59	1082.97
370.96	1089.75
371.33	1092.33
371.70	1101.92
372.07	1105.20
372.44	1100.05
372.81	1105.20
373.18	1102.16
373.55	1096.31
373.93	1095.14
374.30	1092.56
374.67	1089.99
375.04	1087.88
375.41	1086.48
375.78	1091.86
376.15	1093.03
376.52	1096.54
376.89	1100.05
377.26	1100.75
377.63	1096.31
378.00	1104.26
378.37	1105.90
378.74	1102.16
379.11	1096.54
379.48	1104.26
379.85	1103.09
380.22	1099.58
380.59	1104.26
380.96	1111.75
381.33	1103.80
381.70	1106.84
382.07	1111.29
382.44	1111.05
382.81	1114.80
383.18	1124.86
383.55	1120.41
383.92	1119.01
384.29	1117.14
384.66	1114.10
385.03	1121.12
385.40	1127.67
385.77	1122.75
386.14	1130.71
386.51	1136.10
386.88	1127.20
387.25	1122.29
387.62	1122.05
387.99	1120.18
388.36	1124.39
388.73	1118.31
389.10	1117.37
389.46	1124.16
389.83	1126.27
390.20	1116.90
390.57	1121.82
390.94	1125.10
391.31	1120.41
391.68	1114.80
392.05	1119.01
392.42	1111.99
392.79	1113.16
393.16	1121.58
393.53	1134.46
393.89	1139.61
394.26	1142.65
394.63	1146.86
395.00	1143.82
395.37	1131.18
395.74	1129.54
396.11	1141.48
396.48	1144.99
396.84	1151.31
397.21	1156.93
397.58	1157.39
397.95	1156.93
398.32	1158.57
398.69	1168.86
399.06	1174.48
399.42	1187.35
399.79	1185.72
400.16	1194.38
400.53	1196.95
400.90	1211.70
401.27	1212.63
401.64	1222.46
402.00	1223.16
402.37	1229.72
402.74	1231.12
403.11	1237.91
403.48	1259.91
403.84	1261.08
404.21	1275.59
404.58	1288.00
404.95	1309.53
405.32	1328.02
405.68	1355.40
406.05	1369.45
406.42	1390.75
406.79	1414.39
407.16	1424.45
407.52	1451.37
407.89	1489.52
408.26	1521.82
408.63	1550.60
408.99	1593.44
409.36	1643.76
409.73	1690.80
410.10	1752.13
410.47	1803.15
410.83	1863.53
411.20	1937.96
411.57	2007.24
411.94	2076.29
412.30	2165.93
412.67	2246.21
413.04	2315.73
413.40	2402.33
413.77	2503.67
414.14	2614.14
414.51	2748.26
414.87	2886.35
415.24	3032.40
415.61	3182.19
415.97	3328.48
416.34	3497.23
416.71	3704.13
417.08	3920.40
417.44	4138.54
417.81	4396.70
418.18	4660.71
418.54	4908.34
418.91	5163.69
419.28	5483.88
419.64	5790.25
420.01	6129.39
420.38	6468.30
420.74	6838.81
421.11	7215.40
421.48	7611.42
421.84	8048.17
422.21	8473.21
422.58	8950.68
422.94	9463.25
423.31	10018.43
423.68	10629.54
424.04	11337.56
424.41	12023.80
424.77	12649.89
425.14	13304.07
425.51	13967.38
425.87	14663.92
426.24	15347.59
426.61	16272.81
426.97	17330.96
427.34	18305.56
427.70	19432.53
428.07	20566.05
428.44	21608.06
428.80	22592.72
429.17	23659.77
429.53	24656.84
429.90	25907.86
430.27	27044.89
430.63	28287.25
431.00	29584.14
431.36	31026.84
431.73	32253.05
432.09	33603.54
432.46	34880.77
432.83	36277.37
433.19	37505.68
433.56	39032.88
433.92	40646.21
434.29	42176.22
434.65	43653.10
435.02	45067.95
435.38	46315.46
435.75	47202.75
436.11	48439.02
436.48	49545.63
436.84	50559.78
437.21	51524.55
437.57	52555.09
437.94	53238.29
438.30	53720.91
438.67	53994.52
439.03	54094.23
439.40	54195.34
439.76	54083.93
440.13	53881.24
440.49	53921.96
440.86	53598.97
441.22	53251.17
441.59	52676.80
441.95	52167.03
442.32	51261.01
442.68	50571.25
443.05	49584.02
443.41	48693.44
443.78	47543.54
444.14	46525.40
444.51	45212.13
444.87	44155.84
445.24	42833.68
445.60	41668.56
445.96	40490.80
446.33	39666.23
446.69	38528.03
447.06	37653.60
447.42	36621.89
447.79	35491.42
448.15	34390.19
448.51	33354.74
448.88	32408.70
449.24	31418.65
449.61	30741.06
449.97	29902.92
450.33	29210.12
450.70	28361.21
451.06	27812.35
451.43	27007.68
451.79	26386.73
452.15	25767.66
452.52	25158.42
452.88	24473.81
453.24	23880.49
453.61	23247.14
453.97	22584.06
454.34	21954.46
454.70	21383.37
455.06	20779.28
455.43	20100.05
455.79	19352.49
456.15	18778.12
456.52	18090.70
456.88	17511.89
457.24	16883.92
457.61	16418.39
457.97	15845.66
458.33	15284.17
458.70	14738.59
459.06	14161.65
459.42	13676.45
459.79	13180.02
460.15	12776.05
460.51	12297.64
460.88	11913.33
461.24	11423.45
461.60	11055.75
461.96	10682.91
462.33	10322.46
462.69	10002.51
463.05	9749.27
463.42	9449.44
463.78	9150.32
464.14	8898.01
464.50	8656.00
464.87	8359.93
465.23	8103.40
465.59	7879.65
465.95	7643.02
466.32	7434.71
466.68	7248.64
467.04	7030.27
467.40	6816.34
467.77	6648.29
468.13	6447.94
468.49	6283.17
468.85	6137.35
469.22	6006.52
469.58	5880.13
469.94	5762.16
470.30	5615.88
470.66	5516.64
471.03	5397.51
471.39	5297.80
471.75	5212.14
472.11	5121.09
472.47	5027.70
472.84	4934.55
473.20	4821.27
473.56	4707.52
473.92	4619.05
474.28	4518.40
474.65	4424.55
475.01	4337.71
475.37	4248.31
475.73	4142.51
476.09	4035.32
476.45	3950.59
476.81	3852.99
477.18	3749.30
477.54	3696.41
477.90	3629.00
478.26	3562.06
478.62	3483.65
478.98	3456.04
479.34	3399.16
479.71	3350.71
480.07	3304.84
480.43	3276.52
480.79	3204.19
481.15	3141.23
481.51	3093.02
481.87	3042.70
482.23	2983.25
482.59	2926.84
482.96	2893.60
483.32	2837.20
483.68	2801.15
484.04	2774.24
484.40	2748.96
484.76	2697.00
485.12	2669.38
485.48	2627.25
485.84	2576.46
486.20	2538.55
486.56	2485.65
486.92	2458.50
487.28	2417.54
487.64	2378.45
488.00	2331.41
488.37	2327.19
488.73	2280.62
489.09	2253.00
489.45	2233.57
489.81	2216.02
490.17	2169.68
490.53	2124.50
490.89	2087.06
491.25	2059.44
491.61	2037.20
491.97	2012.16
492.33	2013.80
492.69	1994.37
493.05	1964.65
493.41	1937.26
493.77	1902.86
494.13	1860.02
494.49	1835.68
494.85	1822.34
495.21	1794.96
495.57	1787.47
495.93	1784.66
496.29	1776.00
496.64	1765.70
497.00	1745.57
497.36	1718.89
497.72	1695.02
498.08	1665.76
498.44	1629.72
498.80	1611.46
499.16	1593.44
499.52	1572.84
499.88	1562.31
500.24	1557.16
500.60	1552.24
500.96	1543.58
501.32	1536.33
501.68	1515.50
502.03	1494.43
502.39	1481.56
502.75	1480.86
503.11	1454.41
503.47	1445.98
503.83	1456.05
504.19	1448.56
504.55	1430.77
504.91	1427.02
505.26	1419.77
505.62	1387.94
505.98	1367.11
506.34	1363.36
506.70	1363.83
507.06	1357.28
507.42	1358.45
507.78	1356.57
508.13	1339.96
508.49	1336.91
508.85	1328.96
509.21	1325.68
509.57	1318.66
509.93	1319.59
510.28	1306.02
510.64	1299.00
511.00	1279.57
511.36	1278.17
511.72	1263.89
512.07	1269.97
512.43	1263.89
512.79	1267.17
513.15	1259.91
513.51	1274.42
513.86	1267.40
514.22	1260.85
514.58	1261.08
514.94	1261.08
515.30	1254.76
515.65	1262.48
516.01	1271.61
516.37	1262.02
516.73	1247.04
517.08	1241.42
517.44	1235.33
517.80	1227.61
518.16	1223.63
518.51	1229.02
518.87	1215.21
519.23	1199.52
519.59	1203.04
519.94	1200.93
520.30	1202.10
520.66	1205.14
521.01	1205.61
521.37	1186.89
521.73	1181.50
522.09	1177.76
522.44	1168.86
522.80	1161.61
523.16	1159.50
523.51	1167.93
523.87	1168.16
524.23	1176.12
524.58	1171.20
524.94	1185.72
525.30	1170.03
525.65	1178.69
526.01	1171.91
526.37	1179.40
526.72	1180.33
527.08	1191.33
527.44	1171.67
527.79	1178.69
528.15	1165.12
528.51	1158.33
528.86	1147.33
529.22	1149.44
529.58	1154.35
529.93	1158.80
530.29	1153.42
530.65	1155.52
531.00	1160.67
531.36	1146.39
531.71	1155.05
532.07	1160.91
532.43	1166.29
532.78	1158.57
533.14	1154.12
533.49	1134.69
533.85	1137.73
534.21	1139.61
534.56	1150.61
534.92	1157.16
535.27	1176.82
535.63	1164.18
535.98	1151.78
536.34	1143.12
536.69	1144.29
537.05	1135.86
537.41	1126.73
537.76	1139.37
538.12	1137.27
538.47	1147.80
538.83	1146.86
539.18	1155.29
539.54	1145.69
539.89	1141.48
540.25	1131.88
540.60	1130.24
540.96	1130.24
541.31	1134.22
541.67	1135.16
542.02	1130.71
542.38	1134.22
542.73	1130.24
543.09	1120.88
543.44	1127.44
543.80	1125.10
544.15	1116.90
544.51	1132.35
544.86	1141.48
545.22	1130.71
545.57	1141.48
545.93	1152.71
546.28	1137.03
546.64	1131.18
546.99	1140.07
547.35	1122.75
547.70	1126.50
548.05	1131.18
548.41	1129.31
548.76	1128.84
549.12	1129.78
549.47	1117.14
549.83	1109.65
550.18	1108.01
550.53	1098.65
550.89	1094.43
551.24	1105.44
551.60	1110.12
551.95	1117.14
552.30	1123.46
552.66	1130.01
553.01	1116.44
553.37	1120.65
553.72	1113.16
554.07	1113.86
554.43	1113.16
554.78	1115.97
555.13	1116.20
555.49	1133.52
555.84	1139.14
556.19	1137.27
556.55	1136.56
556.90	1123.93
557.26	1105.67
557.61	1094.90
557.96	1097.95
558.32	1099.35
558.67	1100.75
559.02	1100.75
559.37	1100.05
559.73	1109.65
560.08	1114.33
560.43	1119.24
560.79	1126.73
561.14	1126.97
561.49	1114.33
561.85	1113.86
562.20	1115.50
562.55	1110.82
562.90	1114.80
563.26	1122.75
563.61	1123.69
563.96	1118.54
564.32	1121.82
564.67	1121.35
565.02	1123.46
565.37	1115.50
565.73	1126.50
566.08	1126.27
566.43	1113.16
566.78	1092.80
567.14	1093.03
567.49	1088.58
567.84	1082.73
568.19	1088.35
568.54	1100.75
568.90	1103.56
569.25	1104.03
569.60	1111.05
569.95	1115.03
570.31	1107.54
570.66	1102.86
571.01	1117.14
571.36	1109.65
571.71	1107.31
572.06	1114.10
572.42	1111.52
572.77	1097.48
573.12	1096.31
573.47	1095.14
573.82	1087.18
574.18	1093.73
574.53	1079.69
574.88	1086.01
575.23	1091.63
575.58	1108.24
575.93	1110.12
576.28	1115.27
576.64	1116.20
576.99	1114.80
577.34	1104.73
577.69	1090.46
578.04	1098.18
578.39	1088.82
578.74	1084.14
579.09	1082.73
579.44	1089.29
579.80	1089.05
580.15	1094.90
580.50	1096.07
580.85	1100.29
581.20	1102.39
581.55	1100.52
581.90	1102.39
582.25	1110.82
582.60	1112.46
582.95	1117.61
583.30	1117.84
583.65	1110.12
584.00	1106.37
584.35	1104.50
584.71	1104.50
585.06	1103.80
585.41	1108.24
585.76	1109.41
586.11	1115.73
586.46	1108.95
586.81	1100.99
587.16	1098.41
587.51	1094.20
587.86	1078.75
588.21	1076.88
588.56	1084.37
588.91	1092.80
589.26	1087.41
589.61	1097.95
589.96	1104.97
590.31	1105.20
590.66	1100.75
591.01	1109.88
591.36	1105.20
591.71	1105.20
592.06	1100.99
592.41	1088.82
592.76	1086.71
593.10	1085.31
593.45	1078.75
593.80	1081.56
594.15	1097.01
594.50	1087.18
594.85	1094.20
595.20	1095.14
595.55	1097.01
595.90	1092.56
596.25	1103.80
596.60	1098.88
596.95	1105.44
597.30	1108.71
597.64	1158.57
597.99	1162.78
598.34	1152.95
598.69	1149.67
599.04	1132.82
599.39	1081.56
599.74	1070.80
600.09	1075.24
600.44	1084.14
600.78	1098.41
601.13	1099.35
601.48	1099.58
601.83	1108.71
602.18	1097.24
602.53	1092.56
602.88	1099.35
603.22	1108.95
603.57	1109.18
603.92	1110.58
604.27	1119.71
604.62	1112.46
604.97	1111.29
605.31	1116.90
605.66	1120.41
606.01	1116.44
606.36	1121.35
606.71	1117.84
607.05	1109.41
607.40	1112.22
607.75	1111.29
608.10	1111.75
608.44	1107.54
608.79	1102.63
609.14	1103.09
609.49	1109.18
609.84	1110.12
610.18	1118.07
610.53	1122.52
610.88	1115.27
611.23	1114.80
611.57	1106.61
611.92	1095.84
612.27	1096.54
612.62	1099.35
612.96	1092.33
613.31	1095.84
613.66	1101.22
614.00	1101.92
614.35	1106.37
614.70	1109.88
615.05	1111.75
615.39	1114.33
615.74	1118.07
616.09	1114.56
616.43	1111.52
616.78	1108.48
617.13	1110.12
617.47	1105.44
617.82	1098.65
618.17	1093.03
618.51	1094.67
618.86	1088.82
619.21	1089.29
619.55	1101.46
619.90	1115.73
620.25	1119.71
620.59	1123.46
620.94	1122.75
621.29	1121.12
621.63	1105.20
621.98	1091.16
622.32	1089.52
622.67	1079.69
623.02	1070.09
623.36	1079.46
623.71	1088.35
624.05	1089.05
624.40	1095.14
624.75	1099.12
625.09	1098.41
625.44	1097.95
625.78	1094.20
626.13	1089.75
626.48	1089.52
626.82	1087.65
627.17	1084.84
627.51	1089.05
627.86	1097.95
628.20	1093.50
628.55	1089.99
628.89	1092.56
629.24	1083.67
629.58	1085.54
629.93	1095.14
630.28	1101.92
630.62	1098.65
630.97	1110.12
631.31	1108.01
631.66	1102.86
632.00	1098.65
632.35	1106.14
632.69	1103.80
633.04	1100.75
633.38	1097.95
633.73	1096.07
634.07	1097.24
634.42	1096.07
634.76	1105.90
635.11	1102.16
635.45	1097.48
635.79	1085.77
636.14	1086.94
636.48	1074.31
636.83	1081.33
637.17	1091.63
637.52	1100.52
637.86	1097.48
638.21	1096.78
638.55	1093.03
638.89	1079.69
639.24	1077.35
639.58	1079.92
639.93	1075.01
640.27	1081.09
640.61	1086.94
640.96	1090.92
641.30	1094.20
641.65	1102.63
641.99	1098.41
642.33	1101.22
642.68	1093.50
643.02	1091.63
643.37	1097.48
643.71	1100.05
644.05	1099.58
644.40	1106.84
644.74	1112.46
645.08	1112.92
645.43	1112.69
645.77	1103.09
646.11	1098.41
646.46	1087.18
646.80	1083.43
647.14	1075.01
647.49	1088.35
647.83	1089.99
648.17	1095.37
648.52	1095.84
648.86	1102.16
649.20	1095.84
649.55	1099.35
649.89	1096.07
650.23	1093.97
650.57	1100.75
650.92	1102.16
651.26	1105.44
651.60	1100.99
651.95	1106.61
652.29	1102.39
652.63	1105.20
652.97	1098.88
653.32	1098.18
653.66	1086.48
654.00	1084.84
654.34	1073.84
654.69	1073.37
655.03	1088.82
655.37	1095.14
655.71	1096.07
656.05	1115.97
656.40	1126.97
656.74	1116.67
657.08	1115.50
657.42	1107.78
657.76	1104.50
658.11	1092.80
658.45	1090.46
658.79	1096.78
659.13	1104.26
659.47	1098.18
659.82	1105.44
660.16	1114.80
660.50	1116.20
660.84	1110.58
661.18	1107.31
661.52	1100.29
661.87	1102.63
662.21	1093.50
662.55	1097.01
662.89	1097.95
663.23	1091.16
663.57	1078.52
663.91	1089.75
664.25	1090.69
664.60	1093.97
664.94	1105.20
665.28	1110.12
665.62	1093.03
665.96	1087.41
666.30	1083.43
666.64	1076.18
666.98	1074.07
667.32	1079.92
667.66	1083.43
668.01	1088.35
668.35	1098.41
668.69	1098.88
669.03	1105.20
669.37	1106.37
669.71	1102.63
670.05	1108.95
670.39	1108.48
670.73	1100.05
671.07	1105.67
671.41	1110.12
671.75	1094.90
672.09	1094.20
672.43	1090.46
672.77	1092.33
673.11	1085.77
673.45	1081.80
673.79	1082.50
674.13	1084.60
674.47	1073.60
674.81	1075.24
675.15	1086.71
675.49	1089.05
675.83	1089.99
676.17	1093.73
676.51	1091.63
676.85	1088.12
677.19	1083.90
677.53	1094.67
677.87	1097.01
678.21	1093.73
678.55	1078.28
678.89	1082.73
679.23	1076.88
679.57	1073.84
679.90	1086.01
680.24	1100.05
680.58	1096.31
680.92	1094.43
681.26	1094.43
681.60	1088.12
681.94	1078.75
682.28	1085.07
682.62	1083.43
682.96	1074.31
683.29	1073.84
683.63	1079.92
683.97	1075.94
684.31	1086.94
684.65	1091.63
684.99	1099.12
685.33	1103.33
685.67	1100.05
686.00	1090.46
686.34	1101.46
686.68	1090.22
687.02	1095.14
687.36	1095.14
687.70	1093.26
688.03	1086.48
688.37	1090.69
688.71	1079.69
689.05	1079.46
689.39	1075.94
689.72	1076.88
690.06	1071.03
690.40	1071.03
690.74	1072.67
691.08	1072.43
691.41	1070.09
691.75	1073.60
692.09	1070.56
692.43	1075.48
692.76	1088.12
693.10	1086.94
693.44	1097.24
693.78	1103.33
694.11	1103.09
694.45	1098.88
694.79	1093.50
695.13	1076.65
695.46	1079.22
695.80	1080.63
696.14	1084.84
696.48	1090.92
696.81	1104.73
697.15	1103.09
697.49	1097.95
697.82	1099.82
698.16	1097.01
698.50	1093.26
698.83	1089.52
699.17	1093.50
699.51	1086.01
699.84	1095.84
700.18	1101.22
700.52	1104.50
700.85	1090.69
701.19	1076.41
701.53	1074.54
701.86	1065.88
702.20	1071.97
702.54	1088.35
702.87	1108.95
703.21	1107.31
703.55	1111.75
703.88	1099.12
704.22	1088.35
704.55	1091.63
704.89	1096.78
705.23	1091.39
705.56	1103.56
705.90	1111.52
706.23	1105.44
706.57	1099.58
706.91	1103.09
707.24	1090.46
707.58	1083.43
707.91	1082.73
708.25	1080.63
708.58	1080.39
708.92	1091.86
709.26	1083.20
709.59	1088.35
709.93	1093.97
710.26	1094.90
710.60	1097.95
710.93	1105.20
711.27	1096.07
711.60	1091.86
711.94	1089.05
712.27	1080.39
712.61	1079.92
712.94	1079.46
713.28	1076.41
713.61	1077.35
713.95	1074.77
714.28	1080.16
714.62	1079.69
714.95	1077.58
715.29	1077.58
715.62	1078.28
715.96	1069.86
716.29	1064.48
716.63	1069.16
716.96	1064.94
717.29	1068.22
717.63	1077.82
717.96	1089.29
718.30	1094.90
718.63	1092.80
718.97	1091.16
719.30	1097.01
719.63	1084.14
719.97	1086.94
720.30	1095.37
720.64	1095.37
720.97	1084.37
721.30	1101.22
721.64	1103.33
721.97	1095.37
722.31	1086.24
722.64	1094.90
722.97	1085.54
723.31	1078.99
723.64	1082.73
723.97	1097.95
724.31	1090.92
724.64	1094.43
724.98	1086.01
725.31	1095.37
725.64	1095.60
725.98	1095.37
726.31	1100.75
726.64	1109.65
726.97	1096.31
727.31	1095.37
727.64	1096.78
727.97	1096.78
728.31	1091.16
728.64	1097.95
728.97	1079.69
729.31	1085.54
729.64	1089.52
729.97	1091.63
730.30	1096.78
730.64	1115.97
730.97	1111.52
731.30	1101.92
731.63	1102.39
731.97	1093.97
732.30	1088.58
732.63	1092.09
732.96	1091.39
733.30	1088.82
733.63	1091.39
733.96	1088.82
734.29	1090.22
734.63	1092.33
734.96	1087.18
735.29	1087.88
735.62	1085.07
735.95	1076.41
736.29	1075.24
736.62	1086.01
736.95	1083.20
737.28	1084.60
737.61	1083.43
737.94	1083.67
738.28	1071.97
738.61	1078.52
738.94	1078.28
739.27	1079.46
739.60	1078.05
739.93	1084.84
740.27	1077.35
740.60	1083.67
740.93	1088.12
741.26	1089.99
741.59	1086.94
741.92	1090.92
742.25	1085.31
742.58	1088.82
742.91	1085.31
743.25	1088.12
743.58	1078.75
743.91	1081.09
744.24	1083.43
744.57	1085.54
744.90	1079.22
745.23	1087.88
745.56	1082.73
745.89	1070.80
746.22	1069.62
746.55	1081.33
746.88	1082.03
747.21	1090.69
747.54	1094.90
747.87	1091.63
748.20	1085.77
748.53	1089.99
748.87	1083.20
749.20	1080.63
749.53	1078.52
749.86	1085.31
750.19	1079.22
750.52	1089.05
750.85	1090.46
751.18	1091.86
751.51	1083.20
751.84	1079.69
752.16	1078.05
752.49	1075.48
752.82	1078.52
753.15	1087.41
753.48	1077.11
753.81	1076.65
754.14	1081.56
754.47	1076.41
754.80	1070.33
755.13	1075.24
755.46	1070.80
755.79	1066.35
756.12	1074.54
756.45	1067.05
756.78	1079.22
757.11	1083.67
757.43	1093.26
757.76	1099.35
758.09	1101.69
758.42	1111.05
758.75	1108.71
759.08	1105.90
759.41	1097.71
759.74	1100.75
760.07	1094.20
760.39	1095.60
760.72	1097.48
761.05	1102.39
761.38	1102.39
761.71	1092.56
762.04	1083.90
762.36	1080.39
762.69	1065.41
763.02	1076.41
763.35	1087.18
763.68	1092.09
764.01	1089.05
764.33	1098.41
764.66	1095.14
764.99	1080.86
765.32	1083.90
765.65	1080.86
765.97	1082.50
766.30	1076.41
766.63	1084.60
766.96	1081.80
767.28	1070.80
767.61	1065.41
767.94	1067.28
768.27	1072.67
768.59	1072.20
768.92	1090.46
769.25	1092.80
769.58	1093.26
769.90	1088.35
770.23	1084.14
770.56	1080.63
770.89	1084.60
771.21	1087.18
771.54	1082.97
771.87	1087.65
772.19	1087.65
772.52	1091.63
772.85	1080.63
773.17	1085.54
773.50	1084.14
773.83	1097.24
774.15	1094.43
774.48	1091.39
774.81	1094.67
775.13	1098.88
775.46	1086.48
775.79	1076.41
776.11	1082.97
776.44	1080.86
776.77	1078.99
777.09	1076.88
777.42	1084.84
777.74	1089.99
778.07	1086.24
778.40	1086.71
778.72	1084.60
779.05	1088.35
779.37	1080.63
779.70	1080.63
780.03	1075.24
780.35	1074.31
780.68	1065.18
781.00	1071.50
781.33	1074.77
781.65	1079.92
781.98	1094.90
782.31	1103.33
782.63	1105.90
782.96	1105.67
783.28	1106.14
783.61	1098.18
783.93	1090.22
784.26	1092.56
784.58	1086.24
784.91	1072.43
785.23	1070.56
785.56	1075.71
785.88	1077.82
786.21	1069.86
786.53	1083.43
786.86	1089.29
787.18	1083.90
787.51	1066.58
787.83	1085.54
788.16	1089.52
788.48	1083.43
788.81	1085.54
789.13	1097.95
789.46	1091.86
789.78	1088.12
790.10	1089.29
790.43	1089.52
790.75	1098.88
791.08	1106.61
791.40	1104.03
791.73	1115.73
792.05	1115.27
792.37	1108.24
792.70	1095.14
793.02	1091.63
793.35	1074.54
793.67	1076.18
793.99	1065.88
794.32	1062.14
794.64	1073.60
794.96	1086.71
795.29	1089.05
795.61	1086.24
795.93	1082.26
796.26	1075.71
796.58	1067.99
796.91	1068.69
797.23	1077.11
797.55	1082.73
797.87	1076.41
798.20	1074.77
798.52	1078.52
798.84	1076.41
799.17	1082.73
799.49	1086.71
799.81	1093.97
800.14	1088.12
800.46	1094.90
800.78	1099.58
801.10	1096.31
801.43	1077.35
801.75	1076.88
802.07	1073.84
802.40	1082.73
802.72	1081.33
803.04	1098.18
803.36	1095.37
803.69	1097.24
804.01	1082.97
804.33	1085.07
804.65	1079.46
804.97	1081.09
805.30	1070.09
805.62	1075.24
805.94	1080.39
806.26	1085.31
806.58	1080.63
806.91	1082.73
807.23	1079.22
807.55	1069.39
807.87	1057.45
808.19	1069.39
808.52	1071.50
808.84	1079.69
809.16	1089.75
809.48	1102.63
809.80	1097.48
810.12	1092.56
810.44	1082.73
810.77	1084.37
811.09	1074.07
811.41	1074.77
811.73	1084.84
812.05	1087.65
812.37	1084.84
812.69	1097.01
813.01	1089.29
813.33	1093.97
813.66	1089.52
813.98	1091.86
814.30	1086.24
814.62	1098.41
814.94	1084.14
815.26	1091.16
815.58	1085.54
815.90	1088.35
816.22	1083.20
816.54	1092.80
816.86	1089.05
817.18	1091.16
817.50	1099.12
817.82	1088.12
818.14	1086.94
818.46	1082.73
818.78	1081.80
819.10	1068.69
819.42	1081.80
819.74	1081.09
820.06	1091.39
820.38	1087.65
820.70	1081.56
821.02	1078.28
821.34	1072.90
821.66	1071.03
821.98	1077.11
822.30	1078.52
822.62	1076.41
822.94	1079.69
823.26	1071.50
823.58	1071.50
823.90	1081.09
824.22	1085.54
824.54	1080.86
824.86	1085.54
825.18	1081.56
825.50	1077.11
825.81	1059.56
826.13	1052.77
826.45	1053.24
826.77	1055.11
827.09	1060.96
827.41	1074.31
827.73	1091.16
828.05	1087.41
828.36	1090.92
828.68	1080.86
829.00	1075.24
829.32	1076.41
829.64	1078.52
829.96	1080.39
830.28	1086.48
830.59	1096.07
830.91	1087.18
831.23	1086.71
831.55	1080.63
831.87	1076.41
832.19	1074.54
832.50	1075.94
832.82	1081.80
833.14	1091.39
833.46	1103.09
833.78	1101.69
834.09	1100.52
834.41	1101.46
834.73	1084.60
835.05	1078.05
835.36	1083.90
835.68	1084.60
836.00	1076.88
836.32	1085.31
836.63	1078.99
836.95	1080.39
837.27	1082.26
837.59	1085.54
837.90	1082.50
838.22	1090.46
838.54	1075.24
838.85	1073.60
839.17	1070.80
839.49	1077.35
839.80	1072.67
840.12	1085.54
840.44	1088.35
840.76	1084.37
841.07	1083.43
841.39	1081.33
841.71	1078.05
842.02	1075.01
842.34	1075.24
842.65	1071.97
842.97	1073.84
843.29	1069.62
843.60	1071.50
843.92	1081.56
844.24	1085.54
844.55	1078.75
844.87	1075.01
845.18	1076.88
845.50	1075.48
845.82	1072.43
846.13	1077.82
846.45	1086.48
846.76	1086.01
847.08	1074.07
847.40	1077.82
847.71	1078.52
848.03	1082.26
848.34	1072.90
848.66	1079.92
848.97	1074.54
849.29	1077.11
849.60	1067.05
849.92	1077.58
850.24	1069.62
850.55	1065.41
850.87	1065.41
851.18	1074.07
851.50	1071.26
851.81	1081.33
852.13	1087.41
852.44	1087.88
852.76	1089.99
853.07	1092.56
853.39	1092.09
853.70	1087.88
854.01	1089.52
854.33	1087.18
854.64	1087.41
854.96	1097.95
855.27	1103.33
855.59	1105.90
855.90	1095.84
856.22	1094.67
856.53	1078.75
856.84	1076.65
857.16	1067.52
857.47	1068.69
857.79	1055.82
858.10	1053.94
858.41	1059.09
858.73	1063.77
859.04	1071.26
859.36	1084.37
859.67	1103.33
859.98	1104.97
860.30	1096.31
860.61	1093.03
860.92	1089.99
861.24	1084.60
861.55	1084.14
861.87	1094.43
862.18	1083.67
862.49	1090.92
862.81	1069.86
863.12	1067.99
863.43	1063.31
863.74	1076.65
864.06	1076.41
864.37	1090.22
864.68	1087.41
865.00	1083.20
865.31	1084.84
865.62	1083.90
865.94	1091.16
866.25	1090.69
866.56	1104.26
866.87	1093.73
867.19	1090.69
867.50	1088.82
867.81	1102.16
868.12	1096.31
868.44	1101.92
868.75	1103.33
869.06	1105.90
869.37	1100.75
869.68	1100.05
870.00	1101.69
870.31	1089.99
870.62	1078.99
870.93	1068.22
871.24	1069.39
871.56	1065.88
871.87	1075.01
872.18	1075.48
872.49	1072.20
872.80	1062.14
873.12	1065.88
873.43	1068.69
873.74	1070.80
874.05	1071.50
874.36	1081.09
874.67	1078.28
874.98	1067.05
875.29	1060.03
875.61	1073.14
875.92	1074.54
876.23	1075.71
876.54	1092.80
876.85	1100.75
877.16	1083.43
877.47	1078.75
877.78	1085.77
878.09	1078.52
878.40	1071.50
878.72	1088.82
879.03	1098.41
879.34	1097.01
879.65	1097.71
879.96	1115.03
880.27	1112.46
880.58	1095.84
880.89	1096.31
881.20	1090.92
881.51	1083.20
881.82	1088.12
882.13	1088.58
882.44	1075.94
882.75	1068.92
883.06	1064.01
883.37	1042.47
883.68	1052.30
883.99	1056.75
884.30	1062.37
884.61	1065.41
884.92	1073.14
885.23	1071.73
885.54	1077.82
885.85	1081.80
886.16	1078.05
886.47	1085.77
886.78	1079.46
887.08	1076.65
887.39	1077.35
887.70	1082.03
888.01	1077.11
888.32	1082.50
888.63	1085.77
888.94	1086.71
889.25	1078.99
889.56	1076.88
889.87	1075.94
890.17	1072.20
890.48	1063.54
890.79	1059.79
891.10	1060.96
891.41	1058.86
891.72	1054.88
892.03	1066.11
892.34	1078.05
892.64	1082.03
892.95	1083.90
893.26	1091.86
893.57	1092.56
893.88	1088.35
894.18	1092.80
894.49	1101.22
894.80	1102.16
895.11	1097.24
895.42	1100.99
895.72	1091.63
896.03	1077.11
896.34	1066.11
896.65	1057.92
896.96	1055.82
897.26	1052.54
897.57	1063.77
897.88	1073.60
898.19	1087.65
898.49	1081.09
898.80	1086.01
899.11	1083.43
899.41	1089.75
899.72	1078.99
900.03	1080.86
900.34	1073.60
900.64	1071.73
900.95	1060.50
901.26	1063.77
901.56	1067.52
901.87	1075.94
902.18	1069.62
902.48	1070.80
902.79	1072.20
903.10	1069.86
903.40	1072.67
903.71	1081.56
904.02	1089.05
904.32	1095.14
904.63	1101.92
904.94	1106.61
905.24	1107.07
905.55	1097.71
905.85	1089.29
906.16	1086.71
906.47	1090.46
906.77	1085.31
907.08	1081.80
907.38	1091.63
907.69	1091.86
908.00	1086.48
908.30	1086.24
908.61	1092.56
908.91	1079.46
909.22	1069.62
909.52	1070.33
909.83	1069.62
910.14	1071.03
910.44	1085.77
910.75	1088.58
911.05	1079.92
911.36	1079.22
911.66	1075.94
911.97	1063.77
912.27	1073.14
912.58	1075.48
912.88	1081.33
913.19	1079.22
913.49	1084.84
913.80	1076.41
914.10	1077.82
914.41	1075.94
914.71	1086.94
915.01	1079.22
915.32	1090.22
915.62	1094.43
915.93	1097.24
916.23	1087.65
916.54	1087.88
916.84	1082.50
917.15	1080.16
917.45	1077.35
917.75	1085.07
918.06	1086.71
918.36	1082.03
918.67	1072.67
918.97	1060.50
919.27	1058.86
919.58	1073.84
919.88	1074.77
920.18	1072.43
920.49	1084.37
920.79	1080.86
921.10	1075.01
921.40	1078.05
921.70	1081.56
922.01	1071.73
922.31	1070.33
922.61	1070.09
922.92	1075.48
923.22	1079.46
923.52	1088.35
923.82	1092.56
924.13	1090.22
924.43	1079.69
924.73	1083.43
925.04	1081.09
925.34	1083.43
925.64	1079.22
925.94	1083.43
926.25	1079.46
926.55	1087.65
926.85	1087.41
927.15	1082.03
927.46	1096.07
927.76	1101.22
928.06	1103.80
928.36	1102.39
928.67	1099.58
928.97	1088.58
929.27	1087.41
929.57	1080.86
929.87	1072.43
930.18	1080.63
930.48	1073.37
930.78	1067.75
931.08	1062.37
931.38	1061.67
931.69	1068.92
931.99	1069.86
932.29	1069.16
932.59	1068.69
932.89	1074.31
933.19	1067.05
933.49	1070.33
933.80	1073.84
934.10	1072.67
934.40	1069.62
934.70	1065.41
935.00	1064.01
935.30	1060.26
935.60	1073.84
935.90	1081.09
936.20	1089.29
936.50	1092.80
936.81	1099.12
937.11	1095.60
937.41	1087.88
937.71	1085.77
938.01	1088.58
938.31	1084.14
938.61	1083.20
938.91	1085.77
939.21	1090.22
939.51	1082.26
939.81	1086.24
940.11	1078.28
940.41	1079.69
940.71	1069.39
941.01	1065.18
941.31	1065.41
941.61	1085.07
941.91	1075.24
942.21	1078.52
942.51	1096.78
942.81	1089.75
943.11	1071.50
943.41	1082.73
943.71	1086.94
944.01	1089.52
944.31	1098.18
944.61	1107.31
944.90	1104.73
945.20	1106.37
945.50	1095.60
945.80	1092.09
946.10	1092.09
946.40	1098.41
946.70	1090.22
947.00	1082.50
947.30	1081.33
947.60	1068.45
947.89	1064.94
948.19	1073.84
948.49	1075.24
948.79	1084.14
949.09	1100.05
949.39	1099.35
949.69	1095.60
949.98	1100.99
950.28	1100.99
950.58	1090.69
950.88	1083.67
951.18	1076.88
951.48	1075.48
951.77	1068.92
952.07	1063.31
952.37	1073.84
952.67	1078.05
952.97	1083.20
953.26	1077.35
953.56	1074.77
953.86	1077.82
954.16	1074.07
954.45	1061.43
954.75	1066.58
955.05	1075.48
955.35	1071.50
955.64	1078.75
955.94	1086.01
956.24	1085.07
956.54	1087.41
956.83	1087.18
957.13	1079.92
957.43	1076.18
957.72	1073.60
958.02	1074.07
958.32	1077.58
958.61	1089.05
958.91	1091.86
959.21	1099.35
959.50	1109.18
959.80	1096.31
960.10	1087.65
960.39	1087.88
960.69	1083.90
960.99	1070.80
961.28	1076.88
961.58	1075.94
961.87	1079.46
962.17	1080.63
962.47	1080.86
962.76	1079.22
963.06	1090.92
963.36	1089.52
963.65	1082.97
963.95	1088.58
964.24	1091.39
964.54	1084.60
964.83	1084.37
965.13	1088.82
965.42	1088.12
965.72	1082.03
966.02	1076.88
966.31	1078.28
966.61	1078.52
966.90	1071.73
967.20	1067.75
967.49	1069.86
967.79	1071.03
968.08	1075.24
968.38	1079.46
968.67	1089.75
968.97	1096.78
969.26	1098.65
969.56	1095.60
969.85	1093.26
970.15	1083.20
970.44	1080.39
970.74	1077.11
971.03	1080.39
971.32	1080.86
971.62	1084.14
971.91	1077.35
972.21	1070.33
972.50	1067.99
972.80	1071.26
973.09	1077.11
973.38	1087.65
973.68	1088.82
973.97	1084.37
974.27	1084.14
974.56	1085.07
974.85	1073.37
975.15	1068.45
975.44	1074.31
975.73	1065.65
976.03	1058.16
976.32	1061.20
976.61	1077.82
976.91	1074.07
977.20	1081.33
977.49	1091.16
977.79	1093.26
978.08	1082.97
978.37	1086.01
978.67	1082.50
978.96	1071.50
979.25	1069.62
979.55	1073.37
979.84	1069.16
980.13	1078.05
980.42	1092.09
980.72	1096.07
981.01	1096.78
981.30	1092.80
981.59	1090.69
981.89	1081.09
982.18	1081.33
982.47	1076.18
982.76	1083.90
983.06	1086.94
983.35	1088.12
983.64	1078.99
983.93	1088.58
984.22	1079.22
984.52	1074.54
984.81	1071.73
985.10	1072.90
985.39	1062.14
985.68	1072.20
985.97	1069.39
986.27	1073.60
986.56	1082.03
986.85	1089.99
987.14	1087.65
987.43	1091.39
987.72	1090.69
988.01	1082.97
988.31	1073.84
988.60	1071.03
988.89	1066.58
989.18	1062.60
989.47	1067.75
989.76	1079.92
990.05	1079.22
990.34	1080.39
990.63	1088.12
990.92	1089.75
991.21	1077.58
991.51	1077.82
991.80	1075.01
992.09	1071.73
992.38	1068.92
992.67	1082.26
992.96	1081.80
993.25	1085.07
993.54	1079.46
993.83	1076.41
994.12	1065.41
994.41	1069.86
994.70	1066.58
994.99	1073.14
995.28	1075.71
995.57	1073.84
995.86	1062.37
996.15	1067.99
996.44	1058.62
996.73	1064.94
997.02	1074.77
997.31	1081.56
997.59	1080.39
997.88	1086.01
998.17	1076.18
998.46	1069.62
998.75	1079.69
999.04	1086.48
999.33	1087.65
999.62	1097.24
999.91	1118.78
1000.20	1108.48
1000.49	1102.16
1000.77	1094.43
1001.06	1093.50
1001.35	1076.41
1001.64	1081.09
1001.93	1076.18
1002.22	1079.22
1002.51	1084.84
1002.79	1083.67
1003.08	1083.20
1003.37	1091.39
1003.66	1095.14
1003.95	1086.01
1004.23	1091.16
1004.52	1092.09
1004.81	1085.77
1005.10	1076.88
1005.39	1077.11
1005.67	1069.86
1005.96	1067.99
1006.25	1077.35
1006.54	1092.80
1006.83	1086.71
1007.11	1080.86
1007.40	1084.37
1007.69	1080.39
1007.97	1073.60
1008.26	1084.14
1008.55	1095.14
1008.84	1099.82
1009.12	1096.07
1009.41	1092.33
1009.70	1086.48
1009.98	1085.31
1010.27	1074.77
1010.56	1069.62
1010.85	1077.58
1011.13	1069.16
1011.42	1070.56
1011.71	1069.86
1011.99	1082.26
1012.28	1073.14
1012.56	1083.20
1012.85	1074.07
1013.14	1075.71
1013.42	1068.22
1013.71	1077.82
1014.00	1080.39
1014.28	1082.97
1014.57	1086.94
1014.85	1094.43
1015.14	1095.60
1015.43	1092.56
1015.71	1093.50
1016.00	1093.03
1016.28	1089.05
1016.57	1099.12
1016.85	1099.58
1017.14	1108.48
1017.43	1101.22
1017.71	1095.37
1018.00	1078.28
1018.28	1074.31
1018.57	1071.03
1018.85	1082.26
1019.14	1080.39
1019.42	1089.05
1019.71	1092.80
1019.99	1092.80
1020.28	1095.37
1020.56	1100.99
1020.85	1096.54
1021.13	1100.52
1021.42	1091.16
1021.70	1082.03
1021.99	1082.03
1022.27	1082.03
1022.55	1088.35
1022.84	1083.67
>>>>>End Processed Spectral Data<<<<<
