SpectraSuite Data File
++++++++++++++++++++++++++++++++++++
Date: Mon Aug 26 10:24:43 PDT 2019
User: corrico
Dark Spectrum Present: No
Reference Spectrum Present: No
Number of Sampled Component Spectra: 1
Spectrometers: USB2+H06089
Integration Time (usec): 10000 (USB2+H06089)
Spectra Averaged: 2 (USB2+H06089)
Boxcar Smoothing: 2 (USB2+H06089)
Correct for Electrical Dark: No (USB2+H06089)
Strobe/Lamp Enabled: No (USB2+H06089)
Correct for Detector Non-linearity: No (USB2+H06089)
Correct for Stray Light: No (USB2+H06089)
Number of Pixels in Processed Spectrum: 2048
>>>>>Begin Processed Spectral Data<<<<<
339.70	1055.58
340.07	1055.58
340.45	1026.79
340.82	995.20
341.19	961.26
341.57	937.38
341.94	923.11
342.31	898.53
342.69	891.98
343.06	894.55
343.43	891.74
343.81	894.32
344.18	892.21
344.55	896.43
344.93	907.89
345.30	911.64
345.67	921.94
346.04	936.68
346.42	948.39
346.79	951.90
347.16	955.64
347.54	958.45
347.91	963.36
348.28	972.96
348.65	980.68
349.03	1003.39
349.40	1023.28
349.77	1036.62
350.14	1048.79
350.52	1062.14
350.89	1063.31
351.26	1069.16
351.63	1086.24
352.01	1091.39
352.38	1087.18
352.75	1088.82
353.12	1083.20
353.50	1080.39
353.87	1081.33
354.24	1086.01
354.61	1081.33
354.98	1082.73
355.36	1087.88
355.73	1089.05
356.10	1084.60
356.47	1092.80
356.84	1095.37
357.22	1088.58
357.59	1093.03
357.96	1108.95
358.33	1109.88
358.70	1112.46
359.08	1106.37
359.45	1101.46
359.82	1081.56
360.19	1073.84
360.56	1081.56
360.94	1089.75
361.31	1102.63
361.68	1104.26
362.05	1107.54
362.42	1104.26
362.79	1101.69
363.16	1088.12
363.54	1099.82
363.91	1104.73
364.28	1094.43
364.65	1098.18
365.02	1095.14
365.39	1090.69
365.76	1091.39
366.14	1095.60
366.51	1094.20
366.88	1100.99
367.25	1108.48
367.62	1108.71
367.99	1114.10
368.36	1109.65
368.73	1113.86
369.10	1107.78
369.48	1094.90
369.85	1091.39
370.22	1096.78
370.59	1082.50
370.96	1083.67
371.33	1093.97
371.70	1095.84
372.07	1088.82
372.44	1098.65
372.81	1102.39
373.18	1105.90
373.55	1111.05
373.93	1123.69
374.30	1130.01
374.67	1123.46
375.04	1125.56
375.41	1122.52
375.78	1117.84
376.15	1116.44
376.52	1119.48
376.89	1118.54
377.26	1118.54
377.63	1116.90
378.00	1115.97
378.37	1108.95
378.74	1101.92
379.11	1102.39
379.48	1104.97
379.85	1100.99
380.22	1112.46
380.59	1119.01
380.96	1118.54
381.33	1116.90
381.70	1119.48
382.07	1113.16
382.44	1104.03
382.81	1100.99
383.18	1098.41
383.55	1096.78
383.92	1103.09
384.29	1108.01
384.66	1102.86
385.03	1093.73
385.40	1095.84
385.77	1090.46
386.14	1094.90
386.51	1100.52
386.88	1111.05
387.25	1112.22
387.62	1116.44
387.99	1113.16
388.36	1114.56
388.73	1119.71
389.10	1126.97
389.46	1132.12
389.83	1133.76
390.20	1135.86
390.57	1130.01
390.94	1120.88
391.31	1118.78
391.68	1125.33
392.05	1124.63
392.42	1121.82
392.79	1124.39
393.16	1123.93
393.53	1120.88
393.89	1128.84
394.26	1135.63
394.63	1144.99
395.00	1152.95
395.37	1152.71
395.74	1155.76
396.11	1155.29
396.48	1146.16
396.84	1151.54
397.21	1152.71
397.58	1155.29
397.95	1163.25
398.32	1169.57
398.69	1170.74
399.06	1177.29
399.42	1179.40
399.79	1186.89
400.16	1191.33
400.53	1192.03
400.90	1198.35
401.27	1214.04
401.64	1216.14
402.00	1223.63
402.37	1235.80
402.74	1243.99
403.11	1243.29
403.48	1255.46
403.84	1277.23
404.21	1280.74
404.58	1297.12
404.95	1305.78
405.32	1309.76
405.68	1322.64
406.05	1341.83
406.42	1355.64
406.79	1382.79
407.16	1419.07
407.52	1455.35
407.89	1498.65
408.26	1543.58
408.63	1586.65
408.99	1638.61
409.36	1667.16
409.73	1695.25
410.10	1728.02
410.47	1770.15
410.83	1817.19
411.20	1867.75
411.57	1938.67
411.94	2008.65
412.30	2073.01
412.67	2144.16
413.04	2225.85
413.40	2313.15
413.77	2430.65
414.14	2553.06
414.51	2671.25
414.87	2812.15
415.24	2960.31
415.61	3101.68
415.97	3257.09
416.34	3439.89
416.71	3621.28
417.08	3828.18
417.44	4010.51
417.81	4239.41
418.18	4468.78
418.54	4720.16
418.91	4942.04
419.28	5229.46
419.64	5512.43
420.01	5812.25
420.38	6142.50
420.74	6501.54
421.11	6886.09
421.48	7252.38
421.84	7685.85
422.21	8101.06
422.58	8552.55
422.94	9009.89
423.31	9532.53
423.68	10101.99
424.04	10729.25
424.41	11311.34
424.77	11987.29
425.14	12648.02
425.51	13264.28
425.87	13979.32
426.24	14771.35
426.61	15592.18
426.97	16565.38
427.34	17460.86
427.70	18450.68
428.07	19401.40
428.44	20358.92
428.80	21276.17
429.17	22337.37
429.53	23367.67
429.90	24609.09
430.27	25794.34
430.63	26978.65
431.00	28269.22
431.36	29604.73
431.73	30746.45
432.09	31962.36
432.46	33242.16
432.83	34530.86
433.19	35777.19
433.56	37309.54
433.92	38846.11
434.29	40248.55
434.65	41611.92
435.02	42773.99
435.38	43903.07
435.75	44736.06
436.11	45966.95
436.48	46958.64
436.84	48000.64
437.21	48973.84
437.57	49940.48
437.94	50557.91
438.30	51173.47
438.67	51588.92
439.03	51748.07
439.40	51976.04
439.76	51838.65
440.13	51662.18
440.49	51640.88
440.86	51298.22
441.22	50930.99
441.59	50482.08
441.95	49954.76
442.32	49051.31
442.68	48340.96
443.05	47369.87
443.41	46466.66
443.78	45338.05
444.14	44323.43
444.51	42975.75
444.87	41999.98
445.24	40728.36
445.60	39694.08
445.96	38665.88
446.33	37909.89
446.69	36716.45
447.06	35864.50
447.42	34821.55
447.79	33617.35
448.15	32583.53
448.51	31700.22
448.88	30852.71
449.24	29927.26
449.61	29337.21
449.97	28573.26
450.33	27809.54
450.70	26952.20
451.06	26390.71
451.43	25604.99
451.79	25025.71
452.15	24531.62
452.52	24019.05
452.88	23431.81
453.24	22887.86
453.61	22237.90
453.97	21624.91
454.34	21009.35
454.70	20457.22
455.06	19903.68
455.43	19267.52
455.79	18475.02
456.15	17863.67
456.52	17151.45
456.88	16556.01
457.24	15995.69
457.61	15573.22
457.97	15037.94
458.33	14555.32
458.70	14058.19
459.06	13532.51
459.42	13036.55
459.79	12575.23
460.15	12189.98
460.51	11750.89
460.88	11386.47
461.24	10976.64
461.60	10645.93
461.96	10261.61
462.33	9938.62
462.69	9612.35
463.05	9313.93
463.42	8997.96
463.78	8713.35
464.14	8465.72
464.50	8265.60
464.87	8046.53
465.23	7801.24
465.59	7591.53
465.95	7359.58
466.32	7097.21
466.68	6896.86
467.04	6719.91
467.40	6554.67
467.77	6393.41
468.13	6234.95
468.49	6066.43
468.85	5924.36
469.22	5759.59
469.58	5614.48
469.94	5501.90
470.30	5411.08
470.66	5306.46
471.03	5206.52
471.39	5130.69
471.75	5038.94
472.11	4913.72
472.47	4812.14
472.84	4714.78
473.20	4579.49
473.56	4466.44
473.92	4358.55
474.28	4275.46
474.65	4187.22
475.01	4101.55
475.37	4008.64
475.73	3959.02
476.09	3867.27
476.45	3793.31
476.81	3732.69
477.18	3672.07
477.54	3608.87
477.90	3550.36
478.26	3453.46
478.62	3393.31
478.98	3333.63
479.34	3258.73
479.71	3209.11
480.07	3191.09
480.43	3147.08
480.79	3113.38
481.15	3059.31
481.51	2997.99
481.87	2953.99
482.23	2884.71
482.59	2832.52
482.96	2784.30
483.32	2744.75
483.68	2687.17
484.04	2661.42
484.40	2616.25
484.76	2577.87
485.12	2547.44
485.48	2517.71
485.84	2489.39
486.20	2456.63
486.56	2439.77
486.92	2408.65
487.28	2374.47
487.64	2341.94
488.00	2294.66
488.37	2265.87
488.73	2222.57
489.09	2195.89
489.45	2161.72
489.81	2133.87
490.17	2093.84
490.53	2076.99
490.89	2045.39
491.25	2014.03
491.61	2003.73
491.97	1977.52
492.33	1946.16
492.69	1916.20
493.05	1901.45
493.41	1868.22
493.77	1838.49
494.13	1820.94
494.49	1815.09
494.85	1782.32
495.21	1768.74
495.57	1756.34
495.93	1726.38
496.29	1684.25
496.64	1681.21
497.00	1665.99
497.36	1652.65
497.72	1644.46
498.08	1641.65
498.44	1613.80
498.80	1585.48
499.16	1565.58
499.52	1557.16
499.88	1542.65
500.24	1539.37
500.60	1514.09
500.96	1500.52
501.32	1487.88
501.68	1479.69
502.03	1461.43
502.39	1475.71
502.75	1470.56
503.11	1464.71
503.47	1452.54
503.83	1454.64
504.19	1426.09
504.55	1419.53
504.91	1405.73
505.26	1393.32
505.62	1380.68
505.98	1381.85
506.34	1365.47
506.70	1358.21
507.06	1347.68
507.42	1330.83
507.78	1320.76
508.13	1323.81
508.49	1314.44
508.85	1317.02
509.21	1314.68
509.57	1310.47
509.93	1296.42
510.28	1281.21
510.64	1274.42
511.00	1269.04
511.36	1273.72
511.72	1267.17
512.07	1274.66
512.43	1265.53
512.79	1272.32
513.15	1271.85
513.51	1267.17
513.86	1257.80
514.22	1258.74
514.58	1243.76
514.94	1236.04
515.30	1244.23
515.65	1240.48
516.01	1232.29
516.37	1230.65
516.73	1222.70
517.08	1202.33
517.44	1205.61
517.80	1204.67
518.16	1196.48
518.51	1194.61
518.87	1197.18
519.23	1187.59
519.59	1183.14
519.94	1185.72
520.30	1172.84
520.66	1175.18
521.01	1174.48
521.37	1179.86
521.73	1173.31
522.09	1186.89
522.44	1188.76
522.80	1181.74
523.16	1185.95
523.51	1177.52
523.87	1162.54
524.23	1159.97
524.58	1170.97
524.94	1165.59
525.30	1170.97
525.65	1180.10
526.01	1173.08
526.37	1166.76
526.72	1159.50
527.08	1158.33
527.44	1149.20
527.79	1155.99
528.15	1151.31
528.51	1150.37
528.86	1155.05
529.22	1161.14
529.58	1153.42
529.93	1154.12
530.29	1147.56
530.65	1142.42
531.00	1137.97
531.36	1145.69
531.71	1149.67
532.07	1161.37
532.43	1163.25
532.78	1167.46
533.14	1159.97
533.49	1162.78
533.85	1160.91
534.21	1152.95
534.56	1149.67
534.92	1146.86
535.27	1137.03
535.63	1138.67
535.98	1150.61
536.34	1155.76
536.69	1160.91
537.05	1171.20
537.41	1159.50
537.76	1161.84
538.12	1150.61
538.47	1141.25
538.83	1130.95
539.18	1129.07
539.54	1121.12
539.89	1133.05
540.25	1132.59
540.60	1138.67
540.96	1147.56
541.31	1156.69
541.67	1141.48
542.02	1150.14
542.38	1146.63
542.73	1142.65
543.09	1138.67
543.44	1148.03
543.80	1147.80
544.15	1144.05
544.51	1135.63
544.86	1131.88
545.22	1137.03
545.57	1129.31
545.93	1135.63
546.28	1151.08
546.64	1145.69
546.99	1141.71
547.35	1148.03
547.70	1142.65
548.05	1137.03
548.41	1143.12
548.76	1137.97
549.12	1131.65
549.47	1127.67
549.83	1122.75
550.18	1114.56
550.53	1115.27
550.89	1112.46
551.24	1111.29
551.60	1111.29
551.95	1112.92
552.30	1107.78
552.66	1110.82
553.01	1114.09
553.37	1108.95
553.72	1109.18
554.07	1112.22
554.43	1113.63
554.78	1112.46
555.13	1120.18
555.49	1124.39
555.84	1118.07
556.19	1116.90
556.55	1117.14
556.90	1117.37
557.26	1116.20
557.61	1122.29
557.96	1126.50
558.32	1122.75
558.67	1127.90
559.02	1126.97
559.37	1126.97
559.73	1133.05
560.08	1136.33
560.43	1120.65
560.79	1122.99
561.14	1127.44
561.49	1110.35
561.85	1106.61
562.20	1113.16
562.55	1102.39
562.90	1101.46
563.26	1112.22
563.61	1115.97
563.96	1114.10
564.32	1115.73
564.67	1116.67
565.02	1115.03
565.37	1109.18
565.73	1115.73
566.08	1118.78
566.43	1111.05
566.78	1109.65
567.14	1117.37
567.49	1120.88
567.84	1120.88
568.19	1124.86
568.54	1122.29
568.90	1117.61
569.25	1118.54
569.60	1126.50
569.95	1122.75
570.31	1121.58
570.66	1126.03
571.01	1115.50
571.36	1108.01
571.71	1100.99
572.06	1105.20
572.42	1103.33
572.77	1100.05
573.12	1092.09
573.47	1108.01
573.82	1112.22
574.18	1114.09
574.53	1124.16
574.88	1125.56
575.23	1114.33
575.58	1110.82
575.93	1111.29
576.28	1103.80
576.64	1108.48
576.99	1111.29
577.34	1104.03
577.69	1097.48
578.04	1097.01
578.39	1097.01
578.74	1093.73
579.09	1103.09
579.44	1109.41
579.80	1112.69
580.15	1118.07
580.50	1123.69
580.85	1113.39
581.20	1111.99
581.55	1115.73
581.90	1107.78
582.25	1107.78
582.60	1114.80
582.95	1110.35
583.30	1102.86
583.65	1106.61
584.00	1100.52
584.35	1107.07
584.71	1108.95
585.06	1113.63
585.41	1111.75
585.76	1114.80
586.11	1111.29
586.46	1100.75
586.81	1089.75
587.16	1093.26
587.51	1099.12
587.86	1094.67
588.21	1113.16
588.56	1125.33
588.91	1119.24
589.26	1111.52
589.61	1107.78
589.96	1098.65
590.31	1089.29
590.66	1097.48
591.01	1100.52
591.36	1106.37
591.71	1103.56
592.06	1110.82
592.41	1106.14
592.76	1098.65
593.10	1098.65
593.45	1096.78
593.80	1090.46
594.15	1090.92
594.50	1098.65
594.85	1086.71
595.20	1088.58
595.55	1091.63
595.90	1092.33
596.25	1086.71
596.60	1091.16
596.95	1086.71
597.30	1089.52
597.64	1132.12
597.99	1134.22
598.34	1138.67
598.69	1149.20
599.04	1151.31
599.39	1107.31
599.74	1104.73
600.09	1113.16
600.44	1107.31
600.78	1098.65
601.13	1100.52
601.48	1108.71
601.83	1103.80
602.18	1103.33
602.53	1111.99
602.88	1106.61
603.22	1093.97
603.57	1086.24
603.92	1095.14
604.27	1092.33
604.62	1097.24
604.97	1106.61
605.31	1114.10
605.66	1109.41
606.01	1105.44
606.36	1111.52
606.71	1108.01
607.05	1107.07
607.40	1106.14
607.75	1107.07
608.10	1111.99
608.44	1124.86
608.79	1123.69
609.14	1122.99
609.49	1124.63
609.84	1114.56
610.18	1102.39
610.53	1108.48
610.88	1114.33
611.23	1109.88
611.57	1116.44
611.92	1123.46
612.27	1108.71
612.62	1104.97
612.96	1107.31
613.31	1104.26
613.66	1110.12
614.00	1113.86
614.35	1108.01
614.70	1107.07
615.05	1103.80
615.39	1092.56
615.74	1091.86
616.09	1097.71
616.43	1098.18
616.78	1090.46
617.13	1087.18
617.47	1093.26
617.82	1084.60
618.17	1085.31
618.51	1083.43
618.86	1086.24
619.21	1085.54
619.55	1091.86
619.90	1093.97
620.25	1091.39
620.59	1095.84
620.94	1092.33
621.29	1088.82
621.63	1081.09
621.98	1099.35
622.32	1096.07
622.67	1095.84
623.02	1107.78
623.36	1119.48
623.71	1106.84
624.05	1099.35
624.40	1097.24
624.75	1086.48
625.09	1071.97
625.44	1059.79
625.78	1057.22
626.13	1065.18
626.48	1064.48
626.82	1071.26
627.17	1079.69
627.51	1093.97
627.86	1097.95
628.20	1101.92
628.55	1109.18
628.89	1118.07
629.24	1114.10
629.58	1105.44
629.93	1106.14
630.28	1102.86
630.62	1088.58
630.97	1090.92
631.31	1089.99
631.66	1081.09
632.00	1083.67
632.35	1097.48
632.69	1093.26
633.04	1091.63
633.38	1099.12
633.73	1100.99
634.07	1102.39
634.42	1103.80
634.76	1108.24
635.11	1109.88
635.45	1104.50
635.79	1097.01
636.14	1087.41
636.48	1081.80
636.83	1078.99
637.17	1072.90
637.52	1076.65
637.86	1082.73
638.21	1093.97
638.55	1092.56
638.89	1097.01
639.24	1100.99
639.58	1097.01
639.93	1091.16
640.27	1090.46
640.61	1096.31
640.96	1091.16
641.30	1104.97
641.65	1101.46
641.99	1110.58
642.33	1099.58
642.68	1099.58
643.02	1095.37
643.37	1096.54
643.71	1095.60
644.05	1094.90
644.40	1098.18
644.74	1095.14
645.08	1090.92
645.43	1092.09
645.77	1098.65
646.11	1094.67
646.46	1093.50
646.80	1094.90
647.14	1089.05
647.49	1084.37
647.83	1084.60
648.17	1086.01
648.52	1088.58
648.86	1088.12
649.20	1094.67
649.55	1091.86
649.89	1097.71
650.23	1103.80
650.57	1110.58
650.92	1114.56
651.26	1120.88
651.60	1119.24
651.95	1115.50
652.29	1095.84
652.63	1085.07
652.97	1078.28
653.32	1073.84
653.66	1071.97
654.00	1097.71
654.34	1109.41
654.69	1110.58
655.03	1114.10
655.37	1115.73
655.71	1099.82
656.05	1095.37
656.40	1097.01
656.74	1087.18
657.08	1083.43
657.42	1085.31
657.76	1090.92
658.11	1090.46
658.45	1100.05
658.79	1105.20
659.13	1103.56
659.47	1091.39
659.82	1084.60
660.16	1080.16
660.50	1070.80
660.84	1072.43
661.18	1072.20
661.52	1079.22
661.87	1079.22
662.21	1080.16
662.55	1078.05
662.89	1083.20
663.23	1084.37
663.57	1087.88
663.91	1092.56
664.25	1091.16
664.60	1090.92
664.94	1087.41
665.28	1078.05
665.62	1082.73
665.96	1085.07
666.30	1085.54
666.64	1087.41
666.98	1097.48
667.32	1082.26
667.66	1085.07
668.01	1079.46
668.35	1072.20
668.69	1070.33
669.03	1080.63
669.37	1085.54
669.71	1087.18
670.05	1096.07
670.39	1090.92
670.73	1089.05
671.07	1084.84
671.41	1088.58
671.75	1082.73
672.09	1077.58
672.43	1075.94
672.77	1077.35
673.11	1077.35
673.45	1085.07
673.79	1097.48
674.13	1105.90
674.47	1112.22
674.81	1107.54
675.15	1103.33
675.49	1092.33
675.83	1081.33
676.17	1065.88
676.51	1075.01
676.85	1074.54
677.19	1086.94
677.53	1094.20
677.87	1095.60
678.21	1093.03
678.55	1093.03
678.89	1091.16
679.23	1092.09
679.57	1097.48
679.90	1097.24
680.24	1100.29
680.58	1096.31
680.92	1095.14
681.26	1083.20
681.60	1072.67
681.94	1071.97
682.28	1078.99
682.62	1076.65
682.96	1086.71
683.29	1085.31
683.63	1086.01
683.97	1081.09
684.31	1075.71
684.65	1083.67
684.99	1098.65
685.33	1098.65
685.67	1099.82
686.00	1104.50
686.34	1089.75
686.68	1086.48
687.02	1080.39
687.36	1079.92
687.70	1074.31
688.03	1079.92
688.37	1078.75
688.71	1078.99
689.05	1078.28
689.39	1079.46
689.72	1078.28
690.06	1074.07
690.40	1083.43
690.74	1088.58
691.08	1092.09
691.41	1098.41
691.75	1107.07
692.09	1110.35
692.43	1109.65
692.76	1112.69
693.10	1111.75
693.44	1114.80
693.78	1105.90
694.11	1101.69
694.45	1102.16
694.79	1098.18
695.13	1096.07
695.46	1100.75
695.80	1087.18
696.14	1086.01
696.48	1095.84
696.81	1079.22
697.15	1079.92
697.49	1086.48
697.82	1089.99
698.16	1076.18
698.50	1093.03
698.83	1100.52
699.17	1100.99
699.51	1100.52
699.84	1102.86
700.18	1100.99
700.52	1096.78
700.85	1104.03
701.19	1106.84
701.53	1118.31
701.86	1112.69
702.20	1109.18
702.54	1105.67
702.87	1104.03
703.21	1092.80
703.55	1093.97
703.88	1091.86
704.22	1092.80
704.55	1087.41
704.89	1088.12
705.23	1089.99
705.56	1088.82
705.90	1089.05
706.23	1089.29
706.57	1092.33
706.91	1085.31
707.24	1083.20
707.58	1080.39
707.91	1078.28
708.25	1076.41
708.58	1074.77
708.92	1070.09
709.26	1076.88
709.59	1083.67
709.93	1081.56
710.26	1085.54
710.60	1090.92
710.93	1086.48
711.27	1087.18
711.60	1082.73
711.94	1082.50
712.27	1090.46
712.61	1078.28
712.94	1069.86
713.28	1078.99
713.61	1076.88
713.95	1067.99
714.28	1081.09
714.62	1086.24
714.95	1079.22
715.29	1081.56
715.62	1082.03
715.96	1087.65
716.29	1089.99
716.63	1099.12
716.96	1104.73
717.29	1103.56
717.63	1092.80
717.96	1088.58
718.30	1084.37
718.63	1078.05
718.97	1081.09
719.30	1073.84
719.63	1085.77
719.97	1084.14
720.30	1080.16
720.64	1078.99
720.97	1081.09
721.30	1072.90
721.64	1083.20
721.97	1093.50
722.31	1090.46
722.64	1099.82
722.97	1098.41
723.31	1092.56
723.64	1092.80
723.97	1097.01
724.31	1089.05
724.64	1090.22
724.98	1094.67
725.31	1074.54
725.64	1066.11
725.98	1077.11
726.31	1079.92
726.64	1073.60
726.97	1086.71
727.31	1096.31
727.64	1100.05
727.97	1096.78
728.31	1099.82
728.64	1102.63
728.97	1100.99
729.31	1086.94
729.64	1084.37
729.97	1078.99
730.30	1083.90
730.64	1084.60
730.97	1099.58
731.30	1100.05
731.63	1096.07
731.97	1090.92
732.30	1086.94
732.63	1075.71
732.96	1079.69
733.30	1082.97
733.63	1078.75
733.96	1078.75
734.29	1068.92
734.63	1055.35
734.96	1065.18
735.29	1067.52
735.62	1077.58
735.95	1085.31
736.29	1095.37
736.62	1092.09
736.95	1088.58
737.28	1077.82
737.61	1071.03
737.94	1067.99
738.28	1060.03
738.61	1067.99
738.94	1062.60
739.27	1076.18
739.60	1082.50
739.93	1092.80
740.27	1090.92
740.60	1097.24
740.93	1097.01
741.26	1099.35
741.59	1088.35
741.92	1089.05
742.25	1090.22
742.58	1089.75
742.91	1075.01
743.25	1079.69
743.58	1068.69
743.91	1068.69
744.24	1063.31
744.57	1067.52
744.90	1081.56
745.23	1079.92
745.56	1079.22
745.89	1074.07
746.22	1077.58
746.55	1067.52
746.88	1073.37
747.21	1085.31
747.54	1095.37
747.87	1099.12
748.20	1097.95
748.53	1098.65
748.87	1088.82
749.20	1093.03
749.53	1098.18
749.86	1091.63
750.19	1094.90
750.52	1091.39
750.85	1078.75
751.18	1067.99
751.51	1074.77
751.84	1074.77
752.16	1077.58
752.49	1082.73
752.82	1077.58
753.15	1069.39
753.48	1061.20
753.81	1047.86
754.14	1052.07
754.47	1056.28
754.80	1060.96
755.13	1066.58
755.46	1079.69
755.79	1078.52
756.12	1078.28
756.45	1078.99
756.78	1073.37
757.11	1075.24
757.43	1074.77
757.76	1081.09
758.09	1077.82
758.42	1083.43
758.75	1080.63
759.08	1075.71
759.41	1072.67
759.74	1065.65
760.07	1060.50
760.39	1057.92
760.72	1064.01
761.05	1053.24
761.38	1070.09
761.71	1070.80
762.04	1080.63
762.36	1069.86
762.69	1088.12
763.02	1075.24
763.35	1081.09
763.68	1063.77
764.01	1066.82
764.33	1056.28
764.66	1055.11
764.99	1048.79
765.32	1057.22
765.65	1067.52
765.97	1073.37
766.30	1086.48
766.63	1101.22
766.96	1099.82
767.28	1097.01
767.61	1094.67
767.94	1082.26
768.27	1065.88
768.59	1076.65
768.92	1072.20
769.25	1068.69
769.58	1071.26
769.90	1074.77
770.23	1071.50
770.56	1076.65
770.89	1081.09
771.21	1083.90
771.54	1090.22
771.87	1087.88
772.19	1084.84
772.52	1085.54
772.85	1082.97
773.17	1084.60
773.50	1084.60
773.83	1080.86
774.15	1073.37
774.48	1078.52
774.81	1074.77
775.13	1064.71
775.46	1067.52
775.79	1078.05
776.11	1069.16
776.44	1074.07
776.77	1082.03
777.09	1087.88
777.42	1086.48
777.74	1094.43
778.07	1086.71
778.40	1077.35
778.72	1066.58
779.05	1069.16
779.37	1068.22
779.70	1073.37
780.03	1081.33
780.35	1093.50
780.68	1078.28
781.00	1076.18
781.33	1072.90
781.65	1071.50
781.98	1066.35
782.31	1073.84
782.63	1074.07
782.96	1072.90
783.28	1080.16
783.61	1082.50
783.93	1072.90
784.26	1078.28
784.58	1086.01
784.91	1084.14
785.23	1088.35
785.56	1093.97
785.88	1093.03
786.21	1095.14
786.53	1095.84
786.86	1090.46
787.18	1083.90
787.51	1069.16
787.83	1059.09
788.16	1049.96
788.48	1042.24
788.81	1055.82
789.13	1062.14
789.46	1055.35
789.78	1058.39
790.10	1058.86
790.43	1049.96
790.75	1059.56
791.08	1070.09
791.40	1072.67
791.73	1078.75
792.05	1076.88
792.37	1066.11
792.70	1067.75
793.02	1078.28
793.35	1074.54
793.67	1078.05
793.99	1073.84
794.32	1058.86
794.64	1050.90
794.96	1052.54
795.29	1052.77
795.61	1058.39
795.93	1071.26
796.26	1072.67
796.58	1075.94
796.91	1079.22
797.23	1090.69
797.55	1092.33
797.87	1092.80
798.20	1086.94
798.52	1092.56
798.84	1083.20
799.17	1091.16
799.49	1087.41
799.81	1094.90
800.14	1095.84
800.46	1094.20
800.78	1086.24
801.10	1084.37
801.43	1089.29
801.75	1079.69
802.07	1082.73
802.40	1082.03
802.72	1083.90
803.04	1076.18
803.36	1086.48
803.69	1089.99
804.01	1086.94
804.33	1089.52
804.65	1090.46
804.97	1083.43
805.30	1077.35
805.62	1076.41
805.94	1068.45
806.26	1065.41
806.58	1070.09
806.91	1071.50
807.23	1070.56
807.55	1067.28
807.87	1074.54
808.19	1080.16
808.52	1079.92
808.84	1082.50
809.16	1087.65
809.48	1086.01
809.80	1080.63
810.12	1079.46
810.44	1081.80
810.77	1085.31
811.09	1086.24
811.41	1082.73
811.73	1077.11
812.05	1081.80
812.37	1080.86
812.69	1083.67
813.01	1081.09
813.33	1089.29
813.66	1084.14
813.98	1084.14
814.30	1072.90
814.62	1078.05
814.94	1075.48
815.26	1074.54
815.58	1065.18
815.90	1062.84
816.22	1064.24
816.54	1070.56
816.86	1075.48
817.18	1077.35
817.50	1076.18
817.82	1070.56
818.14	1075.24
818.46	1077.58
818.78	1086.48
819.10	1098.65
819.42	1103.80
819.74	1094.20
820.06	1081.09
820.38	1078.99
820.70	1071.50
821.02	1061.90
821.34	1067.99
821.66	1069.86
821.98	1063.77
822.30	1064.24
822.62	1071.50
822.94	1069.16
823.26	1077.11
823.58	1082.73
823.90	1080.16
824.22	1077.82
824.54	1081.33
824.86	1072.43
825.18	1077.58
825.50	1086.71
825.81	1088.58
826.13	1093.03
826.45	1097.71
826.77	1096.54
827.09	1079.22
827.41	1084.37
827.73	1075.01
828.05	1066.58
828.36	1063.31
828.68	1085.07
829.00	1075.01
829.32	1072.67
829.64	1086.48
829.96	1095.84
830.28	1084.14
830.59	1085.31
830.91	1086.94
831.23	1085.77
831.55	1074.54
831.87	1073.60
832.19	1074.54
832.50	1083.90
832.82	1079.69
833.14	1084.60
833.46	1086.48
833.78	1082.50
834.09	1075.24
834.41	1078.52
834.73	1081.33
835.05	1075.48
835.36	1081.56
835.68	1083.90
836.00	1077.35
836.32	1068.45
836.63	1070.33
836.95	1070.09
837.27	1067.75
837.59	1075.71
837.90	1080.39
838.22	1086.71
838.54	1079.92
838.85	1091.16
839.17	1084.14
839.49	1081.56
839.80	1078.99
840.12	1087.88
840.44	1076.18
840.76	1082.26
841.07	1086.94
841.39	1086.71
841.71	1078.99
842.02	1082.26
842.34	1075.71
842.65	1060.96
842.97	1060.73
843.29	1075.94
843.60	1064.71
843.92	1065.18
844.24	1075.94
844.55	1079.22
844.87	1075.24
845.18	1079.92
845.50	1075.01
845.82	1076.65
846.13	1072.43
846.45	1060.50
846.76	1059.79
847.08	1070.80
847.40	1070.33
847.71	1065.65
848.03	1069.39
848.34	1075.71
848.66	1064.01
848.97	1064.24
849.29	1067.75
849.60	1078.99
849.92	1081.56
850.24	1091.63
850.55	1089.29
850.87	1104.50
851.18	1103.33
851.50	1089.75
851.81	1092.09
852.13	1096.78
852.44	1088.82
852.76	1089.52
853.07	1098.88
853.39	1093.03
853.70	1089.99
854.01	1087.65
854.33	1078.05
854.64	1074.07
854.96	1080.39
855.27	1089.52
855.59	1093.73
855.90	1098.65
856.22	1106.84
856.53	1100.29
856.84	1091.39
857.16	1090.69
857.47	1083.90
857.79	1083.20
858.10	1082.97
858.41	1082.73
858.73	1084.14
859.04	1091.16
859.36	1085.31
859.67	1083.20
859.98	1083.90
860.30	1076.18
860.61	1072.67
860.92	1080.63
861.24	1086.71
861.55	1091.86
861.87	1090.69
862.18	1096.31
862.49	1090.69
862.81	1092.56
863.12	1089.29
863.43	1097.24
863.74	1087.88
864.06	1085.07
864.37	1072.90
864.68	1074.31
865.00	1066.58
865.31	1071.03
865.62	1076.41
865.94	1082.50
866.25	1088.82
866.56	1098.41
866.87	1095.84
867.19	1095.84
867.50	1096.54
867.81	1079.69
868.12	1074.54
868.44	1080.39
868.75	1082.26
869.06	1084.60
869.37	1094.90
869.68	1095.37
870.00	1082.73
870.31	1080.16
870.62	1082.73
870.93	1086.94
871.24	1081.56
871.56	1091.86
871.87	1082.50
872.18	1095.37
872.49	1091.63
872.80	1093.97
873.12	1092.33
873.43	1100.52
873.74	1084.37
874.05	1085.31
874.36	1079.69
874.67	1072.67
874.98	1066.11
875.29	1062.37
875.61	1062.84
875.92	1077.58
876.23	1095.14
876.54	1096.78
876.85	1101.46
877.16	1094.20
877.47	1082.97
877.78	1075.48
878.09	1073.14
878.40	1067.75
878.72	1067.52
879.03	1071.97
879.34	1061.90
879.65	1066.35
879.96	1082.73
880.27	1085.54
880.58	1082.26
880.89	1088.82
881.20	1088.35
881.51	1072.67
881.82	1067.28
882.13	1067.75
882.44	1062.60
882.75	1062.14
883.06	1064.01
883.37	1062.37
883.68	1065.18
883.99	1072.67
884.30	1076.88
884.61	1077.11
884.92	1089.29
885.23	1084.37
885.54	1074.54
885.85	1076.41
886.16	1081.09
886.47	1081.33
886.78	1086.71
887.08	1091.16
887.39	1087.65
887.70	1084.14
888.01	1071.97
888.32	1063.77
888.63	1063.31
888.94	1059.09
889.25	1064.94
889.56	1065.65
889.87	1081.56
890.17	1080.63
890.48	1087.88
890.79	1090.46
891.10	1098.65
891.41	1089.99
891.72	1100.75
892.03	1095.37
892.34	1076.41
892.64	1078.05
892.95	1086.48
893.26	1075.48
893.57	1069.62
893.88	1078.52
894.18	1071.26
894.49	1058.16
894.80	1064.48
895.11	1068.45
895.42	1071.97
895.72	1080.16
896.03	1091.39
896.34	1084.84
896.65	1095.60
896.96	1093.73
897.26	1093.73
897.57	1083.20
897.88	1087.88
898.19	1077.35
898.49	1081.09
898.80	1077.82
899.11	1076.88
899.41	1072.90
899.72	1073.60
900.03	1076.88
900.34	1078.52
900.64	1085.07
900.95	1096.78
901.26	1092.80
901.56	1086.01
901.87	1082.97
902.18	1075.01
902.48	1062.14
902.79	1065.18
903.10	1064.94
903.40	1064.24
903.71	1070.33
904.02	1072.90
904.32	1067.99
904.63	1068.45
904.94	1067.99
905.24	1071.50
905.55	1075.48
905.85	1074.54
906.16	1071.50
906.47	1071.03
906.77	1066.82
907.08	1060.03
907.38	1069.62
907.69	1074.31
908.00	1073.60
908.30	1071.50
908.61	1086.24
908.91	1084.14
909.22	1080.16
909.52	1073.60
909.83	1076.18
910.14	1067.99
910.44	1076.88
910.75	1080.16
911.05	1091.39
911.36	1091.39
911.66	1099.12
911.97	1084.37
912.27	1076.65
912.58	1070.56
912.88	1071.26
913.19	1067.52
913.49	1074.07
913.80	1081.33
914.10	1087.41
914.41	1087.18
914.71	1083.90
915.01	1086.71
915.32	1096.78
915.62	1094.90
915.93	1084.37
916.23	1085.54
916.54	1082.03
916.84	1073.60
917.15	1074.31
917.45	1084.60
917.75	1079.46
918.06	1085.31
918.36	1080.16
918.67	1074.31
918.97	1080.39
919.27	1087.41
919.58	1082.97
919.88	1083.43
920.18	1080.39
920.49	1074.31
920.79	1065.41
921.10	1064.48
921.40	1068.69
921.70	1070.33
922.01	1064.71
922.31	1068.69
922.61	1076.18
922.92	1075.24
923.22	1079.69
923.52	1083.20
923.82	1080.86
924.13	1075.01
924.43	1077.11
924.73	1080.39
925.04	1078.75
925.34	1079.69
925.64	1077.82
925.94	1080.16
926.25	1079.22
926.55	1077.82
926.85	1077.82
927.15	1082.97
927.46	1081.33
927.76	1082.50
928.06	1093.50
928.36	1093.50
928.67	1089.99
928.97	1089.99
929.27	1088.12
929.57	1080.16
929.87	1084.14
930.18	1087.65
930.48	1077.82
930.78	1075.01
931.08	1078.75
931.38	1073.37
931.69	1064.71
931.99	1077.35
932.29	1091.16
932.59	1091.39
932.89	1091.16
933.19	1104.50
933.49	1102.63
933.80	1102.86
934.10	1102.63
934.40	1108.01
934.70	1106.84
935.00	1097.95
935.30	1082.73
935.60	1080.86
935.90	1071.97
936.20	1067.28
936.50	1069.62
936.81	1082.97
937.11	1085.07
937.41	1085.54
937.71	1087.18
938.01	1091.39
938.31	1089.75
938.61	1079.46
938.91	1079.92
939.21	1075.01
939.51	1076.65
939.81	1059.33
940.11	1063.07
940.41	1068.69
940.71	1067.52
941.01	1065.41
941.31	1071.50
941.61	1078.99
941.91	1081.80
942.21	1080.16
942.51	1078.05
942.81	1080.63
943.11	1075.48
943.41	1080.63
943.71	1091.86
944.01	1091.39
944.31	1097.48
944.61	1093.97
944.90	1087.18
945.20	1077.35
945.50	1079.92
945.80	1074.77
946.10	1078.75
946.40	1072.90
946.70	1077.82
947.00	1072.43
947.30	1071.26
947.60	1067.52
947.89	1078.05
948.19	1068.22
948.49	1074.77
948.79	1089.29
949.09	1096.07
949.39	1089.29
949.69	1103.33
949.98	1101.92
950.28	1091.39
950.58	1099.12
950.88	1095.37
951.18	1091.63
951.48	1092.56
951.77	1086.94
952.07	1080.39
952.37	1088.35
952.67	1088.35
952.97	1082.73
953.26	1086.71
953.56	1082.73
953.86	1083.43
954.16	1077.58
954.45	1066.58
954.75	1066.35
955.05	1071.03
955.35	1067.75
955.64	1068.69
955.94	1081.33
956.24	1079.92
956.54	1075.94
956.83	1081.33
957.13	1088.12
957.43	1086.71
957.72	1077.58
958.02	1080.86
958.32	1075.48
958.61	1069.39
958.91	1067.52
959.21	1077.11
959.50	1075.71
959.80	1088.82
960.10	1082.73
960.39	1095.84
960.69	1098.41
960.99	1093.26
961.28	1087.65
961.58	1090.22
961.87	1078.28
962.17	1074.31
962.47	1079.46
962.76	1067.99
963.06	1064.24
963.36	1065.65
963.65	1061.67
963.95	1056.28
964.24	1057.69
964.54	1061.67
964.83	1058.16
965.13	1062.37
965.42	1066.35
965.72	1065.88
966.02	1072.90
966.31	1080.86
966.61	1085.31
966.90	1092.56
967.20	1089.05
967.49	1082.03
967.79	1077.35
968.08	1066.11
968.38	1066.11
968.67	1083.20
968.97	1082.26
969.26	1083.90
969.56	1091.63
969.85	1082.03
970.15	1072.90
970.44	1075.71
970.74	1071.26
971.03	1063.77
971.32	1069.62
971.62	1076.65
971.91	1074.77
972.21	1084.84
972.50	1101.46
972.80	1099.12
973.09	1087.41
973.38	1093.50
973.68	1086.48
973.97	1075.71
974.27	1069.86
974.56	1078.99
974.85	1077.11
975.15	1076.88
975.44	1078.05
975.73	1083.67
976.03	1074.07
976.32	1088.35
976.61	1093.73
976.91	1094.43
977.20	1090.46
977.49	1093.73
977.79	1081.56
978.08	1077.58
978.37	1082.50
978.67	1084.14
978.96	1084.14
979.25	1087.88
979.55	1090.22
979.84	1074.54
980.13	1081.09
980.42	1078.99
980.72	1081.56
981.01	1083.43
981.30	1100.05
981.59	1098.41
981.89	1095.60
982.18	1083.90
982.47	1079.46
982.76	1066.58
983.06	1064.48
983.35	1071.03
983.64	1074.31
983.93	1073.14
984.22	1084.37
984.52	1082.73
984.81	1081.80
985.10	1077.35
985.39	1080.63
985.68	1071.26
985.97	1075.48
986.27	1069.62
986.56	1075.48
986.85	1067.05
987.14	1076.18
987.43	1076.65
987.72	1086.01
988.01	1081.33
988.31	1086.48
988.60	1088.58
988.89	1080.63
989.18	1084.84
989.47	1082.50
989.76	1086.71
990.05	1065.41
990.34	1070.09
990.63	1056.75
990.92	1071.73
991.21	1073.60
991.51	1091.16
991.80	1101.92
992.09	1104.73
992.38	1087.41
992.67	1086.24
992.96	1079.46
993.25	1065.65
993.54	1075.71
993.83	1078.05
994.12	1078.52
994.41	1084.14
994.70	1092.09
994.99	1086.48
995.28	1094.67
995.57	1091.86
995.86	1093.03
996.15	1083.20
996.44	1082.73
996.73	1078.28
997.02	1075.01
997.31	1070.33
997.59	1069.62
997.88	1067.75
998.17	1072.43
998.46	1078.99
998.75	1086.48
999.04	1088.58
999.33	1089.52
999.62	1083.90
999.91	1086.94
1000.20	1077.35
1000.49	1071.50
1000.77	1064.94
1001.06	1061.67
1001.35	1057.22
1001.64	1068.45
1001.93	1075.71
1002.22	1076.18
1002.51	1072.67
1002.79	1064.94
1003.08	1063.54
1003.37	1059.33
1003.66	1055.82
1003.95	1062.14
1004.23	1071.50
1004.52	1065.88
1004.81	1077.11
1005.10	1079.46
1005.39	1080.86
1005.67	1082.26
1005.96	1079.46
1006.25	1070.56
1006.54	1071.50
1006.83	1072.43
1007.11	1060.73
1007.40	1068.45
1007.69	1074.54
1007.97	1071.97
1008.26	1071.73
1008.55	1072.67
1008.84	1069.86
1009.12	1072.67
1009.41	1082.73
1009.70	1084.84
1009.98	1092.09
1010.27	1091.63
1010.56	1078.75
1010.85	1078.52
1011.13	1083.20
1011.42	1073.84
1011.71	1073.14
1011.99	1080.16
1012.28	1082.73
1012.56	1070.56
1012.85	1079.22
1013.14	1074.07
1013.42	1072.20
1013.71	1058.62
1014.00	1061.90
1014.28	1062.37
1014.57	1069.16
1014.85	1064.94
1015.14	1074.31
1015.43	1075.48
1015.71	1071.26
1016.00	1076.41
1016.28	1072.43
1016.57	1075.94
1016.85	1069.16
1017.14	1074.77
1017.43	1067.75
1017.71	1082.50
1018.00	1076.65
1018.28	1080.86
1018.57	1081.80
1018.85	1088.35
1019.14	1086.24
1019.42	1077.82
1019.71	1089.99
1019.99	1090.69
1020.28	1079.69
1020.56	1079.22
1020.85	1085.31
1021.13	1078.05
1021.42	1078.52
1021.70	1076.65
1021.99	1067.28
1022.27	1075.01
1022.55	1045.05
1022.84	1097.71
>>>>>End Processed Spectral Data<<<<<
