SpectraSuite Data File
++++++++++++++++++++++++++++++++++++
Date: Mon Aug 26 10:24:42 PDT 2019
User: corrico
Dark Spectrum Present: No
Reference Spectrum Present: No
Number of Sampled Component Spectra: 1
Spectrometers: USB2+H06089
Integration Time (usec): 10000 (USB2+H06089)
Spectra Averaged: 2 (USB2+H06089)
Boxcar Smoothing: 2 (USB2+H06089)
Correct for Electrical Dark: No (USB2+H06089)
Strobe/Lamp Enabled: No (USB2+H06089)
Correct for Detector Non-linearity: No (USB2+H06089)
Correct for Stray Light: No (USB2+H06089)
Number of Pixels in Processed Spectrum: 2048
>>>>>Begin Processed Spectral Data<<<<<
339.70	1032.18
340.07	1032.18
340.45	996.83
340.82	973.19
341.19	945.34
341.57	915.85
341.94	901.81
342.31	894.32
342.69	887.30
343.06	880.28
343.43	884.72
343.81	900.40
344.18	902.04
344.55	910.94
344.93	920.06
345.30	923.11
345.67	925.92
346.04	931.30
346.42	939.96
346.79	952.13
347.16	958.92
347.54	962.19
347.91	962.19
348.28	975.30
348.65	989.58
349.03	1008.30
349.40	1026.09
349.77	1048.09
350.14	1045.52
350.52	1060.26
350.89	1065.65
351.26	1071.97
351.63	1077.82
352.01	1082.50
352.38	1079.22
352.75	1083.67
353.12	1085.31
353.50	1084.84
353.87	1093.26
354.24	1095.60
354.61	1101.46
354.98	1105.44
355.36	1103.56
355.73	1105.90
356.10	1104.26
356.47	1099.82
356.84	1088.58
357.22	1081.80
357.59	1078.75
357.96	1074.07
358.33	1073.37
358.70	1082.50
359.08	1086.94
359.45	1082.73
359.82	1089.75
360.19	1082.97
360.56	1086.01
360.94	1091.39
361.31	1106.14
361.68	1110.12
362.05	1120.18
362.42	1124.39
362.79	1122.52
363.16	1113.63
363.54	1107.78
363.91	1097.24
364.28	1097.71
364.65	1098.65
365.02	1106.84
365.39	1104.97
365.76	1112.46
366.14	1113.63
366.51	1101.69
366.88	1097.24
367.25	1099.12
367.62	1096.78
367.99	1084.14
368.36	1093.26
368.73	1088.58
369.10	1091.86
369.48	1094.43
369.85	1096.31
370.22	1096.07
370.59	1097.95
370.96	1095.60
371.33	1099.35
371.70	1107.54
372.07	1116.44
372.44	1124.86
372.81	1117.84
373.18	1109.65
373.55	1102.16
373.93	1090.69
374.30	1085.77
374.67	1094.67
375.04	1099.12
375.41	1100.52
375.78	1105.90
376.15	1097.48
376.52	1096.31
376.89	1105.67
377.26	1095.37
377.63	1103.80
378.00	1110.58
378.37	1118.54
378.74	1106.37
379.11	1119.71
379.48	1113.16
379.85	1119.71
380.22	1117.84
380.59	1119.01
380.96	1115.50
381.33	1122.75
381.70	1119.95
382.07	1118.54
382.44	1115.03
382.81	1120.65
383.18	1114.80
383.55	1107.07
383.92	1098.18
384.29	1107.31
384.66	1105.20
385.03	1101.92
385.40	1108.95
385.77	1118.31
386.14	1113.39
386.51	1109.41
386.88	1112.22
387.25	1117.84
387.62	1108.95
387.99	1114.33
388.36	1117.84
388.73	1120.65
389.10	1109.18
389.46	1114.56
389.83	1115.03
390.20	1117.37
390.57	1100.52
390.94	1104.73
391.31	1109.65
391.68	1110.82
392.05	1114.10
392.42	1125.33
392.79	1129.07
393.16	1131.88
393.53	1130.48
393.89	1137.27
394.26	1138.90
394.63	1138.90
395.00	1141.01
395.37	1137.27
395.74	1133.05
396.11	1138.44
396.48	1140.78
396.84	1138.67
397.21	1149.20
397.58	1138.20
397.95	1142.88
398.32	1147.33
398.69	1140.78
399.06	1143.35
399.42	1158.80
399.79	1162.08
400.16	1166.99
400.53	1182.67
400.90	1180.57
401.27	1192.74
401.64	1204.44
402.00	1215.67
402.37	1221.99
402.74	1245.40
403.11	1245.17
403.48	1248.21
403.84	1258.27
404.21	1268.34
404.58	1276.76
404.95	1295.25
405.32	1310.00
405.68	1333.40
406.05	1355.17
406.42	1376.24
406.79	1412.28
407.16	1440.13
407.52	1468.45
407.89	1497.94
408.26	1537.50
408.63	1562.31
408.99	1608.42
409.36	1643.29
409.73	1696.19
410.10	1734.81
410.47	1787.94
410.83	1847.38
411.20	1915.26
411.57	1975.18
411.94	2042.82
412.30	2123.10
412.67	2197.53
413.04	2278.75
413.40	2372.13
413.77	2488.93
414.14	2591.44
414.51	2718.53
414.87	2844.92
415.24	2998.69
415.61	3142.64
415.97	3305.77
416.34	3473.59
416.71	3673.24
417.08	3873.59
417.44	4067.62
417.81	4287.63
418.18	4517.94
418.54	4770.01
418.91	5008.04
419.28	5299.91
419.64	5617.99
420.01	5941.22
420.38	6277.55
420.74	6627.23
421.11	7042.44
421.48	7424.88
421.84	7844.31
422.21	8250.62
422.58	8772.33
422.94	9250.03
423.31	9775.72
423.68	10340.49
424.04	10985.77
424.41	11579.57
424.77	12205.43
425.14	12831.99
425.51	13503.49
425.87	14251.05
426.24	15011.96
426.61	15890.60
426.97	16913.18
427.34	17888.48
427.70	18910.83
428.07	19917.96
428.44	20953.41
428.80	21954.93
429.17	22988.04
429.53	24008.75
429.90	25256.72
430.27	26335.94
430.63	27491.70
431.00	28820.19
431.36	30244.40
431.73	31436.44
432.09	32772.42
432.46	34088.73
432.83	35364.79
433.19	36562.91
433.56	38088.47
433.92	39643.99
434.29	41166.98
434.65	42631.69
435.02	43979.84
435.38	45204.64
435.75	46110.19
436.11	47260.80
436.48	48330.66
436.84	49371.03
437.21	50281.26
437.57	51271.78
437.94	52024.73
438.30	52570.77
438.67	52872.70
439.03	53023.20
439.40	53180.95
439.76	52998.86
440.13	52790.31
440.49	52794.06
440.86	52466.62
441.22	52059.60
441.59	51533.45
441.95	50970.55
442.32	50020.76
442.68	49312.98
443.05	48351.25
443.41	47440.79
443.78	46355.71
444.14	45337.82
444.51	44038.58
444.87	43017.17
445.24	41698.28
445.60	40573.65
445.96	39467.05
446.33	38616.03
446.69	37504.98
447.06	36681.81
447.42	35689.89
447.79	34599.91
448.15	33496.11
448.51	32460.19
448.88	31629.30
449.24	30614.68
449.61	29921.41
449.97	29180.39
450.33	28427.44
450.70	27507.38
451.06	26962.27
451.43	26230.38
451.79	25667.95
452.15	25176.21
452.52	24584.05
452.88	23961.70
453.24	23402.78
453.61	22751.88
453.97	22117.36
454.34	21541.12
454.70	21057.10
455.06	20436.86
455.43	19763.72
455.79	18972.15
456.15	18359.40
456.52	17581.64
456.88	17011.25
457.24	16450.22
457.61	16029.39
457.97	15484.05
458.33	14978.96
458.70	14414.19
459.06	13848.01
459.42	13361.65
459.79	12859.14
460.15	12460.31
460.51	12027.54
460.88	11654.46
461.24	11195.95
461.60	10848.62
461.96	10451.43
462.33	10112.05
462.69	9781.33
463.05	9505.38
463.42	9235.99
463.78	8956.29
464.14	8667.71
464.50	8421.95
464.87	8141.55
465.23	7852.26
465.59	7650.04
465.95	7480.82
466.32	7259.64
466.68	7095.57
467.04	6917.92
467.40	6704.46
467.77	6504.58
468.13	6317.11
468.49	6162.40
468.85	6012.13
469.22	5898.85
469.58	5770.12
469.94	5676.74
470.30	5555.50
470.66	5461.41
471.03	5344.85
471.39	5244.20
471.75	5135.14
472.11	5027.24
472.47	4922.15
472.84	4793.65
473.20	4674.05
473.56	4571.77
473.92	4471.13
474.28	4381.72
474.65	4305.88
475.01	4251.82
475.37	4161.94
475.73	4091.96
476.09	3975.87
476.45	3901.67
476.81	3784.65
477.18	3699.22
477.54	3621.51
477.90	3555.27
478.26	3468.21
478.62	3415.78
478.98	3364.29
479.34	3307.18
479.71	3268.32
480.07	3242.58
480.43	3201.85
480.79	3146.38
481.15	3089.27
481.51	3041.06
481.87	2985.82
482.23	2925.90
482.59	2875.58
482.96	2843.28
483.32	2798.34
483.68	2759.26
484.04	2721.34
484.40	2696.53
484.76	2636.38
485.12	2601.04
485.48	2569.67
485.84	2529.65
486.20	2484.71
486.56	2458.50
486.92	2425.73
487.28	2379.39
487.64	2346.62
488.00	2304.73
488.37	2258.62
488.73	2230.76
489.09	2201.51
489.45	2178.34
489.81	2167.34
490.17	2157.04
490.53	2116.08
490.89	2080.50
491.25	2066.69
491.61	2032.52
491.97	1991.56
492.33	1971.67
492.69	1951.77
493.05	1921.58
493.41	1901.45
493.77	1890.45
494.13	1875.47
494.49	1864.00
494.85	1842.24
495.21	1825.62
495.57	1793.79
495.93	1758.21
496.29	1722.63
496.64	1699.23
497.00	1678.87
497.36	1673.48
497.72	1658.97
498.08	1643.52
498.44	1625.50
498.80	1603.50
499.16	1594.37
499.52	1577.76
499.88	1571.20
500.24	1550.84
500.60	1541.01
500.96	1516.90
501.32	1512.45
501.68	1507.07
502.03	1508.94
502.39	1500.52
502.75	1478.05
503.11	1466.58
503.47	1448.09
503.83	1425.85
504.19	1408.30
504.55	1404.09
504.91	1393.55
505.26	1382.09
505.62	1368.04
505.98	1357.51
506.34	1359.15
506.70	1357.28
507.06	1354.23
507.42	1348.38
507.78	1339.96
508.13	1330.83
508.49	1315.85
508.85	1320.06
509.21	1322.17
509.57	1320.30
509.93	1307.66
510.28	1303.91
510.64	1281.91
511.00	1280.98
511.36	1280.51
511.72	1286.12
512.07	1286.59
512.43	1282.85
512.79	1270.91
513.15	1264.59
513.51	1254.76
513.86	1252.19
514.22	1253.82
514.58	1257.57
514.94	1247.51
515.30	1247.97
515.65	1224.57
516.01	1216.38
516.37	1205.61
516.73	1195.08
517.08	1194.61
517.44	1208.42
517.80	1200.23
518.16	1194.61
518.51	1211.46
518.87	1197.65
519.23	1184.31
519.59	1184.55
519.94	1190.63
520.30	1180.80
520.66	1185.48
521.01	1187.35
521.37	1205.14
521.73	1192.50
522.09	1191.57
522.44	1179.40
522.80	1176.59
523.16	1160.91
523.51	1175.89
523.87	1171.44
524.23	1181.03
524.58	1189.23
524.94	1188.76
525.30	1179.86
525.65	1178.93
526.01	1183.84
526.37	1175.42
526.72	1176.59
527.08	1177.99
527.44	1179.16
527.79	1174.25
528.15	1180.33
528.51	1173.08
528.86	1164.88
529.22	1166.29
529.58	1165.35
529.93	1154.35
530.29	1153.88
530.65	1152.25
531.00	1149.44
531.36	1146.86
531.71	1155.76
532.07	1153.65
532.43	1152.71
532.78	1147.10
533.14	1150.37
533.49	1144.05
533.85	1147.80
534.21	1136.56
534.56	1144.05
534.92	1132.35
535.27	1125.80
535.63	1127.67
535.98	1140.54
536.34	1139.61
536.69	1145.22
537.05	1157.39
537.41	1162.08
537.76	1161.84
538.12	1152.71
538.47	1149.44
538.83	1144.76
539.18	1141.01
539.54	1139.37
539.89	1140.54
540.25	1139.37
540.60	1131.41
540.96	1115.50
541.31	1122.52
541.67	1137.50
542.02	1134.93
542.38	1133.76
542.73	1147.10
543.09	1139.14
543.44	1118.31
543.80	1121.82
544.15	1122.52
544.51	1117.84
544.86	1131.65
545.22	1141.01
545.57	1140.07
545.93	1151.78
546.28	1154.59
546.64	1139.84
546.99	1135.39
547.35	1142.65
547.70	1141.71
548.05	1131.41
548.41	1128.14
548.76	1126.73
549.12	1119.95
549.47	1114.33
549.83	1115.73
550.18	1121.82
550.53	1126.73
550.89	1127.44
551.24	1122.99
551.60	1126.97
551.95	1129.07
552.30	1120.65
552.66	1105.20
553.01	1107.78
553.37	1106.14
553.72	1097.24
554.07	1097.01
554.43	1111.05
554.78	1110.35
555.13	1109.41
555.49	1115.73
555.84	1111.52
556.19	1107.78
556.55	1107.78
556.90	1109.18
557.26	1102.63
557.61	1106.61
557.96	1106.61
558.32	1102.63
558.67	1105.67
559.02	1099.12
559.37	1098.18
559.73	1099.35
560.08	1103.56
560.43	1097.71
560.79	1100.75
561.14	1102.86
561.49	1111.05
561.85	1104.50
562.20	1094.90
562.55	1109.88
562.90	1116.90
563.26	1109.88
563.61	1119.95
563.96	1129.54
564.32	1120.41
564.67	1120.65
565.02	1118.78
565.37	1108.71
565.73	1117.37
566.08	1115.50
566.43	1114.56
566.78	1115.50
567.14	1119.01
567.49	1108.71
567.84	1115.97
568.19	1111.75
568.54	1109.18
568.90	1104.50
569.25	1101.92
569.60	1093.03
569.95	1098.18
570.31	1094.43
570.66	1108.95
571.01	1106.37
571.36	1106.84
571.71	1108.24
572.06	1123.93
572.42	1120.65
572.77	1123.46
573.12	1117.84
573.47	1109.18
573.82	1102.39
574.18	1097.48
574.53	1094.90
574.88	1098.18
575.23	1091.86
575.58	1089.52
575.93	1094.43
576.28	1103.56
576.64	1108.01
576.99	1117.37
577.34	1125.10
577.69	1114.33
578.04	1118.54
578.39	1127.90
578.74	1128.14
579.09	1119.48
579.44	1130.01
579.80	1121.12
580.15	1113.39
580.50	1110.82
580.85	1118.07
581.20	1116.20
581.55	1120.88
581.90	1117.61
582.25	1114.80
582.60	1110.12
582.95	1103.56
583.30	1100.05
583.65	1100.05
584.00	1108.48
584.35	1102.63
584.71	1104.97
585.06	1104.03
585.41	1103.09
585.76	1106.84
586.11	1112.92
586.46	1111.29
586.81	1097.95
587.16	1097.95
587.51	1086.24
587.86	1079.22
588.21	1079.92
588.56	1087.41
588.91	1085.31
589.26	1087.41
589.61	1092.56
589.96	1089.99
590.31	1097.24
590.66	1100.99
591.01	1101.46
591.36	1098.88
591.71	1103.09
592.06	1109.65
592.41	1110.82
592.76	1108.24
593.10	1100.99
593.45	1094.20
593.80	1086.71
594.15	1082.03
594.50	1086.71
594.85	1097.01
595.20	1105.90
595.55	1101.46
595.90	1107.31
596.25	1110.58
596.60	1100.99
596.95	1102.63
597.30	1109.88
597.64	1162.31
597.99	1153.42
598.34	1161.37
598.69	1159.50
599.04	1160.20
599.39	1109.18
599.74	1114.09
600.09	1122.05
600.44	1118.54
600.78	1108.01
601.13	1105.90
601.48	1103.33
601.83	1094.67
602.18	1095.60
602.53	1107.54
602.88	1110.12
603.22	1119.48
603.57	1125.10
603.92	1120.41
604.27	1115.50
604.62	1109.18
604.97	1100.05
605.31	1094.20
605.66	1097.48
606.01	1096.78
606.36	1096.54
606.71	1101.46
607.05	1104.50
607.40	1104.97
607.75	1100.75
608.10	1094.90
608.44	1094.20
608.79	1092.80
609.14	1094.20
609.49	1091.86
609.84	1100.52
610.18	1094.67
610.53	1096.07
610.88	1099.82
611.23	1105.44
611.57	1097.71
611.92	1102.16
612.27	1097.95
612.62	1091.86
612.96	1098.88
613.31	1097.24
613.66	1095.14
614.00	1093.26
614.35	1095.60
614.70	1089.52
615.05	1097.01
615.39	1092.56
615.74	1087.41
616.09	1083.43
616.43	1086.94
616.78	1088.58
617.13	1089.05
617.47	1091.16
617.82	1096.07
618.17	1098.65
618.51	1094.43
618.86	1102.63
619.21	1106.61
619.55	1101.92
619.90	1089.75
620.25	1090.92
620.59	1100.29
620.94	1103.80
621.29	1116.90
621.63	1126.27
621.98	1127.90
622.32	1101.92
622.67	1103.09
623.02	1092.56
623.36	1096.31
623.71	1089.99
624.05	1090.22
624.40	1086.71
624.75	1087.65
625.09	1080.86
625.44	1095.84
625.78	1106.84
626.13	1104.26
626.48	1107.54
626.82	1101.22
627.17	1096.78
627.51	1098.41
627.86	1103.33
628.20	1093.97
628.55	1104.03
628.89	1097.48
629.24	1093.73
629.58	1086.94
629.93	1090.92
630.28	1088.58
630.62	1101.46
630.97	1109.18
631.31	1105.67
631.66	1096.54
632.00	1093.73
632.35	1083.90
632.69	1082.73
633.04	1089.05
633.38	1093.97
633.73	1099.35
634.07	1110.58
634.42	1105.90
634.76	1115.03
635.11	1117.37
635.45	1117.14
635.79	1106.61
636.14	1109.18
636.48	1105.90
636.83	1102.86
637.17	1098.18
637.52	1096.31
637.86	1089.05
638.21	1076.18
638.55	1089.52
638.89	1088.12
639.24	1093.73
639.58	1097.01
639.93	1101.69
640.27	1098.41
640.61	1106.84
640.96	1097.24
641.30	1098.88
641.65	1097.01
641.99	1084.60
642.33	1077.82
642.68	1078.28
643.02	1079.22
643.37	1096.54
643.71	1095.37
644.05	1097.24
644.40	1110.35
644.74	1113.16
645.08	1108.01
645.43	1110.82
645.77	1114.56
646.11	1109.41
646.46	1105.20
646.80	1102.63
647.14	1105.20
647.49	1096.31
647.83	1090.69
648.17	1086.01
648.52	1088.82
648.86	1089.05
649.20	1097.01
649.55	1104.97
649.89	1104.97
650.23	1090.69
650.57	1094.43
650.92	1082.73
651.26	1072.43
651.60	1080.86
651.95	1093.73
652.29	1098.18
652.63	1111.52
652.97	1125.10
653.32	1120.18
653.66	1116.90
654.00	1103.33
654.34	1085.54
654.69	1075.48
655.03	1081.80
655.37	1076.65
655.71	1084.14
656.05	1102.39
656.40	1100.52
656.74	1089.52
657.08	1085.77
657.42	1093.50
657.76	1090.92
658.11	1095.84
658.45	1103.09
658.79	1098.41
659.13	1092.56
659.47	1082.97
659.82	1081.80
660.16	1081.56
660.50	1093.73
660.84	1096.31
661.18	1099.58
661.52	1102.86
661.87	1103.09
662.21	1101.92
662.55	1094.20
662.89	1092.80
663.23	1086.24
663.57	1081.09
663.91	1080.39
664.25	1080.86
664.60	1081.80
664.94	1083.90
665.28	1089.29
665.62	1094.43
665.96	1097.01
666.30	1098.18
666.64	1092.56
666.98	1090.46
667.32	1085.31
667.66	1083.20
668.01	1088.82
668.35	1094.67
668.69	1098.41
669.03	1100.75
669.37	1100.99
669.71	1088.12
670.05	1081.33
670.39	1077.11
670.73	1078.05
671.07	1079.92
671.41	1081.09
671.75	1091.63
672.09	1096.78
672.43	1092.33
672.77	1085.77
673.11	1091.63
673.45	1085.31
673.79	1079.69
674.13	1085.54
674.47	1101.22
674.81	1108.71
675.15	1104.50
675.49	1104.50
675.83	1093.73
676.17	1080.16
676.51	1075.01
676.85	1080.86
677.19	1086.48
677.53	1105.90
677.87	1114.80
678.21	1109.41
678.55	1103.56
678.89	1106.37
679.23	1085.07
679.57	1071.73
679.90	1073.60
680.24	1075.24
680.58	1066.35
680.92	1080.16
681.26	1093.50
681.60	1097.48
681.94	1098.18
682.28	1108.48
682.62	1094.90
682.96	1082.50
683.29	1085.31
683.63	1096.54
683.97	1090.46
684.31	1101.69
684.65	1108.48
684.99	1102.86
685.33	1101.22
685.67	1088.35
686.00	1091.63
686.34	1098.18
686.68	1097.48
687.02	1089.29
687.36	1099.12
687.70	1092.56
688.03	1080.63
688.37	1070.33
688.71	1067.99
689.05	1070.33
689.39	1062.60
689.72	1072.20
690.06	1075.01
690.40	1082.50
690.74	1077.82
691.08	1093.97
691.41	1079.46
691.75	1085.31
692.09	1079.92
692.43	1084.84
692.76	1073.37
693.10	1087.41
693.44	1083.90
693.78	1085.31
694.11	1076.88
694.45	1075.24
694.79	1070.33
695.13	1070.09
695.46	1066.11
695.80	1076.65
696.14	1085.54
696.48	1085.07
696.81	1093.50
697.15	1097.95
697.49	1093.97
697.82	1090.69
698.16	1089.05
698.50	1085.54
698.83	1086.71
699.17	1080.16
699.51	1078.05
699.84	1086.01
700.18	1088.12
700.52	1092.33
700.85	1100.29
701.19	1109.18
701.53	1102.63
701.86	1101.92
702.20	1097.01
702.54	1091.16
702.87	1074.54
703.21	1073.14
703.55	1075.71
703.88	1074.77
704.22	1079.69
704.55	1089.05
704.89	1095.60
705.23	1084.60
705.56	1079.22
705.90	1068.92
706.23	1067.28
706.57	1070.33
706.91	1082.03
707.24	1086.71
707.58	1086.01
707.91	1090.22
708.25	1083.20
708.58	1082.03
708.92	1072.67
709.26	1086.94
709.59	1079.69
709.93	1083.67
710.26	1080.63
710.60	1095.37
710.93	1097.71
711.27	1108.01
711.60	1100.05
711.94	1093.03
712.27	1089.29
712.61	1082.73
712.94	1083.90
713.28	1075.94
713.61	1074.31
713.95	1065.18
714.28	1067.05
714.62	1060.50
714.95	1074.77
715.29	1085.77
715.62	1088.58
715.96	1080.39
716.29	1074.54
716.63	1065.88
716.96	1070.09
717.29	1070.33
717.63	1075.94
717.96	1081.33
718.30	1091.39
718.63	1077.11
718.97	1078.75
719.30	1082.03
719.63	1078.52
719.97	1075.01
720.30	1086.01
720.64	1086.71
720.97	1083.43
721.30	1093.03
721.64	1093.97
721.97	1094.20
722.31	1090.22
722.64	1095.84
722.97	1084.37
723.31	1082.03
723.64	1083.90
723.97	1090.22
724.31	1090.22
724.64	1091.39
724.98	1100.05
725.31	1098.88
725.64	1095.14
725.98	1095.14
726.31	1096.78
726.64	1088.58
726.97	1088.12
727.31	1087.65
727.64	1083.90
727.97	1088.58
728.31	1081.33
728.64	1076.65
728.97	1078.75
729.31	1078.75
729.64	1076.41
729.97	1089.29
730.30	1090.69
730.64	1088.82
730.97	1088.58
731.30	1086.94
731.63	1079.92
731.97	1082.50
732.30	1090.92
732.63	1091.63
732.96	1094.43
733.30	1103.80
733.63	1102.86
733.96	1097.01
734.29	1092.09
734.63	1091.39
734.96	1078.99
735.29	1070.56
735.62	1068.22
735.95	1069.39
736.29	1074.54
736.62	1076.88
736.95	1074.54
737.28	1071.73
737.61	1071.50
737.94	1066.58
738.28	1065.18
738.61	1068.92
738.94	1072.43
739.27	1071.03
739.60	1070.80
739.93	1078.52
740.27	1082.97
740.60	1085.31
740.93	1083.67
741.26	1076.88
741.59	1068.69
741.92	1068.92
742.25	1059.56
742.58	1067.05
742.91	1074.77
743.25	1072.67
743.58	1068.22
743.91	1069.86
744.24	1063.31
744.57	1052.30
744.90	1058.39
745.23	1060.03
745.56	1073.84
745.89	1076.41
746.22	1086.71
746.55	1089.52
746.88	1098.41
747.21	1095.84
747.54	1103.80
747.87	1102.63
748.20	1097.48
748.53	1086.94
748.87	1081.09
749.20	1075.01
749.53	1076.41
749.86	1084.60
750.19	1100.29
750.52	1102.86
750.85	1098.18
751.18	1088.82
751.51	1079.69
751.84	1065.41
752.16	1067.99
752.49	1064.71
752.82	1066.35
753.15	1069.86
753.48	1066.58
753.81	1068.45
754.14	1075.24
754.47	1081.09
754.80	1088.12
755.13	1093.03
755.46	1091.39
755.79	1093.26
756.12	1097.24
756.45	1089.05
756.78	1093.73
757.11	1090.46
757.43	1087.41
757.76	1082.26
758.09	1087.65
758.42	1086.24
758.75	1086.71
759.08	1092.09
759.41	1080.16
759.74	1085.77
760.07	1088.58
760.39	1084.37
760.72	1080.63
761.05	1091.16
761.38	1082.73
761.71	1078.52
762.04	1078.28
762.36	1075.71
762.69	1081.33
763.02	1084.14
763.35	1081.56
763.68	1082.03
764.01	1084.84
764.33	1086.94
764.66	1087.65
764.99	1088.35
765.32	1093.26
765.65	1093.50
765.97	1088.58
766.30	1088.82
766.63	1088.82
766.96	1079.92
767.28	1079.69
767.61	1080.63
767.94	1080.16
768.27	1076.18
768.59	1079.69
768.92	1078.99
769.25	1069.86
769.58	1065.65
769.90	1077.11
770.23	1074.31
770.56	1071.73
770.89	1086.48
771.21	1087.41
771.54	1085.07
771.87	1092.09
772.19	1091.39
772.52	1083.90
772.85	1084.14
773.17	1072.67
773.50	1074.54
773.83	1084.14
774.15	1089.29
774.48	1086.24
774.81	1093.50
775.13	1089.52
775.46	1082.26
775.79	1081.80
776.11	1089.52
776.44	1089.05
776.77	1085.31
777.09	1083.90
777.42	1079.22
777.74	1082.73
778.07	1079.46
778.40	1081.56
778.72	1080.86
779.05	1079.92
779.37	1064.71
779.70	1071.73
780.03	1072.43
780.35	1076.88
780.68	1079.22
781.00	1092.33
781.33	1095.14
781.65	1093.97
781.98	1090.22
782.31	1084.37
782.63	1074.77
782.96	1071.73
783.28	1083.90
783.61	1082.03
783.93	1077.35
784.26	1073.60
784.58	1074.31
784.91	1067.75
785.23	1072.43
785.56	1070.80
785.88	1078.52
786.21	1074.07
786.53	1059.56
786.86	1058.86
787.18	1068.92
787.51	1071.97
787.83	1068.69
788.16	1078.52
788.48	1079.46
788.81	1073.84
789.13	1067.05
789.46	1064.94
789.78	1061.90
790.10	1060.50
790.43	1070.80
790.75	1066.58
791.08	1071.26
791.40	1078.99
791.73	1077.82
792.05	1078.75
792.37	1092.33
792.70	1083.20
793.02	1091.63
793.35	1081.56
793.67	1080.16
793.99	1064.94
794.32	1073.37
794.64	1056.28
794.96	1069.86
795.29	1071.50
795.61	1084.37
795.93	1092.56
796.26	1100.99
796.58	1097.01
796.91	1090.69
797.23	1087.41
797.55	1082.03
797.87	1078.99
798.20	1082.97
798.52	1090.46
798.84	1089.05
799.17	1089.75
799.49	1093.50
799.81	1090.69
800.14	1084.14
800.46	1090.92
800.78	1089.75
801.10	1084.60
801.43	1086.01
801.75	1084.14
802.07	1076.88
802.40	1072.67
802.72	1070.33
803.04	1075.48
803.36	1085.54
803.69	1082.73
804.01	1088.12
804.33	1096.54
804.65	1080.86
804.97	1073.37
805.30	1068.45
805.62	1061.20
805.94	1059.56
806.26	1071.26
806.58	1075.01
806.91	1084.37
807.23	1087.18
807.55	1096.07
807.87	1087.65
808.19	1081.33
808.52	1082.97
808.84	1085.54
809.16	1078.99
809.48	1084.14
809.80	1093.50
810.12	1088.82
810.44	1083.67
810.77	1078.52
811.09	1083.90
811.41	1073.14
811.73	1075.01
812.05	1080.16
812.37	1078.99
812.69	1082.73
813.01	1082.03
813.33	1080.39
813.66	1075.48
813.98	1073.14
814.30	1066.58
814.62	1079.92
814.94	1093.97
815.26	1100.75
815.58	1098.65
815.90	1101.22
816.22	1101.22
816.54	1090.92
816.86	1082.73
817.18	1076.41
817.50	1071.73
817.82	1071.26
818.14	1059.33
818.46	1053.48
818.78	1079.22
819.10	1075.48
819.42	1063.77
819.74	1063.77
820.06	1076.41
820.38	1067.75
820.70	1071.03
821.02	1075.71
821.34	1088.82
821.66	1088.58
821.98	1083.20
822.30	1083.90
822.62	1085.54
822.94	1082.97
823.26	1073.84
823.58	1070.33
823.90	1082.26
824.22	1079.69
824.54	1081.09
824.86	1085.31
825.18	1096.78
825.50	1097.95
825.81	1101.22
826.13	1101.22
826.45	1110.82
826.77	1104.97
827.09	1094.67
827.41	1084.84
827.73	1088.58
828.05	1087.41
828.36	1086.94
828.68	1084.84
829.00	1088.58
829.32	1078.75
829.64	1079.92
829.96	1069.62
830.28	1077.82
830.59	1075.94
830.91	1077.11
831.23	1065.65
831.55	1079.69
831.87	1071.03
832.19	1077.58
832.50	1078.75
832.82	1082.50
833.14	1078.75
833.46	1079.69
833.78	1076.41
834.09	1071.97
834.41	1075.71
834.73	1075.94
835.05	1081.09
835.36	1074.07
835.68	1082.73
836.00	1081.56
836.32	1073.14
836.63	1067.52
836.95	1065.41
837.27	1057.22
837.59	1061.67
837.90	1065.18
838.22	1063.07
838.54	1079.92
838.85	1083.90
839.17	1087.18
839.49	1089.75
839.80	1093.03
840.12	1090.22
840.44	1091.39
840.76	1083.20
841.07	1081.33
841.39	1079.22
841.71	1073.14
842.02	1066.82
842.34	1060.96
842.65	1069.62
842.97	1071.73
843.29	1068.22
843.60	1077.58
843.92	1084.14
844.24	1089.99
844.55	1090.22
844.87	1099.82
845.18	1094.90
845.50	1100.52
845.82	1093.03
846.13	1093.50
846.45	1086.71
846.76	1088.35
847.08	1083.90
847.40	1080.16
847.71	1084.84
848.03	1086.71
848.34	1092.33
848.66	1093.03
848.97	1096.31
849.29	1096.31
849.60	1096.31
849.92	1088.82
850.24	1078.05
850.55	1077.11
850.87	1071.73
851.18	1064.01
851.50	1058.86
851.81	1072.43
852.13	1066.35
852.44	1063.07
852.76	1077.11
853.07	1080.86
853.39	1081.56
853.70	1085.07
854.01	1080.16
854.33	1068.22
854.64	1078.75
854.96	1076.41
855.27	1068.92
855.59	1064.71
855.90	1069.16
856.22	1065.18
856.53	1062.60
856.84	1071.50
857.16	1081.80
857.47	1088.82
857.79	1091.86
858.10	1096.31
858.41	1091.86
858.73	1092.09
859.04	1082.73
859.36	1079.22
859.67	1073.60
859.98	1074.31
860.30	1071.03
860.61	1075.94
860.92	1072.20
861.24	1071.50
861.55	1079.92
861.87	1088.82
862.18	1086.01
862.49	1083.20
862.81	1086.48
863.12	1091.63
863.43	1093.03
863.74	1090.46
864.06	1089.29
864.37	1082.97
864.68	1080.39
865.00	1080.63
865.31	1084.14
865.62	1086.48
865.94	1081.80
866.25	1076.18
866.56	1062.84
866.87	1062.14
867.19	1072.90
867.50	1086.01
867.81	1090.22
868.12	1104.26
868.44	1111.75
868.75	1103.33
869.06	1097.95
869.37	1084.84
869.68	1078.99
870.00	1076.41
870.31	1069.86
870.62	1072.67
870.93	1078.99
871.24	1081.09
871.56	1083.90
871.87	1097.24
872.18	1093.50
872.49	1093.03
872.80	1090.46
873.12	1079.69
873.43	1070.56
873.74	1069.16
874.05	1074.31
874.36	1080.63
874.67	1081.33
874.98	1081.09
875.29	1091.16
875.61	1089.99
875.92	1080.39
876.23	1090.22
876.54	1094.43
876.85	1089.99
877.16	1080.63
877.47	1079.46
877.78	1070.33
878.09	1068.92
878.40	1063.77
878.72	1071.73
879.03	1086.71
879.34	1085.31
879.65	1084.60
879.96	1085.77
880.27	1084.60
880.58	1069.16
880.89	1071.97
881.20	1068.45
881.51	1064.01
881.82	1056.28
882.13	1063.54
882.44	1066.58
882.75	1070.33
883.06	1080.63
883.37	1088.12
883.68	1087.65
883.99	1090.46
884.30	1090.22
884.61	1083.43
884.92	1073.60
885.23	1069.86
885.54	1064.71
885.85	1070.80
886.16	1072.67
886.47	1085.54
886.78	1086.24
887.08	1076.88
887.39	1072.43
887.70	1067.52
888.01	1069.39
888.32	1063.77
888.63	1074.07
888.94	1061.43
889.25	1067.52
889.56	1056.75
889.87	1061.20
890.17	1065.41
890.48	1077.35
890.79	1076.18
891.10	1083.43
891.41	1082.26
891.72	1081.09
892.03	1082.97
892.34	1083.20
892.64	1074.77
892.95	1075.48
893.26	1065.88
893.57	1056.99
893.88	1054.88
894.18	1060.50
894.49	1066.58
894.80	1073.84
895.11	1074.77
895.42	1084.14
895.72	1083.20
896.03	1080.16
896.34	1073.37
896.65	1081.09
896.96	1067.75
897.26	1071.50
897.57	1068.22
897.88	1084.14
898.19	1088.12
898.49	1097.01
898.80	1090.46
899.11	1090.46
899.41	1081.09
899.72	1081.09
900.03	1072.20
900.34	1083.90
900.64	1085.77
900.95	1080.86
901.26	1075.71
901.56	1080.63
901.87	1071.03
902.18	1070.80
902.48	1072.90
902.79	1076.41
903.10	1077.82
903.40	1078.28
903.71	1075.94
904.02	1079.22
904.32	1075.24
904.63	1078.75
904.94	1078.28
905.24	1074.07
905.55	1070.80
905.85	1066.35
906.16	1063.07
906.47	1065.41
906.77	1067.99
907.08	1074.54
907.38	1084.14
907.69	1083.90
908.00	1088.58
908.30	1101.92
908.61	1100.99
908.91	1096.31
909.22	1105.67
909.52	1100.05
909.83	1103.56
910.14	1099.58
910.44	1102.63
910.75	1096.78
911.05	1089.99
911.36	1075.71
911.66	1080.39
911.97	1081.33
912.27	1078.75
912.58	1089.75
912.88	1095.84
913.19	1088.12
913.49	1082.26
913.80	1078.05
914.10	1071.03
914.41	1065.65
914.71	1075.94
915.01	1085.77
915.32	1089.75
915.62	1095.14
915.93	1091.16
916.23	1083.43
916.54	1070.33
916.84	1073.60
917.15	1067.52
917.45	1062.37
917.75	1061.67
918.06	1065.88
918.36	1054.65
918.67	1056.28
918.97	1056.28
919.27	1060.73
919.58	1060.50
919.88	1072.20
920.18	1071.97
920.49	1081.33
920.79	1078.52
921.10	1075.48
921.40	1064.71
921.70	1059.56
922.01	1060.26
922.31	1055.58
922.61	1061.43
922.92	1076.41
923.22	1079.22
923.52	1076.41
923.82	1095.37
924.13	1081.80
924.43	1074.31
924.73	1078.05
925.04	1080.63
925.34	1060.73
925.64	1067.52
925.94	1067.28
926.25	1082.73
926.55	1088.12
926.85	1099.58
927.15	1097.48
927.46	1099.58
927.76	1081.33
928.06	1072.20
928.36	1072.90
928.67	1080.16
928.97	1083.43
929.27	1082.03
929.57	1091.39
929.87	1082.26
930.18	1082.97
930.48	1066.58
930.78	1080.16
931.08	1076.41
931.38	1086.94
931.69	1098.41
931.99	1112.69
932.29	1100.52
932.59	1100.52
932.89	1088.82
933.19	1085.31
933.49	1083.67
933.80	1090.46
934.10	1084.37
934.40	1082.03
934.70	1079.22
935.00	1073.84
935.30	1070.80
935.60	1075.94
935.90	1084.14
936.20	1071.50
936.50	1080.86
936.81	1081.56
937.11	1081.80
937.41	1086.71
937.71	1089.75
938.01	1084.37
938.31	1086.94
938.61	1086.01
938.91	1075.94
939.21	1079.46
939.51	1076.18
939.81	1075.48
940.11	1076.65
940.41	1083.90
940.71	1079.46
941.01	1086.71
941.31	1094.43
941.61	1097.24
941.91	1094.43
942.21	1100.99
942.51	1095.84
942.81	1095.60
943.11	1090.92
943.41	1094.67
943.71	1090.69
944.01	1089.99
944.31	1083.67
944.61	1094.67
944.90	1093.03
945.20	1090.46
945.50	1084.60
945.80	1078.75
946.10	1067.75
946.40	1069.86
946.70	1073.37
947.00	1086.48
947.30	1082.97
947.60	1081.09
947.89	1073.60
948.19	1071.97
948.49	1058.16
948.79	1065.65
949.09	1072.43
949.39	1068.22
949.69	1075.01
949.98	1086.24
950.28	1076.41
950.58	1067.52
950.88	1074.31
951.18	1074.77
951.48	1077.58
951.77	1083.43
952.07	1089.99
952.37	1088.12
952.67	1082.26
952.97	1068.69
953.26	1064.48
953.56	1060.03
953.86	1058.62
954.16	1064.71
954.45	1068.92
954.75	1081.80
955.05	1088.35
955.35	1089.99
955.64	1078.05
955.94	1078.75
956.24	1071.50
956.54	1073.60
956.83	1067.75
957.13	1074.07
957.43	1069.86
957.72	1071.26
958.02	1067.99
958.32	1076.41
958.61	1075.71
958.91	1073.14
959.21	1068.92
959.50	1065.65
959.80	1065.65
960.10	1074.07
960.39	1083.90
960.69	1094.43
960.99	1098.41
961.28	1103.33
961.58	1103.09
961.87	1103.09
962.17	1095.84
962.47	1096.54
962.76	1092.09
963.06	1094.90
963.36	1101.22
963.65	1096.78
963.95	1093.97
964.24	1093.73
964.54	1088.58
964.83	1086.71
965.13	1096.07
965.42	1095.14
965.72	1099.58
966.02	1097.71
966.31	1089.75
966.61	1078.52
966.90	1071.03
967.20	1058.16
967.49	1051.84
967.79	1052.54
968.08	1060.73
968.38	1068.69
968.67	1083.67
968.97	1079.92
969.26	1081.33
969.56	1075.48
969.85	1074.07
970.15	1078.52
970.44	1082.97
970.74	1085.54
971.03	1091.16
971.32	1091.86
971.62	1075.94
971.91	1077.35
972.21	1071.26
972.50	1084.37
972.80	1088.12
973.09	1089.52
973.38	1089.29
973.68	1101.46
973.97	1084.84
974.27	1071.03
974.56	1078.75
974.85	1088.35
975.15	1077.35
975.44	1073.14
975.73	1079.92
976.03	1072.67
976.32	1071.50
976.61	1074.31
976.91	1087.41
977.20	1088.35
977.49	1088.58
977.79	1074.54
978.08	1084.60
978.37	1074.31
978.67	1079.69
978.96	1083.90
979.25	1090.69
979.55	1082.50
979.84	1087.18
980.13	1093.97
980.42	1100.52
980.72	1096.78
981.01	1098.65
981.30	1109.65
981.59	1105.44
981.89	1102.86
982.18	1105.44
982.47	1097.24
982.76	1087.88
983.06	1078.28
983.35	1074.07
983.64	1074.77
983.93	1077.11
984.22	1071.03
984.52	1076.18
984.81	1079.92
985.10	1079.22
985.39	1084.14
985.68	1096.54
985.97	1096.78
986.27	1092.56
986.56	1093.73
986.85	1088.35
987.14	1080.16
987.43	1071.97
987.72	1066.11
988.01	1066.35
988.31	1070.56
988.60	1076.88
988.89	1081.56
989.18	1080.16
989.47	1081.56
989.76	1080.39
990.05	1064.94
990.34	1064.94
990.63	1073.60
990.92	1069.62
991.21	1076.65
991.51	1084.60
991.80	1085.31
992.09	1080.86
992.38	1085.07
992.67	1074.54
992.96	1077.11
993.25	1079.69
993.54	1082.73
993.83	1080.63
994.12	1078.28
994.41	1072.43
994.70	1070.33
994.99	1071.73
995.28	1071.97
995.57	1077.82
995.86	1089.99
996.15	1092.33
996.44	1080.86
996.73	1089.99
997.02	1086.94
997.31	1086.94
997.59	1081.09
997.88	1083.43
998.17	1080.16
998.46	1081.33
998.75	1081.80
999.04	1082.50
999.33	1090.69
999.62	1086.71
999.91	1095.60
1000.20	1099.35
1000.49	1098.65
1000.77	1102.63
1001.06	1100.99
1001.35	1099.12
1001.64	1088.12
1001.93	1088.35
1002.22	1083.90
1002.51	1083.90
1002.79	1077.11
1003.08	1082.97
1003.37	1089.99
1003.66	1092.09
1003.95	1091.39
1004.23	1091.63
1004.52	1085.31
1004.81	1075.48
1005.10	1079.46
1005.39	1080.63
1005.67	1095.60
1005.96	1093.50
1006.25	1101.22
1006.54	1080.63
1006.83	1078.05
1007.11	1064.24
1007.40	1067.99
1007.69	1066.58
1007.97	1075.71
1008.26	1084.37
1008.55	1077.82
1008.84	1076.88
1009.12	1078.28
1009.41	1082.97
1009.70	1070.33
1009.98	1066.82
1010.27	1065.18
1010.56	1057.69
1010.85	1053.71
1011.13	1061.90
1011.42	1071.26
1011.71	1071.50
1011.99	1072.67
1012.28	1064.01
1012.56	1066.11
1012.85	1064.48
1013.14	1060.26
1013.42	1065.65
1013.71	1080.39
1014.00	1082.50
1014.28	1087.18
1014.57	1080.63
1014.85	1080.39
1015.14	1082.50
1015.43	1070.09
1015.71	1068.92
1016.00	1075.24
1016.28	1073.60
1016.57	1064.94
1016.85	1072.67
1017.14	1068.45
1017.43	1077.82
1017.71	1080.86
1018.00	1082.73
1018.28	1078.28
1018.57	1079.69
1018.85	1072.90
1019.14	1073.84
1019.42	1073.60
1019.71	1078.52
1019.99	1086.48
1020.28	1081.56
1020.56	1081.56
1020.85	1082.97
1021.13	1082.73
1021.42	1077.82
1021.70	1083.20
1021.99	1087.41
1022.27	1086.71
1022.55	1110.58
1022.84	1075.48
>>>>>End Processed Spectral Data<<<<<
