SpectraSuite Data File
++++++++++++++++++++++++++++++++++++
Date: Mon Aug 26 10:24:43 PDT 2019
User: corrico
Dark Spectrum Present: No
Reference Spectrum Present: No
Number of Sampled Component Spectra: 1
Spectrometers: USB2+H06089
Integration Time (usec): 10000 (USB2+H06089)
Spectra Averaged: 2 (USB2+H06089)
Boxcar Smoothing: 2 (USB2+H06089)
Correct for Electrical Dark: No (USB2+H06089)
Strobe/Lamp Enabled: No (USB2+H06089)
Correct for Detector Non-linearity: No (USB2+H06089)
Correct for Stray Light: No (USB2+H06089)
Number of Pixels in Processed Spectrum: 2048
>>>>>Begin Processed Spectral Data<<<<<
339.70	1093.03
340.07	1093.03
340.45	1039.67
340.82	1009.24
341.19	975.30
341.57	931.53
341.94	904.15
342.31	895.49
342.69	887.06
343.06	877.70
343.43	883.55
343.81	894.32
344.18	896.43
344.55	906.26
344.93	918.89
345.30	924.75
345.67	928.96
346.04	939.49
346.42	946.51
346.79	946.75
347.16	957.98
347.54	969.22
347.91	979.51
348.28	994.26
348.65	1013.22
349.03	1025.86
349.40	1024.22
349.77	1032.41
350.14	1025.86
350.52	1041.30
350.89	1047.39
351.26	1064.01
351.63	1065.65
352.01	1072.43
352.38	1066.35
352.75	1068.69
353.12	1066.35
353.50	1071.97
353.87	1078.28
354.24	1083.90
354.61	1092.56
354.98	1110.58
355.36	1114.56
355.73	1114.56
356.10	1113.39
356.47	1102.16
356.84	1096.07
357.22	1097.01
357.59	1094.67
357.96	1086.24
358.33	1084.84
358.70	1090.92
359.08	1087.18
359.45	1093.26
359.82	1098.18
360.19	1108.71
360.56	1098.18
360.94	1108.01
361.31	1100.29
361.68	1093.73
362.05	1084.84
362.42	1091.39
362.79	1083.20
363.16	1085.77
363.54	1089.29
363.91	1090.69
364.28	1081.56
364.65	1081.80
365.02	1089.29
365.39	1086.24
365.76	1085.77
366.14	1085.31
366.51	1084.14
366.88	1081.56
367.25	1079.46
367.62	1082.03
367.99	1085.77
368.36	1088.12
368.73	1098.88
369.10	1110.58
369.48	1112.46
369.85	1111.75
370.22	1112.22
370.59	1094.43
370.96	1096.07
371.33	1081.33
371.70	1079.22
372.07	1080.86
372.44	1086.94
372.81	1082.26
373.18	1092.09
373.55	1094.90
373.93	1088.35
374.30	1085.31
374.67	1088.58
375.04	1086.01
375.41	1090.22
375.78	1084.84
376.15	1077.82
376.52	1083.67
376.89	1096.78
377.26	1103.33
377.63	1102.39
378.00	1115.03
378.37	1106.84
378.74	1100.99
379.11	1094.20
379.48	1097.95
379.85	1090.92
380.22	1091.63
380.59	1093.03
380.96	1089.29
381.33	1095.84
381.70	1100.99
382.07	1099.82
382.44	1097.01
382.81	1108.95
383.18	1118.54
383.55	1122.05
383.92	1132.12
384.29	1127.67
384.66	1109.18
385.03	1102.16
385.40	1100.99
385.77	1095.14
386.14	1105.44
386.51	1109.41
386.88	1112.69
387.25	1111.75
387.62	1112.46
387.99	1104.50
388.36	1119.01
388.73	1119.48
389.10	1119.01
389.46	1118.78
389.83	1127.67
390.20	1126.27
390.57	1124.16
390.94	1126.03
391.31	1141.71
391.68	1131.65
392.05	1128.37
392.42	1132.59
392.79	1138.44
393.16	1131.41
393.53	1140.78
393.89	1137.03
394.26	1141.48
394.63	1129.31
395.00	1129.54
395.37	1121.58
395.74	1122.05
396.11	1115.27
396.48	1133.76
396.84	1135.63
397.21	1161.14
397.58	1172.61
397.95	1184.08
398.32	1184.08
398.69	1191.10
399.06	1185.25
399.42	1194.14
399.79	1195.08
400.16	1192.27
400.53	1188.52
400.90	1200.46
401.27	1200.69
401.64	1207.01
402.00	1212.87
402.37	1236.74
402.74	1233.70
403.11	1232.99
403.48	1247.51
403.84	1267.17
404.21	1274.66
404.58	1296.19
404.95	1328.02
405.32	1341.83
405.68	1360.79
406.05	1370.62
406.42	1392.15
406.79	1408.77
407.16	1441.30
407.52	1464.24
407.89	1501.92
408.26	1531.88
408.63	1566.52
408.99	1589.46
409.36	1630.18
409.73	1669.27
410.10	1716.08
410.47	1765.70
410.83	1824.21
411.20	1891.62
411.57	1960.90
411.94	2028.54
412.30	2106.25
412.67	2201.51
413.04	2284.83
413.40	2380.32
413.77	2487.99
414.14	2606.19
414.51	2723.68
414.87	2849.84
415.24	2985.12
415.61	3136.79
415.97	3281.90
416.34	3443.86
416.71	3629.23
417.08	3806.18
417.44	4003.95
417.81	4210.39
418.18	4456.85
418.54	4723.90
418.91	5010.85
419.28	5291.95
419.64	5620.80
420.01	5963.22
420.38	6282.00
420.74	6602.65
421.11	7007.33
421.48	7407.09
421.84	7792.81
422.21	8240.56
422.58	8720.60
422.94	9158.75
423.31	9662.43
423.68	10233.06
424.04	10848.85
424.41	11453.88
424.77	12115.08
425.14	12791.26
425.51	13451.99
425.87	14141.98
426.24	14910.62
426.61	15768.19
426.97	16750.04
427.34	17652.79
427.70	18681.22
428.07	19687.88
428.44	20662.72
428.80	21570.85
429.17	22667.85
429.53	23719.46
429.90	25018.45
430.27	26203.47
430.63	27381.93
431.00	28675.07
431.36	30018.77
431.73	31181.32
432.09	32448.72
432.46	33767.38
432.83	35101.48
433.19	36328.39
433.56	37773.67
433.92	39257.57
434.29	40659.55
434.65	41982.89
435.02	43202.78
435.38	44396.92
435.75	45259.88
436.11	46541.32
436.48	47588.24
436.84	48651.78
437.21	49590.80
437.57	50600.74
437.94	51173.94
438.30	51730.52
438.67	52151.58
439.03	52344.21
439.40	52549.47
439.76	52472.94
440.13	52279.38
440.49	52308.87
440.86	51944.91
441.22	51595.00
441.59	51205.54
441.95	50724.09
442.32	49800.75
442.68	49096.72
443.05	48140.84
443.41	47130.90
443.78	46051.21
444.14	45023.72
444.51	43749.53
444.87	42791.55
445.24	41623.62
445.60	40495.25
445.96	39423.05
446.33	38577.18
446.69	37390.29
447.06	36421.31
447.42	35446.95
447.79	34272.23
448.15	33219.69
448.51	32215.13
448.88	31343.75
449.24	30350.43
449.61	29668.86
449.97	28933.23
450.33	28239.97
450.70	27361.80
451.06	26751.62
451.43	25986.97
451.79	25365.09
452.15	24791.42
452.52	24267.14
452.88	23705.65
453.24	23172.71
453.61	22546.38
453.97	21991.21
454.34	21373.30
454.70	20782.79
455.06	20172.84
455.43	19505.32
455.79	18665.77
456.15	18076.43
456.52	17403.52
456.88	16844.84
457.24	16252.21
457.61	15853.15
457.97	15315.30
458.33	14773.46
458.70	14206.82
459.06	13693.30
459.42	13176.05
459.79	12671.43
460.15	12251.77
460.51	11843.11
460.88	11426.73
461.24	11004.50
461.60	10684.78
461.96	10370.21
462.33	10050.26
462.69	9762.84
463.05	9466.30
463.42	9186.84
463.78	8884.44
464.14	8611.53
464.50	8385.20
464.87	8131.02
465.23	7864.90
465.59	7639.04
465.95	7421.14
466.32	7212.59
466.68	7010.61
467.04	6802.06
467.40	6642.67
467.77	6484.45
468.13	6310.55
468.49	6173.16
468.85	6049.35
469.22	5907.75
469.58	5783.00
469.94	5641.86
470.30	5522.73
470.66	5403.13
471.03	5281.89
471.39	5179.37
471.75	5069.37
472.11	4964.51
472.47	4881.19
472.84	4787.10
473.20	4655.79
473.56	4562.17
473.92	4448.19
474.28	4345.67
474.65	4244.33
475.01	4165.22
475.37	4062.23
475.73	3983.59
476.09	3912.44
476.45	3842.22
476.81	3753.99
477.18	3674.88
477.54	3599.51
477.90	3522.27
478.26	3420.46
478.62	3351.41
478.98	3320.75
479.34	3282.13
479.71	3241.64
480.07	3215.66
480.43	3184.77
480.79	3126.02
481.15	3075.46
481.51	3008.29
481.87	2964.99
482.23	2917.01
482.59	2866.22
482.96	2815.43
483.32	2766.28
483.68	2729.30
484.04	2690.21
484.40	2644.81
484.76	2597.99
485.12	2567.10
485.48	2529.18
485.84	2491.50
486.20	2452.41
486.56	2427.37
486.92	2392.03
487.28	2361.37
487.64	2327.19
488.00	2302.38
488.37	2264.00
488.73	2231.00
489.09	2192.38
489.45	2170.14
489.81	2165.23
490.17	2150.72
490.53	2134.80
490.89	2106.48
491.25	2068.80
491.61	2016.14
491.97	1984.31
492.33	1956.22
492.69	1942.88
493.05	1916.66
493.41	1901.69
493.77	1869.62
494.13	1831.47
494.49	1798.00
494.85	1780.45
495.21	1768.98
495.57	1754.00
495.93	1742.76
496.29	1734.10
496.64	1715.14
497.00	1686.12
497.36	1665.53
497.72	1645.40
498.08	1606.08
498.44	1595.08
498.80	1579.16
499.16	1559.03
499.52	1551.07
499.88	1563.01
500.24	1546.63
500.60	1536.56
500.96	1528.84
501.32	1518.54
501.68	1491.86
502.03	1474.77
502.39	1447.39
502.75	1440.60
503.11	1426.56
503.47	1421.41
503.83	1409.00
504.19	1412.05
504.55	1404.32
504.91	1398.94
505.26	1386.77
505.62	1386.77
505.98	1377.17
506.34	1365.23
506.70	1351.43
507.06	1340.66
507.42	1328.25
507.78	1314.91
508.13	1299.70
508.49	1308.36
508.85	1308.36
509.21	1316.08
509.57	1324.28
509.93	1336.21
510.28	1318.89
510.64	1323.81
511.00	1319.13
511.36	1306.25
511.72	1294.78
512.07	1297.59
512.43	1280.74
512.79	1267.17
513.15	1256.63
513.51	1252.65
513.86	1245.87
514.22	1240.95
514.58	1234.63
514.94	1228.78
515.30	1225.74
515.65	1222.46
516.01	1214.04
516.37	1210.53
516.73	1219.65
517.08	1223.63
517.44	1214.74
517.80	1212.87
518.16	1218.48
518.51	1213.80
518.87	1207.01
519.23	1209.12
519.59	1211.70
519.94	1209.35
520.30	1206.55
520.66	1203.74
521.01	1204.91
521.37	1211.93
521.73	1207.72
522.09	1189.93
522.44	1185.95
522.80	1187.12
523.16	1177.99
523.51	1174.95
523.87	1183.84
524.23	1175.89
524.58	1171.67
524.94	1178.69
525.30	1165.12
525.65	1167.93
526.01	1173.54
526.37	1169.10
526.72	1152.25
527.08	1159.03
527.44	1153.42
527.79	1139.37
528.15	1136.10
528.51	1128.37
528.86	1133.05
529.22	1126.97
529.58	1143.59
529.93	1142.65
530.29	1151.78
530.65	1144.76
531.00	1144.52
531.36	1143.35
531.71	1145.22
532.07	1144.05
532.43	1131.41
532.78	1140.07
533.14	1132.59
533.49	1128.14
533.85	1135.16
534.21	1145.69
534.56	1149.44
534.92	1152.01
535.27	1155.76
535.63	1157.86
535.98	1165.35
536.34	1156.22
536.69	1154.59
537.05	1151.08
537.41	1141.01
537.76	1116.20
538.12	1117.84
538.47	1117.14
538.83	1111.29
539.18	1112.92
539.54	1132.59
539.89	1139.14
540.25	1130.01
540.60	1135.16
540.96	1130.24
541.31	1140.78
541.67	1128.37
542.02	1140.31
542.38	1134.22
542.73	1139.14
543.09	1119.24
543.44	1119.71
543.80	1117.14
544.15	1112.69
544.51	1111.29
544.86	1109.88
545.22	1113.16
545.57	1116.44
545.93	1119.95
546.28	1121.82
546.64	1126.03
546.99	1121.12
547.35	1114.33
547.70	1119.48
548.05	1120.65
548.41	1125.10
548.76	1125.10
549.12	1122.99
549.47	1125.80
549.83	1133.52
550.18	1132.59
550.53	1128.37
550.89	1133.52
551.24	1124.63
551.60	1116.67
551.95	1124.63
552.30	1126.50
552.66	1120.65
553.01	1122.52
553.37	1111.52
553.72	1104.97
554.07	1104.50
554.43	1106.84
554.78	1113.39
555.13	1108.01
555.49	1106.61
555.84	1110.58
556.19	1110.12
556.55	1109.18
556.90	1120.18
557.26	1122.99
557.61	1122.99
557.96	1118.78
558.32	1113.63
558.67	1115.73
559.02	1116.67
559.37	1119.24
559.73	1122.75
560.08	1121.82
560.43	1120.18
560.79	1112.92
561.14	1110.58
561.49	1109.88
561.85	1114.09
562.20	1117.61
562.55	1120.88
562.90	1121.35
563.26	1114.80
563.61	1121.58
563.96	1123.46
564.32	1118.07
564.67	1123.93
565.02	1134.22
565.37	1116.90
565.73	1108.01
566.08	1112.92
566.43	1103.80
566.78	1102.16
567.14	1112.92
567.49	1125.80
567.84	1121.35
568.19	1120.41
568.54	1115.73
568.90	1116.44
569.25	1104.03
569.60	1096.54
569.95	1101.69
570.31	1106.61
570.66	1091.86
571.01	1093.26
571.36	1103.33
571.71	1106.61
572.06	1109.41
572.42	1115.03
572.77	1114.09
573.12	1110.35
573.47	1105.90
573.82	1097.95
574.18	1107.78
574.53	1115.73
574.88	1120.88
575.23	1126.03
575.58	1132.12
575.93	1129.31
576.28	1128.14
576.64	1121.12
576.99	1122.99
577.34	1118.31
577.69	1117.61
578.04	1112.92
578.39	1113.86
578.74	1111.05
579.09	1104.73
579.44	1097.95
579.80	1091.63
580.15	1100.05
580.50	1097.24
580.85	1096.54
581.20	1096.78
581.55	1112.92
581.90	1103.09
582.25	1103.56
582.60	1110.12
582.95	1109.18
583.30	1097.24
583.65	1099.35
584.00	1099.12
584.35	1097.95
584.71	1099.12
585.06	1107.54
585.41	1111.52
585.76	1118.07
586.11	1121.58
586.46	1111.75
586.81	1102.39
587.16	1097.95
587.51	1088.35
587.86	1086.48
588.21	1093.26
588.56	1095.60
588.91	1103.33
589.26	1096.07
589.61	1092.80
589.96	1091.86
590.31	1097.24
590.66	1089.05
591.01	1101.92
591.36	1111.29
591.71	1118.07
592.06	1109.41
592.41	1118.07
592.76	1112.69
593.10	1110.82
593.45	1114.33
593.80	1117.14
594.15	1103.56
594.50	1097.48
594.85	1094.90
595.20	1089.05
595.55	1094.67
595.90	1102.86
596.25	1108.01
596.60	1115.50
596.95	1126.27
597.30	1123.46
597.64	1171.20
597.99	1172.61
598.34	1160.67
598.69	1160.20
599.04	1164.42
599.39	1119.48
599.74	1120.88
600.09	1127.44
600.44	1127.67
600.78	1111.29
601.13	1106.37
601.48	1110.58
601.83	1098.88
602.18	1097.24
602.53	1102.16
602.88	1095.60
603.22	1094.20
603.57	1097.71
603.92	1088.82
604.27	1088.82
604.62	1093.26
604.97	1081.56
605.31	1082.03
605.66	1082.03
606.01	1081.80
606.36	1083.20
606.71	1085.54
607.05	1086.01
607.40	1089.52
607.75	1095.84
608.10	1093.03
608.44	1098.88
608.79	1096.54
609.14	1093.26
609.49	1088.12
609.84	1088.35
610.18	1082.97
610.53	1088.12
610.88	1095.37
611.23	1093.50
611.57	1097.71
611.92	1108.95
612.27	1115.97
612.62	1111.52
612.96	1117.14
613.31	1110.35
613.66	1103.56
614.00	1100.05
614.35	1092.56
614.70	1092.56
615.05	1097.01
615.39	1102.63
615.74	1102.86
616.09	1111.05
616.43	1113.39
616.78	1115.97
617.13	1104.26
617.47	1101.46
617.82	1107.78
618.17	1104.26
618.51	1115.27
618.86	1110.12
619.21	1104.97
619.55	1089.52
619.90	1081.33
620.25	1070.80
620.59	1083.20
620.94	1089.52
621.29	1091.63
621.63	1104.26
621.98	1109.65
622.32	1106.37
622.67	1101.92
623.02	1103.80
623.36	1109.88
623.71	1109.88
624.05	1112.92
624.40	1107.31
624.75	1103.56
625.09	1097.48
625.44	1097.24
625.78	1095.14
626.13	1109.18
626.48	1108.24
626.82	1102.86
627.17	1095.60
627.51	1089.05
627.86	1086.01
628.20	1084.14
628.55	1084.37
628.89	1086.71
629.24	1088.82
629.58	1094.20
629.93	1102.63
630.28	1107.78
630.62	1102.86
630.97	1102.86
631.31	1093.50
631.66	1088.58
632.00	1082.73
632.35	1086.01
632.69	1092.09
633.04	1099.58
633.38	1110.82
633.73	1105.44
634.07	1107.31
634.42	1109.41
634.76	1096.78
635.11	1095.60
635.45	1104.03
635.79	1108.48
636.14	1096.07
636.48	1101.46
636.83	1100.29
637.17	1097.01
637.52	1095.14
637.86	1112.69
638.21	1119.48
638.55	1108.71
638.89	1107.78
639.24	1103.56
639.58	1092.80
639.93	1084.60
640.27	1092.80
640.61	1093.26
640.96	1101.46
641.30	1097.48
641.65	1095.14
641.99	1083.90
642.33	1084.60
642.68	1074.54
643.02	1079.92
643.37	1084.37
643.71	1093.26
644.05	1098.41
644.40	1103.80
644.74	1105.67
645.08	1103.33
645.43	1099.12
645.77	1095.84
646.11	1094.43
646.46	1091.16
646.80	1090.46
647.14	1093.73
647.49	1081.33
647.83	1075.01
648.17	1079.69
648.52	1081.56
648.86	1083.20
649.20	1099.12
649.55	1102.63
649.89	1099.35
650.23	1100.99
650.57	1092.33
650.92	1095.37
651.26	1092.56
651.60	1083.67
651.95	1083.43
652.29	1089.52
652.63	1076.88
652.97	1082.73
653.32	1095.60
653.66	1093.50
654.00	1099.12
654.34	1100.52
654.69	1096.54
655.03	1076.88
655.37	1081.80
655.71	1072.67
656.05	1073.60
656.40	1077.58
656.74	1095.84
657.08	1080.16
657.42	1087.18
657.76	1087.88
658.11	1079.22
658.45	1071.97
658.79	1086.71
659.13	1080.63
659.47	1077.58
659.82	1084.60
660.16	1081.56
660.50	1071.03
660.84	1067.75
661.18	1064.24
661.52	1058.62
661.87	1054.41
662.21	1059.09
662.55	1068.22
662.89	1075.01
663.23	1083.20
663.57	1098.18
663.91	1094.67
664.25	1092.56
664.60	1093.73
664.94	1088.12
665.28	1078.05
665.62	1082.97
665.96	1079.92
666.30	1076.18
666.64	1082.97
666.98	1089.52
667.32	1085.54
667.66	1087.41
668.01	1089.29
668.35	1077.11
668.69	1081.33
669.03	1073.37
669.37	1072.90
669.71	1081.80
670.05	1081.33
670.39	1069.39
670.73	1080.16
671.07	1082.73
671.41	1073.60
671.75	1083.67
672.09	1098.18
672.43	1106.37
672.77	1104.50
673.11	1104.26
673.45	1105.90
673.79	1100.29
674.13	1099.82
674.47	1092.33
674.81	1095.14
675.15	1086.24
675.49	1090.22
675.83	1083.20
676.17	1089.52
676.51	1085.77
676.85	1089.05
677.19	1079.69
677.53	1085.07
677.87	1096.07
678.21	1091.39
678.55	1088.82
678.89	1089.52
679.23	1083.43
679.57	1074.07
679.90	1088.35
680.24	1095.14
680.58	1101.92
680.92	1101.46
681.26	1099.58
681.60	1091.39
681.94	1077.58
682.28	1070.56
682.62	1067.52
682.96	1066.58
683.29	1072.43
683.63	1099.12
683.97	1099.58
684.31	1102.39
684.65	1101.69
684.99	1094.43
685.33	1082.26
685.67	1083.67
686.00	1077.11
686.34	1072.43
686.68	1066.11
687.02	1056.52
687.36	1055.82
687.70	1065.88
688.03	1074.07
688.37	1078.75
688.71	1077.58
689.05	1076.65
689.39	1076.41
689.72	1078.75
690.06	1074.54
690.40	1087.88
690.74	1088.58
691.08	1080.39
691.41	1080.86
691.75	1093.97
692.09	1080.39
692.43	1081.80
692.76	1091.39
693.10	1089.75
693.44	1091.86
693.78	1093.50
694.11	1105.44
694.45	1096.31
694.79	1102.16
695.13	1101.22
695.46	1107.78
695.80	1098.65
696.14	1106.84
696.48	1101.22
696.81	1080.86
697.15	1068.92
697.49	1073.84
697.82	1073.14
698.16	1067.99
698.50	1085.07
698.83	1100.05
699.17	1092.56
699.51	1096.07
699.84	1108.71
700.18	1107.54
700.52	1093.73
700.85	1092.09
701.19	1085.54
701.53	1080.16
701.86	1078.05
702.20	1080.86
702.54	1081.33
702.87	1087.65
703.21	1083.67
703.55	1083.20
703.88	1085.07
704.22	1085.31
704.55	1080.86
704.89	1075.71
705.23	1073.60
705.56	1082.73
705.90	1082.97
706.23	1080.86
706.57	1084.37
706.91	1080.63
707.24	1075.94
707.58	1078.28
707.91	1075.24
708.25	1082.26
708.58	1083.67
708.92	1084.60
709.26	1085.54
709.59	1094.20
709.93	1086.71
710.26	1093.26
710.60	1086.24
710.93	1083.20
711.27	1077.82
711.60	1079.46
711.94	1076.18
712.27	1075.01
712.61	1064.94
712.94	1055.82
713.28	1059.56
713.61	1056.75
713.95	1055.11
714.28	1069.39
714.62	1084.14
714.95	1082.03
715.29	1077.58
715.62	1095.84
715.96	1085.77
716.29	1072.43
716.63	1073.84
716.96	1081.33
717.29	1059.09
717.63	1069.16
717.96	1074.07
718.30	1065.18
718.63	1056.75
718.97	1070.33
719.30	1063.54
719.63	1055.11
719.97	1061.67
720.30	1067.05
720.64	1075.71
720.97	1077.58
721.30	1094.90
721.64	1103.09
721.97	1107.07
722.31	1095.37
722.64	1089.75
722.97	1080.63
723.31	1072.20
723.64	1076.18
723.97	1075.01
724.31	1087.88
724.64	1096.54
724.98	1092.33
725.31	1087.88
725.64	1088.58
725.98	1079.46
726.31	1071.97
726.64	1083.43
726.97	1085.07
727.31	1090.46
727.64	1093.03
727.97	1095.60
728.31	1094.67
728.64	1097.24
728.97	1095.37
729.31	1095.14
729.64	1100.29
729.97	1100.99
730.30	1094.90
730.64	1095.14
730.97	1100.99
731.30	1094.90
731.63	1082.26
731.97	1078.52
732.30	1084.14
732.63	1075.48
732.96	1070.56
733.30	1083.20
733.63	1086.01
733.96	1081.33
734.29	1076.41
734.63	1076.18
734.96	1078.05
735.29	1069.16
735.62	1070.33
735.95	1080.86
736.29	1086.94
736.62	1088.58
736.95	1100.05
737.28	1092.56
737.61	1092.33
737.94	1087.18
738.28	1073.37
738.61	1066.82
738.94	1073.37
739.27	1066.35
739.60	1067.52
739.93	1074.31
740.27	1072.67
740.60	1070.33
740.93	1080.86
741.26	1086.24
741.59	1087.88
741.92	1111.29
742.25	1113.86
742.58	1112.92
742.91	1114.56
743.25	1108.01
743.58	1096.31
743.91	1092.33
744.24	1085.77
744.57	1086.94
744.90	1084.84
745.23	1075.48
745.56	1070.80
745.89	1071.97
746.22	1062.60
746.55	1060.73
746.88	1061.90
747.21	1063.77
747.54	1067.28
747.87	1074.07
748.20	1080.16
748.53	1080.39
748.87	1082.73
749.20	1084.14
749.53	1091.63
749.86	1094.20
750.19	1100.75
750.52	1108.71
750.85	1109.88
751.18	1114.33
751.51	1108.48
751.84	1110.58
752.16	1103.56
752.49	1095.14
752.82	1084.60
753.15	1084.84
753.48	1076.88
753.81	1080.39
754.14	1081.33
754.47	1078.75
754.80	1086.94
755.13	1090.46
755.46	1085.54
755.79	1090.46
756.12	1087.18
756.45	1082.97
756.78	1083.67
757.11	1091.16
757.43	1090.69
757.76	1083.43
758.09	1081.09
758.42	1083.90
758.75	1074.07
759.08	1064.48
759.41	1072.43
759.74	1068.22
760.07	1068.69
760.39	1073.37
760.72	1081.80
761.05	1080.63
761.38	1075.94
761.71	1077.35
762.04	1072.90
762.36	1069.86
762.69	1066.11
763.02	1071.03
763.35	1062.37
763.68	1055.35
764.01	1051.60
764.33	1062.14
764.66	1063.07
764.99	1069.16
765.32	1074.54
765.65	1083.43
765.97	1083.67
766.30	1085.77
766.63	1081.80
766.96	1089.99
767.28	1087.18
767.61	1076.41
767.94	1078.52
768.27	1081.80
768.59	1071.50
768.92	1064.01
769.25	1068.45
769.58	1067.99
769.90	1069.16
770.23	1075.94
770.56	1072.90
770.89	1068.69
771.21	1063.07
771.54	1060.73
771.87	1059.33
772.19	1068.45
772.52	1074.31
772.85	1068.92
773.17	1061.20
773.50	1070.56
773.83	1078.52
774.15	1079.69
774.48	1086.48
774.81	1096.07
775.13	1083.90
775.46	1080.63
775.79	1082.50
776.11	1078.75
776.44	1076.88
776.77	1086.01
777.09	1074.07
777.42	1068.22
777.74	1077.11
778.07	1073.14
778.40	1075.94
778.72	1078.75
779.05	1083.67
779.37	1074.07
779.70	1080.16
780.03	1080.63
780.35	1084.60
780.68	1095.84
781.00	1105.67
781.33	1105.67
781.65	1100.05
781.98	1094.90
782.31	1086.71
782.63	1093.73
782.96	1091.63
783.28	1097.24
783.61	1104.03
783.93	1099.12
784.26	1094.67
784.58	1090.69
784.91	1079.92
785.23	1079.46
785.56	1077.58
785.88	1069.39
786.21	1075.24
786.53	1076.65
786.86	1076.88
787.18	1091.39
787.51	1100.52
787.83	1097.01
788.16	1104.50
788.48	1102.63
788.81	1085.54
789.13	1075.94
789.46	1074.77
789.78	1071.03
790.10	1078.05
790.43	1086.01
790.75	1088.35
791.08	1083.67
791.40	1085.07
791.73	1093.73
792.05	1088.35
792.37	1089.52
792.70	1101.69
793.02	1095.84
793.35	1082.50
793.67	1080.39
793.99	1081.80
794.32	1079.69
794.64	1082.50
794.96	1079.69
795.29	1080.63
795.61	1086.48
795.93	1086.48
796.26	1082.73
796.58	1088.82
796.91	1090.92
797.23	1078.99
797.55	1087.18
797.87	1086.24
798.20	1075.71
798.52	1078.75
798.84	1091.86
799.17	1078.05
799.49	1076.88
799.81	1090.22
800.14	1083.67
800.46	1076.41
800.78	1087.18
801.10	1097.01
801.43	1085.77
801.75	1096.78
802.07	1093.73
802.40	1087.18
802.72	1085.31
803.04	1094.67
803.36	1091.86
803.69	1093.73
804.01	1097.71
804.33	1096.54
804.65	1090.22
804.97	1081.80
805.30	1086.48
805.62	1077.82
805.94	1074.31
806.26	1074.31
806.58	1069.86
806.91	1070.80
807.23	1071.03
807.55	1075.01
807.87	1068.45
808.19	1082.97
808.52	1066.35
808.84	1069.39
809.16	1069.16
809.48	1070.56
809.80	1057.92
810.12	1069.62
810.44	1066.35
810.77	1066.82
811.09	1067.28
811.41	1068.69
811.73	1070.33
812.05	1061.90
812.37	1056.52
812.69	1070.56
813.01	1077.58
813.33	1083.43
813.66	1089.05
813.98	1088.58
814.30	1075.48
814.62	1071.73
814.94	1061.20
815.26	1067.75
815.58	1065.65
815.90	1072.90
816.22	1078.05
816.54	1075.71
816.86	1074.77
817.18	1084.14
817.50	1084.60
817.82	1091.86
818.14	1097.01
818.46	1098.88
818.78	1091.39
819.10	1085.54
819.42	1075.01
819.74	1071.26
820.06	1086.24
820.38	1092.80
820.70	1097.71
821.02	1098.65
821.34	1097.95
821.66	1079.92
821.98	1078.05
822.30	1071.73
822.62	1074.77
822.94	1078.99
823.26	1076.65
823.58	1079.92
823.90	1091.63
824.22	1094.20
824.54	1089.75
824.86	1093.50
825.18	1089.75
825.50	1077.82
825.81	1072.43
826.13	1075.48
826.45	1065.41
826.77	1067.75
827.09	1071.97
827.41	1068.92
827.73	1065.18
828.05	1076.88
828.36	1065.65
828.68	1063.77
829.00	1060.96
829.32	1068.22
829.64	1077.58
829.96	1082.03
830.28	1089.05
830.59	1100.29
830.91	1100.75
831.23	1088.12
831.55	1097.01
831.87	1081.80
832.19	1076.65
832.50	1075.71
832.82	1075.94
833.14	1063.07
833.46	1075.94
833.78	1074.31
834.09	1068.22
834.41	1066.35
834.73	1077.35
835.05	1079.46
835.36	1088.58
835.68	1092.33
836.00	1094.67
836.32	1090.92
836.63	1089.52
836.95	1078.99
837.27	1081.33
837.59	1083.20
837.90	1073.14
838.22	1067.75
838.54	1078.99
838.85	1076.41
839.17	1078.28
839.49	1094.67
839.80	1091.39
840.12	1084.60
840.44	1087.18
840.76	1080.39
841.07	1073.14
841.39	1074.54
841.71	1074.07
842.02	1064.94
842.34	1060.50
842.65	1057.45
842.97	1066.82
843.29	1071.26
843.60	1076.88
843.92	1083.67
844.24	1087.88
844.55	1080.63
844.87	1076.88
845.18	1082.03
845.50	1082.97
845.82	1080.63
846.13	1082.97
846.45	1084.14
846.76	1080.39
847.08	1078.52
847.40	1080.63
847.71	1075.71
848.03	1071.03
848.34	1074.54
848.66	1077.35
848.97	1073.37
849.29	1083.43
849.60	1082.26
849.92	1087.65
850.24	1085.31
850.55	1085.77
850.87	1081.56
851.18	1088.58
851.50	1078.75
851.81	1070.33
852.13	1069.16
852.44	1067.52
852.76	1063.07
853.07	1066.11
853.39	1075.48
853.70	1085.54
854.01	1085.07
854.33	1076.41
854.64	1071.03
854.96	1074.31
855.27	1064.71
855.59	1070.80
855.90	1076.88
856.22	1072.20
856.53	1073.37
856.84	1079.92
857.16	1069.39
857.47	1080.86
857.79	1093.97
858.10	1088.58
858.41	1090.22
858.73	1097.95
859.04	1083.20
859.36	1074.54
859.67	1069.86
859.98	1064.94
860.30	1067.99
860.61	1065.41
860.92	1072.43
861.24	1078.52
861.55	1082.97
861.87	1084.37
862.18	1095.60
862.49	1094.43
862.81	1090.69
863.12	1085.77
863.43	1081.09
863.74	1078.05
864.06	1078.52
864.37	1083.43
864.68	1079.92
865.00	1071.26
865.31	1070.56
865.62	1057.69
865.94	1055.58
866.25	1060.26
866.56	1060.50
866.87	1061.67
867.19	1065.88
867.50	1085.31
867.81	1090.22
868.12	1098.65
868.44	1106.61
868.75	1119.01
869.06	1104.73
869.37	1105.20
869.68	1109.88
870.00	1103.80
870.31	1102.39
870.62	1096.78
870.93	1091.16
871.24	1083.90
871.56	1080.16
871.87	1076.88
872.18	1072.90
872.49	1074.31
872.80	1072.67
873.12	1071.73
873.43	1067.05
873.74	1075.24
874.05	1086.94
874.36	1086.48
874.67	1095.37
874.98	1103.56
875.29	1096.31
875.61	1082.50
875.92	1088.58
876.23	1075.94
876.54	1064.48
876.85	1064.01
877.16	1064.01
877.47	1060.96
877.78	1061.20
878.09	1070.09
878.40	1072.90
878.72	1069.62
879.03	1067.05
879.34	1080.39
879.65	1071.50
879.96	1065.88
880.27	1069.62
880.58	1065.41
880.89	1065.18
881.20	1076.41
881.51	1081.80
881.82	1088.35
882.13	1098.18
882.44	1090.92
882.75	1089.29
883.06	1094.20
883.37	1085.77
883.68	1078.05
883.99	1079.22
884.30	1082.50
884.61	1075.94
884.92	1078.28
885.23	1084.84
885.54	1079.69
885.85	1074.31
886.16	1079.22
886.47	1074.31
886.78	1072.43
887.08	1070.80
887.39	1069.16
887.70	1067.05
888.01	1068.22
888.32	1060.96
888.63	1067.52
888.94	1056.99
889.25	1047.62
889.56	1048.09
889.87	1045.99
890.17	1042.71
890.48	1058.39
890.79	1061.20
891.10	1067.75
891.41	1076.65
891.72	1082.03
892.03	1077.82
892.34	1085.54
892.64	1081.33
892.95	1071.50
893.26	1058.86
893.57	1056.52
893.88	1057.92
894.18	1064.71
894.49	1083.67
894.80	1096.31
895.11	1097.71
895.42	1095.14
895.72	1100.05
896.03	1091.39
896.34	1089.75
896.65	1083.90
896.96	1089.05
897.26	1070.80
897.57	1064.48
897.88	1062.14
898.19	1061.67
898.49	1053.94
898.80	1059.09
899.11	1075.71
899.41	1075.71
899.72	1075.01
900.03	1075.48
900.34	1076.88
900.64	1068.92
900.95	1073.14
901.26	1082.50
901.56	1083.90
901.87	1081.56
902.18	1072.20
902.48	1069.86
902.79	1067.99
903.10	1062.37
903.40	1060.73
903.71	1062.60
904.02	1064.01
904.32	1063.07
904.63	1067.99
904.94	1073.37
905.24	1082.97
905.55	1085.07
905.85	1086.94
906.16	1096.07
906.47	1098.88
906.77	1101.92
907.08	1099.35
907.38	1097.48
907.69	1084.14
908.00	1082.50
908.30	1078.52
908.61	1083.90
908.91	1086.71
909.22	1094.43
909.52	1089.29
909.83	1093.26
910.14	1088.35
910.44	1092.80
910.75	1099.82
911.05	1106.61
911.36	1101.69
911.66	1100.99
911.97	1101.22
912.27	1093.50
912.58	1094.43
912.88	1097.01
913.19	1096.78
913.49	1082.03
913.80	1087.41
914.10	1086.48
914.41	1076.18
914.71	1082.97
915.01	1088.58
915.32	1088.12
915.62	1083.43
915.93	1091.63
916.23	1082.73
916.54	1079.69
916.84	1072.20
917.15	1064.24
917.45	1056.05
917.75	1053.94
918.06	1064.48
918.36	1065.41
918.67	1076.18
918.97	1071.03
919.27	1077.11
919.58	1070.33
919.88	1070.33
920.18	1075.24
920.49	1084.14
920.79	1085.54
921.10	1091.63
921.40	1090.69
921.70	1084.84
922.01	1088.12
922.31	1085.07
922.61	1075.24
922.92	1078.28
923.22	1081.80
923.52	1078.28
923.82	1076.65
924.13	1088.35
924.43	1098.41
924.73	1093.03
925.04	1090.92
925.34	1096.78
925.64	1095.37
925.94	1083.43
926.25	1069.62
926.55	1069.86
926.85	1063.77
927.15	1071.26
927.46	1077.11
927.76	1097.24
928.06	1103.56
928.36	1096.07
928.67	1076.65
928.97	1077.58
929.27	1073.37
929.57	1071.97
929.87	1073.60
930.18	1087.65
930.48	1074.77
930.78	1073.14
931.08	1062.14
931.38	1066.11
931.69	1063.31
931.99	1074.77
932.29	1072.90
932.59	1072.43
932.89	1071.26
933.19	1064.48
933.49	1063.54
933.80	1070.56
934.10	1081.09
934.40	1084.60
934.70	1085.54
935.00	1077.35
935.30	1081.33
935.60	1077.82
935.90	1081.80
936.20	1085.54
936.50	1085.31
936.81	1078.28
937.11	1085.31
937.41	1076.18
937.71	1085.77
938.01	1096.54
938.31	1092.80
938.61	1093.26
938.91	1092.09
939.21	1079.92
939.51	1072.67
939.81	1073.14
940.11	1065.41
940.41	1067.05
940.71	1073.60
941.01	1069.86
941.31	1079.69
941.61	1077.11
941.91	1086.48
942.21	1086.01
942.51	1083.90
942.81	1071.73
943.11	1070.09
943.41	1064.24
943.71	1053.71
944.01	1059.56
944.31	1059.33
944.61	1066.11
944.90	1064.01
945.20	1071.73
945.50	1067.28
945.80	1064.94
946.10	1062.37
946.40	1065.41
946.70	1061.67
947.00	1071.50
947.30	1077.35
947.60	1091.16
947.89	1089.75
948.19	1094.43
948.49	1093.97
948.79	1095.60
949.09	1081.09
949.39	1082.50
949.69	1074.54
949.98	1068.92
950.28	1066.11
950.58	1064.48
950.88	1064.71
951.18	1074.07
951.48	1079.69
951.77	1088.35
952.07	1089.99
952.37	1082.97
952.67	1076.88
952.97	1071.97
953.26	1070.33
953.56	1069.86
953.86	1072.90
954.16	1073.14
954.45	1079.46
954.75	1072.67
955.05	1074.07
955.35	1075.24
955.64	1072.67
955.94	1057.92
956.24	1066.82
956.54	1064.48
956.83	1062.84
957.13	1064.48
957.43	1069.62
957.72	1069.86
958.02	1076.65
958.32	1074.77
958.61	1083.43
958.91	1092.09
959.21	1088.12
959.50	1093.50
959.80	1089.05
960.10	1081.56
960.39	1081.56
960.69	1075.94
960.99	1064.71
961.28	1071.97
961.58	1073.84
961.87	1069.86
962.17	1072.90
962.47	1076.65
962.76	1081.56
963.06	1083.43
963.36	1091.16
963.65	1096.54
963.95	1089.99
964.24	1093.50
964.54	1086.48
964.83	1081.80
965.13	1085.54
965.42	1090.22
965.72	1083.90
966.02	1086.48
966.31	1073.60
966.61	1050.90
966.90	1056.05
967.20	1066.58
967.49	1069.86
967.79	1082.26
968.08	1100.05
968.38	1097.48
968.67	1075.71
968.97	1075.01
969.26	1072.43
969.56	1071.03
969.85	1064.48
970.15	1080.16
970.44	1082.26
970.74	1078.28
971.03	1076.18
971.32	1084.37
971.62	1092.09
971.91	1087.88
972.21	1096.07
972.50	1094.67
972.80	1100.29
973.09	1084.60
973.38	1081.56
973.68	1081.09
973.97	1078.52
974.27	1067.05
974.56	1069.39
974.85	1067.99
975.15	1071.73
975.44	1069.16
975.73	1076.88
976.03	1077.58
976.32	1081.56
976.61	1066.58
976.91	1083.43
977.20	1074.77
977.49	1078.28
977.79	1070.56
978.08	1084.37
978.37	1068.69
978.67	1067.05
978.96	1061.67
979.25	1063.77
979.55	1061.20
979.84	1061.67
980.13	1072.67
980.42	1075.71
980.72	1079.69
981.01	1079.69
981.30	1084.14
981.59	1082.73
981.89	1078.05
982.18	1080.63
982.47	1083.67
982.76	1076.18
983.06	1071.97
983.35	1080.16
983.64	1076.88
983.93	1064.94
984.22	1061.67
984.52	1064.24
984.81	1061.43
985.10	1075.24
985.39	1085.54
985.68	1100.75
985.97	1090.69
986.27	1085.77
986.56	1078.52
986.85	1073.14
987.14	1070.09
987.43	1078.28
987.72	1080.86
988.01	1089.75
988.31	1089.05
988.60	1083.43
988.89	1086.48
989.18	1086.94
989.47	1074.77
989.76	1075.71
990.05	1076.18
990.34	1074.07
990.63	1078.75
990.92	1071.73
991.21	1071.73
991.51	1078.05
991.80	1068.69
992.09	1064.94
992.38	1078.52
992.67	1075.24
992.96	1080.39
993.25	1086.71
993.54	1090.92
993.83	1081.33
994.12	1082.26
994.41	1082.50
994.70	1079.92
994.99	1076.41
995.28	1076.41
995.57	1083.43
995.86	1077.58
996.15	1081.80
996.44	1089.52
996.73	1091.16
997.02	1086.71
997.31	1079.46
997.59	1074.77
997.88	1064.71
998.17	1057.45
998.46	1059.09
998.75	1068.45
999.04	1076.65
999.33	1078.99
999.62	1085.54
999.91	1092.56
1000.20	1085.31
1000.49	1082.97
1000.77	1085.07
1001.06	1087.88
1001.35	1075.94
1001.64	1082.03
1001.93	1084.84
1002.22	1083.67
1002.51	1079.69
1002.79	1087.18
1003.08	1085.77
1003.37	1081.33
1003.66	1089.99
1003.95	1098.65
1004.23	1102.63
1004.52	1103.56
1004.81	1101.22
1005.10	1096.07
1005.39	1087.88
1005.67	1082.73
1005.96	1080.63
1006.25	1084.60
1006.54	1075.94
1006.83	1081.09
1007.11	1081.09
1007.40	1074.54
1007.69	1071.73
1007.97	1082.50
1008.26	1089.29
1008.55	1091.63
1008.84	1100.29
1009.12	1097.24
1009.41	1092.56
1009.70	1088.82
1009.98	1078.05
1010.27	1078.75
1010.56	1079.69
1010.85	1078.05
1011.13	1078.75
1011.42	1081.80
1011.71	1080.63
1011.99	1079.69
1012.28	1082.26
1012.56	1077.11
1012.85	1074.54
1013.14	1074.31
1013.42	1073.84
1013.71	1066.11
1014.00	1060.73
1014.28	1069.86
1014.57	1072.67
1014.85	1083.67
1015.14	1089.29
1015.43	1106.37
1015.71	1103.56
1016.00	1095.14
1016.28	1085.54
1016.57	1083.90
1016.85	1070.33
1017.14	1067.05
1017.43	1075.48
1017.71	1074.77
1018.00	1071.03
1018.28	1064.01
1018.57	1067.28
1018.85	1057.45
1019.14	1073.60
1019.42	1076.41
1019.71	1086.24
1019.99	1082.97
1020.28	1088.35
1020.56	1071.50
1020.85	1069.62
1021.13	1079.46
1021.42	1070.33
1021.70	1069.62
1021.99	1070.80
1022.27	1078.28
1022.55	1059.09
1022.84	1098.88
>>>>>End Processed Spectral Data<<<<<
