SpectraSuite Data File
++++++++++++++++++++++++++++++++++++
Date: Mon Aug 26 10:24:42 PDT 2019
User: corrico
Dark Spectrum Present: No
Reference Spectrum Present: No
Number of Sampled Component Spectra: 1
Spectrometers: USB2+H06089
Integration Time (usec): 10000 (USB2+H06089)
Spectra Averaged: 2 (USB2+H06089)
Boxcar Smoothing: 2 (USB2+H06089)
Correct for Electrical Dark: No (USB2+H06089)
Strobe/Lamp Enabled: No (USB2+H06089)
Correct for Detector Non-linearity: No (USB2+H06089)
Correct for Stray Light: No (USB2+H06089)
Number of Pixels in Processed Spectrum: 2048
>>>>>Begin Processed Spectral Data<<<<<
339.70	1049.73
340.07	1049.73
340.45	1006.20
340.82	974.13
341.19	943.47
341.57	922.41
341.94	914.92
342.31	903.21
342.69	909.06
343.06	912.81
343.43	905.32
343.81	898.06
344.18	908.13
344.55	906.26
344.93	911.64
345.30	917.72
345.67	922.87
346.04	928.72
346.42	932.94
346.79	941.60
347.16	942.07
347.54	948.85
347.91	956.34
348.28	972.96
348.65	979.51
349.03	1012.52
349.40	1032.88
349.77	1044.58
350.14	1055.82
350.52	1058.62
350.89	1044.58
351.26	1053.48
351.63	1053.94
352.01	1055.58
352.38	1054.41
352.75	1071.73
353.12	1078.52
353.50	1100.05
353.87	1108.48
354.24	1128.14
354.61	1124.86
354.98	1124.63
355.36	1118.54
355.73	1106.84
356.10	1100.75
356.47	1092.80
356.84	1083.43
357.22	1077.35
357.59	1090.22
357.96	1091.39
358.33	1086.48
358.70	1090.69
359.08	1084.14
359.45	1084.14
359.82	1091.39
360.19	1101.92
360.56	1107.54
360.94	1105.44
361.31	1104.26
361.68	1100.99
362.05	1103.33
362.42	1096.54
362.79	1111.29
363.16	1104.97
363.54	1106.84
363.91	1108.01
364.28	1108.01
364.65	1105.67
365.02	1102.86
365.39	1094.20
365.76	1093.73
366.14	1102.16
366.51	1105.67
366.88	1102.39
367.25	1104.50
367.62	1096.07
367.99	1089.05
368.36	1082.03
368.73	1098.65
369.10	1098.41
369.48	1107.31
369.85	1116.90
370.22	1124.86
370.59	1113.16
370.96	1117.61
371.33	1111.52
371.70	1109.88
372.07	1092.09
372.44	1103.33
372.81	1103.56
373.18	1104.73
373.55	1108.95
373.93	1123.69
374.30	1111.99
374.67	1100.99
375.04	1101.22
375.41	1086.24
375.78	1076.65
376.15	1100.75
376.52	1113.39
376.89	1118.54
377.26	1129.54
377.63	1133.99
378.00	1113.16
378.37	1107.31
378.74	1104.26
379.11	1099.35
379.48	1098.18
379.85	1100.05
380.22	1098.88
380.59	1099.35
380.96	1099.35
381.33	1107.54
381.70	1111.05
382.07	1111.75
382.44	1112.46
382.81	1104.97
383.18	1098.41
383.55	1095.60
383.92	1100.75
384.29	1097.95
384.66	1102.63
385.03	1099.12
385.40	1110.58
385.77	1103.56
386.14	1119.71
386.51	1126.27
386.88	1129.78
387.25	1120.65
387.62	1133.99
387.99	1123.93
388.36	1126.03
388.73	1133.52
389.10	1119.01
389.46	1111.29
389.83	1106.61
390.20	1107.07
390.57	1111.05
390.94	1127.44
391.31	1125.56
391.68	1136.10
392.05	1136.80
392.42	1131.18
392.79	1131.18
393.16	1133.05
393.53	1126.73
393.89	1128.37
394.26	1133.05
394.63	1137.73
395.00	1144.76
395.37	1152.48
395.74	1139.61
396.11	1132.12
396.48	1121.82
396.84	1123.46
397.21	1126.50
397.58	1137.97
397.95	1136.10
398.32	1144.99
398.69	1156.22
399.06	1165.12
399.42	1174.71
399.79	1189.69
400.16	1196.48
400.53	1189.69
400.90	1186.18
401.27	1189.46
401.64	1188.52
402.00	1201.87
402.37	1215.44
402.74	1222.70
403.11	1236.97
403.48	1249.85
403.84	1262.48
404.21	1274.66
404.58	1294.78
404.95	1310.47
405.32	1322.40
405.68	1331.53
406.05	1344.40
406.42	1367.81
406.79	1389.34
407.16	1430.77
407.52	1465.41
407.89	1502.86
408.26	1535.16
408.63	1575.65
408.99	1615.44
409.36	1670.44
409.73	1731.76
410.10	1777.64
410.47	1835.92
410.83	1888.34
411.20	1946.16
411.57	1996.95
411.94	2077.46
412.30	2152.12
412.67	2242.23
413.04	2335.39
413.40	2441.41
413.77	2539.01
414.14	2646.91
414.51	2776.11
414.87	2915.37
415.24	3058.61
415.61	3224.09
415.97	3400.10
416.34	3585.00
416.71	3755.62
417.08	3955.97
417.44	4157.03
417.81	4374.93
418.18	4590.73
418.54	4855.91
418.91	5132.56
419.28	5458.60
419.64	5786.74
420.01	6139.93
420.38	6502.48
420.74	6862.68
421.11	7239.04
421.48	7639.74
421.84	8074.15
422.21	8486.31
422.58	9002.87
422.94	9543.53
423.31	10090.99
423.68	10717.78
424.04	11400.28
424.41	12019.82
424.77	12651.77
425.14	13314.84
425.51	14034.55
425.87	14844.15
426.24	15660.99
426.61	16617.34
426.97	17665.90
427.34	18584.32
427.70	19627.73
428.07	20650.78
428.44	21625.61
428.80	22599.04
429.17	23690.67
429.53	24716.29
429.90	26011.31
430.27	27254.60
430.63	28536.05
431.00	29900.11
431.36	31362.48
431.73	32583.30
432.09	33860.76
432.46	35209.85
432.83	36604.81
433.19	37827.50
433.56	39412.05
433.92	41065.40
434.29	42621.16
434.65	44071.35
435.02	45449.22
435.38	46638.68
435.75	47466.06
436.11	48627.44
436.48	49729.60
436.84	50788.69
437.21	51823.91
437.57	52869.66
437.94	53516.58
438.30	54030.56
438.67	54340.45
439.03	54404.11
439.40	54512.25
439.76	54388.67
440.13	54174.27
440.49	54176.15
440.86	53837.70
441.22	53520.33
441.59	52993.24
441.95	52422.38
442.32	51512.15
442.68	50867.80
443.05	49832.81
443.41	48905.96
443.78	47795.85
444.14	46780.52
444.51	45421.37
444.87	44461.99
445.24	43246.08
445.60	42107.88
445.96	40950.25
446.33	40124.04
446.69	38915.39
447.06	38006.09
447.42	37020.72
447.79	35831.73
448.15	34757.89
448.51	33782.59
448.88	32831.63
449.24	31752.64
449.61	31048.38
449.97	30178.87
450.33	29361.08
450.70	28490.64
451.06	27901.29
451.43	27175.02
451.79	26601.12
452.15	26074.04
452.52	25436.94
452.88	24751.63
453.24	24142.63
453.61	23482.59
453.97	22799.63
454.34	22195.77
454.70	21663.53
455.06	21075.59
455.43	20355.87
455.79	19575.77
456.15	18935.87
456.52	18217.56
456.88	17582.57
457.24	16925.82
457.61	16490.71
457.97	15941.15
458.33	15418.28
458.70	14855.15
459.06	14371.36
459.42	13815.01
459.79	13328.18
460.15	12893.54
460.51	12438.78
460.88	11965.05
461.24	11535.33
461.60	11145.40
461.96	10755.70
462.33	10386.36
462.69	10093.56
463.05	9798.89
463.42	9521.07
463.78	9239.50
464.14	8959.10
464.50	8725.28
464.87	8466.42
465.23	8196.56
465.59	7948.46
465.95	7750.68
466.32	7501.89
466.68	7285.85
467.04	7083.87
467.40	6916.28
467.77	6752.91
468.13	6571.29
468.49	6417.75
468.85	6265.15
469.22	6112.31
469.58	5952.68
469.94	5831.91
470.30	5691.48
470.66	5568.13
471.03	5448.30
471.39	5351.17
471.75	5243.27
472.11	5134.67
472.47	5048.77
472.84	4951.17
473.20	4816.35
473.56	4705.41
473.92	4588.85
474.28	4455.21
474.65	4358.31
475.01	4292.78
475.37	4205.24
475.73	4155.39
476.09	4086.34
476.45	3993.42
476.81	3883.88
477.18	3810.63
477.54	3712.79
477.90	3650.53
478.26	3579.38
478.62	3522.04
478.98	3462.82
479.34	3436.37
479.71	3356.56
480.07	3312.33
480.43	3277.22
480.79	3221.51
481.15	3128.59
481.51	3085.06
481.87	3038.25
482.23	2979.50
482.59	2919.12
482.96	2883.54
483.32	2844.69
483.68	2806.30
484.04	2782.90
484.40	2753.64
484.76	2726.72
485.12	2686.23
485.48	2633.34
485.84	2566.40
486.20	2525.67
486.56	2478.39
486.92	2454.05
487.28	2417.54
487.64	2393.90
488.00	2359.73
488.37	2318.77
488.73	2281.32
489.09	2257.68
489.45	2223.27
489.81	2188.87
490.17	2159.14
490.53	2138.55
490.89	2113.50
491.25	2091.97
491.61	2070.44
491.97	2056.39
492.33	2012.16
492.69	1968.39
493.05	1944.75
493.41	1919.01
493.77	1891.86
494.13	1874.30
494.49	1855.34
494.85	1835.21
495.21	1806.19
495.57	1786.30
495.93	1773.19
496.29	1761.02
496.64	1729.19
497.00	1710.93
497.36	1695.72
497.72	1667.87
498.08	1655.93
498.44	1656.16
498.80	1647.74
499.16	1630.65
499.52	1618.25
499.88	1595.31
500.24	1563.24
500.60	1551.54
500.96	1543.12
501.32	1522.52
501.68	1512.92
502.03	1502.16
502.39	1486.47
502.75	1475.71
503.11	1478.28
503.47	1470.32
503.83	1460.26
504.19	1453.47
504.55	1429.13
504.91	1412.98
505.26	1406.90
505.62	1413.68
505.98	1396.83
506.34	1402.21
506.70	1387.70
507.06	1371.09
507.42	1356.81
507.78	1359.15
508.13	1335.98
508.49	1331.06
508.85	1326.62
509.21	1318.66
509.57	1308.36
509.93	1307.89
510.28	1297.36
510.64	1282.61
511.00	1265.06
511.36	1259.44
511.72	1248.91
512.07	1256.17
512.43	1258.97
512.79	1265.76
513.15	1257.57
513.51	1258.74
513.86	1249.61
514.22	1250.55
514.58	1252.42
514.94	1236.51
515.30	1225.27
515.65	1215.44
516.01	1209.12
516.37	1200.23
516.73	1216.61
517.08	1217.08
517.44	1225.50
517.80	1230.89
518.16	1234.40
518.51	1226.91
518.87	1225.97
519.23	1211.46
519.59	1201.16
519.94	1197.18
520.30	1190.86
520.66	1198.82
521.01	1197.42
521.37	1195.31
521.73	1189.69
522.09	1196.25
522.44	1189.93
522.80	1193.67
523.16	1188.52
523.51	1184.31
523.87	1181.97
524.23	1182.91
524.58	1187.59
524.94	1185.25
525.30	1191.33
525.65	1185.72
526.01	1176.12
526.37	1171.91
526.72	1176.82
527.08	1163.48
527.44	1158.80
527.79	1156.93
528.15	1145.22
528.51	1143.12
528.86	1153.42
529.22	1149.91
529.58	1146.16
529.93	1160.91
530.29	1154.12
530.65	1156.93
531.00	1156.93
531.36	1168.86
531.71	1166.29
532.07	1166.76
532.43	1152.48
532.78	1148.97
533.14	1143.35
533.49	1130.24
533.85	1146.39
534.21	1146.16
534.56	1151.31
534.92	1153.42
535.27	1165.82
535.63	1148.27
535.98	1154.82
536.34	1151.08
536.69	1140.31
537.05	1130.95
537.41	1130.48
537.76	1126.97
538.12	1134.69
538.47	1136.56
538.83	1133.52
539.18	1137.50
539.54	1134.46
539.89	1137.73
540.25	1141.95
540.60	1145.93
540.96	1143.35
541.31	1143.82
541.67	1139.14
542.02	1148.03
542.38	1147.80
542.73	1147.10
543.09	1139.61
543.44	1137.03
543.80	1125.10
544.15	1133.52
544.51	1135.86
544.86	1141.25
545.22	1144.99
545.57	1145.93
545.93	1137.50
546.28	1128.84
546.64	1136.56
546.99	1142.88
547.35	1146.63
547.70	1140.07
548.05	1139.37
548.41	1136.80
548.76	1120.41
549.12	1113.39
549.47	1110.82
549.83	1117.84
550.18	1112.22
550.53	1121.58
550.89	1119.24
551.24	1126.73
551.60	1126.03
551.95	1123.22
552.30	1113.86
552.66	1110.58
553.01	1104.73
553.37	1105.20
553.72	1100.52
554.07	1104.97
554.43	1116.44
554.78	1123.69
555.13	1118.78
555.49	1126.50
555.84	1124.39
556.19	1128.61
556.55	1126.97
556.90	1126.97
557.26	1126.50
557.61	1125.10
557.96	1126.03
558.32	1133.76
558.67	1130.48
559.02	1131.41
559.37	1140.07
559.73	1131.41
560.08	1122.99
560.43	1132.35
560.79	1135.16
561.14	1127.44
561.49	1117.61
561.85	1117.84
562.20	1104.50
562.55	1104.97
562.90	1107.07
563.26	1115.03
563.61	1111.99
563.96	1120.18
564.32	1121.82
564.67	1120.41
565.02	1125.33
565.37	1126.73
565.73	1127.90
566.08	1119.24
566.43	1122.75
566.78	1121.12
567.14	1118.31
567.49	1115.50
567.84	1117.84
568.19	1114.33
568.54	1113.86
568.90	1118.31
569.25	1128.84
569.60	1133.99
569.95	1132.82
570.31	1124.63
570.66	1119.71
571.01	1103.56
571.36	1095.60
571.71	1093.26
572.06	1099.35
572.42	1111.05
572.77	1117.14
573.12	1113.39
573.47	1113.86
573.82	1113.63
574.18	1111.99
574.53	1102.16
574.88	1108.24
575.23	1106.37
575.58	1102.16
575.93	1101.46
576.28	1113.16
576.64	1111.52
576.99	1116.20
577.34	1125.80
577.69	1113.63
578.04	1109.65
578.39	1107.31
578.74	1104.26
579.09	1097.24
579.44	1101.92
579.80	1101.69
580.15	1104.50
580.50	1106.37
580.85	1103.80
581.20	1099.82
581.55	1106.61
581.90	1115.03
582.25	1104.73
582.60	1098.88
582.95	1105.20
583.30	1086.71
583.65	1077.58
584.00	1087.88
584.35	1092.56
584.71	1084.60
585.06	1096.31
585.41	1102.39
585.76	1101.22
586.11	1106.14
586.46	1107.31
586.81	1098.88
587.16	1090.22
587.51	1079.92
587.86	1077.58
588.21	1079.69
588.56	1089.05
588.91	1099.82
589.26	1114.56
589.61	1121.82
589.96	1130.95
590.31	1136.10
590.66	1128.61
591.01	1128.14
591.36	1122.29
591.71	1114.56
592.06	1114.80
592.41	1111.99
592.76	1107.54
593.10	1106.37
593.45	1111.29
593.80	1103.09
594.15	1111.75
594.50	1107.31
594.85	1106.37
595.20	1102.16
595.55	1103.80
595.90	1099.35
596.25	1103.33
596.60	1104.50
596.95	1101.22
597.30	1104.97
597.64	1155.52
597.99	1146.39
598.34	1141.71
598.69	1142.42
599.04	1152.71
599.39	1092.80
599.74	1105.20
600.09	1109.88
600.44	1117.61
600.78	1095.84
601.13	1104.26
601.48	1101.92
601.83	1101.92
602.18	1098.65
602.53	1108.71
602.88	1108.01
603.22	1108.71
603.57	1111.99
603.92	1112.22
604.27	1116.67
604.62	1119.48
604.97	1123.46
605.31	1124.39
605.66	1120.18
606.01	1108.24
606.36	1108.95
606.71	1100.75
607.05	1094.67
607.40	1084.60
607.75	1084.14
608.10	1081.09
608.44	1080.63
608.79	1087.88
609.14	1089.75
609.49	1092.80
609.84	1096.07
610.18	1092.80
610.53	1080.86
610.88	1091.63
611.23	1097.48
611.57	1103.80
611.92	1125.10
612.27	1126.73
612.62	1126.27
612.96	1125.80
613.31	1120.88
613.66	1101.22
614.00	1099.58
614.35	1100.29
614.70	1097.24
615.05	1093.26
615.39	1103.09
615.74	1109.65
616.09	1108.48
616.43	1098.65
616.78	1097.01
617.13	1097.48
617.47	1098.65
617.82	1099.12
618.17	1106.14
618.51	1112.46
618.86	1101.22
619.21	1104.26
619.55	1105.67
619.90	1101.22
620.25	1099.82
620.59	1108.71
620.94	1097.71
621.29	1096.78
621.63	1108.24
621.98	1102.39
622.32	1094.43
622.67	1107.54
623.02	1104.50
623.36	1099.35
623.71	1109.88
624.05	1113.16
624.40	1093.73
624.75	1091.39
625.09	1098.65
625.44	1086.94
625.78	1084.84
626.13	1086.94
626.48	1097.71
626.82	1099.12
627.17	1107.07
627.51	1113.39
627.86	1129.07
628.20	1131.65
628.55	1125.33
628.89	1119.48
629.24	1120.41
629.58	1113.86
629.93	1104.73
630.28	1104.73
630.62	1102.16
630.97	1094.20
631.31	1096.54
631.66	1096.31
632.00	1085.31
632.35	1087.41
632.69	1092.33
633.04	1090.92
633.38	1087.41
633.73	1098.41
634.07	1098.65
634.42	1105.67
634.76	1107.78
635.11	1115.73
635.45	1117.61
635.79	1121.58
636.14	1114.10
636.48	1118.78
636.83	1112.92
637.17	1099.12
637.52	1095.60
637.86	1097.01
638.21	1084.84
638.55	1086.01
638.89	1098.65
639.24	1098.18
639.58	1100.75
639.93	1102.16
640.27	1088.58
640.61	1089.29
640.96	1089.75
641.30	1077.11
641.65	1082.97
641.99	1088.58
642.33	1083.67
642.68	1085.31
643.02	1092.56
643.37	1081.56
643.71	1092.80
644.05	1096.78
644.40	1089.99
644.74	1086.01
645.08	1092.09
645.43	1087.88
645.77	1082.97
646.11	1086.01
646.46	1086.94
646.80	1091.39
647.14	1090.46
647.49	1090.92
647.83	1088.12
648.17	1087.65
648.52	1089.99
648.86	1083.90
649.20	1085.31
649.55	1090.46
649.89	1099.58
650.23	1089.05
650.57	1098.18
650.92	1097.71
651.26	1097.48
651.60	1089.99
651.95	1091.39
652.29	1089.52
652.63	1087.41
652.97	1084.60
653.32	1081.80
653.66	1080.39
654.00	1076.88
654.34	1080.63
654.69	1081.09
655.03	1086.94
655.37	1082.73
655.71	1086.24
656.05	1084.14
656.40	1088.35
656.74	1097.48
657.08	1109.88
657.42	1106.37
657.76	1108.95
658.11	1105.67
658.45	1098.65
658.79	1098.41
659.13	1102.86
659.47	1103.33
659.82	1105.44
660.16	1107.07
660.50	1100.75
660.84	1100.29
661.18	1105.90
661.52	1098.41
661.87	1088.58
662.21	1087.41
662.55	1082.03
662.89	1076.41
663.23	1083.43
663.57	1090.46
663.91	1087.65
664.25	1100.52
664.60	1096.07
664.94	1097.95
665.28	1097.24
665.62	1105.20
665.96	1103.80
666.30	1099.58
666.64	1086.48
666.98	1083.20
667.32	1082.97
667.66	1075.71
668.01	1083.90
668.35	1091.63
668.69	1095.14
669.03	1094.43
669.37	1094.67
669.71	1095.14
670.05	1110.35
670.39	1105.67
670.73	1110.82
671.07	1104.03
671.41	1105.20
671.75	1098.41
672.09	1105.44
672.43	1095.37
672.77	1095.14
673.11	1095.60
673.45	1093.03
673.79	1096.54
674.13	1095.60
674.47	1097.24
674.81	1097.95
675.15	1091.16
675.49	1089.29
675.83	1091.39
676.17	1089.75
676.51	1081.33
676.85	1080.39
677.19	1080.63
677.53	1085.07
677.87	1088.82
678.21	1099.82
678.55	1108.48
678.89	1095.60
679.23	1091.63
679.57	1100.99
679.90	1096.54
680.24	1091.16
680.58	1098.88
680.92	1094.67
681.26	1073.37
681.60	1076.18
681.94	1074.07
682.28	1066.58
682.62	1065.18
682.96	1073.60
683.29	1071.97
683.63	1068.22
683.97	1068.45
684.31	1071.73
684.65	1078.75
684.99	1071.73
685.33	1084.60
685.67	1096.31
686.00	1097.95
686.34	1093.50
686.68	1093.73
687.02	1079.69
687.36	1064.24
687.70	1062.60
688.03	1059.56
688.37	1060.96
688.71	1068.22
689.05	1078.52
689.39	1081.33
689.72	1097.71
690.06	1113.86
690.40	1119.01
690.74	1133.29
691.08	1131.88
691.41	1121.58
691.75	1115.27
692.09	1107.54
692.43	1083.90
692.76	1082.26
693.10	1085.54
693.44	1076.65
693.78	1070.09
694.11	1075.94
694.45	1077.58
694.79	1070.33
695.13	1063.07
695.46	1074.07
695.80	1068.92
696.14	1072.90
696.48	1071.73
696.81	1059.79
697.15	1055.82
697.49	1063.07
697.82	1063.07
698.16	1067.28
698.50	1078.52
698.83	1071.50
699.17	1060.96
699.51	1068.22
699.84	1073.60
700.18	1088.35
700.52	1082.97
700.85	1084.14
701.19	1075.01
701.53	1065.88
701.86	1061.90
702.20	1075.01
702.54	1078.52
702.87	1072.20
703.21	1088.12
703.55	1082.97
703.88	1080.63
704.22	1091.86
704.55	1099.82
704.89	1087.41
705.23	1093.73
705.56	1097.48
705.90	1091.63
706.23	1099.82
706.57	1108.48
706.91	1109.18
707.24	1105.90
707.58	1111.99
707.91	1101.22
708.25	1096.07
708.58	1089.52
708.92	1089.05
709.26	1081.09
709.59	1086.48
709.93	1079.92
710.26	1069.62
710.60	1069.16
710.93	1077.35
711.27	1075.24
711.60	1083.67
711.94	1111.75
712.27	1115.50
712.61	1108.71
712.94	1108.01
713.28	1103.09
713.61	1092.56
713.95	1088.35
714.28	1085.77
714.62	1084.60
714.95	1089.52
715.29	1085.77
715.62	1087.88
715.96	1092.33
716.29	1083.67
716.63	1083.90
716.96	1083.20
717.29	1085.54
717.63	1079.22
717.96	1086.01
718.30	1080.16
718.63	1072.20
718.97	1067.28
719.30	1074.77
719.63	1087.41
719.97	1090.69
720.30	1096.54
720.64	1103.80
720.97	1097.71
721.30	1083.20
721.64	1080.86
721.97	1079.46
722.31	1078.05
722.64	1077.11
722.97	1075.94
723.31	1068.22
723.64	1073.37
723.97	1081.33
724.31	1089.05
724.64	1095.14
724.98	1100.75
725.31	1097.71
725.64	1087.18
725.98	1079.22
726.31	1074.54
726.64	1078.99
726.97	1079.92
727.31	1077.58
727.64	1082.50
727.97	1086.94
728.31	1081.80
728.64	1079.22
728.97	1082.73
729.31	1082.50
729.64	1076.18
729.97	1078.52
730.30	1075.01
730.64	1071.26
730.97	1062.14
731.30	1058.62
731.63	1056.28
731.97	1059.33
732.30	1057.22
732.63	1064.24
732.96	1077.11
733.30	1080.86
733.63	1080.39
733.96	1088.58
734.29	1091.63
734.63	1081.56
734.96	1077.82
735.29	1085.31
735.62	1078.75
735.95	1074.77
736.29	1077.82
736.62	1085.54
736.95	1081.56
737.28	1083.43
737.61	1094.43
737.94	1094.20
738.28	1090.92
738.61	1087.41
738.94	1093.97
739.27	1084.60
739.60	1086.01
739.93	1083.20
740.27	1084.84
740.60	1079.22
740.93	1082.50
741.26	1077.35
741.59	1081.56
741.92	1085.77
742.25	1087.41
742.58	1086.48
742.91	1098.18
743.25	1101.92
743.58	1096.78
743.91	1099.12
744.24	1094.43
744.57	1082.50
744.90	1076.88
745.23	1084.60
745.56	1081.56
745.89	1084.60
746.22	1087.41
746.55	1085.31
746.88	1067.52
747.21	1067.28
747.54	1069.39
747.87	1057.69
748.20	1064.48
748.53	1076.88
748.87	1071.03
749.20	1064.48
749.53	1069.16
749.86	1064.94
750.19	1064.71
750.52	1068.69
750.85	1080.39
751.18	1086.24
751.51	1074.31
751.84	1079.22
752.16	1076.88
752.49	1070.56
752.82	1071.73
753.15	1081.33
753.48	1076.18
753.81	1083.43
754.14	1076.65
754.47	1088.12
754.80	1086.71
755.13	1088.82
755.46	1079.46
755.79	1083.90
756.12	1077.11
756.45	1086.48
756.78	1096.07
757.11	1105.44
757.43	1115.50
757.76	1110.82
758.09	1104.26
758.42	1095.84
758.75	1095.14
759.08	1088.35
759.41	1098.18
759.74	1096.07
760.07	1091.16
760.39	1086.71
760.72	1079.46
761.05	1079.69
761.38	1088.12
761.71	1089.75
762.04	1093.26
762.36	1098.18
762.69	1089.05
763.02	1085.77
763.35	1089.99
763.68	1085.07
764.01	1085.77
764.33	1095.84
764.66	1089.99
764.99	1082.97
765.32	1081.56
765.65	1082.03
765.97	1066.82
766.30	1069.39
766.63	1075.71
766.96	1082.50
767.28	1091.16
767.61	1099.12
767.94	1100.99
768.27	1101.69
768.59	1106.37
768.92	1092.09
769.25	1093.73
769.58	1095.37
769.90	1085.77
770.23	1077.82
770.56	1080.16
770.89	1076.88
771.21	1075.24
771.54	1074.77
771.87	1076.41
772.19	1082.73
772.52	1080.16
772.85	1073.60
773.17	1081.09
773.50	1080.86
773.83	1080.63
774.15	1076.65
774.48	1074.54
774.81	1080.63
775.13	1086.94
775.46	1080.39
775.79	1084.14
776.11	1093.03
776.44	1086.48
776.77	1085.07
777.09	1088.12
777.42	1088.58
777.74	1078.28
778.07	1088.82
778.40	1089.29
778.72	1079.46
779.05	1075.71
779.37	1078.75
779.70	1071.26
780.03	1051.60
780.35	1060.03
780.68	1064.01
781.00	1060.73
781.33	1055.35
781.65	1074.07
781.98	1076.18
782.31	1081.56
782.63	1089.52
782.96	1087.88
783.28	1069.39
783.61	1070.56
783.93	1067.05
784.26	1062.84
784.58	1070.80
784.91	1082.03
785.23	1070.80
785.56	1074.77
785.88	1079.69
786.21	1080.86
786.53	1085.77
786.86	1092.09
787.18	1087.88
787.51	1092.09
787.83	1097.48
788.16	1095.60
788.48	1097.24
788.81	1100.75
789.13	1089.99
789.46	1079.22
789.78	1080.16
790.10	1077.58
790.43	1067.52
790.75	1083.43
791.08	1087.41
791.40	1084.37
791.73	1086.24
792.05	1100.05
792.37	1090.46
792.70	1078.75
793.02	1081.09
793.35	1088.12
793.67	1081.09
793.99	1076.88
794.32	1081.33
794.64	1085.54
794.96	1076.41
795.29	1066.11
795.61	1061.43
795.93	1062.60
796.26	1061.43
796.58	1064.71
796.91	1079.92
797.23	1082.50
797.55	1088.35
797.87	1086.01
798.20	1100.99
798.52	1104.73
798.84	1114.80
799.17	1111.29
799.49	1101.92
799.81	1080.16
800.14	1078.52
800.46	1077.58
800.78	1071.03
801.10	1077.82
801.43	1081.80
801.75	1077.11
802.07	1073.37
802.40	1079.46
802.72	1079.69
803.04	1082.50
803.36	1080.86
803.69	1076.65
804.01	1072.67
804.33	1074.54
804.65	1070.56
804.97	1067.75
805.30	1073.60
805.62	1084.14
805.94	1079.92
806.26	1081.80
806.58	1079.22
806.91	1075.24
807.23	1069.86
807.55	1076.18
807.87	1074.54
808.19	1071.73
808.52	1072.67
808.84	1071.50
809.16	1059.79
809.48	1067.99
809.80	1082.26
810.12	1082.73
810.44	1079.22
810.77	1090.69
811.09	1082.97
811.41	1079.46
811.73	1085.77
812.05	1086.94
812.37	1090.69
812.69	1089.29
813.01	1078.99
813.33	1073.84
813.66	1070.80
813.98	1072.20
814.30	1077.11
814.62	1086.71
814.94	1089.05
815.26	1087.41
815.58	1074.31
815.90	1079.46
816.22	1074.07
816.54	1064.24
816.86	1075.24
817.18	1087.88
817.50	1084.60
817.82	1082.97
818.14	1086.71
818.46	1072.90
818.78	1065.41
819.10	1064.24
819.42	1070.33
819.74	1071.03
820.06	1076.65
820.38	1075.24
820.70	1079.69
821.02	1081.09
821.34	1086.01
821.66	1095.60
821.98	1093.97
822.30	1085.54
822.62	1084.14
822.94	1081.33
823.26	1073.60
823.58	1070.80
823.90	1066.82
824.22	1071.73
824.54	1072.67
824.86	1066.58
825.18	1077.58
825.50	1085.07
825.81	1077.11
826.13	1067.75
826.45	1074.54
826.77	1066.11
827.09	1062.84
827.41	1059.79
827.73	1068.92
828.05	1066.35
828.36	1064.71
828.68	1069.16
829.00	1073.14
829.32	1071.03
829.64	1075.01
829.96	1078.28
830.28	1078.52
830.59	1081.33
830.91	1071.73
831.23	1069.39
831.55	1070.09
831.87	1077.11
832.19	1074.77
832.50	1080.86
832.82	1081.09
833.14	1080.16
833.46	1067.52
833.78	1064.48
834.09	1066.58
834.41	1070.80
834.73	1075.94
835.05	1081.56
835.36	1087.88
835.68	1095.60
836.00	1094.43
836.32	1092.33
836.63	1097.48
836.95	1096.31
837.27	1092.33
837.59	1085.31
837.90	1082.50
838.22	1072.43
838.54	1077.11
838.85	1068.92
839.17	1069.39
839.49	1067.75
839.80	1071.26
840.12	1073.14
840.44	1083.20
840.76	1089.29
841.07	1093.03
841.39	1090.22
841.71	1083.90
842.02	1085.31
842.34	1087.88
842.65	1082.26
842.97	1081.09
843.29	1083.20
843.60	1068.92
843.92	1063.31
844.24	1070.80
844.55	1071.73
844.87	1067.99
845.18	1077.11
845.50	1075.94
845.82	1079.22
846.13	1082.03
846.45	1078.05
846.76	1083.67
847.08	1082.03
847.40	1063.77
847.71	1068.22
848.03	1071.73
848.34	1073.14
848.66	1079.92
848.97	1089.05
849.29	1089.52
849.60	1086.94
849.92	1084.37
850.24	1077.82
850.55	1071.03
850.87	1062.84
851.18	1064.24
851.50	1063.07
851.81	1066.58
852.13	1075.24
852.44	1079.22
852.76	1081.09
853.07	1074.77
853.39	1071.73
853.70	1079.92
854.01	1076.65
854.33	1073.60
854.64	1072.90
854.96	1068.92
855.27	1059.33
855.59	1068.69
855.90	1071.26
856.22	1077.35
856.53	1087.18
856.84	1089.52
857.16	1087.65
857.47	1087.88
857.79	1084.14
858.10	1086.01
858.41	1086.24
858.73	1082.97
859.04	1077.82
859.36	1077.82
859.67	1075.24
859.98	1068.45
860.30	1064.94
860.61	1068.92
860.92	1066.58
861.24	1056.75
861.55	1055.58
861.87	1057.92
862.18	1057.92
862.49	1051.13
862.81	1052.30
863.12	1060.03
863.43	1059.33
863.74	1060.03
864.06	1071.73
864.37	1072.67
864.68	1079.46
865.00	1091.63
865.31	1089.05
865.62	1089.29
865.94	1093.26
866.25	1076.88
866.56	1065.88
866.87	1068.92
867.19	1070.56
867.50	1074.77
867.81	1087.41
868.12	1088.58
868.44	1087.88
868.75	1081.56
869.06	1081.33
869.37	1078.28
869.68	1071.26
870.00	1075.94
870.31	1081.56
870.62	1085.77
870.93	1087.88
871.24	1087.18
871.56	1084.14
871.87	1090.22
872.18	1084.14
872.49	1074.31
872.80	1090.22
873.12	1089.99
873.43	1075.94
873.74	1076.88
874.05	1085.07
874.36	1073.37
874.67	1069.16
874.98	1068.92
875.29	1077.58
875.61	1080.16
875.92	1081.80
876.23	1090.92
876.54	1100.75
876.85	1088.58
877.16	1078.52
877.47	1087.88
877.78	1089.29
878.09	1092.80
878.40	1097.48
878.72	1109.88
879.03	1100.99
879.34	1095.14
879.65	1084.60
879.96	1075.24
880.27	1074.31
880.58	1072.67
880.89	1075.24
881.20	1078.05
881.51	1089.05
881.82	1086.24
882.13	1091.16
882.44	1079.92
882.75	1082.26
883.06	1076.18
883.37	1075.48
883.68	1074.54
883.99	1089.29
884.30	1090.69
884.61	1095.60
884.92	1092.33
885.23	1086.94
885.54	1084.37
885.85	1086.48
886.16	1088.12
886.47	1090.69
886.78	1089.99
887.08	1076.41
887.39	1075.71
887.70	1068.45
888.01	1068.69
888.32	1069.39
888.63	1090.22
888.94	1092.80
889.25	1102.16
889.56	1094.67
889.87	1100.29
890.17	1091.39
890.48	1084.37
890.79	1073.37
891.10	1081.80
891.41	1076.65
891.72	1072.90
892.03	1073.84
892.34	1083.43
892.64	1084.60
892.95	1092.09
893.26	1088.35
893.57	1091.63
893.88	1074.54
894.18	1068.69
894.49	1068.45
894.80	1071.03
895.11	1068.22
895.42	1075.24
895.72	1079.92
896.03	1074.54
896.34	1082.26
896.65	1078.99
896.96	1087.18
897.26	1088.58
897.57	1081.80
897.88	1071.03
898.19	1066.82
898.49	1067.75
898.80	1066.58
899.11	1073.84
899.41	1077.11
899.72	1078.75
900.03	1078.28
900.34	1082.03
900.64	1088.82
900.95	1092.80
901.26	1092.80
901.56	1097.48
901.87	1089.29
902.18	1074.77
902.48	1069.86
902.79	1079.69
903.10	1075.24
903.40	1078.99
903.71	1092.09
904.02	1088.35
904.32	1078.99
904.63	1073.37
904.94	1062.14
905.24	1062.37
905.55	1076.88
905.85	1074.54
906.16	1075.71
906.47	1095.14
906.77	1088.58
907.08	1074.54
907.38	1076.65
907.69	1072.90
908.00	1062.37
908.30	1065.65
908.61	1066.35
908.91	1073.60
909.22	1080.39
909.52	1075.71
909.83	1071.50
910.14	1077.58
910.44	1070.33
910.75	1060.50
911.05	1063.77
911.36	1064.94
911.66	1063.77
911.97	1060.96
912.27	1064.48
912.58	1067.75
912.88	1068.69
913.19	1076.65
913.49	1078.52
913.80	1078.05
914.10	1082.73
914.41	1078.05
914.71	1071.03
915.01	1074.54
915.32	1071.97
915.62	1064.94
915.93	1071.50
916.23	1067.52
916.54	1071.03
916.84	1084.60
917.15	1100.52
917.45	1096.54
917.75	1105.20
918.06	1103.80
918.36	1103.33
918.67	1088.35
918.97	1092.80
919.27	1076.65
919.58	1075.48
919.88	1067.52
920.18	1064.48
920.49	1064.48
920.79	1075.01
921.10	1080.16
921.40	1081.33
921.70	1081.80
922.01	1077.58
922.31	1082.97
922.61	1074.07
922.92	1071.73
923.22	1076.18
923.52	1077.58
923.82	1072.43
924.13	1073.37
924.43	1083.90
924.73	1092.33
925.04	1086.94
925.34	1084.84
925.64	1089.29
925.94	1085.54
926.25	1074.31
926.55	1080.63
926.85	1079.46
927.15	1082.50
927.46	1086.48
927.76	1074.31
928.06	1068.92
928.36	1063.31
928.67	1071.50
928.97	1061.20
929.27	1066.35
929.57	1057.69
929.87	1064.48
930.18	1051.13
930.48	1055.58
930.78	1062.84
931.08	1080.16
931.38	1089.75
931.69	1098.88
931.99	1106.37
932.29	1104.97
932.59	1096.07
932.89	1089.52
933.19	1086.94
933.49	1077.82
933.80	1085.31
934.10	1083.67
934.40	1091.86
934.70	1086.48
935.00	1085.77
935.30	1077.58
935.60	1083.20
935.90	1077.11
936.20	1068.92
936.50	1070.80
936.81	1091.16
937.11	1098.18
937.41	1106.14
937.71	1116.90
938.01	1125.10
938.31	1100.05
938.61	1098.18
938.91	1079.22
939.21	1077.35
939.51	1075.48
939.81	1077.35
940.11	1076.41
940.41	1084.60
940.71	1081.33
941.01	1073.37
941.31	1075.71
941.61	1073.37
941.91	1078.52
942.21	1082.73
942.51	1091.16
942.81	1095.14
943.11	1094.67
943.41	1096.54
943.71	1089.29
944.01	1082.50
944.31	1082.26
944.61	1075.94
944.90	1070.33
945.20	1070.09
945.50	1069.16
945.80	1073.14
946.10	1070.33
946.40	1077.82
946.70	1086.24
947.00	1080.86
947.30	1071.03
947.60	1081.33
947.89	1070.09
948.19	1069.16
948.49	1078.52
948.79	1079.46
949.09	1084.84
949.39	1085.31
949.69	1084.37
949.98	1078.75
950.28	1083.90
950.58	1076.88
950.88	1084.14
951.18	1077.58
951.48	1086.71
951.77	1075.94
952.07	1066.82
952.37	1063.54
952.67	1074.77
952.97	1074.31
953.26	1079.46
953.56	1083.20
953.86	1074.77
954.16	1065.88
954.45	1061.67
954.75	1077.35
955.05	1085.77
955.35	1099.82
955.64	1099.12
955.94	1090.22
956.24	1085.54
956.54	1083.20
956.83	1076.18
957.13	1086.48
957.43	1095.37
957.72	1093.97
958.02	1094.43
958.32	1095.60
958.61	1100.52
958.91	1100.75
959.21	1101.92
959.50	1102.63
959.80	1103.80
960.10	1088.58
960.39	1088.12
960.69	1084.37
960.99	1083.67
961.28	1085.07
961.58	1087.41
961.87	1081.80
962.17	1089.99
962.47	1087.41
962.76	1083.20
963.06	1078.99
963.36	1073.84
963.65	1059.09
963.95	1059.33
964.24	1060.26
964.54	1061.43
964.83	1073.37
965.13	1078.05
965.42	1081.80
965.72	1088.58
966.02	1089.75
966.31	1094.20
966.61	1098.88
966.90	1094.67
967.20	1089.75
967.49	1094.67
967.79	1079.69
968.08	1077.58
968.38	1078.05
968.67	1072.20
968.97	1065.18
969.26	1078.75
969.56	1068.22
969.85	1066.58
970.15	1068.69
970.44	1075.48
970.74	1068.22
971.03	1076.65
971.32	1072.20
971.62	1072.67
971.91	1078.52
972.21	1069.39
972.50	1064.01
972.80	1069.62
973.09	1070.33
973.38	1065.18
973.68	1072.90
973.97	1081.80
974.27	1082.26
974.56	1081.56
974.85	1089.52
975.15	1095.14
975.44	1088.58
975.73	1085.54
976.03	1083.20
976.32	1073.60
976.61	1075.94
976.91	1074.77
977.20	1084.14
977.49	1088.82
977.79	1088.12
978.08	1076.88
978.37	1082.03
978.67	1074.07
978.96	1071.50
979.25	1068.45
979.55	1074.77
979.84	1073.37
980.13	1076.41
980.42	1079.46
980.72	1078.28
981.01	1074.54
981.30	1075.01
981.59	1069.39
981.89	1065.88
982.18	1071.03
982.47	1073.37
982.76	1069.39
983.06	1070.33
983.35	1075.24
983.64	1086.01
983.93	1079.69
984.22	1079.22
984.52	1089.05
984.81	1084.37
985.10	1067.99
985.39	1071.97
985.68	1078.05
985.97	1072.67
986.27	1068.69
986.56	1075.24
986.85	1083.20
987.14	1085.31
987.43	1082.97
987.72	1087.18
988.01	1081.56
988.31	1075.01
988.60	1080.16
988.89	1086.71
989.18	1089.29
989.47	1102.63
989.76	1108.24
990.05	1100.52
990.34	1094.67
990.63	1097.71
990.92	1092.09
991.21	1104.26
991.51	1103.56
991.80	1102.86
992.09	1097.48
992.38	1097.95
992.67	1089.52
992.96	1090.69
993.25	1093.03
993.54	1090.22
993.83	1086.24
994.12	1069.16
994.41	1064.01
994.70	1064.24
994.99	1062.84
995.28	1065.65
995.57	1070.80
995.86	1070.33
996.15	1060.03
996.44	1056.99
996.73	1049.73
997.02	1049.03
997.31	1057.69
997.59	1066.35
997.88	1082.50
998.17	1088.58
998.46	1096.54
998.75	1094.67
999.04	1097.71
999.33	1094.43
999.62	1093.03
999.91	1092.80
1000.20	1094.20
1000.49	1090.22
1000.77	1083.20
1001.06	1082.97
1001.35	1088.12
1001.64	1082.73
1001.93	1084.14
1002.22	1082.03
1002.51	1072.67
1002.79	1072.90
1003.08	1078.28
1003.37	1083.67
1003.66	1077.35
1003.95	1086.01
1004.23	1072.90
1004.52	1068.45
1004.81	1063.54
1005.10	1077.35
1005.39	1069.16
1005.67	1076.18
1005.96	1085.07
1006.25	1081.09
1006.54	1069.86
1006.83	1080.63
1007.11	1082.50
1007.40	1081.56
1007.69	1094.90
1007.97	1103.56
1008.26	1093.03
1008.55	1088.58
1008.84	1080.86
1009.12	1071.97
1009.41	1065.65
1009.70	1071.97
1009.98	1074.54
1010.27	1081.56
1010.56	1087.65
1010.85	1093.97
1011.13	1098.41
1011.42	1097.01
1011.71	1087.88
1011.99	1083.43
1012.28	1086.71
1012.56	1084.84
1012.85	1076.18
1013.14	1073.37
1013.42	1069.62
1013.71	1067.75
1014.00	1071.03
1014.28	1072.43
1014.57	1077.35
1014.85	1080.86
1015.14	1075.24
1015.43	1069.86
1015.71	1075.48
1016.00	1074.54
1016.28	1068.45
1016.57	1068.92
1016.85	1071.73
1017.14	1078.05
1017.43	1077.11
1017.71	1080.86
1018.00	1082.03
1018.28	1070.80
1018.57	1061.20
1018.85	1052.30
1019.14	1064.94
1019.42	1072.67
1019.71	1090.69
1019.99	1091.16
1020.28	1104.73
1020.56	1093.97
1020.85	1095.37
1021.13	1082.26
1021.42	1084.14
1021.70	1080.86
1021.99	1071.97
1022.27	1058.62
1022.55	1041.54
1022.84	1049.73
>>>>>End Processed Spectral Data<<<<<
