SpectraSuite Data File
++++++++++++++++++++++++++++++++++++
Date: Mon Aug 26 10:24:40 PDT 2019
User: corrico
Dark Spectrum Present: No
Reference Spectrum Present: No
Number of Sampled Component Spectra: 1
Spectrometers: USB2+H06089
Integration Time (usec): 10000 (USB2+H06089)
Spectra Averaged: 2 (USB2+H06089)
Boxcar Smoothing: 2 (USB2+H06089)
Correct for Electrical Dark: No (USB2+H06089)
Strobe/Lamp Enabled: No (USB2+H06089)
Correct for Detector Non-linearity: No (USB2+H06089)
Correct for Stray Light: No (USB2+H06089)
Number of Pixels in Processed Spectrum: 2048
>>>>>Begin Processed Spectral Data<<<<<
339.70	1015.79
340.07	1015.79
340.45	976.71
340.82	957.98
341.19	932.70
341.57	913.28
341.94	916.79
342.31	913.75
342.69	898.53
343.06	894.55
343.43	888.00
343.81	871.38
344.18	868.10
344.55	880.51
344.93	886.36
345.30	889.40
345.67	910.00
346.04	918.43
346.42	927.32
346.79	939.96
347.16	953.77
347.54	959.15
347.91	969.45
348.28	984.90
348.65	1003.62
349.03	1011.11
349.40	1021.88
349.77	1030.77
350.14	1024.69
350.52	1019.54
350.89	1037.56
351.26	1048.56
351.63	1052.54
352.01	1071.97
352.38	1084.37
352.75	1073.84
353.12	1078.75
353.50	1098.65
353.87	1098.41
354.24	1098.88
354.61	1111.05
354.98	1110.58
355.36	1101.46
355.73	1105.90
356.10	1106.84
356.47	1109.18
356.84	1105.20
357.22	1101.69
357.59	1097.01
357.96	1091.86
358.33	1087.65
358.70	1087.65
359.08	1101.69
359.45	1092.56
359.82	1100.99
360.19	1111.05
360.56	1118.31
360.94	1105.67
361.31	1118.31
361.68	1119.01
362.05	1106.37
362.42	1095.84
362.79	1092.09
363.16	1099.58
363.54	1100.52
363.91	1107.54
364.28	1111.29
364.65	1118.31
365.02	1103.33
365.39	1103.56
365.76	1101.69
366.14	1099.58
366.51	1097.24
366.88	1092.56
367.25	1080.86
367.62	1075.01
367.99	1081.09
368.36	1082.73
368.73	1091.39
369.10	1093.50
369.48	1093.03
369.85	1086.24
370.22	1089.52
370.59	1086.94
370.96	1087.18
371.33	1083.43
371.70	1088.35
372.07	1082.26
372.44	1079.22
372.81	1082.73
373.18	1095.37
373.55	1097.01
373.93	1096.31
374.30	1098.88
374.67	1097.24
375.04	1096.07
375.41	1096.78
375.78	1108.24
376.15	1112.92
376.52	1111.29
376.89	1108.01
377.26	1100.29
377.63	1085.77
378.00	1087.88
378.37	1097.01
378.74	1102.16
379.11	1106.37
379.48	1110.58
379.85	1114.33
380.22	1126.50
380.59	1123.93
380.96	1128.37
381.33	1133.29
381.70	1128.14
382.07	1110.82
382.44	1111.75
382.81	1111.29
383.18	1112.46
383.55	1117.37
383.92	1121.12
384.29	1120.65
384.66	1115.50
385.03	1117.14
385.40	1109.65
385.77	1115.73
386.14	1109.88
386.51	1119.95
386.88	1111.75
387.25	1111.05
387.62	1095.14
387.99	1102.39
388.36	1097.48
388.73	1099.82
389.10	1113.39
389.46	1124.16
389.83	1120.41
390.20	1119.71
390.57	1126.27
390.94	1120.65
391.31	1113.86
391.68	1115.73
392.05	1113.63
392.42	1119.95
392.79	1126.73
393.16	1138.90
393.53	1138.67
393.89	1134.22
394.26	1128.37
394.63	1125.80
395.00	1127.20
395.37	1133.99
395.74	1147.10
396.11	1154.12
396.48	1152.95
396.84	1159.74
397.21	1160.20
397.58	1165.59
397.95	1164.65
398.32	1163.01
398.69	1158.80
399.06	1161.61
399.42	1152.01
399.79	1154.12
400.16	1162.31
400.53	1168.16
400.90	1187.12
401.27	1209.35
401.64	1218.01
402.00	1238.85
402.37	1258.74
402.74	1259.91
403.11	1261.78
403.48	1273.72
403.84	1292.68
404.21	1299.47
404.58	1308.83
404.95	1320.06
405.32	1332.94
405.68	1345.57
406.05	1360.79
406.42	1390.51
406.79	1411.34
407.16	1447.15
407.52	1467.52
407.89	1503.56
408.26	1527.20
408.63	1582.67
408.99	1614.50
409.36	1659.44
409.73	1699.23
410.10	1747.21
410.47	1796.83
410.83	1854.64
411.20	1906.37
411.57	1987.82
411.94	2078.16
412.30	2156.34
412.67	2255.81
413.04	2339.83
413.40	2426.20
413.77	2535.03
414.14	2654.87
414.51	2779.39
414.87	2921.46
415.24	3052.99
415.61	3196.47
415.97	3339.01
416.34	3506.59
416.71	3714.43
417.08	3933.04
417.44	4139.94
417.81	4390.61
418.18	4620.69
418.54	4854.27
418.91	5136.07
419.28	5434.72
419.64	5725.65
420.01	6044.90
420.38	6403.71
420.74	6731.85
421.11	7127.17
421.48	7521.78
421.84	7973.03
422.21	8407.44
422.58	8910.89
422.94	9398.89
423.31	9941.66
423.68	10534.75
424.04	11164.82
424.41	11771.72
424.77	12434.33
425.14	13084.06
425.51	13713.67
425.87	14444.15
426.24	15202.25
426.61	16061.69
426.97	17107.68
427.34	18108.02
427.70	19170.16
428.07	20237.68
428.44	21288.81
428.80	22285.18
429.17	23387.57
429.53	24417.40
429.90	25686.68
430.27	26846.18
430.63	27986.96
431.00	29314.51
431.36	30778.51
431.73	31973.36
432.09	33248.25
432.46	34564.33
432.83	35872.22
433.19	37079.47
433.56	38647.16
433.92	40253.94
434.29	41843.16
434.65	43279.78
435.02	44677.78
435.38	45896.27
435.75	46768.12
436.11	48043.94
436.48	49198.06
436.84	50253.41
437.21	51183.07
437.57	52212.20
437.94	52798.04
438.30	53220.51
438.67	53426.94
439.03	53436.54
439.40	53525.48
439.76	53404.00
440.13	53241.80
440.49	53236.42
440.86	52988.32
441.22	52617.82
441.59	52003.19
441.95	51448.02
442.32	50581.79
442.68	49874.94
443.05	48989.28
443.41	48106.67
443.78	46983.91
444.14	46004.87
444.51	44784.04
444.87	43720.97
445.24	42482.83
445.60	41362.42
445.96	40196.83
446.33	39264.59
446.69	38097.13
447.06	37237.46
447.42	36203.87
447.79	35045.54
448.15	34000.26
448.51	33000.62
448.88	32080.79
449.24	31118.12
449.61	30439.14
449.97	29636.57
450.33	28870.27
450.70	27983.68
451.06	27348.69
451.43	26498.61
451.79	25906.69
452.15	25335.36
452.52	24725.42
452.88	24124.14
453.24	23658.37
453.61	23008.17
453.97	22380.44
454.34	21765.58
454.70	21207.13
455.06	20571.67
455.43	19871.38
455.79	19132.48
456.15	18533.30
456.52	17836.05
456.88	17239.45
457.24	16685.91
457.61	16194.40
457.97	15679.25
458.33	15152.63
458.70	14634.67
459.06	14063.34
459.42	13624.26
459.79	13095.30
460.15	12672.36
460.51	12195.83
460.88	11792.32
461.24	11334.28
461.60	10960.03
461.96	10583.90
462.33	10274.25
462.69	9953.83
463.05	9659.16
463.42	9419.95
463.78	9133.24
464.14	8824.29
464.50	8581.11
464.87	8303.75
465.23	8013.06
465.59	7790.01
465.95	7572.34
466.32	7341.56
466.68	7135.83
467.04	6924.01
467.40	6748.47
467.77	6558.42
468.13	6409.56
468.49	6271.00
468.85	6128.93
469.22	5992.94
469.58	5872.87
469.94	5722.61
470.30	5586.62
470.66	5494.64
471.03	5363.10
471.39	5282.12
471.75	5186.63
472.11	5103.30
472.47	4987.45
472.84	4881.66
473.20	4745.90
473.56	4653.92
473.92	4527.53
474.28	4417.76
474.65	4320.86
475.01	4259.54
475.37	4157.26
475.73	4092.66
476.09	4032.04
476.45	3938.42
476.81	3844.56
477.18	3756.33
477.54	3654.98
477.90	3560.42
478.26	3510.34
478.62	3436.37
478.98	3384.88
479.34	3356.56
479.71	3316.31
480.07	3273.01
480.43	3237.43
480.79	3177.28
481.15	3107.76
481.51	3049.48
481.87	2997.76
482.23	2939.48
482.59	2903.90
482.96	2858.03
483.32	2830.41
483.68	2768.85
484.04	2751.77
484.40	2722.04
484.76	2699.11
485.12	2659.32
485.48	2636.85
485.84	2585.12
486.20	2545.33
486.56	2494.54
486.92	2463.41
487.28	2416.37
487.64	2376.58
488.00	2333.51
488.37	2302.15
488.73	2249.96
489.09	2212.27
489.45	2180.68
489.81	2151.89
490.17	2120.76
490.53	2102.97
490.89	2089.16
491.25	2057.10
491.61	2042.59
491.97	2028.07
492.33	2011.69
492.69	1996.24
493.05	1985.71
493.41	1947.09
493.77	1920.18
494.13	1890.22
494.49	1848.09
494.85	1817.89
495.21	1792.85
495.57	1770.38
495.93	1736.91
496.29	1724.04
496.64	1704.14
497.00	1680.97
497.36	1655.69
497.72	1647.50
498.08	1638.61
498.44	1612.16
498.80	1613.57
499.16	1599.76
499.52	1572.14
499.88	1553.41
500.24	1547.33
500.60	1517.84
500.96	1513.16
501.32	1510.35
501.68	1491.62
502.03	1490.45
502.39	1493.73
502.75	1481.09
503.11	1474.54
503.47	1453.47
503.83	1432.88
504.19	1412.05
504.55	1400.11
504.91	1398.70
505.26	1396.60
505.62	1382.09
505.98	1381.15
506.34	1375.53
506.70	1359.62
507.06	1350.96
507.42	1348.38
507.78	1344.17
508.13	1331.76
508.49	1315.15
508.85	1314.68
509.21	1315.38
509.57	1299.70
509.93	1300.40
510.28	1302.04
510.64	1302.98
511.00	1297.12
511.36	1281.91
511.72	1276.06
512.07	1270.91
512.43	1257.10
512.79	1250.31
513.15	1267.40
513.51	1261.55
513.86	1250.55
514.22	1245.16
514.58	1241.89
514.94	1225.04
515.30	1223.16
515.65	1223.16
516.01	1236.04
516.37	1232.99
516.73	1237.68
517.08	1236.27
517.44	1234.87
517.80	1229.48
518.16	1224.10
518.51	1220.82
518.87	1219.65
519.23	1221.76
519.59	1202.80
519.94	1201.40
520.30	1188.06
520.66	1180.80
521.01	1177.52
521.37	1191.10
521.73	1180.10
522.09	1188.29
522.44	1175.42
522.80	1166.29
523.16	1153.65
523.51	1159.97
523.87	1155.76
524.23	1167.23
524.58	1176.12
524.94	1179.86
525.30	1182.20
525.65	1182.67
526.01	1167.23
526.37	1163.95
526.72	1164.18
527.08	1153.42
527.44	1148.03
527.79	1157.86
528.15	1159.50
528.51	1164.18
528.86	1168.86
529.22	1176.59
529.58	1175.42
529.93	1160.20
530.29	1151.54
530.65	1148.50
531.00	1133.76
531.36	1133.52
531.71	1136.56
532.07	1133.99
532.43	1134.22
532.78	1141.25
533.14	1132.82
533.49	1132.59
533.85	1141.48
534.21	1137.03
534.56	1129.54
534.92	1135.39
535.27	1135.39
535.63	1130.95
535.98	1140.07
536.34	1152.48
536.69	1140.07
537.05	1137.03
537.41	1131.88
537.76	1136.33
538.12	1131.18
538.47	1145.46
538.83	1145.69
539.18	1143.12
539.54	1141.01
539.89	1142.65
540.25	1136.80
540.60	1143.35
540.96	1147.80
541.31	1147.80
541.67	1147.33
542.02	1145.93
542.38	1145.93
542.73	1137.73
543.09	1132.12
543.44	1118.78
543.80	1123.22
544.15	1115.27
544.51	1119.71
544.86	1119.01
545.22	1127.90
545.57	1129.07
545.93	1142.42
546.28	1137.03
546.64	1141.95
546.99	1134.93
547.35	1132.82
547.70	1133.29
548.05	1133.76
548.41	1125.33
548.76	1131.88
549.12	1125.10
549.47	1111.05
549.83	1119.95
550.18	1128.37
550.53	1135.86
550.89	1141.95
551.24	1147.56
551.60	1140.07
551.95	1132.12
552.30	1126.73
552.66	1122.75
553.01	1118.07
553.37	1114.33
553.72	1112.46
554.07	1104.97
554.43	1109.65
554.78	1108.95
555.13	1111.52
555.49	1124.39
555.84	1127.20
556.19	1115.03
556.55	1114.56
556.90	1115.97
557.26	1105.20
557.61	1102.63
557.96	1101.92
558.32	1102.63
558.67	1113.16
559.02	1121.35
559.37	1117.84
559.73	1125.56
560.08	1128.61
560.43	1116.90
560.79	1105.20
561.14	1113.39
561.49	1110.58
561.85	1115.73
562.20	1121.35
562.55	1120.88
562.90	1117.84
563.26	1118.07
563.61	1104.50
563.96	1098.65
564.32	1099.12
564.67	1101.92
565.02	1105.20
565.37	1103.09
565.73	1091.39
566.08	1091.63
566.43	1083.43
566.78	1079.69
567.14	1091.39
567.49	1104.73
567.84	1113.16
568.19	1126.27
568.54	1126.03
568.90	1126.27
569.25	1127.44
569.60	1117.84
569.95	1117.14
570.31	1116.90
570.66	1111.75
571.01	1123.46
571.36	1132.35
571.71	1116.90
572.06	1119.48
572.42	1116.90
572.77	1094.67
573.12	1090.46
573.47	1097.01
573.82	1098.18
574.18	1104.50
574.53	1112.22
574.88	1104.03
575.23	1108.95
575.58	1113.39
575.93	1111.99
576.28	1108.01
576.64	1107.78
576.99	1106.14
577.34	1096.54
577.69	1099.35
578.04	1106.61
578.39	1106.37
578.74	1107.07
579.09	1114.80
579.44	1116.67
579.80	1107.54
580.15	1109.41
580.50	1104.73
580.85	1104.03
581.20	1103.09
581.55	1106.84
581.90	1111.05
582.25	1114.80
582.60	1108.24
582.95	1106.84
583.30	1112.22
583.65	1108.71
584.00	1108.95
584.35	1110.12
584.71	1108.95
585.06	1103.80
585.41	1109.65
585.76	1112.22
586.11	1115.73
586.46	1109.18
586.81	1115.73
587.16	1112.69
587.51	1103.80
587.86	1106.84
588.21	1106.84
588.56	1103.09
588.91	1107.54
589.26	1120.41
589.61	1119.48
589.96	1115.27
590.31	1124.39
590.66	1130.24
591.01	1117.84
591.36	1107.54
591.71	1113.16
592.06	1102.86
592.41	1086.94
592.76	1098.65
593.10	1094.67
593.45	1094.67
593.80	1095.37
594.15	1101.46
594.50	1095.14
594.85	1104.50
595.20	1109.18
595.55	1116.67
595.90	1115.03
596.25	1117.61
596.60	1117.84
596.95	1107.31
597.30	1089.75
597.64	1140.07
597.99	1136.56
598.34	1137.97
598.69	1149.67
599.04	1154.82
599.39	1108.01
599.74	1108.48
600.09	1107.78
600.44	1101.92
600.78	1105.90
601.13	1100.99
601.48	1100.52
601.83	1092.56
602.18	1098.41
602.53	1096.54
602.88	1098.18
603.22	1097.24
603.57	1110.82
603.92	1113.39
604.27	1114.10
604.62	1111.99
604.97	1114.80
605.31	1113.86
605.66	1112.69
606.01	1115.27
606.36	1116.44
606.71	1117.84
607.05	1117.37
607.40	1113.16
607.75	1111.75
608.10	1110.82
608.44	1104.50
608.79	1110.82
609.14	1112.22
609.49	1107.07
609.84	1114.10
610.18	1122.75
610.53	1120.65
610.88	1111.05
611.23	1113.86
611.57	1107.78
611.92	1100.52
612.27	1089.99
612.62	1089.75
612.96	1080.86
613.31	1081.33
613.66	1078.99
614.00	1085.54
614.35	1094.43
614.70	1105.67
615.05	1103.80
615.39	1099.35
615.74	1084.14
616.09	1075.01
616.43	1083.20
616.78	1081.09
617.13	1095.37
617.47	1108.71
617.82	1114.80
618.17	1107.78
618.51	1113.39
618.86	1105.20
619.21	1100.75
619.55	1095.14
619.90	1088.35
620.25	1090.69
620.59	1087.88
620.94	1095.14
621.29	1100.05
621.63	1102.39
621.98	1099.82
622.32	1100.75
622.67	1096.07
623.02	1099.82
623.36	1096.54
623.71	1102.86
624.05	1110.58
624.40	1115.73
624.75	1114.33
625.09	1116.67
625.44	1103.80
625.78	1103.33
626.13	1092.09
626.48	1090.22
626.82	1074.31
627.17	1073.60
627.51	1065.18
627.86	1062.14
628.20	1056.75
628.55	1070.09
628.89	1070.09
629.24	1068.92
629.58	1075.24
629.93	1080.16
630.28	1077.11
630.62	1078.52
630.97	1080.16
631.31	1078.75
631.66	1071.03
632.00	1073.60
632.35	1079.92
632.69	1072.67
633.04	1066.82
633.38	1078.28
633.73	1081.09
634.07	1070.80
634.42	1077.35
634.76	1087.18
635.11	1085.07
635.45	1091.86
635.79	1097.95
636.14	1099.58
636.48	1094.90
636.83	1091.39
637.17	1075.94
637.52	1075.24
637.86	1068.45
638.21	1070.56
638.55	1079.92
638.89	1082.26
639.24	1079.22
639.58	1089.29
639.93	1092.80
640.27	1079.92
640.61	1082.73
640.96	1096.31
641.30	1093.73
641.65	1095.60
641.99	1105.90
642.33	1119.01
642.68	1113.86
643.02	1116.20
643.37	1104.73
643.71	1091.39
644.05	1085.31
644.40	1078.05
644.74	1078.52
645.08	1089.75
645.43	1098.88
645.77	1106.84
646.11	1110.82
646.46	1107.54
646.80	1097.71
647.14	1093.97
647.49	1084.60
647.83	1082.73
648.17	1080.86
648.52	1091.63
648.86	1090.22
649.20	1092.09
649.55	1094.20
649.89	1099.12
650.23	1098.41
650.57	1097.71
650.92	1095.14
651.26	1099.58
651.60	1096.78
651.95	1093.03
652.29	1100.29
652.63	1105.20
652.97	1100.05
653.32	1097.95
653.66	1105.44
654.00	1099.82
654.34	1091.63
654.69	1090.92
655.03	1098.41
655.37	1094.90
655.71	1087.65
656.05	1078.05
656.40	1076.88
656.74	1075.24
657.08	1067.28
657.42	1080.39
657.76	1093.73
658.11	1091.63
658.45	1091.39
658.79	1092.80
659.13	1077.58
659.47	1077.58
659.82	1076.88
660.16	1076.41
660.50	1080.39
660.84	1085.77
661.18	1090.46
661.52	1095.84
661.87	1083.20
662.21	1081.33
662.55	1081.09
662.89	1075.24
663.23	1080.86
663.57	1097.24
663.91	1101.46
664.25	1107.54
664.60	1116.20
664.94	1115.27
665.28	1108.01
665.62	1089.05
665.96	1090.69
666.30	1086.48
666.64	1081.33
666.98	1078.75
667.32	1094.90
667.66	1100.75
668.01	1092.56
668.35	1091.39
668.69	1106.37
669.03	1100.29
669.37	1089.99
669.71	1092.09
670.05	1095.60
670.39	1081.09
670.73	1090.22
671.07	1099.12
671.41	1104.97
671.75	1103.33
672.09	1108.24
672.43	1110.82
672.77	1105.20
673.11	1103.09
673.45	1088.58
673.79	1083.20
674.13	1075.71
674.47	1069.86
674.81	1069.39
675.15	1069.62
675.49	1067.52
675.83	1074.54
676.17	1081.09
676.51	1075.71
676.85	1080.86
677.19	1097.71
677.53	1085.54
677.87	1087.88
678.21	1104.50
678.55	1106.37
678.89	1083.67
679.23	1087.18
679.57	1081.80
679.90	1073.14
680.24	1067.99
680.58	1080.63
680.92	1075.24
681.26	1082.97
681.60	1078.99
681.94	1090.92
682.28	1089.29
682.62	1098.18
682.96	1093.26
683.29	1086.01
683.63	1084.37
683.97	1083.20
684.31	1084.84
684.65	1086.48
684.99	1091.39
685.33	1085.54
685.67	1089.05
686.00	1083.20
686.34	1088.35
686.68	1090.92
687.02	1101.92
687.36	1101.92
687.70	1107.78
688.03	1100.52
688.37	1093.73
688.71	1085.77
689.05	1083.67
689.39	1078.05
689.72	1075.71
690.06	1081.33
690.40	1078.05
690.74	1078.05
691.08	1078.28
691.41	1075.71
691.75	1071.03
692.09	1073.84
692.43	1072.20
692.76	1069.62
693.10	1074.07
693.44	1067.52
693.78	1070.33
694.11	1078.75
694.45	1077.82
694.79	1074.07
695.13	1081.33
695.46	1078.99
695.80	1069.39
696.14	1071.97
696.48	1081.56
696.81	1085.77
697.15	1089.29
697.49	1096.54
697.82	1097.71
698.16	1094.20
698.50	1094.67
698.83	1090.46
699.17	1081.80
699.51	1093.50
699.84	1089.52
700.18	1089.29
700.52	1095.14
700.85	1102.39
701.19	1088.35
701.53	1092.56
701.86	1093.26
702.20	1092.33
702.54	1093.73
702.87	1089.75
703.21	1075.94
703.55	1083.43
703.88	1077.82
704.22	1080.16
704.55	1097.24
704.89	1111.52
705.23	1102.86
705.56	1101.69
705.90	1102.63
706.23	1094.90
706.57	1091.16
706.91	1085.31
707.24	1096.07
707.58	1084.84
707.91	1087.88
708.25	1090.22
708.58	1098.88
708.92	1084.37
709.26	1086.94
709.59	1084.84
709.93	1088.58
710.26	1076.18
710.60	1086.48
710.93	1084.37
711.27	1080.16
711.60	1075.01
711.94	1081.80
712.27	1076.18
712.61	1086.48
712.94	1086.01
713.28	1088.82
713.61	1096.54
713.95	1100.52
714.28	1092.09
714.62	1096.07
714.95	1091.86
715.29	1085.07
715.62	1087.18
715.96	1085.07
716.29	1091.86
716.63	1088.82
716.96	1093.26
717.29	1093.97
717.63	1097.95
717.96	1084.84
718.30	1077.58
718.63	1071.73
718.97	1080.86
719.30	1079.92
719.63	1080.63
719.97	1091.63
720.30	1093.50
720.64	1084.14
720.97	1083.43
721.30	1086.71
721.64	1084.84
721.97	1085.07
722.31	1081.56
722.64	1086.01
722.97	1083.90
723.31	1098.41
723.64	1109.65
723.97	1106.61
724.31	1112.22
724.64	1121.58
724.98	1116.90
725.31	1101.92
725.64	1095.84
725.98	1090.46
726.31	1082.73
726.64	1074.54
726.97	1081.09
727.31	1098.18
727.64	1092.56
727.97	1094.67
728.31	1085.07
728.64	1076.41
728.97	1066.11
729.31	1063.54
729.64	1066.58
729.97	1077.82
730.30	1084.14
730.64	1093.03
730.97	1097.24
731.30	1098.18
731.63	1093.97
731.97	1103.80
732.30	1099.35
732.63	1093.50
732.96	1079.92
733.30	1082.03
733.63	1067.28
733.96	1058.16
734.29	1062.84
734.63	1070.09
734.96	1071.73
735.29	1074.77
735.62	1076.18
735.95	1067.28
736.29	1065.41
736.62	1062.60
736.95	1058.86
737.28	1065.65
737.61	1076.41
737.94	1082.26
738.28	1075.24
738.61	1080.86
738.94	1083.43
739.27	1078.99
739.60	1076.41
739.93	1088.82
740.27	1088.58
740.60	1079.22
740.93	1080.39
741.26	1085.07
741.59	1082.26
741.92	1085.54
742.25	1092.09
742.58	1099.12
742.91	1092.56
743.25	1095.37
743.58	1085.54
743.91	1093.26
744.24	1086.01
744.57	1090.69
744.90	1082.97
745.23	1094.90
745.56	1076.88
745.89	1073.37
746.22	1069.86
746.55	1076.65
746.88	1065.88
747.21	1071.73
747.54	1076.41
747.87	1080.16
748.20	1086.94
748.53	1087.41
748.87	1083.90
749.20	1082.97
749.53	1086.71
749.86	1072.67
750.19	1077.58
750.52	1081.33
750.85	1078.28
751.18	1073.84
751.51	1074.07
751.84	1076.18
752.16	1071.73
752.49	1074.31
752.82	1071.50
753.15	1070.56
753.48	1065.18
753.81	1080.39
754.14	1085.31
754.47	1090.92
754.80	1089.05
755.13	1085.07
755.46	1076.41
755.79	1066.11
756.12	1060.03
756.45	1058.86
756.78	1066.11
757.11	1065.41
757.43	1070.80
757.76	1069.16
758.09	1071.97
758.42	1067.05
758.75	1072.20
759.08	1073.37
759.41	1066.35
759.74	1070.33
760.07	1071.73
760.39	1069.39
760.72	1069.39
761.05	1081.56
761.38	1076.88
761.71	1074.77
762.04	1068.92
762.36	1075.71
762.69	1071.26
763.02	1074.54
763.35	1076.18
763.68	1078.99
764.01	1071.97
764.33	1066.11
764.66	1068.45
764.99	1074.54
765.32	1081.80
765.65	1074.77
765.97	1087.41
766.30	1090.46
766.63	1093.50
766.96	1092.80
767.28	1099.82
767.61	1086.01
767.94	1080.16
768.27	1077.58
768.59	1083.20
768.92	1076.65
769.25	1078.75
769.58	1080.86
769.90	1080.86
770.23	1059.09
770.56	1069.62
770.89	1073.37
771.21	1069.39
771.54	1068.92
771.87	1082.97
772.19	1090.22
772.52	1088.12
772.85	1093.97
773.17	1092.09
773.50	1079.46
773.83	1079.22
774.15	1083.43
774.48	1081.09
774.81	1080.16
775.13	1097.71
775.46	1085.07
775.79	1079.22
776.11	1080.86
776.44	1083.43
776.77	1075.94
777.09	1071.03
777.42	1072.67
777.74	1066.11
778.07	1059.33
778.40	1051.84
778.72	1054.41
779.05	1056.28
779.37	1060.73
779.70	1067.52
780.03	1071.50
780.35	1080.86
780.68	1084.14
781.00	1074.31
781.33	1067.99
781.65	1068.92
781.98	1068.45
782.31	1058.39
782.63	1067.52
782.96	1070.56
783.28	1077.58
783.61	1073.14
783.93	1074.77
784.26	1083.20
784.58	1089.05
784.91	1086.24
785.23	1089.05
785.56	1093.73
785.88	1081.80
786.21	1070.09
786.53	1071.73
786.86	1074.54
787.18	1069.39
787.51	1067.99
787.83	1073.84
788.16	1067.75
788.48	1069.62
788.81	1075.01
789.13	1076.18
789.46	1084.14
789.78	1093.26
790.10	1086.94
790.43	1090.69
790.75	1098.41
791.08	1089.29
791.40	1087.18
791.73	1088.35
792.05	1088.12
792.37	1085.54
792.70	1097.01
793.02	1086.01
793.35	1089.99
793.67	1091.86
793.99	1086.48
794.32	1078.52
794.64	1081.80
794.96	1078.75
795.29	1074.07
795.61	1078.99
795.93	1079.46
796.26	1083.43
796.58	1075.01
796.91	1076.65
797.23	1078.52
797.55	1081.56
797.87	1077.11
798.20	1079.92
798.52	1078.28
798.84	1086.01
799.17	1076.41
799.49	1075.94
799.81	1080.39
800.14	1079.22
800.46	1076.18
800.78	1085.07
801.10	1094.67
801.43	1096.07
801.75	1095.84
802.07	1083.43
802.40	1087.41
802.72	1079.92
803.04	1073.84
803.36	1077.58
803.69	1086.48
804.01	1082.73
804.33	1086.94
804.65	1086.94
804.97	1086.01
805.30	1085.54
805.62	1085.07
805.94	1089.75
806.26	1091.39
806.58	1088.82
806.91	1088.58
807.23	1084.14
807.55	1077.58
807.87	1080.86
808.19	1083.90
808.52	1082.50
808.84	1083.90
809.16	1084.14
809.48	1091.39
809.80	1098.65
810.12	1093.03
810.44	1086.94
810.77	1085.31
811.09	1071.26
811.41	1058.39
811.73	1069.39
812.05	1074.07
812.37	1068.92
812.69	1069.16
813.01	1078.99
813.33	1068.22
813.66	1070.09
813.98	1080.63
814.30	1089.05
814.62	1084.14
814.94	1090.69
815.26	1086.24
815.58	1079.69
815.90	1079.46
816.22	1072.43
816.54	1064.71
816.86	1080.39
817.18	1086.24
817.50	1088.35
817.82	1094.43
818.14	1108.48
818.46	1094.90
818.78	1096.54
819.10	1092.33
819.42	1092.33
819.74	1071.03
820.06	1074.31
820.38	1069.62
820.70	1064.94
821.02	1068.45
821.34	1080.16
821.66	1080.39
821.98	1086.01
822.30	1085.07
822.62	1088.12
822.94	1092.09
823.26	1087.88
823.58	1089.75
823.90	1102.86
824.22	1093.03
824.54	1086.01
824.86	1083.43
825.18	1075.01
825.50	1067.75
825.81	1074.31
826.13	1081.80
826.45	1088.35
826.77	1082.97
827.09	1067.52
827.41	1063.54
827.73	1063.31
828.05	1067.05
828.36	1075.01
828.68	1102.39
829.00	1094.67
829.32	1087.18
829.64	1081.09
829.96	1076.65
830.28	1063.07
830.59	1078.52
830.91	1081.09
831.23	1086.48
831.55	1090.69
831.87	1088.58
832.19	1077.82
832.50	1078.75
832.82	1065.65
833.14	1068.69
833.46	1076.65
833.78	1080.16
834.09	1080.39
834.41	1090.22
834.73	1089.52
835.05	1081.80
835.36	1083.67
835.68	1086.71
836.00	1080.63
836.32	1080.16
836.63	1080.39
836.95	1076.41
837.27	1072.43
837.59	1075.24
837.90	1071.73
838.22	1075.94
838.54	1078.05
838.85	1078.05
839.17	1085.77
839.49	1085.07
839.80	1080.63
840.12	1081.33
840.44	1078.28
840.76	1066.35
841.07	1057.69
841.39	1057.69
841.71	1052.30
842.02	1053.24
842.34	1051.60
842.65	1048.56
842.97	1051.13
843.29	1058.86
843.60	1060.50
843.92	1061.90
844.24	1079.22
844.55	1080.39
844.87	1084.37
845.18	1081.33
845.50	1092.09
845.82	1081.56
846.13	1076.41
846.45	1077.58
846.76	1085.77
847.08	1082.97
847.40	1090.22
847.71	1088.58
848.03	1075.71
848.34	1072.43
848.66	1072.90
848.97	1069.16
849.29	1073.84
849.60	1087.41
849.92	1087.18
850.24	1083.90
850.55	1083.67
850.87	1085.07
851.18	1083.20
851.50	1079.46
851.81	1071.97
852.13	1081.56
852.44	1086.71
852.76	1082.50
853.07	1084.37
853.39	1086.48
853.70	1075.24
854.01	1078.52
854.33	1070.56
854.64	1069.39
854.96	1076.41
855.27	1078.28
855.59	1064.24
855.90	1065.88
856.22	1065.65
856.53	1067.75
856.84	1070.56
857.16	1070.80
857.47	1073.14
857.79	1073.14
858.10	1082.97
858.41	1086.48
858.73	1099.58
859.04	1093.26
859.36	1090.69
859.67	1083.43
859.98	1073.60
860.30	1060.50
860.61	1066.11
860.92	1077.35
861.24	1080.63
861.55	1086.71
861.87	1093.97
862.18	1105.20
862.49	1100.05
862.81	1092.09
863.12	1090.69
863.43	1084.84
863.74	1082.03
864.06	1089.29
864.37	1099.82
864.68	1106.84
865.00	1106.61
865.31	1104.97
865.62	1097.24
865.94	1093.97
866.25	1092.33
866.56	1089.29
866.87	1086.48
867.19	1090.46
867.50	1083.90
867.81	1079.92
868.12	1081.09
868.44	1084.60
868.75	1089.99
869.06	1076.65
869.37	1081.56
869.68	1093.97
870.00	1082.03
870.31	1077.58
870.62	1092.80
870.93	1082.97
871.24	1085.07
871.56	1093.03
871.87	1087.88
872.18	1089.99
872.49	1092.80
872.80	1080.63
873.12	1071.26
873.43	1069.16
873.74	1067.28
874.05	1067.05
874.36	1059.33
874.67	1071.97
874.98	1079.22
875.29	1086.01
875.61	1092.56
875.92	1100.05
876.23	1099.12
876.54	1096.07
876.85	1086.94
877.16	1073.14
877.47	1078.28
877.78	1069.62
878.09	1072.90
878.40	1075.48
878.72	1080.16
879.03	1082.97
879.34	1083.43
879.65	1081.09
879.96	1081.56
880.27	1077.82
880.58	1070.09
880.89	1065.88
881.20	1062.60
881.51	1061.43
881.82	1072.20
882.13	1082.26
882.44	1082.50
882.75	1074.07
883.06	1071.50
883.37	1076.65
883.68	1077.11
883.99	1080.16
884.30	1088.58
884.61	1083.20
884.92	1086.24
885.23	1082.50
885.54	1080.16
885.85	1086.48
886.16	1089.75
886.47	1084.14
886.78	1086.01
887.08	1101.92
887.39	1094.43
887.70	1091.16
888.01	1085.31
888.32	1081.09
888.63	1071.03
888.94	1071.50
889.25	1072.90
889.56	1075.24
889.87	1078.05
890.17	1085.07
890.48	1080.39
890.79	1077.58
891.10	1069.62
891.41	1068.92
891.72	1071.97
892.03	1077.58
892.34	1090.92
892.64	1100.05
892.95	1095.84
893.26	1092.09
893.57	1097.48
893.88	1091.39
894.18	1084.37
894.49	1097.24
894.80	1094.90
895.11	1087.88
895.42	1090.22
895.72	1085.77
896.03	1064.94
896.34	1059.79
896.65	1055.82
896.96	1052.07
897.26	1065.65
897.57	1078.99
897.88	1079.46
898.19	1080.63
898.49	1076.18
898.80	1074.54
899.11	1074.31
899.41	1078.75
899.72	1087.18
900.03	1086.24
900.34	1082.03
900.64	1074.31
900.95	1077.58
901.26	1074.31
901.56	1079.69
901.87	1085.07
902.18	1093.73
902.48	1090.46
902.79	1094.90
903.10	1091.16
903.40	1084.14
903.71	1074.07
904.02	1065.88
904.32	1063.07
904.63	1062.84
904.94	1059.79
905.24	1057.69
905.55	1062.60
905.85	1060.96
906.16	1063.77
906.47	1070.80
906.77	1079.69
907.08	1089.05
907.38	1094.90
907.69	1093.50
908.00	1084.84
908.30	1085.54
908.61	1080.39
908.91	1078.28
909.22	1085.31
909.52	1093.97
909.83	1084.84
910.14	1083.20
910.44	1078.75
910.75	1075.94
911.05	1078.05
911.36	1073.60
911.66	1074.31
911.97	1067.28
912.27	1073.84
912.58	1073.14
912.88	1077.82
913.19	1076.18
913.49	1080.86
913.80	1073.60
914.10	1072.90
914.41	1078.05
914.71	1078.28
915.01	1088.35
915.32	1083.43
915.62	1082.26
915.93	1079.92
916.23	1082.50
916.54	1079.69
916.84	1091.16
917.15	1079.92
917.45	1081.33
917.75	1077.58
918.06	1073.37
918.36	1068.69
918.67	1084.37
918.97	1085.07
919.27	1086.24
919.58	1091.63
919.88	1093.73
920.18	1091.39
920.49	1097.24
920.79	1102.39
921.10	1101.46
921.40	1100.99
921.70	1087.18
922.01	1085.54
922.31	1083.43
922.61	1074.54
922.92	1066.82
923.22	1077.35
923.52	1075.48
923.82	1078.05
924.13	1084.14
924.43	1096.78
924.73	1091.86
925.04	1081.56
925.34	1081.09
925.64	1079.92
925.94	1076.65
926.25	1079.22
926.55	1092.33
926.85	1091.39
927.15	1083.43
927.46	1075.94
927.76	1076.18
928.06	1067.05
928.36	1052.07
928.67	1058.86
928.97	1055.82
929.27	1058.62
929.57	1060.73
929.87	1072.67
930.18	1072.43
930.48	1078.05
930.78	1085.54
931.08	1092.09
931.38	1091.63
931.69	1089.75
931.99	1083.67
932.29	1078.52
932.59	1075.01
932.89	1072.67
933.19	1087.41
933.49	1086.71
933.80	1085.54
934.10	1092.56
934.40	1095.14
934.70	1083.43
935.00	1086.94
935.30	1086.71
935.60	1082.50
935.90	1078.28
936.20	1078.52
936.50	1085.07
936.81	1090.46
937.11	1090.22
937.41	1090.92
937.71	1088.35
938.01	1080.86
938.31	1076.65
938.61	1073.60
938.91	1080.39
939.21	1090.46
939.51	1090.92
939.81	1082.03
940.11	1084.60
940.41	1077.35
940.71	1078.75
941.01	1086.71
941.31	1089.29
941.61	1093.73
941.91	1108.24
942.21	1092.80
942.51	1098.41
942.81	1104.03
943.11	1089.29
943.41	1083.20
943.71	1092.33
944.01	1073.84
944.31	1071.03
944.61	1082.03
944.90	1066.82
945.20	1067.52
945.50	1075.94
945.80	1072.43
946.10	1062.14
946.40	1070.56
946.70	1068.69
947.00	1064.24
947.30	1064.71
947.60	1077.11
947.89	1073.37
948.19	1072.20
948.49	1074.07
948.79	1075.94
949.09	1065.88
949.39	1054.41
949.69	1050.43
949.98	1051.84
950.28	1061.67
950.58	1069.86
950.88	1079.92
951.18	1081.09
951.48	1078.28
951.77	1071.26
952.07	1059.09
952.37	1071.97
952.67	1078.52
952.97	1089.29
953.26	1089.99
953.56	1104.50
953.86	1099.12
954.16	1101.69
954.45	1097.01
954.75	1097.24
955.05	1099.58
955.35	1099.58
955.64	1101.22
955.94	1100.29
956.24	1103.56
956.54	1089.05
956.83	1092.80
957.13	1082.50
957.43	1087.41
957.72	1084.84
958.02	1091.63
958.32	1084.14
958.61	1090.46
958.91	1082.03
959.21	1075.24
959.50	1070.56
959.80	1082.03
960.10	1075.48
960.39	1078.75
960.69	1086.48
960.99	1088.82
961.28	1079.92
961.58	1080.86
961.87	1075.01
962.17	1069.62
962.47	1064.24
962.76	1066.11
963.06	1064.48
963.36	1064.94
963.65	1065.41
963.95	1071.73
964.24	1070.80
964.54	1075.48
964.83	1071.26
965.13	1074.77
965.42	1069.62
965.72	1070.56
966.02	1075.71
966.31	1079.92
966.61	1081.80
966.90	1087.41
967.20	1087.18
967.49	1091.63
967.79	1095.14
968.08	1086.71
968.38	1096.07
968.67	1095.37
968.97	1089.29
969.26	1091.63
969.56	1097.24
969.85	1085.07
970.15	1080.86
970.44	1076.88
970.74	1078.52
971.03	1085.54
971.32	1088.82
971.62	1095.14
971.91	1091.63
972.21	1088.82
972.50	1082.26
972.80	1075.71
973.09	1079.22
973.38	1079.69
973.68	1081.33
973.97	1072.20
974.27	1079.22
974.56	1075.71
974.85	1076.65
975.15	1078.28
975.44	1084.14
975.73	1077.11
976.03	1066.58
976.32	1062.37
976.61	1058.62
976.91	1063.54
977.20	1070.56
977.49	1086.24
977.79	1095.60
978.08	1090.22
978.37	1084.60
978.67	1082.73
978.96	1077.11
979.25	1068.92
979.55	1074.31
979.84	1074.31
980.13	1077.11
980.42	1065.65
980.72	1075.01
981.01	1080.86
981.30	1082.03
981.59	1074.31
981.89	1085.07
982.18	1072.67
982.47	1070.56
982.76	1072.20
983.06	1083.90
983.35	1083.67
983.64	1094.20
983.93	1090.22
984.22	1092.56
984.52	1093.26
984.81	1083.67
985.10	1077.82
985.39	1079.22
985.68	1068.45
985.97	1056.28
986.27	1070.09
986.56	1067.99
986.85	1072.43
987.14	1082.26
987.43	1091.39
987.72	1088.12
988.01	1088.58
988.31	1078.99
988.60	1082.26
988.89	1079.46
989.18	1079.22
989.47	1076.65
989.76	1072.20
990.05	1071.97
990.34	1076.18
990.63	1067.99
990.92	1076.65
991.21	1083.90
991.51	1089.05
991.80	1082.03
992.09	1092.09
992.38	1084.60
992.67	1081.80
992.96	1061.90
993.25	1057.92
993.54	1047.39
993.83	1062.37
994.12	1079.46
994.41	1092.80
994.70	1112.22
994.99	1119.24
995.28	1107.54
995.57	1093.73
995.86	1087.41
996.15	1071.03
996.44	1071.97
996.73	1077.58
997.02	1089.05
997.31	1091.39
997.59	1093.50
997.88	1090.46
998.17	1085.54
998.46	1076.18
998.75	1074.07
999.04	1073.84
999.33	1075.48
999.62	1073.37
999.91	1078.75
1000.20	1074.31
1000.49	1084.14
1000.77	1088.58
1001.06	1094.90
1001.35	1079.46
1001.64	1096.78
1001.93	1094.20
1002.22	1089.52
1002.51	1079.69
1002.79	1092.33
1003.08	1088.58
1003.37	1081.80
1003.66	1078.52
1003.95	1071.03
1004.23	1068.69
1004.52	1058.62
1004.81	1056.05
1005.10	1056.28
1005.39	1070.33
1005.67	1063.77
1005.96	1059.79
1006.25	1065.65
1006.54	1071.50
1006.83	1068.45
1007.11	1071.73
1007.40	1079.92
1007.69	1082.03
1007.97	1082.26
1008.26	1086.71
1008.55	1091.63
1008.84	1088.82
1009.12	1079.92
1009.41	1064.48
1009.70	1067.28
1009.98	1069.62
1010.27	1077.58
1010.56	1083.67
1010.85	1092.56
1011.13	1092.56
1011.42	1086.48
1011.71	1078.99
1011.99	1067.75
1012.28	1069.16
1012.56	1066.35
1012.85	1064.71
1013.14	1070.33
1013.42	1087.88
1013.71	1093.26
1014.00	1085.54
1014.28	1085.07
1014.57	1082.26
1014.85	1084.14
1015.14	1075.48
1015.43	1084.84
1015.71	1086.71
1016.00	1089.29
1016.28	1087.18
1016.57	1096.31
1016.85	1093.73
1017.14	1089.75
1017.43	1085.77
1017.71	1079.22
1018.00	1074.07
1018.28	1065.65
1018.57	1065.18
1018.85	1068.92
1019.14	1069.16
1019.42	1070.33
1019.71	1078.99
1019.99	1083.20
1020.28	1082.03
1020.56	1077.58
1020.85	1078.99
1021.13	1072.90
1021.42	1070.80
1021.70	1067.05
1021.99	1072.20
1022.27	1066.58
1022.55	1090.69
1022.84	1055.58
>>>>>End Processed Spectral Data<<<<<
