SpectraSuite Data File
++++++++++++++++++++++++++++++++++++
Date: Mon Aug 26 10:24:41 PDT 2019
User: corrico
Dark Spectrum Present: No
Reference Spectrum Present: No
Number of Sampled Component Spectra: 1
Spectrometers: USB2+H06089
Integration Time (usec): 10000 (USB2+H06089)
Spectra Averaged: 2 (USB2+H06089)
Boxcar Smoothing: 2 (USB2+H06089)
Correct for Electrical Dark: No (USB2+H06089)
Strobe/Lamp Enabled: No (USB2+H06089)
Correct for Detector Non-linearity: No (USB2+H06089)
Correct for Stray Light: No (USB2+H06089)
Number of Pixels in Processed Spectrum: 2048
>>>>>Begin Processed Spectral Data<<<<<
339.70	1019.30
340.07	1019.30
340.45	994.26
340.82	979.75
341.19	960.09
341.57	941.83
341.94	927.79
342.31	910.47
342.69	902.74
343.06	891.51
343.43	889.17
343.81	888.70
344.18	905.32
344.55	911.40
344.93	919.60
345.30	919.83
345.67	922.17
346.04	930.36
346.42	935.28
346.79	952.60
347.16	961.02
347.54	966.41
347.91	973.19
348.28	982.79
348.65	989.34
349.03	999.64
349.40	1018.37
349.77	1030.30
350.14	1040.37
350.52	1049.73
350.89	1052.54
351.26	1049.73
351.63	1056.99
352.01	1057.92
352.38	1062.37
352.75	1076.41
353.12	1086.48
353.50	1086.71
353.87	1085.77
354.24	1075.94
354.61	1068.22
354.98	1073.60
355.36	1072.90
355.73	1083.90
356.10	1089.99
356.47	1093.73
356.84	1089.99
357.22	1096.54
357.59	1102.86
357.96	1121.35
358.33	1127.90
358.70	1134.69
359.08	1132.59
359.45	1123.93
359.82	1120.41
360.19	1116.90
360.56	1111.29
360.94	1111.52
361.31	1109.88
361.68	1104.26
362.05	1106.61
362.42	1109.18
362.79	1100.99
363.16	1091.16
363.54	1088.82
363.91	1097.48
364.28	1090.46
364.65	1090.69
365.02	1102.39
365.39	1104.03
365.76	1091.86
366.14	1100.29
366.51	1103.33
366.88	1097.01
367.25	1105.90
367.62	1101.92
367.99	1100.52
368.36	1100.99
368.73	1098.41
369.10	1088.82
369.48	1096.78
369.85	1101.46
370.22	1100.52
370.59	1108.01
370.96	1100.99
371.33	1097.95
371.70	1100.99
372.07	1109.65
372.44	1104.73
372.81	1107.54
373.18	1115.03
373.55	1110.35
373.93	1097.71
374.30	1108.71
374.67	1108.24
375.04	1099.58
375.41	1097.71
375.78	1095.14
376.15	1095.84
376.52	1092.56
376.89	1091.16
377.26	1094.90
377.63	1103.33
378.00	1101.92
378.37	1106.14
378.74	1111.05
379.11	1104.50
379.48	1111.29
379.85	1102.16
380.22	1097.24
380.59	1095.60
380.96	1102.86
381.33	1096.78
381.70	1099.82
382.07	1111.99
382.44	1115.50
382.81	1115.73
383.18	1124.63
383.55	1125.10
383.92	1116.90
384.29	1106.14
384.66	1091.86
385.03	1092.56
385.40	1097.24
385.77	1104.26
386.14	1109.18
386.51	1115.73
386.88	1098.18
387.25	1100.05
387.62	1109.88
387.99	1122.75
388.36	1130.48
388.73	1152.48
389.10	1149.91
389.46	1143.35
389.83	1140.31
390.20	1137.03
390.57	1125.80
390.94	1120.65
391.31	1117.84
391.68	1113.63
392.05	1119.71
392.42	1122.05
392.79	1125.80
393.16	1130.71
393.53	1140.07
393.89	1129.54
394.26	1139.84
394.63	1152.01
395.00	1138.90
395.37	1134.93
395.74	1147.56
396.11	1141.01
396.48	1136.80
396.84	1148.73
397.21	1148.97
397.58	1151.78
397.95	1156.22
398.32	1161.14
398.69	1164.18
399.06	1176.59
399.42	1173.54
399.79	1177.99
400.16	1179.63
400.53	1179.63
400.90	1183.84
401.27	1194.38
401.64	1192.50
402.00	1199.52
402.37	1218.01
402.74	1223.40
403.11	1238.38
403.48	1248.91
403.84	1263.19
404.21	1270.91
404.58	1284.95
404.95	1289.64
405.32	1321.00
405.68	1330.36
406.05	1349.32
406.42	1372.72
406.79	1403.15
407.16	1420.47
407.52	1460.96
407.89	1490.92
408.26	1530.71
408.63	1563.24
408.99	1606.31
409.36	1639.55
409.73	1684.25
410.10	1718.42
410.47	1764.30
410.83	1823.28
411.20	1872.66
411.57	1924.39
411.94	1986.18
412.30	2053.12
412.67	2122.63
413.04	2221.64
413.40	2335.39
413.77	2452.88
414.14	2581.84
414.51	2708.70
414.87	2845.62
415.24	2988.86
415.61	3130.47
415.97	3275.11
416.34	3452.76
416.71	3630.40
417.08	3832.63
417.44	4008.87
417.81	4255.56
418.18	4466.91
418.54	4699.80
418.91	4953.74
419.28	5270.42
419.64	5532.79
420.01	5844.08
420.38	6187.44
420.74	6531.97
421.11	6905.52
421.48	7313.94
421.84	7740.15
422.21	8172.45
422.58	8646.41
422.94	9114.98
423.31	9617.96
423.68	10206.84
424.04	10816.55
424.41	11430.71
424.77	12086.29
425.14	12721.51
425.51	13344.56
425.87	14066.15
426.24	14781.89
426.61	15630.57
426.97	16658.06
427.34	17649.04
427.70	18661.33
428.07	19685.54
428.44	20729.89
428.80	21697.47
429.17	22689.62
429.53	23704.24
429.90	24880.60
430.27	25964.50
430.63	27088.42
431.00	28394.44
431.36	29789.87
431.73	31006.25
432.09	32294.48
432.46	33504.07
432.83	34761.64
433.19	35913.65
433.56	37429.61
433.92	39037.33
434.29	40597.76
434.65	42035.09
435.02	43424.90
435.38	44646.89
435.75	45389.07
436.11	46659.75
436.48	47774.78
436.84	48865.00
437.21	49800.05
437.57	50871.54
437.94	51453.17
438.30	52018.17
438.67	52235.14
439.03	52291.08
439.40	52424.49
439.76	52241.46
440.13	52003.89
440.49	52014.90
440.86	51699.16
441.22	51314.61
441.59	50797.82
441.95	50239.37
442.32	49266.87
442.68	48604.27
443.05	47595.96
443.41	46722.71
443.78	45580.06
444.14	44577.84
444.51	43302.72
444.87	42348.48
445.24	41054.40
445.60	39918.07
445.96	38780.10
446.33	37937.74
446.69	36800.01
447.06	35981.52
447.42	35029.63
447.79	33949.94
448.15	32840.06
448.51	31848.14
448.88	30969.73
449.24	30001.92
449.61	29397.13
449.97	28704.56
450.33	27953.49
450.70	27074.15
451.06	26496.27
451.43	25711.49
451.79	25072.52
452.15	24566.26
452.52	24062.58
452.88	23425.02
453.24	22888.10
453.61	22294.77
453.97	21647.15
454.34	21003.50
454.70	20522.99
455.06	19939.49
455.43	19281.80
455.79	18570.04
456.15	18030.32
456.52	17339.39
456.88	16780.00
457.24	16181.29
457.61	15723.95
457.97	15173.46
458.33	14635.84
458.70	14084.17
459.06	13561.53
459.42	13100.21
459.79	12603.32
460.15	12230.24
460.51	11809.17
460.88	11447.09
461.24	11027.90
461.60	10671.20
461.96	10306.08
462.33	9969.04
462.69	9651.90
463.05	9378.53
463.42	9116.85
463.78	8845.82
464.14	8594.92
464.50	8343.07
464.87	8059.63
465.23	7814.11
465.59	7574.91
465.95	7375.50
466.32	7170.00
466.68	6999.61
467.04	6804.87
467.40	6631.44
467.77	6428.75
468.13	6252.04
468.49	6081.88
468.85	5940.51
469.22	5796.34
469.58	5685.40
469.94	5573.05
470.30	5462.58
470.66	5362.87
471.03	5245.61
471.39	5134.20
471.75	5013.19
472.11	4901.78
472.47	4788.03
472.84	4703.31
473.20	4593.54
473.56	4502.02
473.92	4403.48
474.28	4318.05
474.65	4215.30
475.01	4145.32
475.37	4086.58
475.73	4019.64
476.09	3921.57
476.45	3847.37
476.81	3752.35
477.18	3644.92
477.54	3566.74
477.90	3507.29
478.26	3424.20
478.62	3377.16
478.98	3338.54
479.34	3282.13
479.71	3246.56
480.07	3226.66
480.43	3192.72
480.79	3126.25
481.15	3086.46
481.51	3021.16
481.87	2965.69
482.23	2906.95
482.59	2859.20
482.96	2822.22
483.32	2795.30
483.68	2757.85
484.04	2730.70
484.40	2705.19
484.76	2643.40
485.12	2608.76
485.48	2568.97
485.84	2508.12
486.20	2469.27
486.56	2443.75
486.92	2386.41
487.28	2354.81
487.64	2320.17
488.00	2283.19
488.37	2248.32
488.73	2233.81
489.09	2172.25
489.45	2159.61
489.81	2129.19
490.17	2088.93
490.53	2056.39
490.89	2055.46
491.25	2023.16
491.61	2011.46
491.97	2000.46
492.33	1977.99
492.69	1946.16
493.05	1922.05
493.41	1876.41
493.77	1854.64
494.13	1831.94
494.49	1818.36
494.85	1794.72
495.21	1788.17
495.57	1759.61
495.93	1745.57
496.29	1721.93
496.64	1699.93
497.00	1680.97
497.36	1663.18
497.72	1636.03
498.08	1625.97
498.44	1618.48
498.80	1599.05
499.16	1589.22
499.52	1576.58
499.88	1558.33
500.24	1541.24
500.60	1532.82
500.96	1520.41
501.32	1505.67
501.68	1495.37
502.03	1478.98
502.39	1467.28
502.75	1456.98
503.11	1443.41
503.47	1432.41
503.83	1434.28
504.19	1420.94
504.55	1416.49
504.91	1413.92
505.26	1400.11
505.62	1390.04
505.98	1365.94
506.34	1350.49
506.70	1345.81
507.06	1331.06
507.42	1316.32
507.78	1319.36
508.13	1313.04
508.49	1302.51
508.85	1301.81
509.21	1299.23
509.57	1312.10
509.93	1302.27
510.28	1291.51
510.64	1296.19
511.00	1301.57
511.36	1277.46
511.72	1271.61
512.07	1275.36
512.43	1271.85
512.79	1249.85
513.15	1260.61
513.51	1263.19
513.86	1267.17
514.22	1261.31
514.58	1253.36
514.94	1248.21
515.30	1245.63
515.65	1232.76
516.01	1230.42
516.37	1233.23
516.73	1225.97
517.08	1219.89
517.44	1214.04
517.80	1211.23
518.16	1216.84
518.51	1214.50
518.87	1207.95
519.23	1210.53
519.59	1207.72
519.94	1203.04
520.30	1200.46
520.66	1213.33
521.01	1206.31
521.37	1209.82
521.73	1201.63
522.09	1199.29
522.44	1182.20
522.80	1182.20
523.16	1166.52
523.51	1175.42
523.87	1170.74
524.23	1171.20
524.58	1165.12
524.94	1173.78
525.30	1176.59
525.65	1179.86
526.01	1174.25
526.37	1167.69
526.72	1155.52
527.08	1145.69
527.44	1142.88
527.79	1131.18
528.15	1136.80
528.51	1138.90
528.86	1136.80
529.22	1138.90
529.58	1148.50
529.93	1147.56
530.29	1147.33
530.65	1144.99
531.00	1134.69
531.36	1128.37
531.71	1130.48
532.07	1126.03
532.43	1122.99
532.78	1132.59
533.14	1135.86
533.49	1134.93
533.85	1143.35
534.21	1145.93
534.56	1141.25
534.92	1148.97
535.27	1150.84
535.63	1141.25
535.98	1135.63
536.34	1141.25
536.69	1155.05
537.05	1155.29
537.41	1163.25
537.76	1168.63
538.12	1159.50
538.47	1141.95
538.83	1135.86
539.18	1133.05
539.54	1132.35
539.89	1135.86
540.25	1139.61
540.60	1132.82
540.96	1138.90
541.31	1137.50
541.67	1129.54
542.02	1134.22
542.38	1139.14
542.73	1131.41
543.09	1130.24
543.44	1135.39
543.80	1128.37
544.15	1135.63
544.51	1132.35
544.86	1138.67
545.22	1137.03
545.57	1136.80
545.93	1130.01
546.28	1130.71
546.64	1129.07
546.99	1125.10
547.35	1122.52
547.70	1122.29
548.05	1133.52
548.41	1121.82
548.76	1122.29
549.12	1114.56
549.47	1122.05
549.83	1115.50
550.18	1117.84
550.53	1127.44
550.89	1130.95
551.24	1122.05
551.60	1113.16
551.95	1122.52
552.30	1120.18
552.66	1130.48
553.01	1131.88
553.37	1137.73
553.72	1131.41
554.07	1121.58
554.43	1118.07
554.78	1113.39
555.13	1111.05
555.49	1107.07
555.84	1113.63
556.19	1107.31
556.55	1104.03
556.90	1094.67
557.26	1097.71
557.61	1093.97
557.96	1099.35
558.32	1114.33
558.67	1124.86
559.02	1122.05
559.37	1123.46
559.73	1124.39
560.08	1112.69
560.43	1108.01
560.79	1106.37
561.14	1113.63
561.49	1100.75
561.85	1102.39
562.20	1103.80
562.55	1100.99
562.90	1097.01
563.26	1103.56
563.61	1105.67
563.96	1106.14
564.32	1117.14
564.67	1120.18
565.02	1125.56
565.37	1119.24
565.73	1117.14
566.08	1119.71
566.43	1110.58
566.78	1104.73
567.14	1104.50
567.49	1110.82
567.84	1104.73
568.19	1108.01
568.54	1105.44
568.90	1116.44
569.25	1114.56
569.60	1122.75
569.95	1122.52
570.31	1133.52
570.66	1126.27
571.01	1124.63
571.36	1119.95
571.71	1114.10
572.06	1101.69
572.42	1106.14
572.77	1101.46
573.12	1100.75
573.47	1107.07
573.82	1109.65
574.18	1107.31
574.53	1109.41
574.88	1103.33
575.23	1098.18
575.58	1101.92
575.93	1099.35
576.28	1102.86
576.64	1113.63
576.99	1121.35
577.34	1117.37
577.69	1130.95
578.04	1131.41
578.39	1121.12
578.74	1113.63
579.09	1113.16
579.44	1102.86
579.80	1098.18
580.15	1096.78
580.50	1100.29
580.85	1108.71
581.20	1100.52
581.55	1098.88
581.90	1102.16
582.25	1095.60
582.60	1087.65
582.95	1092.56
583.30	1101.46
583.65	1106.14
584.00	1113.39
584.35	1122.05
584.71	1116.44
585.06	1102.39
585.41	1098.88
585.76	1098.18
586.11	1088.12
586.46	1093.03
586.81	1099.35
587.16	1091.39
587.51	1089.75
587.86	1094.67
588.21	1094.20
588.56	1097.95
588.91	1101.46
589.26	1097.24
589.61	1097.24
589.96	1098.65
590.31	1096.78
590.66	1098.18
591.01	1106.61
591.36	1102.39
591.71	1107.07
592.06	1102.16
592.41	1097.95
592.76	1097.48
593.10	1097.95
593.45	1091.86
593.80	1096.54
594.15	1092.33
594.50	1088.58
594.85	1087.88
595.20	1090.69
595.55	1088.82
595.90	1100.05
596.25	1100.52
596.60	1106.84
596.95	1106.84
597.30	1109.65
597.64	1145.69
597.99	1147.56
598.34	1142.42
598.69	1138.67
599.04	1136.80
599.39	1098.88
599.74	1097.24
600.09	1105.90
600.44	1111.99
600.78	1107.31
601.13	1108.01
601.48	1100.52
601.83	1093.26
602.18	1092.09
602.53	1103.56
602.88	1101.22
603.22	1116.20
603.57	1115.27
603.92	1114.80
604.27	1104.97
604.62	1106.84
604.97	1105.67
605.31	1100.75
605.66	1102.63
606.01	1107.31
606.36	1102.63
606.71	1092.09
607.05	1097.95
607.40	1088.58
607.75	1092.09
608.10	1096.78
608.44	1098.41
608.79	1102.86
609.14	1114.33
609.49	1119.71
609.84	1118.54
610.18	1121.82
610.53	1111.99
610.88	1109.18
611.23	1100.52
611.57	1101.22
611.92	1102.39
612.27	1110.35
612.62	1103.33
612.96	1097.71
613.31	1099.12
613.66	1099.58
614.00	1096.78
614.35	1104.26
614.70	1107.31
615.05	1100.29
615.39	1097.71
615.74	1100.75
616.09	1095.14
616.43	1108.95
616.78	1115.50
617.13	1109.88
617.47	1105.67
617.82	1108.01
618.17	1096.31
618.51	1087.18
618.86	1097.24
619.21	1105.20
619.55	1107.07
619.90	1108.01
620.25	1110.58
620.59	1108.24
620.94	1107.31
621.29	1110.35
621.63	1109.65
621.98	1116.67
622.32	1108.71
622.67	1101.22
623.02	1098.41
623.36	1109.88
623.71	1107.07
624.05	1111.99
624.40	1115.27
624.75	1106.61
625.09	1092.80
625.44	1082.97
625.78	1076.41
626.13	1078.05
626.48	1086.48
626.82	1083.90
627.17	1096.78
627.51	1105.90
627.86	1099.58
628.20	1108.95
628.55	1107.78
628.89	1116.44
629.24	1114.80
629.58	1108.01
629.93	1091.86
630.28	1098.88
630.62	1081.56
630.97	1084.37
631.31	1087.18
631.66	1083.67
632.00	1084.14
632.35	1090.69
632.69	1083.90
633.04	1100.52
633.38	1106.61
633.73	1103.80
634.07	1098.65
634.42	1098.65
634.76	1092.56
635.11	1098.41
635.45	1095.60
635.79	1098.65
636.14	1093.97
636.48	1086.01
636.83	1082.03
637.17	1088.12
637.52	1095.37
637.86	1110.58
638.21	1107.07
638.55	1108.24
638.89	1098.41
639.24	1100.52
639.58	1089.52
639.93	1100.05
640.27	1103.80
640.61	1115.03
640.96	1114.56
641.30	1116.90
641.65	1119.71
641.99	1111.52
642.33	1109.88
642.68	1101.46
643.02	1105.44
643.37	1105.20
643.71	1111.52
644.05	1109.65
644.40	1108.95
644.74	1101.22
645.08	1103.33
645.43	1103.33
645.77	1103.56
646.11	1103.56
646.46	1112.69
646.80	1100.29
647.14	1099.12
647.49	1097.71
647.83	1092.09
648.17	1092.80
648.52	1091.39
648.86	1091.39
649.20	1091.16
649.55	1100.75
649.89	1093.97
650.23	1100.05
650.57	1097.48
650.92	1100.05
651.26	1104.03
651.60	1102.39
651.95	1098.65
652.29	1097.01
652.63	1095.84
652.97	1081.56
653.32	1082.03
653.66	1083.43
654.00	1076.88
654.34	1078.75
654.69	1082.03
655.03	1078.52
655.37	1074.77
655.71	1083.43
656.05	1081.56
656.40	1093.50
656.74	1096.54
657.08	1104.73
657.42	1106.14
657.76	1101.22
658.11	1097.71
658.45	1102.86
658.79	1103.09
659.13	1114.56
659.47	1124.63
659.82	1123.69
660.16	1109.88
660.50	1103.09
660.84	1096.54
661.18	1095.60
661.52	1097.71
661.87	1101.69
662.21	1106.14
662.55	1095.37
662.89	1085.54
663.23	1071.73
663.57	1071.97
663.91	1066.82
664.25	1071.97
664.60	1074.07
664.94	1079.22
665.28	1086.71
665.62	1097.01
665.96	1094.90
666.30	1103.09
666.64	1100.52
666.98	1101.92
667.32	1089.75
667.66	1085.54
668.01	1081.80
668.35	1085.77
668.69	1082.73
669.03	1090.46
669.37	1091.86
669.71	1079.22
670.05	1084.37
670.39	1091.86
670.73	1089.75
671.07	1094.67
671.41	1105.44
671.75	1093.26
672.09	1088.58
672.43	1093.26
672.77	1094.43
673.11	1100.75
673.45	1104.97
673.79	1102.86
674.13	1097.71
674.47	1101.92
674.81	1094.90
675.15	1095.37
675.49	1096.07
675.83	1104.03
676.17	1086.24
676.51	1078.05
676.85	1092.80
677.19	1093.03
677.53	1081.09
677.87	1088.35
678.21	1091.16
678.55	1083.90
678.89	1091.39
679.23	1091.86
679.57	1088.35
679.90	1085.07
680.24	1086.24
680.58	1078.28
680.92	1081.80
681.26	1089.75
681.60	1103.56
681.94	1097.48
682.28	1104.26
682.62	1094.43
682.96	1087.88
683.29	1085.77
683.63	1089.05
683.97	1079.92
684.31	1089.05
684.65	1100.29
684.99	1089.99
685.33	1088.82
685.67	1086.71
686.00	1097.48
686.34	1090.22
686.68	1099.12
687.02	1092.33
687.36	1102.39
687.70	1089.29
688.03	1082.97
688.37	1082.73
688.71	1082.73
689.05	1079.46
689.39	1080.63
689.72	1086.01
690.06	1084.84
690.40	1088.12
690.74	1097.95
691.08	1099.82
691.41	1097.95
691.75	1101.46
692.09	1101.46
692.43	1090.46
692.76	1080.16
693.10	1084.60
693.44	1079.22
693.78	1081.80
694.11	1089.75
694.45	1101.22
694.79	1108.95
695.13	1116.44
695.46	1120.41
695.80	1112.69
696.14	1104.26
696.48	1093.97
696.81	1089.05
697.15	1080.39
697.49	1073.14
697.82	1088.82
698.16	1086.01
698.50	1081.56
698.83	1076.88
699.17	1081.80
699.51	1075.01
699.84	1080.16
700.18	1093.97
700.52	1100.52
700.85	1104.26
701.19	1101.92
701.53	1104.03
701.86	1098.18
702.20	1093.50
702.54	1088.58
702.87	1088.12
703.21	1078.75
703.55	1074.07
703.88	1081.56
704.22	1086.71
704.55	1084.60
704.89	1094.43
705.23	1091.16
705.56	1092.09
705.90	1080.39
706.23	1085.07
706.57	1080.16
706.91	1069.16
707.24	1067.52
707.58	1085.77
707.91	1085.07
708.25	1089.05
708.58	1103.33
708.92	1104.50
709.26	1087.65
709.59	1081.56
709.93	1070.56
710.26	1069.62
710.60	1061.90
710.93	1068.22
711.27	1065.41
711.60	1072.67
711.94	1074.54
712.27	1079.92
712.61	1078.05
712.94	1078.28
713.28	1074.54
713.61	1072.20
713.95	1070.80
714.28	1075.24
714.62	1071.97
714.95	1073.60
715.29	1070.09
715.62	1078.75
715.96	1066.82
716.29	1080.63
716.63	1080.63
716.96	1081.09
717.29	1069.62
717.63	1069.86
717.96	1066.35
718.30	1069.62
718.63	1077.82
718.97	1079.69
719.30	1090.69
719.63	1086.48
719.97	1086.71
720.30	1079.69
720.64	1078.99
720.97	1071.97
721.30	1077.82
721.64	1076.41
721.97	1078.52
722.31	1082.97
722.64	1084.14
722.97	1087.18
723.31	1084.84
723.64	1077.58
723.97	1081.33
724.31	1094.67
724.64	1097.48
724.98	1100.29
725.31	1111.99
725.64	1095.84
725.98	1098.41
726.31	1093.26
726.64	1088.82
726.97	1081.09
727.31	1096.07
727.64	1085.07
727.97	1085.77
728.31	1092.80
728.64	1101.22
728.97	1104.03
729.31	1105.90
729.64	1097.95
729.97	1099.82
730.30	1090.92
730.64	1086.48
730.97	1078.05
731.30	1080.39
731.63	1074.77
731.97	1080.86
732.30	1077.11
732.63	1076.18
732.96	1079.92
733.30	1074.54
733.63	1075.48
733.96	1068.92
734.29	1070.80
734.63	1069.62
734.96	1068.92
735.29	1069.16
735.62	1079.46
735.95	1088.58
736.29	1084.60
736.62	1086.71
736.95	1076.88
737.28	1073.37
737.61	1070.56
737.94	1073.60
738.28	1080.86
738.61	1088.12
738.94	1083.20
739.27	1091.39
739.60	1089.75
739.93	1089.52
740.27	1094.43
740.60	1107.78
740.93	1100.05
741.26	1092.09
741.59	1084.37
741.92	1080.63
742.25	1080.86
742.58	1067.52
742.91	1082.26
743.25	1087.88
743.58	1085.31
743.91	1064.48
744.24	1063.07
744.57	1060.03
744.90	1053.01
745.23	1050.90
745.56	1057.69
745.89	1074.54
746.22	1077.82
746.55	1077.82
746.88	1081.09
747.21	1095.37
747.54	1092.56
747.87	1093.97
748.20	1102.16
748.53	1101.22
748.87	1090.46
749.20	1082.26
749.53	1086.24
749.86	1082.03
750.19	1078.28
750.52	1083.67
750.85	1094.90
751.18	1090.46
751.51	1094.43
751.84	1093.03
752.16	1076.65
752.49	1055.58
752.82	1060.03
753.15	1058.62
753.48	1067.75
753.81	1075.94
754.14	1087.65
754.47	1079.92
754.80	1075.48
755.13	1069.86
755.46	1081.09
755.79	1078.99
756.12	1082.73
756.45	1091.16
756.78	1090.22
757.11	1077.35
757.43	1088.12
757.76	1084.84
758.09	1080.39
758.42	1082.03
758.75	1082.73
759.08	1075.71
759.41	1074.31
759.74	1068.22
760.07	1070.09
760.39	1078.75
760.72	1086.71
761.05	1086.01
761.38	1097.48
761.71	1103.33
762.04	1099.58
762.36	1099.12
762.69	1094.67
763.02	1082.26
763.35	1071.50
763.68	1067.52
764.01	1064.48
764.33	1065.88
764.66	1068.92
764.99	1081.09
765.32	1084.84
765.65	1082.50
765.97	1086.71
766.30	1086.01
766.63	1075.01
766.96	1079.22
767.28	1071.03
767.61	1058.39
767.94	1056.05
768.27	1054.41
768.59	1047.62
768.92	1054.41
769.25	1064.01
769.58	1073.37
769.90	1077.58
770.23	1078.75
770.56	1075.71
770.89	1078.28
771.21	1067.75
771.54	1074.07
771.87	1074.77
772.19	1076.88
772.52	1084.37
772.85	1098.65
773.17	1092.09
773.50	1093.50
773.83	1097.95
774.15	1089.75
774.48	1091.63
774.81	1097.71
775.13	1093.26
775.46	1099.12
775.79	1096.78
776.11	1079.69
776.44	1073.14
776.77	1072.90
777.09	1062.84
777.42	1068.69
777.74	1086.48
778.07	1089.29
778.40	1086.24
778.72	1086.48
779.05	1078.75
779.37	1071.97
779.70	1061.90
780.03	1069.16
780.35	1065.88
780.68	1068.92
781.00	1064.71
781.33	1068.92
781.65	1063.07
781.98	1073.60
782.31	1083.20
782.63	1088.12
782.96	1101.22
783.28	1110.82
783.61	1108.24
783.93	1094.20
784.26	1096.78
784.58	1086.94
784.91	1086.48
785.23	1087.65
785.56	1099.35
785.88	1089.99
786.21	1089.99
786.53	1089.52
786.86	1080.39
787.18	1073.84
787.51	1070.09
787.83	1069.39
788.16	1075.71
788.48	1089.75
788.81	1086.24
789.13	1096.07
789.46	1098.41
789.78	1086.71
790.10	1080.63
790.43	1090.92
790.75	1092.09
791.08	1086.94
791.40	1091.86
791.73	1097.24
792.05	1091.86
792.37	1088.58
792.70	1093.03
793.02	1094.20
793.35	1087.41
793.67	1088.12
793.99	1083.20
794.32	1086.71
794.64	1096.31
794.96	1097.01
795.29	1090.46
795.61	1097.48
795.93	1091.63
796.26	1076.41
796.58	1077.58
796.91	1079.69
797.23	1075.48
797.55	1073.37
797.87	1068.45
798.20	1062.14
798.52	1056.28
798.84	1054.88
799.17	1058.86
799.49	1064.24
799.81	1060.73
800.14	1070.56
800.46	1075.71
800.78	1080.86
801.10	1080.86
801.43	1089.52
801.75	1084.37
802.07	1082.50
802.40	1080.63
802.72	1085.07
803.04	1087.18
803.36	1100.29
803.69	1107.07
804.01	1095.14
804.33	1085.07
804.65	1070.80
804.97	1047.62
805.30	1040.84
805.62	1051.60
805.94	1064.48
806.26	1082.97
806.58	1094.67
806.91	1091.63
807.23	1091.63
807.55	1084.60
807.87	1077.82
808.19	1077.58
808.52	1079.46
808.84	1081.33
809.16	1089.75
809.48	1090.92
809.80	1090.46
810.12	1087.18
810.44	1082.03
810.77	1083.90
811.09	1082.97
811.41	1084.60
811.73	1091.86
812.05	1093.50
812.37	1077.82
812.69	1072.67
813.01	1073.84
813.33	1064.71
813.66	1059.09
813.98	1063.77
814.30	1065.18
814.62	1070.09
814.94	1073.14
815.26	1068.92
815.58	1064.01
815.90	1064.24
816.22	1064.24
816.54	1068.92
816.86	1081.80
817.18	1088.12
817.50	1090.69
817.82	1083.20
818.14	1078.52
818.46	1077.82
818.78	1080.86
819.10	1073.84
819.42	1078.05
819.74	1081.56
820.06	1076.18
820.38	1080.86
820.70	1095.84
821.02	1101.22
821.34	1099.35
821.66	1104.97
821.98	1103.80
822.30	1090.92
822.62	1090.46
822.94	1099.12
823.26	1100.05
823.58	1103.33
823.90	1104.50
824.22	1088.58
824.54	1069.39
824.86	1066.58
825.18	1060.50
825.50	1067.99
825.81	1067.99
826.13	1075.01
826.45	1060.26
826.77	1063.54
827.09	1057.45
827.41	1067.52
827.73	1064.71
828.05	1086.71
828.36	1091.39
828.68	1089.75
829.00	1092.80
829.32	1103.80
829.64	1097.24
829.96	1091.16
830.28	1095.84
830.59	1090.22
830.91	1086.48
831.23	1082.73
831.55	1075.94
831.87	1075.24
832.19	1071.26
832.50	1062.14
832.82	1059.79
833.14	1053.71
833.46	1062.37
833.78	1067.28
834.09	1075.94
834.41	1075.94
834.73	1083.90
835.05	1069.86
835.36	1069.39
835.68	1069.16
836.00	1076.88
836.32	1075.94
836.63	1078.28
836.95	1075.48
837.27	1076.18
837.59	1067.99
837.90	1068.69
838.22	1067.99
838.54	1071.97
838.85	1079.22
839.17	1082.73
839.49	1078.99
839.80	1086.71
840.12	1086.71
840.44	1083.20
840.76	1086.94
841.07	1096.07
841.39	1099.82
841.71	1097.01
842.02	1089.75
842.34	1077.35
842.65	1073.14
842.97	1067.52
843.29	1065.65
843.60	1062.14
843.92	1063.54
844.24	1060.03
844.55	1060.26
844.87	1071.26
845.18	1082.73
845.50	1099.12
845.82	1108.01
846.13	1103.33
846.45	1096.07
846.76	1083.67
847.08	1071.03
847.40	1076.41
847.71	1079.22
848.03	1073.60
848.34	1080.39
848.66	1081.09
848.97	1065.88
849.29	1053.71
849.60	1064.71
849.92	1065.18
850.24	1069.39
850.55	1070.80
850.87	1077.82
851.18	1070.80
851.50	1073.60
851.81	1075.94
852.13	1076.41
852.44	1085.77
852.76	1076.41
853.07	1072.20
853.39	1071.97
853.70	1081.33
854.01	1074.31
854.33	1084.60
854.64	1091.16
854.96	1096.07
855.27	1095.14
855.59	1099.12
855.90	1097.48
856.22	1096.07
856.53	1091.16
856.84	1082.73
857.16	1079.46
857.47	1091.39
857.79	1093.26
858.10	1088.82
858.41	1090.92
858.73	1090.92
859.04	1078.28
859.36	1072.20
859.67	1073.60
859.98	1071.26
860.30	1064.01
860.61	1070.33
860.92	1065.88
861.24	1063.77
861.55	1060.73
861.87	1074.54
862.18	1066.82
862.49	1069.39
862.81	1073.60
863.12	1085.31
863.43	1078.75
863.74	1072.43
864.06	1080.39
864.37	1084.84
864.68	1081.80
865.00	1075.94
865.31	1087.65
865.62	1083.90
865.94	1075.01
866.25	1077.58
866.56	1079.69
866.87	1078.05
867.19	1075.48
867.50	1082.73
867.81	1072.20
868.12	1078.28
868.44	1081.33
868.75	1089.75
869.06	1083.90
869.37	1096.07
869.68	1091.63
870.00	1085.54
870.31	1087.41
870.62	1090.46
870.93	1089.29
871.24	1090.92
871.56	1094.67
871.87	1086.94
872.18	1089.52
872.49	1095.84
872.80	1089.05
873.12	1088.12
873.43	1100.99
873.74	1095.14
874.05	1082.97
874.36	1082.50
874.67	1083.90
874.98	1069.39
875.29	1070.56
875.61	1062.60
875.92	1079.69
876.23	1079.46
876.54	1082.50
876.85	1084.84
877.16	1092.09
877.47	1086.48
877.78	1090.92
878.09	1092.33
878.40	1095.14
878.72	1091.63
879.03	1085.31
879.34	1070.33
879.65	1066.82
879.96	1061.43
880.27	1058.62
880.58	1058.16
880.89	1071.73
881.20	1071.50
881.51	1069.39
881.82	1082.97
882.13	1090.22
882.44	1090.22
882.75	1094.90
883.06	1095.14
883.37	1083.67
883.68	1081.56
883.99	1079.22
884.30	1072.67
884.61	1077.35
884.92	1078.52
885.23	1068.92
885.54	1070.33
885.85	1077.11
886.16	1068.92
886.47	1069.16
886.78	1075.24
887.08	1073.60
887.39	1073.60
887.70	1067.05
888.01	1071.73
888.32	1078.52
888.63	1081.56
888.94	1083.67
889.25	1103.09
889.56	1094.43
889.87	1083.67
890.17	1071.26
890.48	1061.67
890.79	1056.05
891.10	1055.82
891.41	1063.07
891.72	1073.37
892.03	1079.46
892.34	1079.92
892.64	1087.65
892.95	1093.03
893.26	1092.33
893.57	1077.58
893.88	1068.45
894.18	1062.84
894.49	1050.90
894.80	1044.35
895.11	1064.48
895.42	1070.09
895.72	1070.56
896.03	1071.50
896.34	1071.50
896.65	1057.92
896.96	1057.45
897.26	1067.05
897.57	1069.86
897.88	1074.31
898.19	1073.37
898.49	1087.88
898.80	1087.41
899.11	1089.29
899.41	1086.94
899.72	1086.94
900.03	1070.09
900.34	1061.20
900.64	1058.62
900.95	1064.01
901.26	1068.22
901.56	1070.09
901.87	1067.05
902.18	1074.31
902.48	1075.48
902.79	1075.48
903.10	1076.18
903.40	1086.94
903.71	1079.46
904.02	1078.75
904.32	1082.50
904.63	1086.24
904.94	1074.07
905.24	1074.31
905.55	1079.92
905.85	1082.50
906.16	1070.56
906.47	1078.05
906.77	1087.41
907.08	1086.71
907.38	1078.75
907.69	1086.94
908.00	1086.01
908.30	1071.50
908.61	1061.20
908.91	1071.26
909.22	1081.09
909.52	1073.14
909.83	1081.80
910.14	1089.05
910.44	1081.33
910.75	1065.41
911.05	1079.69
911.36	1076.65
911.66	1071.97
911.97	1072.43
912.27	1083.90
912.58	1077.11
912.88	1076.41
913.19	1083.20
913.49	1088.35
913.80	1088.82
914.10	1094.20
914.41	1094.67
914.71	1084.84
915.01	1086.24
915.32	1077.35
915.62	1077.11
915.93	1084.84
916.23	1093.97
916.54	1086.71
916.84	1088.12
917.15	1083.67
917.45	1078.05
917.75	1069.62
918.06	1076.18
918.36	1079.92
918.67	1076.88
918.97	1069.62
919.27	1081.33
919.58	1082.73
919.88	1086.01
920.18	1091.86
920.49	1098.88
920.79	1088.35
921.10	1072.90
921.40	1064.94
921.70	1056.52
922.01	1069.39
922.31	1069.39
922.61	1081.09
922.92	1090.22
923.22	1105.20
923.52	1091.39
923.82	1092.09
924.13	1084.37
924.43	1079.22
924.73	1074.54
925.04	1077.11
925.34	1080.16
925.64	1093.26
925.94	1097.24
926.25	1092.80
926.55	1093.50
926.85	1089.05
927.15	1079.92
927.46	1075.48
927.76	1075.71
928.06	1070.56
928.36	1074.07
928.67	1070.80
928.97	1064.71
929.27	1067.05
929.57	1071.50
929.87	1068.22
930.18	1075.71
930.48	1087.88
930.78	1090.46
931.08	1081.09
931.38	1076.41
931.69	1080.63
931.99	1078.75
932.29	1076.18
932.59	1086.48
932.89	1089.99
933.19	1086.94
933.49	1084.84
933.80	1080.86
934.10	1082.97
934.40	1087.88
934.70	1087.88
935.00	1084.37
935.30	1097.24
935.60	1095.84
935.90	1090.22
936.20	1083.43
936.50	1078.75
936.81	1072.90
937.11	1069.39
937.41	1062.37
937.71	1071.50
938.01	1079.92
938.31	1077.11
938.61	1074.77
938.91	1085.31
939.21	1083.43
939.51	1086.71
939.81	1089.29
940.11	1093.73
940.41	1096.54
940.71	1086.71
941.01	1079.46
941.31	1072.43
941.61	1071.73
941.91	1077.35
942.21	1087.88
942.51	1096.78
942.81	1112.22
943.11	1120.88
943.41	1108.71
943.71	1101.92
944.01	1092.56
944.31	1079.69
944.61	1063.31
944.90	1054.18
945.20	1055.58
945.50	1077.58
945.80	1074.31
946.10	1082.03
946.40	1100.05
946.70	1100.99
947.00	1073.37
947.30	1086.24
947.60	1089.29
947.89	1084.60
948.19	1098.88
948.49	1108.01
948.79	1102.86
949.09	1106.37
949.39	1102.63
949.69	1087.41
949.98	1091.16
950.28	1075.48
950.58	1068.22
950.88	1072.67
951.18	1077.11
951.48	1065.41
951.77	1063.31
952.07	1063.07
952.37	1065.88
952.67	1060.96
952.97	1068.45
953.26	1073.60
953.56	1074.77
953.86	1075.94
954.16	1077.82
954.45	1075.24
954.75	1086.24
955.05	1083.67
955.35	1079.69
955.64	1082.26
955.94	1086.48
956.24	1078.52
956.54	1084.60
956.83	1080.39
957.13	1070.09
957.43	1058.86
957.72	1059.33
958.02	1052.77
958.32	1053.48
958.61	1056.28
958.91	1068.22
959.21	1078.99
959.50	1077.11
959.80	1088.58
960.10	1091.86
960.39	1081.80
960.69	1072.67
960.99	1080.63
961.28	1066.58
961.58	1069.86
961.87	1078.52
962.17	1087.65
962.47	1085.07
962.76	1093.73
963.06	1089.52
963.36	1082.97
963.65	1083.20
963.95	1076.18
964.24	1070.80
964.54	1068.45
964.83	1074.77
965.13	1071.50
965.42	1076.88
965.72	1085.54
966.02	1091.39
966.31	1094.43
966.61	1096.54
966.90	1100.29
967.20	1098.88
967.49	1097.95
967.79	1086.71
968.08	1078.75
968.38	1067.99
968.67	1063.77
968.97	1059.09
969.26	1069.86
969.56	1086.01
969.85	1097.01
970.15	1100.99
970.44	1102.39
970.74	1096.31
971.03	1081.80
971.32	1085.31
971.62	1088.58
971.91	1093.03
972.21	1098.88
972.50	1093.73
972.80	1089.52
973.09	1076.41
973.38	1076.88
973.68	1064.48
973.97	1078.99
974.27	1075.01
974.56	1080.63
974.85	1088.12
975.15	1095.37
975.44	1074.54
975.73	1065.18
976.03	1061.90
976.32	1048.09
976.61	1042.47
976.91	1053.48
977.20	1063.07
977.49	1060.26
977.79	1070.56
978.08	1074.54
978.37	1082.03
978.67	1085.07
978.96	1093.50
979.25	1086.48
979.55	1103.33
979.84	1102.86
980.13	1097.71
980.42	1089.75
980.72	1091.16
981.01	1074.77
981.30	1070.09
981.59	1064.48
981.89	1070.80
982.18	1067.99
982.47	1074.77
982.76	1072.20
983.06	1070.80
983.35	1067.52
983.64	1066.35
983.93	1059.33
984.22	1057.45
984.52	1065.41
984.81	1068.22
985.10	1067.05
985.39	1070.80
985.68	1067.52
985.97	1067.05
986.27	1065.18
986.56	1062.14
986.85	1067.28
987.14	1082.03
987.43	1079.92
987.72	1079.92
988.01	1089.99
988.31	1087.88
988.60	1087.65
988.89	1085.54
989.18	1083.90
989.47	1079.69
989.76	1073.60
990.05	1067.28
990.34	1071.97
990.63	1067.52
990.92	1065.65
991.21	1070.56
991.51	1075.24
991.80	1079.22
992.09	1088.58
992.38	1088.35
992.67	1077.11
992.96	1074.31
993.25	1071.26
993.54	1073.37
993.83	1079.46
994.12	1088.35
994.41	1092.09
994.70	1102.39
994.99	1091.39
995.28	1089.05
995.57	1079.92
995.86	1075.01
996.15	1063.77
996.44	1074.31
996.73	1075.71
997.02	1084.60
997.31	1081.80
997.59	1080.16
997.88	1078.28
998.17	1078.99
998.46	1080.63
998.75	1081.09
999.04	1080.63
999.33	1080.16
999.62	1081.80
999.91	1082.03
1000.20	1084.14
1000.49	1088.35
1000.77	1089.52
1001.06	1082.73
1001.35	1086.94
1001.64	1081.33
1001.93	1079.69
1002.22	1080.16
1002.51	1077.82
1002.79	1070.33
1003.08	1071.97
1003.37	1067.52
1003.66	1061.20
1003.95	1071.97
1004.23	1070.33
1004.52	1076.65
1004.81	1082.03
1005.10	1088.58
1005.39	1081.56
1005.67	1077.11
1005.96	1072.20
1006.25	1080.86
1006.54	1081.33
1006.83	1082.73
1007.11	1095.84
1007.40	1099.35
1007.69	1090.69
1007.97	1086.94
1008.26	1084.84
1008.55	1080.63
1008.84	1084.60
1009.12	1086.24
1009.41	1086.71
1009.70	1087.88
1009.98	1089.75
1010.27	1082.97
1010.56	1076.88
1010.85	1076.88
1011.13	1066.58
1011.42	1060.03
1011.71	1055.82
1011.99	1050.43
1012.28	1046.22
1012.56	1052.30
1012.85	1065.88
1013.14	1071.50
1013.42	1082.50
1013.71	1084.37
1014.00	1089.75
1014.28	1080.39
1014.57	1078.75
1014.85	1073.14
1015.14	1071.26
1015.43	1066.82
1015.71	1066.11
1016.00	1076.41
1016.28	1089.05
1016.57	1094.90
1016.85	1093.26
1017.14	1095.37
1017.43	1088.12
1017.71	1079.22
1018.00	1081.33
1018.28	1093.26
1018.57	1084.84
1018.85	1079.92
1019.14	1086.24
1019.42	1085.07
1019.71	1082.03
1019.99	1085.31
1020.28	1093.50
1020.56	1091.39
1020.85	1083.90
1021.13	1080.86
1021.42	1088.82
1021.70	1088.35
1021.99	1080.86
1022.27	1086.01
1022.55	1061.43
1022.84	1083.67
>>>>>End Processed Spectral Data<<<<<
