SpectraSuite Data File
++++++++++++++++++++++++++++++++++++
Date: Mon Aug 26 10:24:44 PDT 2019
User: corrico
Dark Spectrum Present: No
Reference Spectrum Present: No
Number of Sampled Component Spectra: 1
Spectrometers: USB2+H06089
Integration Time (usec): 10000 (USB2+H06089)
Spectra Averaged: 2 (USB2+H06089)
Boxcar Smoothing: 2 (USB2+H06089)
Correct for Electrical Dark: No (USB2+H06089)
Strobe/Lamp Enabled: No (USB2+H06089)
Correct for Detector Non-linearity: No (USB2+H06089)
Correct for Stray Light: No (USB2+H06089)
Number of Pixels in Processed Spectrum: 2048
>>>>>Begin Processed Spectral Data<<<<<
339.70	1035.69
340.07	1035.69
340.45	984.43
340.82	961.26
341.19	929.89
341.57	901.11
341.94	897.60
342.31	892.91
342.69	880.28
343.06	889.17
343.43	899.47
343.81	906.02
344.18	909.06
344.55	916.79
344.93	916.09
345.30	914.92
345.67	916.79
346.04	935.51
346.42	948.62
346.79	953.30
347.16	954.47
347.54	968.51
347.91	961.73
348.28	979.05
348.65	992.15
349.03	1004.56
349.40	1017.43
349.77	1042.24
350.14	1044.11
350.52	1049.73
350.89	1064.48
351.26	1071.26
351.63	1060.96
352.01	1064.01
352.38	1075.01
352.75	1080.16
353.12	1077.35
353.50	1081.80
353.87	1090.92
354.24	1085.77
354.61	1081.33
354.98	1090.69
355.36	1090.92
355.73	1087.41
356.10	1098.18
356.47	1110.35
356.84	1102.63
357.22	1104.50
357.59	1112.22
357.96	1105.44
358.33	1100.52
358.70	1096.31
359.08	1098.41
359.45	1084.84
359.82	1084.14
360.19	1075.71
360.56	1079.22
360.94	1088.35
361.31	1098.41
361.68	1100.52
362.05	1110.12
362.42	1108.95
362.79	1105.90
363.16	1101.22
363.54	1098.88
363.91	1087.18
364.28	1090.22
364.65	1089.52
365.02	1092.09
365.39	1094.43
365.76	1091.63
366.14	1088.58
366.51	1083.20
366.88	1088.35
367.25	1081.33
367.62	1084.14
367.99	1091.63
368.36	1096.78
368.73	1090.69
369.10	1108.71
369.48	1113.39
369.85	1116.90
370.22	1115.97
370.59	1109.65
370.96	1091.16
371.33	1095.14
371.70	1079.22
372.07	1078.52
372.44	1083.90
372.81	1104.03
373.18	1111.75
373.55	1120.65
373.93	1124.16
374.30	1125.56
374.67	1112.69
375.04	1103.09
375.41	1094.90
375.78	1098.18
376.15	1109.18
376.52	1112.69
376.89	1108.24
377.26	1114.10
377.63	1108.71
378.00	1100.99
378.37	1103.80
378.74	1107.78
379.11	1111.29
379.48	1120.18
379.85	1113.63
380.22	1115.03
380.59	1115.73
380.96	1118.07
381.33	1106.61
381.70	1112.22
382.07	1108.01
382.44	1114.56
382.81	1112.69
383.18	1115.97
383.55	1117.61
383.92	1112.22
384.29	1106.84
384.66	1095.14
385.03	1089.29
385.40	1083.43
385.77	1090.46
386.14	1086.48
386.51	1091.16
386.88	1096.31
387.25	1105.20
387.62	1104.73
387.99	1108.24
388.36	1112.46
388.73	1114.80
389.10	1110.35
389.46	1105.90
389.83	1109.65
390.20	1119.01
390.57	1126.03
390.94	1129.54
391.31	1140.31
391.68	1144.76
392.05	1151.08
392.42	1138.44
392.79	1137.73
393.16	1138.44
393.53	1134.46
393.89	1126.03
394.26	1136.10
394.63	1137.50
395.00	1135.86
395.37	1144.76
395.74	1150.14
396.11	1145.46
396.48	1141.48
396.84	1146.63
397.21	1149.67
397.58	1150.61
397.95	1161.84
398.32	1167.93
398.69	1163.71
399.06	1160.20
399.42	1162.08
399.79	1170.27
400.16	1175.65
400.53	1191.10
400.90	1194.14
401.27	1201.87
401.64	1198.59
402.00	1209.35
402.37	1209.82
402.74	1222.70
403.11	1238.14
403.48	1251.25
403.84	1262.72
404.21	1283.55
404.58	1296.66
404.95	1313.74
405.32	1333.87
405.68	1338.08
406.05	1356.34
406.42	1384.66
406.79	1413.22
407.16	1430.30
407.52	1463.30
407.89	1484.84
408.26	1509.41
408.63	1533.05
408.99	1572.61
409.36	1623.63
409.73	1664.82
410.10	1702.74
410.47	1752.59
410.83	1805.72
411.20	1871.73
411.57	1926.96
411.94	2017.78
412.30	2095.25
412.67	2173.89
413.04	2247.38
413.40	2348.26
413.77	2447.73
414.14	2557.50
414.51	2673.83
414.87	2793.43
415.24	2933.39
415.61	3059.78
415.97	3189.68
416.34	3347.90
416.71	3513.38
417.08	3691.26
417.44	3863.52
417.81	4078.85
418.18	4317.35
418.54	4549.30
418.91	4792.71
419.28	5072.64
419.64	5350.00
420.01	5628.05
420.38	5941.92
420.74	6269.59
421.11	6651.10
421.48	7035.18
421.84	7449.46
422.21	7866.54
422.58	8326.69
422.94	8791.75
423.31	9270.86
423.68	9792.80
424.04	10381.45
424.41	10941.07
424.77	11538.84
425.14	12158.85
425.51	12809.28
425.87	13475.87
426.24	14204.24
426.61	15007.52
426.97	15911.66
427.34	16760.34
427.70	17745.71
428.07	18668.58
428.44	19555.88
428.80	20593.91
429.17	21634.04
429.53	22682.13
429.90	23888.44
430.27	24990.13
430.63	25988.37
431.00	27245.71
431.36	28532.77
431.73	29736.74
432.09	31013.03
432.46	32300.10
432.83	33533.56
433.19	34641.80
433.56	35888.37
433.92	37279.82
434.29	38567.82
434.65	39877.11
435.02	41045.51
435.38	42185.82
435.75	43019.28
436.11	44194.23
436.48	45072.87
436.84	46021.72
437.21	46899.19
437.57	47832.59
437.94	48537.80
438.30	49262.89
438.67	49816.90
439.03	50106.19
439.40	50341.65
439.76	50142.00
440.13	49882.90
440.49	49722.57
440.86	49364.94
441.22	48984.84
441.59	48535.92
441.95	48060.79
442.32	47228.27
442.68	46508.55
443.05	45581.93
443.41	44708.91
443.78	43583.58
444.14	42597.05
444.51	41407.82
444.87	40554.46
445.24	39412.98
445.60	38403.04
445.96	37333.18
446.33	36474.44
446.69	35271.64
447.06	34377.79
447.42	33399.91
447.79	32309.22
448.15	31363.65
448.51	30487.58
448.88	29693.67
449.24	28788.36
449.61	28205.09
449.97	27457.99
450.33	26719.09
450.70	25878.60
451.06	25331.62
451.43	24607.92
451.79	24100.50
452.15	23605.00
452.52	23119.11
452.88	22550.83
453.24	22046.44
453.61	21450.78
453.97	20827.49
454.34	20136.80
454.70	19537.15
455.06	18925.34
455.43	18241.43
455.79	17536.46
456.15	16976.84
456.52	16351.92
456.88	15867.19
457.24	15356.02
457.61	14926.53
457.97	14510.85
458.33	14089.79
458.70	13543.74
459.06	13019.46
459.42	12605.66
459.79	12132.87
460.15	11714.62
460.51	11327.49
460.88	10965.88
461.24	10577.82
461.60	10260.67
461.96	9910.30
462.33	9595.49
462.69	9292.86
463.05	9020.66
463.42	8761.33
463.78	8515.81
464.14	8275.43
464.50	8070.17
464.87	7806.39
465.23	7540.74
465.59	7329.62
465.95	7141.44
466.32	6938.99
466.68	6761.34
467.04	6561.93
467.40	6389.43
467.77	6193.76
468.13	6027.35
468.49	5881.06
468.85	5783.46
469.22	5648.88
469.58	5532.56
469.94	5424.66
470.30	5302.72
470.66	5189.44
471.03	5078.73
471.39	4993.30
471.75	4909.98
472.11	4831.57
472.47	4716.41
472.84	4627.01
473.20	4495.23
473.56	4381.72
473.92	4268.20
474.28	4190.96
474.65	4087.28
475.01	4012.85
475.37	3929.29
475.73	3848.54
476.09	3767.79
476.45	3717.24
476.81	3660.83
477.18	3598.11
477.54	3537.25
477.90	3484.82
478.26	3415.54
478.62	3355.86
478.98	3293.84
479.34	3240.24
479.71	3181.72
480.07	3125.32
480.43	3064.93
480.79	3016.01
481.15	2963.82
481.51	2915.84
481.87	2876.75
482.23	2837.67
482.59	2796.71
482.96	2762.53
483.32	2703.08
483.68	2651.36
484.04	2611.80
484.40	2587.93
484.76	2540.89
485.12	2511.63
485.48	2485.41
485.84	2440.94
486.20	2386.88
486.56	2354.81
486.92	2337.96
487.28	2290.68
487.64	2274.77
488.00	2242.00
488.37	2218.83
488.73	2181.61
489.09	2165.23
489.45	2132.93
489.81	2095.25
490.17	2058.03
490.53	2043.05
490.89	2002.33
491.25	1981.03
491.61	1981.26
491.97	1964.41
492.33	1927.90
492.69	1918.07
493.05	1898.17
493.41	1859.32
493.77	1834.98
494.13	1822.11
494.49	1799.87
494.85	1784.89
495.21	1772.72
495.57	1749.08
495.93	1718.66
496.29	1703.44
496.64	1673.95
497.00	1653.12
497.36	1647.97
497.72	1640.25
498.08	1614.03
498.44	1600.22
498.80	1577.05
499.16	1559.50
499.52	1546.63
499.88	1539.60
500.24	1525.09
500.60	1521.58
500.96	1510.35
501.32	1503.09
501.68	1490.22
502.03	1482.26
502.39	1463.77
502.75	1453.94
503.11	1438.96
503.47	1430.30
503.83	1412.28
504.19	1423.28
504.55	1404.32
504.91	1398.24
505.26	1380.21
505.62	1378.81
505.98	1358.45
506.34	1358.21
506.70	1340.89
507.06	1351.89
507.42	1345.11
507.78	1337.85
508.13	1329.19
508.49	1331.30
508.85	1313.74
509.21	1306.49
509.57	1299.47
509.93	1293.38
510.28	1284.49
510.64	1284.02
511.00	1271.14
511.36	1273.25
511.72	1267.17
512.07	1276.29
512.43	1284.02
512.79	1294.78
513.15	1288.70
513.51	1283.32
513.86	1273.25
514.22	1261.08
514.58	1248.68
514.94	1243.99
515.30	1240.25
515.65	1227.38
516.01	1225.97
516.37	1222.46
516.73	1211.23
517.08	1209.59
517.44	1208.18
517.80	1193.67
518.16	1194.38
518.51	1197.18
518.87	1191.33
519.23	1193.67
519.59	1200.93
519.94	1189.93
520.30	1194.84
520.66	1196.25
521.01	1195.78
521.37	1194.14
521.73	1205.84
522.09	1193.44
522.44	1191.57
522.80	1184.08
523.16	1180.80
523.51	1167.69
523.87	1162.08
524.23	1166.76
524.58	1169.33
524.94	1166.76
525.30	1167.23
525.65	1174.95
526.01	1176.12
526.37	1173.08
526.72	1170.97
527.08	1169.10
527.44	1166.52
527.79	1165.82
528.15	1167.46
528.51	1165.12
528.86	1168.63
529.22	1163.25
529.58	1158.10
529.93	1144.29
530.29	1148.73
530.65	1156.22
531.00	1156.46
531.36	1143.35
531.71	1154.82
532.07	1148.50
532.43	1140.31
532.78	1145.46
533.14	1145.69
533.49	1143.59
533.85	1140.07
534.21	1146.16
534.56	1137.97
534.92	1141.71
535.27	1132.82
535.63	1132.35
535.98	1120.88
536.34	1127.90
536.69	1130.01
537.05	1137.97
537.41	1140.54
537.76	1137.03
538.12	1135.86
538.47	1136.56
538.83	1134.46
539.18	1131.41
539.54	1130.01
539.89	1115.03
540.25	1113.16
540.60	1106.84
540.96	1111.29
541.31	1113.39
541.67	1126.97
542.02	1132.12
542.38	1136.33
542.73	1132.12
543.09	1131.41
543.44	1124.86
543.80	1113.16
544.15	1110.58
544.51	1114.33
544.86	1121.58
545.22	1122.75
545.57	1133.99
545.93	1134.46
546.28	1127.67
546.64	1125.80
546.99	1130.71
547.35	1125.10
547.70	1125.80
548.05	1128.37
548.41	1124.39
548.76	1119.48
549.12	1124.16
549.47	1126.27
549.83	1115.73
550.18	1120.18
550.53	1127.67
550.89	1121.12
551.24	1119.71
551.60	1132.12
551.95	1132.12
552.30	1127.90
552.66	1125.10
553.01	1120.41
553.37	1111.99
553.72	1108.71
554.07	1107.07
554.43	1110.58
554.78	1113.86
555.13	1128.61
555.49	1123.93
555.84	1126.73
556.19	1126.03
556.55	1124.63
556.90	1116.90
557.26	1117.14
557.61	1112.46
557.96	1104.50
558.32	1110.82
558.67	1111.75
559.02	1122.05
559.37	1119.01
559.73	1124.39
560.08	1115.03
560.43	1107.78
560.79	1103.33
561.14	1114.33
561.49	1119.71
561.85	1124.16
562.20	1133.52
562.55	1124.86
562.90	1114.56
563.26	1115.50
563.61	1117.14
563.96	1113.16
564.32	1121.12
564.67	1125.33
565.02	1119.48
565.37	1113.16
565.73	1117.84
566.08	1115.03
566.43	1115.50
566.78	1116.20
567.14	1108.95
567.49	1111.29
567.84	1106.84
568.19	1101.69
568.54	1104.50
568.90	1113.39
569.25	1104.26
569.60	1108.48
569.95	1108.71
570.31	1097.95
570.66	1100.29
571.01	1097.48
571.36	1097.24
571.71	1105.67
572.06	1113.16
572.42	1118.31
572.77	1116.20
573.12	1111.99
573.47	1095.60
573.82	1089.99
574.18	1078.28
574.53	1081.33
574.88	1088.82
575.23	1097.24
575.58	1100.29
575.93	1097.24
576.28	1101.92
576.64	1107.78
576.99	1108.95
577.34	1111.75
577.69	1117.37
578.04	1121.12
578.39	1115.27
578.74	1113.63
579.09	1110.58
579.44	1115.50
579.80	1108.48
580.15	1109.65
580.50	1105.20
580.85	1099.82
581.20	1094.67
581.55	1095.37
581.90	1084.37
582.25	1086.71
582.60	1093.97
582.95	1096.54
583.30	1095.84
583.65	1104.03
584.00	1107.54
584.35	1112.22
584.71	1112.46
585.06	1112.22
585.41	1116.90
585.76	1126.73
586.11	1125.80
586.46	1123.69
586.81	1129.31
587.16	1118.78
587.51	1105.44
587.86	1106.61
588.21	1111.52
588.56	1105.67
588.91	1108.95
589.26	1107.07
589.61	1101.69
589.96	1098.18
590.31	1105.20
590.66	1115.03
591.01	1115.03
591.36	1116.44
591.71	1117.61
592.06	1109.18
592.41	1105.90
592.76	1115.03
593.10	1113.86
593.45	1116.90
593.80	1112.46
594.15	1108.71
594.50	1097.95
594.85	1090.46
595.20	1079.46
595.55	1083.20
595.90	1087.18
596.25	1100.75
596.60	1105.67
596.95	1108.48
597.30	1109.18
597.64	1152.48
597.99	1152.95
598.34	1156.46
598.69	1161.61
599.04	1164.88
599.39	1117.84
599.74	1109.41
600.09	1105.67
600.44	1101.69
600.78	1097.71
601.13	1105.44
601.48	1105.20
601.83	1104.26
602.18	1108.95
602.53	1114.10
602.88	1106.84
603.22	1107.07
603.57	1110.58
603.92	1103.33
604.27	1096.78
604.62	1103.80
604.97	1097.48
605.31	1104.50
605.66	1111.75
606.01	1115.03
606.36	1100.05
606.71	1104.97
607.05	1102.86
607.40	1100.75
607.75	1111.52
608.10	1107.54
608.44	1104.73
608.79	1109.18
609.14	1114.80
609.49	1102.86
609.84	1114.33
610.18	1121.35
610.53	1096.07
610.88	1092.09
611.23	1099.58
611.57	1092.09
611.92	1088.12
612.27	1104.73
612.62	1104.03
612.96	1097.95
613.31	1104.50
613.66	1105.90
614.00	1107.54
614.35	1104.73
614.70	1101.46
615.05	1102.16
615.39	1101.92
615.74	1097.01
616.09	1093.26
616.43	1092.33
616.78	1094.20
617.13	1093.03
617.47	1091.16
617.82	1085.77
618.17	1089.52
618.51	1088.12
618.86	1088.58
619.21	1092.33
619.55	1093.50
619.90	1085.31
620.25	1097.24
620.59	1099.35
620.94	1096.78
621.29	1113.86
621.63	1121.35
621.98	1095.37
622.32	1096.31
622.67	1097.71
623.02	1097.01
623.36	1100.99
623.71	1117.14
624.05	1122.05
624.40	1120.41
624.75	1114.10
625.09	1113.86
625.44	1105.67
625.78	1088.58
626.13	1093.50
626.48	1086.71
626.82	1085.77
627.17	1092.09
627.51	1106.84
627.86	1107.31
628.20	1109.18
628.55	1101.22
628.89	1095.37
629.24	1091.86
629.58	1091.39
629.93	1098.88
630.28	1103.80
630.62	1104.26
630.97	1106.84
631.31	1115.73
631.66	1104.97
632.00	1099.82
632.35	1100.99
632.69	1097.24
633.04	1087.18
633.38	1089.75
633.73	1097.95
634.07	1096.07
634.42	1096.78
634.76	1094.67
635.11	1096.54
635.45	1085.77
635.79	1094.43
636.14	1089.29
636.48	1086.71
636.83	1086.24
637.17	1092.80
637.52	1082.97
637.86	1091.16
638.21	1087.88
638.55	1089.99
638.89	1091.16
639.24	1089.05
639.58	1092.56
639.93	1097.01
640.27	1095.84
640.61	1101.22
640.96	1109.65
641.30	1104.26
641.65	1101.22
641.99	1099.12
642.33	1087.18
642.68	1086.01
643.02	1084.37
643.37	1083.20
643.71	1089.52
644.05	1093.26
644.40	1096.07
644.74	1094.90
645.08	1102.39
645.43	1106.84
645.77	1109.18
646.11	1111.75
646.46	1107.54
646.80	1111.29
647.14	1106.61
647.49	1104.73
647.83	1099.58
648.17	1108.71
648.52	1099.82
648.86	1100.05
649.20	1104.03
649.55	1107.54
649.89	1108.71
650.23	1115.27
650.57	1109.18
650.92	1107.54
651.26	1099.58
651.60	1093.50
651.95	1093.03
652.29	1097.95
652.63	1096.07
652.97	1095.37
653.32	1089.29
653.66	1086.24
654.00	1081.56
654.34	1084.37
654.69	1090.92
655.03	1099.12
655.37	1100.05
655.71	1101.92
656.05	1098.65
656.40	1094.67
656.74	1093.73
657.08	1089.99
657.42	1094.20
657.76	1099.35
658.11	1098.18
658.45	1095.84
658.79	1096.31
659.13	1095.84
659.47	1091.39
659.82	1080.39
660.16	1071.97
660.50	1074.07
660.84	1071.03
661.18	1072.67
661.52	1083.90
661.87	1097.71
662.21	1088.82
662.55	1087.18
662.89	1086.01
663.23	1088.58
663.57	1090.69
663.91	1096.07
664.25	1095.84
664.60	1100.52
664.94	1094.67
665.28	1095.84
665.62	1100.05
665.96	1109.88
666.30	1108.24
666.64	1104.73
666.98	1086.24
667.32	1084.37
667.66	1077.82
668.01	1073.84
668.35	1076.18
668.69	1085.07
669.03	1087.18
669.37	1089.29
669.71	1097.71
670.05	1096.07
670.39	1098.18
670.73	1093.73
671.07	1086.94
671.41	1086.01
671.75	1089.75
672.09	1087.18
672.43	1091.86
672.77	1096.31
673.11	1082.50
673.45	1081.09
673.79	1072.20
674.13	1062.37
674.47	1054.18
674.81	1063.31
675.15	1063.77
675.49	1067.05
675.83	1071.50
676.17	1083.43
676.51	1080.16
676.85	1089.99
677.19	1100.75
677.53	1108.24
677.87	1102.86
678.21	1107.78
678.55	1100.99
678.89	1092.09
679.23	1090.69
679.57	1093.97
679.90	1091.39
680.24	1089.52
680.58	1093.50
680.92	1089.99
681.26	1090.22
681.60	1089.52
681.94	1092.56
682.28	1101.22
682.62	1104.50
682.96	1096.31
683.29	1096.54
683.63	1090.69
683.97	1093.73
684.31	1093.03
684.65	1099.58
684.99	1103.09
685.33	1104.26
685.67	1088.58
686.00	1085.54
686.34	1081.09
686.68	1074.54
687.02	1080.39
687.36	1093.03
687.70	1100.99
688.03	1107.54
688.37	1105.90
688.71	1105.67
689.05	1100.75
689.39	1098.88
689.72	1098.18
690.06	1097.95
690.40	1096.31
690.74	1086.48
691.08	1082.26
691.41	1083.20
691.75	1086.24
692.09	1089.99
692.43	1105.67
692.76	1106.14
693.10	1108.48
693.44	1108.01
693.78	1104.73
694.11	1107.31
694.45	1101.22
694.79	1099.12
695.13	1104.50
695.46	1099.12
695.80	1091.16
696.14	1098.88
696.48	1095.14
696.81	1095.37
697.15	1102.86
697.49	1097.24
697.82	1089.99
698.16	1090.69
698.50	1092.33
698.83	1085.07
699.17	1095.84
699.51	1094.90
699.84	1086.71
700.18	1078.28
700.52	1075.24
700.85	1078.99
701.19	1078.75
701.53	1090.22
701.86	1092.56
702.20	1107.31
702.54	1097.48
702.87	1105.90
703.21	1101.69
703.55	1102.63
703.88	1098.41
704.22	1093.97
704.55	1097.24
704.89	1098.41
705.23	1095.84
705.56	1085.54
705.90	1083.20
706.23	1075.24
706.57	1061.90
706.91	1073.14
707.24	1080.63
707.58	1082.26
707.91	1082.26
708.25	1097.48
708.58	1082.26
708.92	1078.52
709.26	1078.28
709.59	1073.60
709.93	1056.52
710.26	1058.86
710.60	1062.14
710.93	1063.31
711.27	1062.37
711.60	1078.75
711.94	1078.28
712.27	1084.84
712.61	1084.37
712.94	1083.20
713.28	1077.11
713.61	1089.99
713.95	1089.52
714.28	1094.90
714.62	1107.31
714.95	1111.52
715.29	1102.63
715.62	1093.03
715.96	1091.63
716.29	1088.12
716.63	1088.58
716.96	1083.43
717.29	1081.09
717.63	1079.69
717.96	1078.75
718.30	1070.80
718.63	1087.88
718.97	1092.56
719.30	1093.03
719.63	1090.92
719.97	1099.58
720.30	1090.46
720.64	1094.20
720.97	1093.97
721.30	1088.35
721.64	1093.03
721.97	1090.46
722.31	1093.26
722.64	1087.41
722.97	1096.31
723.31	1085.31
723.64	1091.86
723.97	1093.50
724.31	1097.01
724.64	1103.09
724.98	1110.35
725.31	1101.92
725.64	1092.56
725.98	1096.31
726.31	1085.31
726.64	1084.37
726.97	1092.09
727.31	1089.75
727.64	1089.29
727.97	1092.80
728.31	1088.35
728.64	1076.65
728.97	1084.84
729.31	1088.35
729.64	1085.77
729.97	1084.84
730.30	1091.39
730.64	1079.92
730.97	1072.67
731.30	1076.88
731.63	1073.14
731.97	1069.62
732.30	1070.09
732.63	1074.31
732.96	1065.88
733.30	1071.26
733.63	1071.26
733.96	1071.26
734.29	1061.43
734.63	1063.07
734.96	1055.35
735.29	1056.52
735.62	1062.37
735.95	1065.65
736.29	1073.14
736.62	1075.24
736.95	1072.90
737.28	1073.60
737.61	1081.56
737.94	1082.73
738.28	1091.39
738.61	1091.39
738.94	1087.41
739.27	1077.58
739.60	1072.20
739.93	1070.80
740.27	1071.50
740.60	1070.80
740.93	1084.14
741.26	1085.54
741.59	1087.18
741.92	1087.41
742.25	1087.88
742.58	1079.92
742.91	1078.05
743.25	1069.16
743.58	1071.97
743.91	1075.71
744.24	1073.14
744.57	1071.97
744.90	1078.99
745.23	1068.92
745.56	1058.86
745.89	1060.50
746.22	1067.52
746.55	1058.86
746.88	1074.31
747.21	1076.18
747.54	1078.75
747.87	1076.41
748.20	1085.77
748.53	1078.52
748.87	1091.16
749.20	1082.97
749.53	1080.39
749.86	1082.03
750.19	1092.80
750.52	1099.35
750.85	1105.44
751.18	1104.73
751.51	1107.54
751.84	1098.88
752.16	1089.75
752.49	1096.07
752.82	1100.75
753.15	1093.97
753.48	1098.88
753.81	1096.78
754.14	1096.07
754.47	1093.73
754.80	1086.94
755.13	1083.20
755.46	1085.54
755.79	1078.28
756.12	1083.90
756.45	1087.41
756.78	1089.05
757.11	1081.09
757.43	1086.94
757.76	1077.58
758.09	1081.33
758.42	1071.50
758.75	1080.63
759.08	1080.16
759.41	1082.97
759.74	1083.90
760.07	1085.54
760.39	1092.33
760.72	1091.16
761.05	1080.86
761.38	1082.73
761.71	1093.26
762.04	1093.73
762.36	1080.16
762.69	1086.01
763.02	1077.35
763.35	1074.54
763.68	1065.65
764.01	1072.90
764.33	1072.43
764.66	1080.39
764.99	1091.86
765.32	1096.31
765.65	1096.78
765.97	1096.54
766.30	1097.95
766.63	1082.26
766.96	1071.03
767.28	1076.65
767.61	1085.54
767.94	1086.71
768.27	1089.05
768.59	1094.90
768.92	1095.60
769.25	1080.86
769.58	1074.54
769.90	1073.60
770.23	1074.31
770.56	1071.26
770.89	1085.77
771.21	1091.39
771.54	1089.99
771.87	1090.46
772.19	1087.41
772.52	1080.39
772.85	1063.07
773.17	1058.62
773.50	1061.43
773.83	1064.01
774.15	1060.50
774.48	1071.73
774.81	1078.52
775.13	1064.48
775.46	1069.16
775.79	1084.14
776.11	1088.82
776.44	1089.99
776.77	1096.31
777.09	1094.90
777.42	1089.99
777.74	1082.03
778.07	1078.99
778.40	1085.77
778.72	1079.69
779.05	1075.01
779.37	1083.67
779.70	1086.01
780.03	1085.54
780.35	1094.90
780.68	1099.12
781.00	1099.35
781.33	1099.12
781.65	1097.71
781.98	1092.56
782.31	1093.50
782.63	1088.82
782.96	1087.18
783.28	1091.16
783.61	1093.03
783.93	1092.80
784.26	1087.18
784.58	1085.31
784.91	1072.43
785.23	1077.11
785.56	1070.80
785.88	1072.90
786.21	1074.31
786.53	1073.84
786.86	1077.11
787.18	1081.33
787.51	1076.41
787.83	1071.03
788.16	1080.16
788.48	1068.69
788.81	1061.67
789.13	1073.14
789.46	1072.20
789.78	1068.22
790.10	1068.45
790.43	1067.52
790.75	1066.35
791.08	1078.05
791.40	1072.20
791.73	1077.35
792.05	1085.54
792.37	1083.90
792.70	1079.22
793.02	1094.90
793.35	1092.09
793.67	1082.50
793.99	1081.33
794.32	1083.43
794.64	1082.97
794.96	1086.71
795.29	1095.60
795.61	1098.41
795.93	1098.18
796.26	1089.75
796.58	1082.73
796.91	1089.05
797.23	1089.05
797.55	1085.54
797.87	1085.77
798.20	1094.20
798.52	1096.54
798.84	1092.80
799.17	1096.31
799.49	1093.26
799.81	1092.56
800.14	1089.05
800.46	1092.33
800.78	1093.03
801.10	1100.75
801.43	1093.03
801.75	1088.58
802.07	1090.22
802.40	1084.14
802.72	1081.56
803.04	1084.14
803.36	1083.43
803.69	1083.90
804.01	1089.75
804.33	1090.22
804.65	1086.71
804.97	1082.97
805.30	1077.11
805.62	1077.82
805.94	1081.09
806.26	1079.22
806.58	1082.26
806.91	1082.97
807.23	1084.37
807.55	1082.03
807.87	1081.80
808.19	1078.99
808.52	1078.05
808.84	1073.60
809.16	1078.52
809.48	1077.82
809.80	1082.03
810.12	1089.05
810.44	1092.09
810.77	1081.33
811.09	1088.82
811.41	1082.73
811.73	1073.60
812.05	1065.65
812.37	1071.03
812.69	1072.20
813.01	1079.92
813.33	1094.67
813.66	1089.52
813.98	1087.41
814.30	1079.69
814.62	1072.90
814.94	1066.58
815.26	1077.11
815.58	1078.28
815.90	1077.35
816.22	1083.90
816.54	1080.86
816.86	1078.05
817.18	1071.26
817.50	1083.67
817.82	1081.56
818.14	1082.03
818.46	1076.88
818.78	1079.46
819.10	1073.60
819.42	1071.97
819.74	1066.35
820.06	1075.24
820.38	1075.24
820.70	1075.24
821.02	1072.90
821.34	1076.18
821.66	1073.37
821.98	1078.75
822.30	1071.73
822.62	1072.67
822.94	1077.35
823.26	1073.60
823.58	1059.79
823.90	1066.11
824.22	1069.16
824.54	1067.05
824.86	1067.52
825.18	1089.29
825.50	1091.63
825.81	1079.46
826.13	1075.48
826.45	1072.20
826.77	1059.09
827.09	1053.48
827.41	1054.65
827.73	1064.71
828.05	1073.84
828.36	1073.14
828.68	1072.67
829.00	1068.92
829.32	1060.26
829.64	1061.20
829.96	1060.96
830.28	1067.52
830.59	1078.28
830.91	1085.77
831.23	1090.69
831.55	1103.09
831.87	1106.14
832.19	1098.65
832.50	1088.82
832.82	1081.56
833.14	1072.20
833.46	1068.69
833.78	1085.31
834.09	1093.97
834.41	1089.75
834.73	1094.43
835.05	1092.80
835.36	1086.94
835.68	1081.80
836.00	1081.09
836.32	1072.43
836.63	1062.84
836.95	1062.60
837.27	1062.37
837.59	1067.99
837.90	1078.52
838.22	1086.01
838.54	1085.07
838.85	1082.97
839.17	1077.58
839.49	1067.05
839.80	1063.77
840.12	1068.22
840.44	1081.09
840.76	1089.75
841.07	1093.26
841.39	1092.33
841.71	1087.65
842.02	1077.82
842.34	1065.65
842.65	1056.75
842.97	1067.52
843.29	1066.58
843.60	1061.43
843.92	1064.71
844.24	1081.33
844.55	1075.71
844.87	1074.31
845.18	1075.48
845.50	1074.07
845.82	1068.22
846.13	1072.20
846.45	1070.09
846.76	1073.60
847.08	1085.07
847.40	1080.86
847.71	1080.16
848.03	1077.58
848.34	1076.65
848.66	1066.82
848.97	1071.26
849.29	1071.03
849.60	1082.97
849.92	1085.07
850.24	1089.52
850.55	1096.78
850.87	1091.16
851.18	1084.60
851.50	1090.92
851.81	1104.73
852.13	1100.99
852.44	1114.10
852.76	1115.73
853.07	1115.73
853.39	1110.35
853.70	1104.03
854.01	1089.99
854.33	1080.86
854.64	1075.01
854.96	1067.52
855.27	1065.41
855.59	1075.94
855.90	1085.77
856.22	1081.80
856.53	1085.31
856.84	1082.03
857.16	1080.86
857.47	1071.50
857.79	1080.39
858.10	1072.90
858.41	1075.01
858.73	1065.18
859.04	1078.75
859.36	1073.84
859.67	1074.77
859.98	1078.52
860.30	1076.65
860.61	1070.80
860.92	1056.99
861.24	1057.69
861.55	1067.99
861.87	1071.50
862.18	1071.26
862.49	1085.31
862.81	1094.43
863.12	1073.37
863.43	1067.28
863.74	1074.31
864.06	1078.99
864.37	1069.86
864.68	1086.24
865.00	1088.12
865.31	1081.33
865.62	1071.73
865.94	1076.88
866.25	1074.31
866.56	1073.14
866.87	1079.22
867.19	1088.12
867.50	1087.88
867.81	1086.24
868.12	1097.48
868.44	1092.80
868.75	1080.16
869.06	1068.92
869.37	1067.05
869.68	1059.79
870.00	1055.82
870.31	1058.39
870.62	1063.07
870.93	1065.88
871.24	1065.18
871.56	1061.20
871.87	1062.37
872.18	1064.71
872.49	1064.94
872.80	1071.50
873.12	1074.77
873.43	1083.67
873.74	1087.18
874.05	1085.77
874.36	1076.18
874.67	1082.26
874.98	1084.84
875.29	1089.75
875.61	1086.01
875.92	1086.71
876.23	1082.50
876.54	1070.33
876.85	1063.31
877.16	1059.09
877.47	1062.14
877.78	1065.65
878.09	1070.09
878.40	1068.45
878.72	1074.07
879.03	1074.07
879.34	1077.82
879.65	1073.84
879.96	1074.77
880.27	1075.48
880.58	1081.09
880.89	1075.94
881.20	1073.60
881.51	1075.48
881.82	1082.03
882.13	1077.11
882.44	1068.92
882.75	1075.48
883.06	1072.20
883.37	1065.88
883.68	1072.20
883.99	1087.41
884.30	1086.01
884.61	1087.18
884.92	1085.07
885.23	1074.31
885.54	1063.77
885.85	1059.09
886.16	1061.20
886.47	1054.65
886.78	1071.97
887.08	1072.67
887.39	1080.16
887.70	1084.37
888.01	1100.05
888.32	1092.09
888.63	1090.69
888.94	1082.26
889.25	1084.14
889.56	1073.84
889.87	1066.82
890.17	1070.09
890.48	1079.69
890.79	1072.90
891.10	1067.99
891.41	1070.33
891.72	1063.77
892.03	1061.67
892.34	1064.71
892.64	1073.84
892.95	1072.67
893.26	1079.22
893.57	1069.62
893.88	1073.14
894.18	1069.39
894.49	1075.01
894.80	1071.73
895.11	1072.90
895.42	1059.33
895.72	1062.14
896.03	1059.09
896.34	1066.82
896.65	1071.03
896.96	1082.97
897.26	1084.37
897.57	1091.16
897.88	1094.20
898.19	1096.78
898.49	1092.33
898.80	1086.48
899.11	1078.28
899.41	1070.33
899.72	1076.18
900.03	1076.88
900.34	1091.16
900.64	1092.56
900.95	1103.33
901.26	1096.07
901.56	1092.33
901.87	1079.92
902.18	1078.99
902.48	1074.31
902.79	1069.39
903.10	1067.75
903.40	1072.67
903.71	1064.48
904.02	1062.84
904.32	1067.28
904.63	1070.09
904.94	1076.88
905.24	1089.75
905.55	1088.82
905.85	1084.60
906.16	1080.63
906.47	1075.94
906.77	1062.37
907.08	1060.73
907.38	1070.80
907.69	1074.07
908.00	1075.01
908.30	1084.60
908.61	1082.50
908.91	1084.84
909.22	1079.69
909.52	1076.88
909.83	1082.73
910.14	1082.73
910.44	1079.22
910.75	1087.88
911.05	1085.54
911.36	1072.43
911.66	1073.14
911.97	1070.80
912.27	1070.09
912.58	1068.69
912.88	1071.26
913.19	1070.33
913.49	1075.24
913.80	1067.52
914.10	1072.20
914.41	1073.60
914.71	1076.18
915.01	1066.82
915.32	1078.75
915.62	1071.50
915.93	1075.24
916.23	1079.46
916.54	1089.99
916.84	1087.18
917.15	1089.75
917.45	1086.71
917.75	1078.05
918.06	1080.16
918.36	1076.18
918.67	1069.39
918.97	1063.54
919.27	1069.62
919.58	1056.52
919.88	1063.31
920.18	1067.75
920.49	1080.63
920.79	1077.35
921.10	1082.26
921.40	1074.77
921.70	1081.80
922.01	1082.50
922.31	1083.43
922.61	1074.54
922.92	1071.03
923.22	1072.20
923.52	1076.18
923.82	1076.88
924.13	1075.48
924.43	1074.77
924.73	1069.62
925.04	1057.69
925.34	1060.96
925.64	1076.88
925.94	1083.20
926.25	1088.35
926.55	1089.29
926.85	1084.14
927.15	1082.03
927.46	1078.75
927.76	1078.28
928.06	1083.43
928.36	1076.41
928.67	1072.43
928.97	1076.88
929.27	1076.18
929.57	1070.80
929.87	1077.11
930.18	1072.67
930.48	1063.77
930.78	1051.84
931.08	1043.18
931.38	1035.69
931.69	1045.75
931.99	1052.54
932.29	1070.09
932.59	1088.58
932.89	1093.03
933.19	1089.99
933.49	1088.82
933.80	1081.80
934.10	1076.18
934.40	1082.50
934.70	1079.92
935.00	1082.73
935.30	1082.03
935.60	1084.37
935.90	1087.88
936.20	1088.35
936.50	1093.50
936.81	1085.31
937.11	1083.43
937.41	1081.56
937.71	1076.88
938.01	1072.67
938.31	1077.11
938.61	1071.50
938.91	1072.90
939.21	1080.16
939.51	1078.05
939.81	1087.41
940.11	1090.46
940.41	1084.84
940.71	1081.80
941.01	1085.54
941.31	1075.71
941.61	1074.31
941.91	1076.41
942.21	1078.05
942.51	1067.99
942.81	1061.90
943.11	1062.60
943.41	1066.82
943.71	1064.24
944.01	1076.41
944.31	1081.80
944.61	1082.26
944.90	1073.84
945.20	1074.07
945.50	1067.99
945.80	1073.37
946.10	1075.71
946.40	1080.63
946.70	1080.86
947.00	1079.92
947.30	1085.07
947.60	1086.71
947.89	1089.99
948.19	1090.22
948.49	1095.37
948.79	1090.92
949.09	1085.31
949.39	1079.69
949.69	1083.67
949.98	1081.56
950.28	1075.94
950.58	1078.52
950.88	1089.99
951.18	1080.86
951.48	1076.18
951.77	1078.99
952.07	1079.22
952.37	1063.07
952.67	1063.54
952.97	1067.52
953.26	1067.52
953.56	1071.50
953.86	1086.94
954.16	1088.58
954.45	1086.01
954.75	1083.43
955.05	1073.60
955.35	1058.16
955.64	1063.31
955.94	1062.84
956.24	1053.01
956.54	1053.71
956.83	1056.75
957.13	1062.60
957.43	1061.90
957.72	1081.33
958.02	1090.22
958.32	1095.60
958.61	1084.60
958.91	1084.37
959.21	1075.94
959.50	1073.37
959.80	1062.84
960.10	1070.80
960.39	1070.09
960.69	1074.07
960.99	1075.71
961.28	1076.65
961.58	1066.35
961.87	1068.69
962.17	1061.90
962.47	1059.09
962.76	1067.52
963.06	1077.11
963.36	1073.84
963.65	1085.54
963.95	1088.82
964.24	1091.16
964.54	1090.46
964.83	1092.80
965.13	1087.65
965.42	1086.48
965.72	1081.80
966.02	1084.60
966.31	1082.03
966.61	1078.05
966.90	1074.54
967.20	1075.71
967.49	1076.88
967.79	1079.69
968.08	1082.73
968.38	1077.58
968.67	1082.50
968.97	1078.05
969.26	1077.35
969.56	1071.73
969.85	1071.26
970.15	1070.09
970.44	1073.14
970.74	1072.67
971.03	1079.22
971.32	1086.71
971.62	1080.39
971.91	1081.80
972.21	1087.65
972.50	1087.65
972.80	1081.09
973.09	1083.20
973.38	1079.69
973.68	1080.63
973.97	1085.54
974.27	1096.07
974.56	1093.50
974.85	1095.60
975.15	1094.90
975.44	1094.20
975.73	1098.18
976.03	1099.35
976.32	1101.92
976.61	1105.67
976.91	1089.99
977.20	1068.45
977.49	1075.94
977.79	1060.03
978.08	1049.26
978.37	1062.60
978.67	1069.62
978.96	1064.24
979.25	1076.18
979.55	1075.71
979.84	1072.20
980.13	1081.33
980.42	1079.69
980.72	1069.86
981.01	1062.84
981.30	1064.71
981.59	1064.48
981.89	1071.73
982.18	1087.65
982.47	1090.46
982.76	1083.20
983.06	1079.22
983.35	1072.90
983.64	1055.11
983.93	1060.73
984.22	1074.07
984.52	1072.20
984.81	1076.88
985.10	1083.67
985.39	1082.97
985.68	1079.46
985.97	1091.86
986.27	1092.09
986.56	1086.48
986.85	1082.03
987.14	1068.69
987.43	1061.90
987.72	1051.13
988.01	1066.58
988.31	1071.26
988.60	1096.31
988.89	1104.26
989.18	1115.97
989.47	1122.75
989.76	1123.46
990.05	1113.63
990.34	1106.14
990.63	1100.75
990.92	1089.29
991.21	1091.39
991.51	1091.39
991.80	1093.97
992.09	1088.58
992.38	1084.84
992.67	1077.82
992.96	1075.01
993.25	1066.82
993.54	1074.07
993.83	1074.54
994.12	1087.18
994.41	1087.88
994.70	1095.84
994.99	1082.26
995.28	1092.80
995.57	1079.22
995.86	1069.39
996.15	1066.35
996.44	1071.50
996.73	1063.07
997.02	1078.28
997.31	1087.41
997.59	1075.71
997.88	1078.52
998.17	1076.18
998.46	1068.69
998.75	1058.62
999.04	1075.94
999.33	1074.77
999.62	1073.84
999.91	1067.52
1000.20	1088.12
1000.49	1086.01
1000.77	1092.09
1001.06	1094.43
1001.35	1100.29
1001.64	1086.01
1001.93	1078.75
1002.22	1078.05
1002.51	1075.01
1002.79	1073.14
1003.08	1080.63
1003.37	1083.90
1003.66	1070.33
1003.95	1064.48
1004.23	1072.90
1004.52	1069.39
1004.81	1071.97
1005.10	1092.80
1005.39	1100.05
1005.67	1096.54
1005.96	1093.03
1006.25	1093.73
1006.54	1088.12
1006.83	1084.84
1007.11	1087.18
1007.40	1090.22
1007.69	1081.56
1007.97	1074.31
1008.26	1071.97
1008.55	1067.05
1008.84	1069.16
1009.12	1077.82
1009.41	1085.77
1009.70	1091.16
1009.98	1086.71
1010.27	1075.48
1010.56	1078.05
1010.85	1078.99
1011.13	1079.92
1011.42	1080.63
1011.71	1092.09
1011.99	1078.05
1012.28	1070.09
1012.56	1069.16
1012.85	1066.58
1013.14	1055.11
1013.42	1063.07
1013.71	1072.20
1014.00	1072.67
1014.28	1079.22
1014.57	1072.43
1014.85	1074.77
1015.14	1064.94
1015.43	1060.03
1015.71	1067.99
1016.00	1078.75
1016.28	1080.63
1016.57	1085.77
1016.85	1081.33
1017.14	1077.35
1017.43	1085.31
1017.71	1087.65
1018.00	1086.94
1018.28	1090.46
1018.57	1082.97
1018.85	1072.67
1019.14	1063.31
1019.42	1061.20
1019.71	1057.69
1019.99	1062.60
1020.28	1069.86
1020.56	1066.11
1020.85	1074.77
1021.13	1080.86
1021.42	1080.63
1021.70	1082.03
1021.99	1086.24
1022.27	1082.50
1022.55	1073.14
1022.84	1088.35
>>>>>End Processed Spectral Data<<<<<
