SpectraSuite Data File
++++++++++++++++++++++++++++++++++++
Date: Mon Aug 26 10:24:41 PDT 2019
User: corrico
Dark Spectrum Present: No
Reference Spectrum Present: No
Number of Sampled Component Spectra: 1
Spectrometers: USB2+H06089
Integration Time (usec): 10000 (USB2+H06089)
Spectra Averaged: 2 (USB2+H06089)
Boxcar Smoothing: 2 (USB2+H06089)
Correct for Electrical Dark: No (USB2+H06089)
Strobe/Lamp Enabled: No (USB2+H06089)
Correct for Detector Non-linearity: No (USB2+H06089)
Correct for Stray Light: No (USB2+H06089)
Number of Pixels in Processed Spectrum: 2048
>>>>>Begin Processed Spectral Data<<<<<
339.70	1020.47
340.07	1020.47
340.45	989.81
340.82	972.73
341.19	957.98
341.57	936.92
341.94	935.28
342.31	918.43
342.69	915.38
343.06	914.21
343.43	920.53
343.81	912.11
344.18	923.58
344.55	918.66
344.93	912.34
345.30	910.23
345.67	916.79
346.04	913.28
346.42	926.62
346.79	932.24
347.16	947.21
347.54	964.30
347.91	974.83
348.28	986.07
348.65	1003.86
349.03	1011.35
349.40	1023.28
349.77	1043.88
350.14	1057.45
350.52	1070.80
350.89	1066.35
351.26	1060.73
351.63	1062.37
352.01	1053.48
352.38	1049.50
352.75	1064.48
353.12	1090.92
353.50	1088.12
353.87	1089.99
354.24	1083.20
354.61	1081.80
354.98	1068.69
355.36	1078.28
355.73	1084.14
356.10	1095.60
356.47	1088.35
356.84	1089.75
357.22	1086.01
357.59	1082.97
357.96	1078.05
358.33	1087.41
358.70	1094.20
359.08	1100.52
359.45	1107.78
359.82	1115.73
360.19	1112.92
360.56	1107.31
360.94	1101.46
361.31	1106.37
361.68	1112.22
362.05	1117.37
362.42	1115.73
362.79	1111.29
363.16	1096.78
363.54	1098.18
363.91	1093.73
364.28	1084.60
364.65	1090.92
365.02	1100.29
365.39	1084.14
365.76	1081.56
366.14	1092.09
366.51	1088.82
366.88	1083.67
367.25	1090.92
367.62	1090.22
367.99	1085.07
368.36	1076.65
368.73	1088.82
369.10	1094.90
369.48	1097.48
369.85	1100.52
370.22	1111.99
370.59	1106.14
370.96	1095.37
371.33	1092.80
371.70	1089.75
372.07	1087.88
372.44	1096.07
372.81	1103.33
373.18	1107.54
373.55	1113.63
373.93	1108.48
374.30	1095.60
374.67	1095.84
375.04	1087.65
375.41	1089.99
375.78	1100.29
376.15	1102.16
376.52	1095.60
376.89	1103.56
377.26	1104.03
377.63	1093.97
378.00	1092.56
378.37	1088.35
378.74	1085.31
379.11	1077.58
379.48	1088.12
379.85	1096.54
380.22	1097.71
380.59	1111.29
380.96	1108.24
381.33	1101.46
381.70	1103.33
382.07	1110.12
382.44	1106.37
382.81	1114.09
383.18	1108.95
383.55	1104.03
383.92	1104.50
384.29	1102.16
384.66	1105.67
385.03	1106.61
385.40	1103.09
385.77	1103.33
386.14	1099.58
386.51	1099.12
386.88	1105.44
387.25	1109.41
387.62	1106.61
387.99	1111.52
388.36	1111.52
388.73	1117.14
389.10	1128.37
389.46	1137.03
389.83	1143.12
390.20	1141.01
390.57	1137.03
390.94	1115.97
391.31	1110.12
391.68	1094.67
392.05	1092.80
392.42	1094.90
392.79	1108.71
393.16	1111.75
393.53	1119.48
393.89	1130.48
394.26	1131.18
394.63	1136.33
395.00	1139.14
395.37	1143.35
395.74	1138.90
396.11	1153.18
396.48	1152.01
396.84	1163.25
397.21	1171.44
397.58	1184.55
397.95	1176.82
398.32	1192.74
398.69	1183.84
399.06	1181.97
399.42	1182.91
399.79	1188.29
400.16	1174.25
400.53	1182.91
400.90	1190.63
401.27	1185.72
401.64	1188.99
402.00	1200.23
402.37	1209.82
402.74	1214.97
403.11	1239.55
403.48	1258.97
403.84	1274.42
404.21	1272.32
404.58	1294.32
404.95	1302.74
405.32	1311.64
405.68	1327.79
406.05	1362.89
406.42	1390.28
406.79	1407.60
407.16	1438.26
407.52	1465.41
407.89	1494.43
408.26	1534.46
408.63	1578.46
408.99	1617.78
409.36	1665.06
409.73	1713.27
410.10	1758.44
410.47	1809.47
410.83	1871.96
411.20	1924.39
411.57	1994.60
411.94	2049.14
412.30	2121.93
412.67	2198.00
413.04	2293.96
413.40	2393.90
413.77	2516.54
414.14	2627.25
414.51	2743.34
414.87	2888.92
415.24	3027.72
415.61	3154.57
415.97	3317.48
416.34	3501.21
416.71	3671.13
417.08	3861.18
417.44	4059.19
417.81	4312.91
418.18	4546.49
418.54	4797.40
418.91	5059.77
419.28	5393.30
419.64	5673.46
420.01	6019.16
420.38	6383.81
420.74	6722.95
421.11	7109.38
421.48	7521.31
421.84	7930.67
422.21	8361.10
422.58	8870.86
422.94	9371.74
423.31	9893.91
423.68	10471.09
424.04	11105.84
424.41	11722.34
424.77	12336.26
425.14	12995.82
425.51	13679.96
425.87	14395.93
426.24	15175.57
426.61	16119.74
426.97	17123.59
427.34	18066.13
427.70	19125.69
428.07	20132.82
428.44	21120.76
428.80	22061.42
429.17	23178.79
429.53	24192.01
429.90	25432.03
430.27	26540.97
430.63	27776.07
431.00	29083.26
431.36	30540.95
431.73	31845.09
432.09	33187.39
432.46	34456.20
432.83	35752.15
433.19	36996.61
433.56	38502.51
433.92	40093.84
434.29	41713.03
434.65	43234.61
435.02	44550.93
435.38	45710.90
435.75	46564.49
436.11	47788.12
436.48	48815.38
436.84	49853.64
437.21	50827.07
437.57	51909.57
437.94	52539.64
438.30	53067.90
438.67	53384.58
439.03	53497.39
439.40	53594.99
439.76	53400.73
440.13	53143.74
440.49	53132.03
440.86	52782.83
441.22	52360.59
441.59	51850.12
441.95	51325.61
442.32	50415.14
442.68	49750.66
443.05	48818.89
443.41	47881.51
443.78	46805.80
444.14	45829.80
444.51	44503.41
444.87	43487.15
445.24	42269.37
445.60	41106.36
445.96	39872.90
446.33	39000.58
446.69	37845.06
447.06	36969.93
447.42	35997.91
447.79	34918.69
448.15	33899.85
448.51	32895.29
448.88	31958.38
449.24	30919.88
449.61	30184.72
449.97	29347.28
450.33	28626.39
450.70	27775.84
451.06	27218.79
451.43	26460.69
451.79	25896.16
452.15	25284.34
452.52	24739.70
452.88	24095.35
453.24	23551.64
453.61	22909.40
453.97	22275.58
454.34	21614.38
454.70	21065.76
455.06	20478.05
455.43	19813.10
455.79	19039.56
456.15	18470.57
456.52	17759.52
456.88	17163.38
457.24	16581.76
457.61	16155.08
457.97	15597.80
458.33	15092.94
458.70	14557.20
459.06	14006.70
459.42	13530.87
459.79	12985.76
460.15	12557.44
460.51	12128.89
460.88	11730.53
461.24	11296.13
461.60	10974.30
461.96	10603.09
462.33	10253.65
462.69	9929.02
463.05	9626.16
463.42	9334.29
463.78	9047.57
464.14	8787.07
464.50	8520.02
464.87	8238.45
465.23	7972.10
465.59	7748.11
465.95	7490.18
466.32	7291.94
466.68	7107.97
467.04	6921.43
467.40	6759.70
467.77	6627.23
468.13	6435.77
468.49	6291.36
468.85	6143.44
469.22	6001.37
469.58	5835.42
469.94	5716.52
470.30	5578.67
470.66	5466.56
471.03	5340.87
471.39	5259.65
471.75	5151.29
472.11	5048.77
472.47	4955.15
472.84	4848.42
473.20	4719.46
473.56	4627.94
473.92	4506.23
474.28	4395.06
474.65	4305.18
475.01	4231.69
475.37	4131.51
475.73	4072.53
476.09	3995.29
476.45	3901.67
476.81	3833.56
477.18	3764.99
477.54	3684.24
477.90	3598.81
478.26	3539.59
478.62	3469.61
478.98	3410.39
479.34	3364.99
479.71	3323.33
480.07	3278.39
480.43	3237.90
480.79	3170.96
481.15	3115.96
481.51	3066.57
481.87	3018.59
482.23	2947.90
482.59	2885.18
482.96	2829.71
483.32	2777.75
483.68	2744.28
484.04	2720.87
484.40	2698.64
484.76	2679.45
485.12	2644.81
485.48	2584.19
485.84	2535.03
486.20	2509.99
486.56	2456.86
486.92	2433.92
487.28	2415.67
487.64	2393.43
488.00	2344.75
488.37	2315.02
488.73	2275.70
489.09	2236.85
489.45	2202.21
489.81	2172.25
490.17	2139.48
490.53	2103.21
490.89	2062.48
491.25	2035.56
491.61	2029.24
491.97	2003.50
492.33	2000.22
492.69	1976.11
493.05	1941.94
493.41	1908.24
493.77	1882.96
494.13	1830.06
494.49	1812.04
494.85	1797.53
495.21	1766.87
495.57	1760.32
495.93	1760.79
496.29	1741.36
496.64	1717.95
497.00	1702.74
497.36	1674.65
497.72	1649.38
498.08	1641.18
498.44	1628.78
498.80	1616.14
499.16	1600.46
499.52	1585.24
499.88	1565.58
500.24	1548.97
500.60	1533.05
500.96	1530.24
501.32	1515.50
501.68	1502.39
502.03	1493.03
502.39	1479.92
502.75	1464.94
503.11	1459.56
503.47	1443.88
503.83	1432.41
504.19	1427.49
504.55	1416.02
504.91	1409.24
505.26	1410.17
505.62	1407.60
505.98	1398.47
506.34	1387.94
506.70	1374.83
507.06	1367.11
507.42	1352.13
507.78	1346.98
508.13	1332.23
508.49	1334.81
508.85	1331.06
509.21	1322.17
509.57	1321.23
509.93	1310.47
510.28	1289.87
510.64	1280.98
511.00	1277.00
511.36	1266.93
511.72	1277.70
512.07	1279.80
512.43	1269.51
512.79	1267.17
513.15	1256.17
513.51	1245.87
513.86	1233.46
514.22	1237.44
514.58	1239.78
514.94	1237.44
515.30	1239.78
515.65	1241.65
516.01	1237.91
516.37	1221.76
516.73	1227.38
517.08	1223.87
517.44	1224.33
517.80	1214.97
518.16	1212.87
518.51	1197.42
518.87	1187.35
519.23	1191.33
519.59	1189.69
519.94	1194.61
520.30	1205.61
520.66	1208.42
521.01	1200.69
521.37	1199.29
521.73	1194.61
522.09	1188.52
522.44	1188.06
522.80	1189.69
523.16	1186.42
523.51	1182.20
523.87	1172.61
524.23	1163.48
524.58	1153.42
524.94	1150.61
525.30	1148.73
525.65	1155.05
526.01	1159.74
526.37	1160.44
526.72	1155.29
527.08	1155.52
527.44	1147.33
527.79	1147.80
528.15	1150.14
528.51	1153.65
528.86	1152.25
529.22	1157.86
529.58	1151.54
529.93	1145.46
530.29	1159.50
530.65	1161.37
531.00	1160.20
531.36	1163.01
531.71	1166.29
532.07	1152.25
532.43	1153.88
532.78	1147.33
533.14	1147.80
533.49	1142.42
533.85	1146.86
534.21	1156.69
534.56	1158.80
534.92	1157.16
535.27	1159.97
535.63	1149.91
535.98	1142.18
536.34	1141.48
536.69	1140.31
537.05	1137.97
537.41	1140.54
537.76	1138.67
538.12	1139.37
538.47	1137.97
538.83	1133.76
539.18	1132.82
539.54	1128.14
539.89	1128.14
540.25	1129.07
540.60	1128.37
540.96	1130.24
541.31	1133.52
541.67	1140.07
542.02	1148.03
542.38	1149.91
542.73	1157.86
543.09	1154.59
543.44	1149.67
543.80	1139.14
544.15	1137.03
544.51	1124.63
544.86	1130.71
545.22	1118.07
545.57	1108.01
545.93	1105.67
546.28	1111.05
546.64	1113.16
546.99	1122.99
547.35	1128.84
547.70	1126.50
548.05	1123.69
548.41	1106.61
548.76	1103.33
549.12	1105.20
549.47	1118.54
549.83	1122.99
550.18	1132.12
550.53	1137.50
550.89	1128.37
551.24	1118.78
551.60	1117.37
551.95	1114.56
552.30	1111.99
552.66	1110.12
553.01	1108.48
553.37	1107.78
553.72	1116.44
554.07	1112.46
554.43	1122.52
554.78	1118.78
555.13	1123.46
555.49	1117.37
555.84	1115.97
556.19	1117.61
556.55	1131.18
556.90	1125.33
557.26	1127.44
557.61	1131.18
557.96	1131.65
558.32	1122.29
558.67	1116.44
559.02	1110.58
559.37	1111.75
559.73	1115.50
560.08	1123.46
560.43	1128.61
560.79	1123.46
561.14	1120.88
561.49	1117.14
561.85	1108.24
562.20	1109.88
562.55	1121.12
562.90	1130.24
563.26	1122.29
563.61	1118.31
563.96	1114.33
564.32	1102.86
564.67	1100.05
565.02	1107.54
565.37	1114.33
565.73	1120.18
566.08	1118.31
566.43	1112.69
566.78	1106.84
567.14	1105.90
567.49	1099.35
567.84	1115.50
568.19	1107.07
568.54	1115.50
568.90	1117.84
569.25	1113.16
569.60	1104.97
569.95	1108.48
570.31	1108.95
570.66	1115.73
571.01	1125.33
571.36	1126.03
571.71	1130.01
572.06	1130.01
572.42	1120.65
572.77	1099.12
573.12	1101.22
573.47	1107.07
573.82	1105.44
574.18	1109.18
574.53	1120.18
574.88	1119.71
575.23	1117.37
575.58	1104.97
575.93	1100.75
576.28	1110.58
576.64	1111.29
576.99	1115.97
577.34	1130.24
577.69	1129.54
578.04	1132.12
578.39	1120.88
578.74	1108.71
579.09	1104.73
579.44	1108.95
579.80	1099.82
580.15	1108.24
580.50	1118.07
580.85	1125.10
581.20	1129.78
581.55	1132.12
581.90	1134.46
582.25	1129.31
582.60	1126.73
582.95	1120.41
583.30	1118.78
583.65	1110.35
584.00	1109.88
584.35	1104.97
584.71	1106.37
585.06	1100.99
585.41	1103.56
585.76	1102.86
586.11	1099.12
586.46	1092.09
586.81	1096.07
587.16	1101.46
587.51	1105.90
587.86	1100.29
588.21	1102.39
588.56	1100.05
588.91	1103.56
589.26	1097.48
589.61	1099.82
589.96	1104.50
590.31	1104.50
590.66	1095.60
591.01	1098.41
591.36	1102.63
591.71	1100.29
592.06	1110.35
592.41	1112.69
592.76	1106.61
593.10	1107.07
593.45	1111.75
593.80	1105.90
594.15	1103.56
594.50	1103.80
594.85	1096.54
595.20	1087.41
595.55	1096.78
595.90	1097.95
596.25	1110.12
596.60	1108.71
596.95	1111.29
597.30	1102.63
597.64	1142.18
597.99	1143.59
598.34	1144.99
598.69	1141.48
599.04	1141.71
599.39	1104.50
599.74	1104.73
600.09	1121.58
600.44	1135.86
600.78	1140.07
601.13	1140.54
601.48	1134.22
601.83	1122.52
602.18	1108.95
602.53	1101.46
602.88	1101.22
603.22	1098.18
603.57	1103.09
603.92	1101.69
604.27	1109.41
604.62	1112.46
604.97	1120.41
605.31	1119.48
605.66	1122.52
606.01	1115.27
606.36	1102.39
606.71	1092.56
607.05	1090.92
607.40	1090.46
607.75	1100.99
608.10	1100.52
608.44	1099.35
608.79	1100.29
609.14	1105.67
609.49	1099.82
609.84	1104.03
610.18	1102.63
610.53	1109.41
610.88	1108.95
611.23	1112.22
611.57	1109.88
611.92	1105.90
612.27	1100.99
612.62	1093.97
612.96	1086.48
613.31	1096.54
613.66	1104.97
614.00	1104.50
614.35	1111.05
614.70	1116.20
615.05	1108.01
615.39	1109.41
615.74	1101.92
616.09	1094.43
616.43	1077.58
616.78	1087.18
617.13	1089.75
617.47	1100.52
617.82	1103.09
618.17	1110.82
618.51	1104.26
618.86	1097.95
619.21	1085.54
619.55	1093.73
619.90	1098.18
620.25	1107.07
620.59	1098.65
620.94	1101.92
621.29	1102.16
621.63	1108.71
621.98	1095.14
622.32	1104.26
622.67	1110.12
623.02	1109.88
623.36	1107.31
623.71	1108.01
624.05	1119.71
624.40	1120.41
624.75	1114.56
625.09	1119.24
625.44	1123.69
625.78	1113.86
626.13	1110.35
626.48	1113.16
626.82	1104.03
627.17	1100.05
627.51	1098.41
627.86	1091.39
628.20	1090.46
628.55	1088.58
628.89	1099.82
629.24	1105.67
629.58	1107.78
629.93	1106.84
630.28	1108.48
630.62	1101.22
630.97	1087.88
631.31	1087.88
631.66	1089.75
632.00	1092.80
632.35	1093.03
632.69	1095.14
633.04	1085.31
633.38	1086.71
633.73	1076.65
634.07	1081.80
634.42	1082.03
634.76	1089.29
635.11	1079.69
635.45	1077.11
635.79	1061.90
636.14	1062.60
636.48	1067.05
636.83	1063.54
637.17	1064.71
637.52	1076.18
637.86	1082.73
638.21	1078.28
638.55	1084.37
638.89	1096.07
639.24	1087.18
639.58	1089.99
639.93	1099.35
640.27	1104.03
640.61	1109.41
640.96	1109.41
641.30	1103.56
641.65	1103.09
641.99	1091.39
642.33	1082.50
642.68	1093.50
643.02	1095.37
643.37	1094.43
643.71	1108.01
644.05	1111.52
644.40	1102.63
644.74	1095.84
645.08	1098.88
645.43	1087.18
645.77	1084.60
646.11	1094.20
646.46	1098.18
646.80	1086.24
647.14	1096.78
647.49	1102.39
647.83	1094.43
648.17	1099.12
648.52	1102.63
648.86	1087.41
649.20	1086.94
649.55	1085.07
649.89	1084.60
650.23	1086.01
650.57	1094.67
650.92	1088.12
651.26	1090.22
651.60	1085.31
651.95	1092.33
652.29	1098.41
652.63	1097.24
652.97	1096.78
653.32	1104.73
653.66	1098.65
654.00	1095.14
654.34	1091.39
654.69	1093.97
655.03	1087.65
655.37	1093.50
655.71	1093.73
656.05	1088.82
656.40	1086.01
656.74	1091.86
657.08	1085.54
657.42	1080.16
657.76	1085.31
658.11	1079.22
658.45	1063.77
658.79	1070.09
659.13	1078.28
659.47	1073.14
659.82	1082.03
660.16	1092.09
660.50	1085.31
660.84	1080.86
661.18	1092.80
661.52	1097.01
661.87	1100.05
662.21	1099.82
662.55	1098.18
662.89	1094.43
663.23	1093.26
663.57	1083.20
663.91	1081.80
664.25	1084.60
664.60	1088.35
664.94	1086.01
665.28	1094.43
665.62	1095.37
665.96	1104.97
666.30	1101.69
666.64	1091.86
666.98	1092.56
667.32	1096.07
667.66	1084.14
668.01	1081.56
668.35	1088.58
668.69	1092.09
669.03	1087.18
669.37	1085.07
669.71	1091.63
670.05	1094.43
670.39	1082.03
670.73	1078.75
671.07	1082.73
671.41	1077.11
671.75	1067.99
672.09	1076.88
672.43	1078.75
672.77	1086.01
673.11	1091.86
673.45	1102.86
673.79	1098.18
674.13	1101.22
674.47	1089.52
674.81	1082.26
675.15	1079.69
675.49	1070.80
675.83	1075.24
676.17	1079.69
676.51	1078.28
676.85	1069.16
677.19	1078.75
677.53	1073.60
677.87	1071.26
678.21	1072.43
678.55	1083.90
678.89	1082.73
679.23	1084.37
679.57	1087.65
679.90	1098.65
680.24	1091.86
680.58	1096.07
680.92	1097.71
681.26	1097.95
681.60	1094.20
681.94	1101.46
682.28	1100.75
682.62	1099.35
682.96	1102.16
683.29	1102.86
683.63	1094.43
683.97	1094.43
684.31	1089.99
684.65	1086.94
684.99	1081.33
685.33	1080.39
685.67	1086.48
686.00	1086.24
686.34	1082.73
686.68	1078.75
687.02	1082.26
687.36	1070.09
687.70	1077.82
688.03	1079.46
688.37	1083.43
688.71	1077.35
689.05	1089.29
689.39	1085.31
689.72	1078.52
690.06	1074.07
690.40	1078.75
690.74	1065.65
691.08	1059.09
691.41	1060.73
691.75	1058.86
692.09	1058.39
692.43	1070.56
692.76	1074.77
693.10	1084.14
693.44	1084.84
693.78	1083.67
694.11	1083.67
694.45	1083.67
694.79	1075.71
695.13	1083.43
695.46	1088.58
695.80	1081.09
696.14	1090.46
696.48	1100.05
696.81	1101.22
697.15	1088.82
697.49	1086.24
697.82	1081.80
698.16	1083.43
698.50	1085.77
698.83	1092.09
699.17	1100.99
699.51	1106.84
699.84	1091.63
700.18	1090.92
700.52	1098.18
700.85	1087.65
701.19	1081.33
701.53	1092.80
701.86	1084.37
702.20	1075.71
702.54	1084.37
702.87	1085.07
703.21	1082.73
703.55	1087.65
703.88	1094.90
704.22	1094.20
704.55	1092.09
704.89	1089.99
705.23	1089.99
705.56	1087.18
705.90	1084.60
706.23	1084.60
706.57	1078.75
706.91	1073.60
707.24	1075.94
707.58	1074.54
707.91	1070.56
708.25	1087.18
708.58	1092.33
708.92	1092.09
709.26	1097.95
709.59	1100.52
709.93	1087.65
710.26	1081.80
710.60	1076.18
710.93	1061.90
711.27	1059.56
711.60	1068.92
711.94	1076.18
712.27	1089.99
712.61	1108.01
712.94	1109.18
713.28	1113.16
713.61	1116.67
713.95	1107.07
714.28	1093.50
714.62	1091.39
714.95	1093.26
715.29	1090.92
715.62	1095.37
715.96	1099.12
716.29	1100.05
716.63	1081.80
716.96	1073.14
717.29	1078.52
717.63	1084.37
717.96	1087.18
718.30	1097.48
718.63	1105.44
718.97	1096.31
719.30	1091.16
719.63	1088.35
719.97	1078.28
720.30	1073.84
720.64	1067.99
720.97	1082.26
721.30	1083.43
721.64	1089.52
721.97	1087.18
722.31	1096.07
722.64	1081.09
722.97	1094.67
723.31	1101.22
723.64	1110.58
723.97	1113.86
724.31	1113.63
724.64	1097.24
724.98	1085.31
725.31	1080.86
725.64	1076.18
725.98	1078.99
726.31	1084.14
726.64	1089.99
726.97	1086.24
727.31	1082.73
727.64	1087.65
727.97	1089.29
728.31	1079.22
728.64	1077.82
728.97	1084.14
729.31	1075.94
729.64	1074.07
729.97	1072.90
730.30	1078.28
730.64	1075.24
730.97	1090.46
731.30	1094.20
731.63	1102.63
731.97	1102.86
732.30	1104.73
732.63	1088.58
732.96	1079.92
733.30	1089.05
733.63	1094.20
733.96	1090.46
734.29	1097.71
734.63	1109.41
734.96	1105.20
735.29	1102.86
735.62	1110.82
735.95	1106.37
736.29	1094.67
736.62	1082.97
736.95	1077.58
737.28	1071.03
737.61	1073.60
737.94	1071.97
738.28	1077.11
738.61	1079.22
738.94	1073.14
739.27	1067.75
739.60	1084.14
739.93	1095.84
740.27	1100.75
740.60	1104.26
740.93	1106.37
741.26	1095.14
741.59	1082.03
741.92	1078.52
742.25	1092.56
742.58	1101.22
742.91	1104.26
743.25	1108.24
743.58	1114.80
743.91	1107.07
744.24	1094.43
744.57	1093.97
744.90	1104.50
745.23	1097.48
745.56	1097.71
745.89	1099.82
746.22	1099.12
746.55	1080.16
746.88	1067.99
747.21	1056.52
747.54	1064.24
747.87	1059.56
748.20	1064.48
748.53	1074.54
748.87	1078.52
749.20	1079.92
749.53	1089.99
749.86	1083.67
750.19	1083.43
750.52	1086.01
750.85	1081.33
751.18	1077.82
751.51	1091.39
751.84	1093.97
752.16	1083.20
752.49	1081.56
752.82	1073.37
753.15	1065.88
753.48	1063.77
753.81	1073.60
754.14	1067.75
754.47	1071.97
754.80	1073.84
755.13	1067.75
755.46	1062.14
755.79	1064.01
756.12	1071.73
756.45	1067.52
756.78	1076.65
757.11	1079.69
757.43	1079.22
757.76	1082.03
758.09	1091.63
758.42	1078.52
758.75	1087.88
759.08	1090.92
759.41	1084.60
759.74	1079.92
760.07	1088.82
760.39	1080.63
760.72	1075.01
761.05	1083.20
761.38	1091.16
761.71	1095.60
762.04	1094.67
762.36	1102.63
762.69	1096.07
763.02	1094.67
763.35	1094.20
763.68	1095.37
764.01	1091.63
764.33	1095.84
764.66	1092.56
764.99	1083.67
765.32	1076.18
765.65	1074.31
765.97	1068.69
766.30	1068.22
766.63	1076.65
766.96	1083.20
767.28	1087.18
767.61	1085.07
767.94	1087.41
768.27	1082.03
768.59	1082.97
768.92	1081.56
769.25	1077.58
769.58	1070.09
769.90	1076.88
770.23	1080.86
770.56	1079.69
770.89	1084.14
771.21	1091.63
771.54	1086.24
771.87	1079.69
772.19	1078.05
772.52	1080.39
772.85	1082.03
773.17	1084.14
773.50	1079.69
773.83	1073.84
774.15	1068.45
774.48	1062.84
774.81	1067.75
775.13	1072.90
775.46	1085.07
775.79	1090.46
776.11	1094.20
776.44	1090.46
776.77	1098.41
777.09	1091.39
777.42	1090.22
777.74	1093.50
778.07	1100.29
778.40	1089.52
778.72	1088.35
779.05	1085.77
779.37	1082.03
779.70	1076.65
780.03	1079.92
780.35	1095.37
780.68	1099.58
781.00	1105.67
781.33	1097.71
781.65	1101.92
781.98	1100.05
782.31	1104.26
782.63	1095.84
782.96	1098.18
783.28	1100.05
783.61	1085.54
783.93	1077.35
784.26	1083.90
784.58	1088.58
784.91	1085.54
785.23	1088.35
785.56	1079.69
785.88	1065.18
786.21	1066.58
786.53	1070.09
786.86	1076.41
787.18	1075.71
787.51	1076.18
787.83	1073.60
788.16	1072.67
788.48	1066.35
788.81	1081.56
789.13	1095.37
789.46	1103.56
789.78	1101.92
790.10	1107.54
790.43	1098.65
790.75	1094.43
791.08	1084.14
791.40	1079.69
791.73	1075.01
792.05	1066.35
792.37	1071.26
792.70	1072.67
793.02	1078.52
793.35	1080.16
793.67	1090.69
793.99	1078.52
794.32	1082.73
794.64	1073.14
794.96	1076.18
795.29	1072.20
795.61	1074.31
795.93	1069.62
796.26	1078.28
796.58	1075.01
796.91	1067.52
797.23	1065.65
797.55	1064.71
797.87	1062.37
798.20	1064.24
798.52	1066.35
798.84	1071.73
799.17	1067.28
799.49	1057.92
799.81	1053.71
800.14	1066.11
800.46	1065.65
800.78	1065.88
801.10	1081.56
801.43	1094.67
801.75	1080.86
802.07	1081.56
802.40	1090.22
802.72	1090.92
803.04	1079.46
803.36	1092.80
803.69	1090.69
804.01	1082.97
804.33	1079.46
804.65	1081.56
804.97	1073.60
805.30	1067.99
805.62	1075.24
805.94	1069.16
806.26	1075.01
806.58	1075.71
806.91	1066.35
807.23	1068.45
807.55	1068.45
807.87	1063.77
808.19	1078.05
808.52	1092.56
808.84	1090.22
809.16	1080.16
809.48	1092.33
809.80	1079.22
810.12	1084.60
810.44	1079.22
810.77	1096.07
811.09	1078.52
811.41	1082.97
811.73	1084.14
812.05	1094.67
812.37	1089.52
812.69	1087.88
813.01	1094.43
813.33	1089.52
813.66	1081.80
813.98	1082.73
814.30	1088.35
814.62	1079.22
814.94	1077.35
815.26	1079.92
815.58	1086.48
815.90	1081.56
816.22	1084.37
816.54	1081.80
816.86	1076.18
817.18	1071.26
817.50	1069.39
817.82	1064.48
818.14	1075.48
818.46	1074.07
818.78	1077.58
819.10	1086.48
819.42	1093.73
819.74	1093.97
820.06	1096.31
820.38	1097.24
820.70	1096.31
821.02	1091.86
821.34	1078.75
821.66	1073.60
821.98	1069.62
822.30	1074.77
822.62	1069.86
822.94	1067.52
823.26	1074.77
823.58	1062.37
823.90	1047.16
824.22	1059.79
824.54	1066.58
824.86	1062.37
825.18	1069.62
825.50	1079.69
825.81	1076.41
826.13	1081.33
826.45	1087.88
826.77	1089.75
827.09	1092.80
827.41	1084.14
827.73	1082.03
828.05	1081.09
828.36	1079.92
828.68	1064.94
829.00	1067.99
829.32	1073.60
829.64	1067.52
829.96	1057.92
830.28	1067.99
830.59	1066.82
830.91	1057.45
831.23	1059.33
831.55	1071.50
831.87	1070.33
832.19	1076.88
832.50	1073.37
832.82	1075.48
833.14	1067.52
833.46	1067.99
833.78	1066.35
834.09	1066.82
834.41	1062.37
834.73	1076.88
835.05	1077.11
835.36	1079.22
835.68	1078.28
836.00	1074.31
836.32	1069.62
836.63	1079.46
836.95	1072.90
837.27	1079.22
837.59	1088.35
837.90	1088.58
838.22	1082.97
838.54	1085.31
838.85	1090.46
839.17	1096.31
839.49	1094.67
839.80	1093.26
840.12	1091.16
840.44	1074.77
840.76	1064.71
841.07	1064.24
841.39	1059.33
841.71	1062.84
842.02	1081.09
842.34	1078.99
842.65	1081.56
842.97	1081.56
843.29	1083.90
843.60	1081.09
843.92	1088.12
844.24	1086.24
844.55	1087.65
844.87	1080.86
845.18	1089.75
845.50	1093.73
845.82	1099.12
846.13	1097.01
846.45	1103.33
846.76	1093.50
847.08	1085.07
847.40	1089.75
847.71	1089.99
848.03	1082.26
848.34	1077.58
848.66	1077.58
848.97	1081.33
849.29	1090.69
849.60	1083.20
849.92	1093.97
850.24	1092.56
850.55	1075.24
850.87	1061.90
851.18	1080.63
851.50	1075.94
851.81	1073.60
852.13	1074.31
852.44	1080.39
852.76	1070.80
853.07	1063.54
853.39	1061.20
853.70	1066.82
854.01	1070.56
854.33	1070.80
854.64	1073.37
854.96	1082.50
855.27	1082.03
855.59	1075.24
855.90	1078.05
856.22	1078.52
856.53	1076.65
856.84	1067.99
857.16	1067.28
857.47	1068.22
857.79	1065.88
858.10	1063.77
858.41	1064.94
858.73	1067.75
859.04	1071.26
859.36	1072.67
859.67	1075.71
859.98	1080.39
860.30	1093.03
860.61	1089.99
860.92	1098.41
861.24	1100.99
861.55	1103.09
861.87	1093.03
862.18	1085.31
862.49	1069.62
862.81	1075.01
863.12	1078.99
863.43	1073.60
863.74	1078.05
864.06	1076.41
864.37	1056.75
864.68	1044.11
865.00	1051.13
865.31	1056.52
865.62	1065.88
865.94	1076.88
866.25	1089.05
866.56	1088.82
866.87	1090.46
867.19	1089.75
867.50	1093.97
867.81	1083.43
868.12	1082.73
868.44	1074.07
868.75	1076.65
869.06	1081.56
869.37	1083.43
869.68	1088.12
870.00	1091.63
870.31	1089.99
870.62	1081.09
870.93	1086.01
871.24	1079.22
871.56	1081.56
871.87	1082.03
872.18	1085.54
872.49	1079.92
872.80	1073.14
873.12	1074.07
873.43	1074.07
873.74	1071.03
874.05	1064.24
874.36	1063.54
874.67	1071.03
874.98	1070.56
875.29	1069.62
875.61	1084.14
875.92	1091.16
876.23	1086.24
876.54	1076.41
876.85	1082.97
877.16	1077.11
877.47	1077.35
877.78	1076.18
878.09	1091.63
878.40	1084.60
878.72	1086.71
879.03	1088.58
879.34	1080.63
879.65	1077.11
879.96	1075.48
880.27	1079.22
880.58	1076.65
880.89	1081.33
881.20	1067.75
881.51	1077.11
881.82	1071.73
882.13	1074.07
882.44	1081.09
882.75	1094.67
883.06	1089.52
883.37	1089.05
883.68	1088.58
883.99	1088.35
884.30	1088.35
884.61	1088.35
884.92	1096.07
885.23	1097.01
885.54	1089.52
885.85	1085.31
886.16	1078.28
886.47	1068.92
886.78	1071.26
887.08	1072.43
887.39	1089.99
887.70	1095.84
888.01	1102.16
888.32	1090.92
888.63	1105.20
888.94	1096.31
889.25	1093.97
889.56	1094.43
889.87	1112.22
890.17	1097.01
890.48	1089.99
890.79	1102.86
891.10	1100.29
891.41	1086.94
891.72	1086.48
892.03	1091.63
892.34	1078.05
892.64	1071.50
892.95	1075.01
893.26	1068.92
893.57	1059.09
893.88	1060.96
894.18	1068.45
894.49	1058.62
894.80	1059.56
895.11	1069.39
895.42	1068.22
895.72	1064.48
896.03	1072.20
896.34	1076.41
896.65	1069.16
896.96	1080.86
897.26	1088.35
897.57	1096.07
897.88	1093.50
898.19	1089.05
898.49	1077.35
898.80	1070.56
899.11	1059.79
899.41	1058.62
899.72	1064.01
900.03	1068.45
900.34	1065.88
900.64	1065.41
900.95	1066.35
901.26	1071.03
901.56	1065.18
901.87	1067.75
902.18	1076.41
902.48	1089.05
902.79	1084.37
903.10	1088.12
903.40	1081.33
903.71	1080.86
904.02	1074.31
904.32	1070.56
904.63	1064.01
904.94	1077.58
905.24	1080.16
905.55	1076.65
905.85	1075.71
906.16	1083.90
906.47	1080.39
906.77	1069.62
907.08	1068.92
907.38	1068.45
907.69	1067.05
908.00	1059.33
908.30	1060.73
908.61	1048.56
908.91	1045.99
909.22	1052.77
909.52	1057.92
909.83	1072.67
910.14	1082.97
910.44	1094.67
910.75	1085.77
911.05	1090.22
911.36	1082.73
911.66	1087.41
911.97	1087.65
912.27	1089.52
912.58	1094.20
912.88	1094.43
913.19	1099.58
913.49	1097.71
913.80	1092.09
914.10	1090.46
914.41	1089.05
914.71	1086.24
915.01	1088.35
915.32	1097.71
915.62	1085.31
915.93	1076.18
916.23	1071.73
916.54	1068.45
916.84	1067.05
917.15	1071.26
917.45	1072.43
917.75	1064.24
918.06	1071.50
918.36	1074.77
918.67	1079.22
918.97	1090.69
919.27	1103.33
919.58	1093.97
919.88	1086.48
920.18	1072.67
920.49	1056.28
920.79	1053.71
921.10	1049.26
921.40	1048.33
921.70	1061.20
922.01	1076.41
922.31	1073.14
922.61	1078.28
922.92	1082.03
923.22	1082.50
923.52	1087.65
923.82	1096.07
924.13	1095.14
924.43	1100.99
924.73	1095.84
925.04	1078.75
925.34	1064.01
925.64	1061.67
925.94	1058.62
926.25	1067.75
926.55	1074.77
926.85	1078.05
927.15	1078.05
927.46	1073.60
927.76	1067.75
928.06	1065.41
928.36	1064.24
928.67	1065.18
928.97	1068.45
929.27	1064.71
929.57	1060.96
929.87	1063.07
930.18	1068.92
930.48	1064.71
930.78	1070.56
931.08	1068.92
931.38	1080.16
931.69	1081.33
931.99	1080.16
932.29	1079.92
932.59	1084.14
932.89	1072.43
933.19	1065.18
933.49	1070.80
933.80	1071.97
934.10	1082.03
934.40	1084.84
934.70	1085.07
935.00	1080.39
935.30	1078.99
935.60	1076.65
935.90	1071.03
936.20	1069.39
936.50	1064.94
936.81	1063.31
937.11	1064.94
937.41	1067.75
937.71	1063.31
938.01	1080.39
938.31	1078.28
938.61	1076.41
938.91	1081.33
939.21	1088.82
939.51	1069.86
939.81	1075.71
940.11	1076.18
940.41	1079.92
940.71	1086.71
941.01	1087.18
941.31	1082.97
941.61	1079.22
941.91	1085.54
942.21	1082.03
942.51	1087.65
942.81	1089.75
943.11	1092.09
943.41	1080.39
943.71	1085.54
944.01	1082.50
944.31	1086.24
944.61	1083.90
944.90	1084.14
945.20	1076.41
945.50	1087.41
945.80	1078.99
946.10	1077.11
946.40	1072.90
946.70	1065.41
947.00	1066.35
947.30	1076.65
947.60	1070.80
947.89	1074.31
948.19	1081.56
948.49	1075.94
948.79	1061.67
949.09	1069.62
949.39	1069.62
949.69	1082.26
949.98	1084.84
950.28	1082.97
950.58	1078.05
950.88	1076.88
951.18	1078.28
951.48	1078.99
951.77	1084.60
952.07	1079.22
952.37	1076.65
952.67	1067.28
952.97	1057.45
953.26	1054.65
953.56	1067.99
953.86	1069.39
954.16	1067.05
954.45	1074.54
954.75	1079.92
955.05	1077.58
955.35	1086.71
955.64	1078.52
955.94	1075.71
956.24	1076.41
956.54	1073.60
956.83	1063.31
957.13	1074.31
957.43	1087.18
957.72	1081.33
958.02	1088.58
958.32	1089.29
958.61	1080.86
958.91	1069.16
959.21	1067.28
959.50	1053.01
959.80	1056.75
960.10	1061.67
960.39	1066.58
960.69	1079.22
960.99	1084.14
961.28	1086.94
961.58	1083.43
961.87	1081.80
962.17	1074.07
962.47	1070.56
962.76	1077.58
963.06	1073.37
963.36	1067.99
963.65	1069.39
963.95	1072.43
964.24	1058.16
964.54	1061.67
964.83	1070.80
965.13	1067.28
965.42	1065.41
965.72	1075.24
966.02	1078.28
966.31	1069.86
966.61	1084.84
966.90	1089.99
967.20	1076.18
967.49	1071.97
967.79	1071.97
968.08	1059.56
968.38	1064.01
968.67	1080.16
968.97	1085.54
969.26	1093.26
969.56	1099.58
969.85	1092.80
970.15	1090.92
970.44	1084.37
970.74	1073.60
971.03	1065.18
971.32	1068.22
971.62	1063.07
971.91	1068.22
972.21	1063.31
972.50	1075.71
972.80	1071.97
973.09	1071.26
973.38	1072.20
973.68	1080.86
973.97	1071.26
974.27	1067.05
974.56	1066.58
974.85	1066.82
975.15	1067.52
975.44	1069.16
975.73	1078.05
976.03	1070.33
976.32	1072.43
976.61	1069.62
976.91	1070.80
977.20	1078.05
977.49	1088.82
977.79	1085.07
978.08	1089.29
978.37	1097.71
978.67	1083.20
978.96	1074.54
979.25	1073.14
979.55	1068.45
979.84	1057.22
980.13	1060.03
980.42	1077.11
980.72	1079.69
981.01	1079.69
981.30	1077.58
981.59	1075.24
981.89	1063.31
982.18	1065.88
982.47	1071.97
982.76	1075.71
983.06	1089.29
983.35	1094.43
983.64	1088.35
983.93	1092.09
984.22	1099.12
984.52	1095.37
984.81	1092.56
985.10	1093.73
985.39	1095.60
985.68	1089.75
985.97	1091.39
986.27	1090.22
986.56	1096.07
986.85	1090.22
987.14	1088.35
987.43	1079.69
987.72	1082.50
988.01	1073.84
988.31	1071.97
988.60	1072.67
988.89	1086.48
989.18	1087.65
989.47	1095.14
989.76	1095.84
990.05	1091.63
990.34	1084.37
990.63	1084.84
990.92	1088.35
991.21	1088.58
991.51	1092.33
991.80	1094.20
992.09	1091.16
992.38	1078.99
992.67	1072.90
992.96	1072.90
993.25	1065.88
993.54	1063.31
993.83	1074.77
994.12	1070.09
994.41	1067.52
994.70	1072.20
994.99	1082.50
995.28	1085.07
995.57	1092.33
995.86	1103.09
996.15	1092.56
996.44	1090.22
996.73	1086.01
997.02	1086.94
997.31	1081.33
997.59	1092.80
997.88	1077.58
998.17	1066.35
998.46	1066.35
998.75	1056.52
999.04	1053.94
999.33	1062.37
999.62	1077.11
999.91	1071.03
1000.20	1078.52
1000.49	1078.05
1000.77	1069.16
1001.06	1058.86
1001.35	1073.84
1001.64	1068.45
1001.93	1067.99
1002.22	1080.63
1002.51	1083.67
1002.79	1068.45
1003.08	1067.28
1003.37	1063.77
1003.66	1056.75
1003.95	1063.07
1004.23	1067.52
1004.52	1071.26
1004.81	1077.82
1005.10	1080.63
1005.39	1079.92
1005.67	1086.01
1005.96	1084.14
1006.25	1084.60
1006.54	1082.73
1006.83	1075.01
1007.11	1066.58
1007.40	1078.52
1007.69	1084.60
1007.97	1085.31
1008.26	1089.52
1008.55	1097.01
1008.84	1100.99
1009.12	1097.01
1009.41	1102.86
1009.70	1103.09
1009.98	1100.75
1010.27	1093.73
1010.56	1090.22
1010.85	1088.82
1011.13	1087.18
1011.42	1086.48
1011.71	1088.35
1011.99	1092.80
1012.28	1088.35
1012.56	1085.54
1012.85	1085.07
1013.14	1077.35
1013.42	1062.60
1013.71	1061.90
1014.00	1071.73
1014.28	1082.73
1014.57	1087.88
1014.85	1097.01
1015.14	1096.07
1015.43	1092.56
1015.71	1071.26
1016.00	1068.45
1016.28	1064.24
1016.57	1069.39
1016.85	1061.90
1017.14	1072.90
1017.43	1063.77
1017.71	1065.65
1018.00	1057.22
1018.28	1057.45
1018.57	1046.69
1018.85	1055.82
1019.14	1058.39
1019.42	1068.22
1019.71	1071.26
1019.99	1077.82
1020.28	1079.46
1020.56	1076.41
1020.85	1077.11
1021.13	1076.88
1021.42	1078.75
1021.70	1069.86
1021.99	1069.86
1022.27	1067.75
1022.55	1067.28
1022.84	1084.84
>>>>>End Processed Spectral Data<<<<<
