SpectraSuite Data File
++++++++++++++++++++++++++++++++++++
Date: Mon Aug 26 10:24:48 PDT 2019
User: corrico
Dark Spectrum Present: No
Reference Spectrum Present: No
Number of Sampled Component Spectra: 1
Spectrometers: USB2+H06089
Integration Time (usec): 10000 (USB2+H06089)
Spectra Averaged: 2 (USB2+H06089)
Boxcar Smoothing: 2 (USB2+H06089)
Correct for Electrical Dark: No (USB2+H06089)
Strobe/Lamp Enabled: No (USB2+H06089)
Correct for Detector Non-linearity: No (USB2+H06089)
Correct for Stray Light: No (USB2+H06089)
Number of Pixels in Processed Spectrum: 2048
>>>>>Begin Processed Spectral Data<<<<<
339.70	1033.35
340.07	1033.35
340.45	994.26
340.82	968.75
341.19	950.26
341.57	921.94
341.94	914.68
342.31	906.96
342.69	901.57
343.06	891.51
343.43	895.96
343.81	906.96
344.18	907.89
344.55	917.26
344.93	921.47
345.30	925.68
345.67	928.72
346.04	931.30
346.42	941.83
346.79	953.77
347.16	961.73
347.54	965.47
347.91	977.41
348.28	978.11
348.65	984.66
349.03	1001.28
349.40	1018.13
349.77	1019.77
350.14	1031.01
350.52	1034.98
350.89	1038.96
351.26	1042.47
351.63	1063.54
352.01	1069.86
352.38	1076.41
352.75	1075.48
353.12	1088.12
353.50	1088.82
353.87	1093.03
354.24	1096.54
354.61	1106.61
354.98	1094.90
355.36	1089.52
355.73	1081.80
356.10	1085.77
356.47	1077.58
356.84	1078.52
357.22	1071.26
357.59	1076.18
357.96	1077.82
358.33	1087.18
358.70	1086.01
359.08	1089.52
359.45	1092.33
359.82	1086.94
360.19	1089.52
360.56	1090.22
360.94	1089.75
361.31	1089.99
361.68	1085.07
362.05	1076.41
362.42	1075.94
362.79	1084.60
363.16	1084.14
363.54	1094.90
363.91	1094.67
364.28	1104.26
364.65	1093.50
365.02	1096.54
365.39	1098.18
365.76	1100.29
366.14	1087.65
366.51	1091.39
366.88	1087.65
367.25	1079.22
367.62	1073.60
367.99	1071.73
368.36	1082.26
368.73	1085.77
369.10	1097.01
369.48	1102.86
369.85	1114.56
370.22	1102.16
370.59	1097.48
370.96	1083.67
371.33	1073.84
371.70	1066.82
372.07	1083.67
372.44	1088.12
372.81	1096.31
373.18	1108.71
373.55	1114.80
373.93	1107.31
374.30	1107.07
374.67	1099.58
375.04	1094.90
375.41	1097.48
375.78	1097.01
376.15	1092.80
376.52	1109.65
376.89	1108.48
377.26	1112.92
377.63	1115.73
378.00	1130.95
378.37	1130.24
378.74	1125.56
379.11	1109.65
379.48	1101.46
379.85	1094.67
380.22	1091.39
380.59	1090.22
380.96	1095.37
381.33	1093.26
381.70	1089.52
382.07	1073.37
382.44	1074.77
382.81	1082.97
383.18	1084.14
383.55	1085.31
383.92	1088.35
384.29	1090.69
384.66	1089.52
385.03	1097.01
385.40	1093.97
385.77	1103.56
386.14	1113.63
386.51	1103.09
386.88	1100.05
387.25	1109.65
387.62	1105.90
387.99	1099.58
388.36	1105.90
388.73	1101.22
389.10	1090.92
389.46	1094.67
389.83	1088.35
390.20	1085.31
390.57	1096.78
390.94	1086.94
391.31	1089.52
391.68	1097.24
392.05	1102.39
392.42	1100.99
392.79	1112.46
393.16	1111.99
393.53	1106.61
393.89	1111.05
394.26	1104.97
394.63	1107.31
395.00	1108.95
395.37	1110.35
395.74	1106.61
396.11	1113.39
396.48	1111.29
396.84	1115.27
397.21	1126.03
397.58	1121.58
397.95	1128.14
398.32	1131.41
398.69	1138.90
399.06	1133.52
399.42	1141.71
399.79	1139.37
400.16	1141.95
400.53	1137.27
400.90	1146.86
401.27	1154.82
401.64	1165.35
402.00	1170.27
402.37	1181.50
402.74	1179.86
403.11	1182.91
403.48	1183.14
403.84	1190.16
404.21	1181.50
404.58	1194.38
404.95	1210.29
405.32	1221.29
405.68	1227.61
406.05	1249.85
406.42	1269.27
406.79	1269.27
407.16	1281.21
407.52	1299.47
407.89	1317.96
408.26	1320.53
408.63	1339.72
408.99	1359.15
409.36	1376.70
409.73	1398.70
410.10	1431.00
410.47	1465.64
410.83	1503.56
411.20	1545.92
411.57	1579.39
411.94	1629.01
412.30	1675.36
412.67	1713.51
413.04	1769.21
413.40	1824.68
413.77	1886.00
414.14	1942.88
414.51	2014.27
414.87	2074.18
415.24	2143.23
415.61	2213.68
415.97	2293.02
416.34	2381.26
416.71	2477.93
417.08	2588.40
417.44	2676.87
417.81	2789.92
418.18	2925.44
418.54	3052.99
418.91	3192.02
419.28	3361.95
419.64	3516.65
420.01	3654.04
420.38	3828.18
420.74	4015.42
421.11	4208.05
421.48	4427.59
421.84	4664.69
422.21	4899.68
422.58	5152.92
422.94	5397.98
423.31	5647.01
423.68	5928.58
424.04	6228.40
424.41	6511.37
424.77	6845.13
425.14	7154.55
425.51	7485.74
425.87	7845.24
426.24	8224.41
426.61	8647.34
426.97	9169.05
427.34	9649.79
427.70	10173.61
428.07	10664.65
428.44	11184.48
428.80	11673.19
429.17	12239.83
429.53	12762.71
429.90	13404.95
430.27	13961.30
430.63	14573.11
431.00	15272.93
431.36	16048.59
431.73	16672.10
432.09	17420.61
432.46	18148.28
432.83	18782.10
433.19	19362.78
433.56	20131.42
433.92	20801.04
434.29	21404.67
434.65	22101.91
435.02	22769.90
435.38	23402.78
435.75	23897.57
436.11	24547.77
436.48	25014.94
436.84	25554.67
437.21	26018.10
437.57	26565.78
437.94	27071.57
438.30	27531.72
438.67	27864.31
439.03	28092.05
439.40	28268.52
439.76	28122.00
440.13	27987.19
440.49	27883.04
440.86	27624.64
441.22	27327.39
441.59	27026.17
441.95	26672.04
442.32	26157.12
442.68	25699.78
443.05	25168.72
443.41	24676.27
443.78	24057.20
444.14	23451.93
444.51	22815.78
444.87	22411.10
445.24	21905.31
445.60	21443.05
445.96	20869.15
446.33	20443.41
446.69	19746.87
447.06	19209.95
447.42	18664.13
447.79	18176.60
448.15	17657.47
448.51	17169.23
448.88	16735.53
449.24	16272.11
449.61	15947.71
449.97	15527.35
450.33	15140.22
450.70	14644.73
451.06	14239.12
451.43	13757.20
451.79	13399.57
452.15	13087.34
452.52	12752.64
452.88	12520.70
453.24	12232.34
453.61	11964.58
453.97	11658.21
454.34	11386.00
454.70	11076.35
455.06	10841.83
455.43	10511.81
455.79	10137.09
456.15	9823.70
456.52	9472.62
456.88	9153.84
457.24	8865.48
457.61	8678.00
457.97	8449.57
458.33	8208.73
458.70	7975.14
459.06	7684.45
459.42	7418.80
459.79	7156.19
460.15	6949.05
460.51	6699.32
460.88	6519.09
461.24	6320.38
461.60	6139.93
461.96	5945.90
462.33	5788.61
462.69	5605.58
463.05	5452.75
463.42	5339.93
463.78	5200.67
464.14	5063.75
464.50	4968.26
464.87	4839.06
465.23	4682.24
465.59	4577.39
465.95	4471.13
466.32	4376.80
466.68	4278.27
467.04	4186.52
467.40	4081.43
467.77	4015.42
468.13	3916.65
468.49	3830.52
468.85	3782.31
469.22	3723.56
469.58	3642.34
469.94	3577.74
470.30	3525.55
470.66	3458.14
471.03	3389.33
471.39	3328.24
471.75	3258.96
472.11	3196.24
472.47	3149.19
472.84	3087.63
473.20	3010.63
473.56	2965.46
473.92	2906.95
474.28	2825.73
474.65	2776.11
475.01	2752.24
475.37	2704.25
475.73	2663.06
476.09	2640.36
476.45	2605.72
476.81	2555.63
477.18	2520.29
477.54	2489.39
477.90	2440.71
478.26	2400.69
478.62	2367.45
478.98	2331.41
479.34	2298.87
479.71	2274.06
480.07	2251.83
480.43	2222.10
480.79	2201.51
481.15	2183.49
481.51	2167.34
481.87	2145.80
482.23	2118.42
482.59	2087.29
482.96	2052.18
483.32	2025.27
483.68	1994.84
484.04	1979.63
484.40	1958.56
484.76	1944.75
485.12	1917.60
485.48	1896.77
485.84	1869.85
486.20	1852.77
486.56	1827.96
486.92	1802.68
487.28	1791.91
487.64	1764.30
488.00	1744.87
488.37	1724.51
488.73	1722.63
489.09	1710.70
489.45	1708.83
489.81	1693.85
490.17	1672.55
490.53	1654.06
490.89	1644.93
491.25	1629.48
491.61	1611.93
491.97	1609.82
492.33	1598.59
492.69	1571.67
493.05	1556.92
493.41	1545.92
493.77	1526.73
494.13	1507.77
494.49	1493.03
494.85	1482.03
495.21	1475.71
495.57	1463.07
495.93	1444.81
496.29	1444.11
496.64	1429.37
497.00	1421.17
497.36	1416.73
497.72	1416.96
498.08	1406.43
498.44	1403.15
498.80	1384.43
499.16	1372.72
499.52	1368.98
499.88	1347.68
500.24	1343.47
500.60	1346.51
500.96	1344.64
501.32	1328.96
501.68	1321.70
502.03	1310.93
502.39	1300.87
502.75	1291.04
503.11	1283.55
503.47	1280.04
503.83	1262.72
504.19	1256.63
504.55	1251.95
504.91	1251.02
505.26	1249.14
505.62	1249.38
505.98	1241.89
506.34	1240.95
506.70	1232.76
507.06	1229.48
507.42	1232.76
507.78	1226.91
508.13	1212.87
508.49	1207.95
508.85	1201.40
509.21	1202.10
509.57	1197.65
509.93	1202.57
510.28	1210.53
510.64	1210.06
511.00	1187.59
511.36	1186.18
511.72	1188.76
512.07	1182.91
512.43	1182.91
512.79	1194.14
513.15	1192.03
513.51	1188.06
513.86	1188.99
514.22	1175.89
514.58	1178.23
514.94	1183.84
515.30	1190.86
515.65	1182.67
516.01	1182.67
516.37	1180.33
516.73	1168.63
517.08	1150.61
517.44	1156.93
517.80	1167.23
518.16	1159.27
518.51	1152.71
518.87	1156.22
519.23	1151.54
519.59	1154.82
519.94	1148.73
520.30	1156.46
520.66	1158.57
521.01	1156.22
521.37	1138.44
521.73	1144.52
522.09	1136.80
522.44	1128.14
522.80	1120.65
523.16	1124.86
523.51	1118.31
523.87	1126.03
524.23	1121.58
524.58	1117.84
524.94	1119.71
525.30	1119.24
525.65	1117.61
526.01	1125.80
526.37	1127.90
526.72	1119.95
527.08	1127.20
527.44	1123.46
527.79	1126.03
528.15	1131.18
528.51	1126.50
528.86	1126.73
529.22	1125.33
529.58	1121.35
529.93	1117.14
530.29	1125.10
530.65	1117.37
531.00	1111.99
531.36	1107.54
531.71	1111.75
532.07	1113.86
532.43	1112.92
532.78	1117.14
533.14	1117.61
533.49	1116.90
533.85	1115.27
534.21	1127.20
534.56	1117.84
534.92	1113.16
535.27	1115.03
535.63	1119.24
535.98	1115.27
536.34	1123.22
536.69	1126.50
537.05	1117.37
537.41	1109.41
537.76	1106.14
538.12	1111.29
538.47	1107.78
538.83	1111.52
539.18	1111.29
539.54	1103.56
539.89	1098.88
540.25	1095.60
540.60	1091.39
540.96	1090.92
541.31	1087.65
541.67	1083.90
542.02	1082.97
542.38	1101.22
542.73	1110.35
543.09	1114.80
543.44	1127.90
543.80	1137.97
544.15	1130.48
544.51	1129.07
544.86	1132.35
545.22	1129.54
545.57	1137.50
545.93	1132.59
546.28	1124.86
546.64	1125.80
546.99	1122.99
547.35	1109.88
547.70	1113.16
548.05	1125.56
548.41	1126.73
548.76	1122.52
549.12	1115.03
549.47	1111.52
549.83	1109.88
550.18	1111.05
550.53	1114.10
550.89	1123.46
551.24	1121.12
551.60	1114.33
551.95	1109.65
552.30	1108.24
552.66	1108.71
553.01	1107.78
553.37	1105.44
553.72	1103.56
554.07	1104.03
554.43	1105.20
554.78	1099.35
555.13	1086.01
555.49	1079.92
555.84	1077.58
556.19	1071.50
556.55	1066.58
556.90	1077.11
557.26	1089.99
557.61	1094.90
557.96	1087.65
558.32	1099.58
558.67	1098.41
559.02	1093.50
559.37	1092.09
559.73	1099.58
560.08	1096.31
560.43	1108.24
560.79	1103.56
561.14	1102.86
561.49	1105.90
561.85	1112.92
562.20	1104.26
562.55	1099.12
562.90	1100.75
563.26	1101.22
563.61	1098.41
563.96	1100.75
564.32	1109.88
564.67	1100.52
565.02	1105.90
565.37	1111.29
565.73	1106.37
566.08	1110.58
566.43	1117.37
566.78	1111.99
567.14	1101.92
567.49	1104.97
567.84	1096.31
568.19	1087.18
568.54	1093.26
568.90	1096.54
569.25	1096.07
569.60	1108.48
569.95	1118.31
570.31	1108.95
570.66	1113.16
571.01	1109.65
571.36	1098.88
571.71	1103.80
572.06	1104.97
572.42	1095.84
572.77	1106.14
573.12	1113.39
573.47	1105.20
573.82	1110.58
574.18	1113.86
574.53	1100.29
574.88	1096.31
575.23	1098.18
575.58	1088.12
575.93	1085.31
576.28	1096.54
576.64	1097.48
576.99	1097.71
577.34	1114.56
577.69	1125.56
578.04	1127.90
578.39	1128.14
578.74	1128.61
579.09	1122.99
579.44	1106.37
579.80	1086.94
580.15	1086.94
580.50	1078.75
580.85	1077.35
581.20	1080.63
581.55	1089.05
581.90	1083.43
582.25	1079.69
582.60	1070.09
582.95	1074.54
583.30	1064.01
583.65	1067.28
584.00	1067.75
584.35	1082.03
584.71	1087.65
585.06	1093.97
585.41	1089.05
585.76	1096.31
586.11	1090.46
586.46	1084.84
586.81	1085.31
587.16	1090.69
587.51	1090.22
587.86	1082.50
588.21	1078.05
588.56	1093.26
588.91	1093.03
589.26	1089.29
589.61	1095.14
589.96	1094.90
590.31	1084.84
590.66	1084.37
591.01	1087.18
591.36	1093.50
591.71	1099.82
592.06	1101.22
592.41	1101.46
592.76	1095.37
593.10	1089.99
593.45	1083.20
593.80	1087.41
594.15	1083.90
594.50	1100.52
594.85	1104.03
595.20	1105.90
595.55	1102.63
595.90	1115.03
596.25	1106.37
596.60	1101.46
596.95	1107.07
597.30	1108.01
597.64	1138.20
597.99	1144.05
598.34	1152.71
598.69	1157.16
599.04	1156.22
599.39	1115.97
599.74	1108.71
600.09	1099.58
600.44	1082.26
600.78	1081.56
601.13	1084.60
601.48	1083.43
601.83	1081.80
602.18	1091.63
602.53	1083.67
602.88	1091.63
603.22	1088.12
603.57	1092.80
603.92	1099.58
604.27	1111.29
604.62	1092.33
604.97	1097.24
605.31	1093.03
605.66	1094.43
606.01	1093.03
606.36	1094.20
606.71	1090.22
607.05	1075.24
607.40	1067.28
607.75	1058.62
608.10	1058.39
608.44	1062.84
608.79	1086.24
609.14	1082.97
609.49	1084.60
609.84	1097.48
610.18	1099.82
610.53	1083.43
610.88	1089.75
611.23	1097.24
611.57	1104.50
611.92	1106.14
612.27	1108.01
612.62	1106.14
612.96	1097.95
613.31	1085.07
613.66	1082.73
614.00	1088.35
614.35	1093.73
614.70	1093.03
615.05	1101.92
615.39	1104.73
615.74	1107.07
616.09	1102.16
616.43	1105.90
616.78	1099.12
617.13	1088.82
617.47	1086.94
617.82	1082.26
618.17	1080.86
618.51	1079.69
618.86	1089.99
619.21	1093.73
619.55	1100.29
619.90	1111.05
620.25	1109.65
620.59	1095.14
620.94	1086.94
621.29	1084.84
621.63	1078.99
621.98	1077.58
622.32	1086.01
622.67	1087.88
623.02	1085.54
623.36	1074.07
623.71	1075.01
624.05	1080.63
624.40	1074.77
624.75	1077.35
625.09	1084.37
625.44	1086.48
625.78	1085.31
626.13	1096.07
626.48	1095.14
626.82	1099.82
627.17	1109.18
627.51	1105.67
627.86	1101.69
628.20	1095.37
628.55	1089.29
628.89	1084.37
629.24	1078.05
629.58	1080.39
629.93	1094.67
630.28	1099.58
630.62	1097.95
630.97	1111.52
631.31	1121.58
631.66	1110.82
632.00	1117.37
632.35	1114.33
632.69	1115.50
633.04	1103.09
633.38	1115.03
633.73	1115.97
634.07	1116.90
634.42	1112.46
634.76	1112.92
635.11	1105.67
635.45	1104.03
635.79	1088.58
636.14	1089.29
636.48	1092.09
636.83	1082.50
637.17	1070.80
637.52	1090.22
637.86	1083.67
638.21	1078.99
638.55	1087.65
638.89	1084.60
639.24	1093.50
639.58	1102.63
639.93	1115.03
640.27	1101.92
640.61	1102.63
640.96	1087.65
641.30	1077.82
641.65	1066.58
641.99	1080.63
642.33	1090.46
642.68	1089.75
643.02	1087.41
643.37	1102.86
643.71	1092.33
644.05	1089.05
644.40	1082.50
644.74	1090.22
645.08	1068.69
645.43	1081.80
645.77	1083.67
646.11	1086.48
646.46	1082.03
646.80	1095.14
647.14	1086.71
647.49	1086.24
647.83	1094.90
648.17	1093.73
648.52	1079.69
648.86	1080.39
649.20	1081.33
649.55	1075.71
649.89	1077.82
650.23	1077.82
650.57	1079.69
650.92	1077.58
651.26	1080.39
651.60	1085.54
651.95	1092.09
652.29	1093.73
652.63	1092.33
652.97	1093.03
653.32	1085.54
653.66	1077.82
654.00	1069.16
654.34	1077.82
654.69	1083.90
655.03	1083.43
655.37	1089.75
655.71	1098.65
656.05	1100.52
656.40	1093.03
656.74	1090.46
657.08	1093.03
657.42	1094.20
657.76	1089.52
658.11	1083.90
658.45	1091.16
658.79	1085.54
659.13	1085.77
659.47	1086.01
659.82	1091.16
660.16	1088.58
660.50	1099.12
660.84	1096.54
661.18	1090.69
661.52	1089.05
661.87	1086.71
662.21	1081.09
662.55	1085.54
662.89	1088.35
663.23	1095.37
663.57	1091.63
663.91	1090.46
664.25	1083.20
664.60	1085.54
664.94	1079.92
665.28	1076.65
665.62	1073.60
665.96	1068.92
666.30	1060.73
666.64	1065.65
666.98	1071.26
667.32	1075.94
667.66	1082.50
668.01	1089.05
668.35	1087.18
668.69	1085.77
669.03	1084.37
669.37	1082.73
669.71	1078.99
670.05	1075.71
670.39	1082.26
670.73	1083.43
671.07	1079.46
671.41	1075.01
671.75	1078.28
672.09	1072.43
672.43	1075.71
672.77	1085.77
673.11	1090.92
673.45	1086.71
673.79	1095.37
674.13	1086.48
674.47	1084.60
674.81	1086.94
675.15	1082.26
675.49	1087.18
675.83	1089.99
676.17	1085.77
676.51	1088.58
676.85	1097.24
677.19	1088.35
677.53	1086.94
677.87	1092.09
678.21	1086.24
678.55	1085.77
678.89	1075.71
679.23	1091.63
679.57	1092.80
679.90	1098.18
680.24	1097.71
680.58	1103.09
680.92	1096.54
681.26	1087.41
681.60	1083.43
681.94	1086.71
682.28	1090.46
682.62	1078.75
682.96	1082.50
683.29	1082.26
683.63	1086.94
683.97	1087.18
684.31	1093.03
684.65	1089.05
684.99	1098.65
685.33	1091.16
685.67	1099.12
686.00	1104.97
686.34	1113.16
686.68	1099.35
687.02	1102.63
687.36	1096.31
687.70	1095.60
688.03	1084.37
688.37	1093.03
688.71	1089.75
689.05	1093.26
689.39	1088.82
689.72	1112.92
690.06	1115.27
690.40	1110.82
690.74	1106.61
691.08	1102.39
691.41	1083.43
691.75	1071.26
692.09	1071.73
692.43	1076.18
692.76	1088.82
693.10	1088.35
693.44	1092.80
693.78	1089.99
694.11	1088.82
694.45	1078.52
694.79	1082.26
695.13	1082.03
695.46	1085.54
695.80	1078.28
696.14	1075.48
696.48	1071.73
696.81	1081.33
697.15	1076.41
697.49	1078.75
697.82	1086.48
698.16	1085.07
698.50	1072.43
698.83	1071.50
699.17	1069.39
699.51	1060.03
699.84	1060.96
700.18	1063.54
700.52	1071.50
700.85	1077.11
701.19	1085.07
701.53	1086.71
701.86	1083.43
702.20	1087.41
702.54	1080.39
702.87	1085.31
703.21	1086.24
703.55	1092.56
703.88	1086.48
704.22	1091.63
704.55	1082.97
704.89	1086.24
705.23	1082.03
705.56	1082.97
705.90	1076.88
706.23	1074.77
706.57	1071.50
706.91	1066.11
707.24	1061.20
707.58	1066.82
707.91	1069.39
708.25	1066.35
708.58	1073.37
708.92	1076.18
709.26	1082.73
709.59	1083.67
709.93	1087.88
710.26	1098.41
710.60	1098.88
710.93	1098.65
711.27	1102.39
711.60	1109.41
711.94	1106.37
712.27	1107.31
712.61	1107.78
712.94	1099.82
713.28	1097.71
713.61	1096.31
713.95	1099.82
714.28	1100.05
714.62	1108.48
714.95	1105.90
715.29	1104.50
715.62	1103.56
715.96	1095.60
716.29	1093.97
716.63	1083.43
716.96	1083.20
717.29	1077.35
717.63	1082.73
717.96	1079.92
718.30	1093.50
718.63	1097.95
718.97	1097.48
719.30	1097.71
719.63	1099.58
719.97	1094.43
720.30	1084.37
720.64	1086.94
720.97	1082.97
721.30	1079.46
721.64	1078.99
721.97	1078.28
722.31	1087.41
722.64	1088.58
722.97	1086.71
723.31	1088.35
723.64	1086.24
723.97	1074.54
724.31	1078.52
724.64	1083.43
724.98	1083.90
725.31	1086.71
725.64	1091.63
725.98	1082.26
726.31	1079.46
726.64	1081.56
726.97	1090.22
727.31	1096.78
727.64	1096.78
727.97	1096.78
728.31	1084.60
728.64	1073.60
728.97	1061.90
729.31	1064.94
729.64	1071.03
729.97	1072.20
730.30	1071.26
730.64	1072.43
730.97	1074.54
731.30	1075.48
731.63	1087.65
731.97	1087.65
732.30	1084.60
732.63	1092.56
732.96	1085.54
733.30	1080.39
733.63	1090.92
733.96	1096.07
734.29	1090.92
734.63	1104.03
734.96	1096.07
735.29	1091.39
735.62	1082.97
735.95	1086.24
736.29	1081.33
736.62	1096.31
736.95	1096.54
737.28	1106.61
737.61	1099.58
737.94	1094.20
738.28	1081.33
738.61	1085.54
738.94	1083.43
739.27	1070.80
739.60	1077.35
739.93	1082.03
740.27	1068.92
740.60	1077.58
740.93	1086.71
741.26	1076.65
741.59	1075.71
741.92	1087.65
742.25	1070.56
742.58	1066.11
742.91	1073.14
743.25	1077.11
743.58	1070.56
743.91	1080.63
744.24	1088.58
744.57	1081.09
744.90	1072.20
745.23	1068.69
745.56	1062.14
745.89	1062.14
746.22	1071.50
746.55	1085.54
746.88	1096.54
747.21	1103.56
747.54	1113.86
747.87	1111.99
748.20	1106.14
748.53	1102.16
748.87	1103.33
749.20	1089.75
749.53	1083.43
749.86	1082.73
750.19	1079.92
750.52	1076.88
750.85	1081.09
751.18	1093.26
751.51	1096.07
751.84	1093.26
752.16	1097.24
752.49	1093.97
752.82	1081.09
753.15	1077.82
753.48	1072.43
753.81	1064.48
754.14	1069.62
754.47	1068.69
754.80	1063.31
755.13	1079.22
755.46	1085.07
755.79	1090.69
756.12	1102.86
756.45	1111.99
756.78	1115.97
757.11	1116.67
757.43	1109.41
757.76	1099.35
758.09	1102.39
758.42	1092.56
758.75	1092.56
759.08	1099.12
759.41	1098.18
759.74	1092.56
760.07	1083.90
760.39	1079.92
760.72	1070.09
761.05	1065.65
761.38	1057.45
761.71	1063.54
762.04	1062.60
762.36	1057.69
762.69	1058.86
763.02	1062.84
763.35	1060.73
763.68	1064.71
764.01	1063.31
764.33	1072.20
764.66	1073.37
764.99	1072.67
765.32	1082.03
765.65	1089.75
765.97	1095.60
766.30	1098.18
766.63	1108.24
766.96	1091.16
767.28	1096.31
767.61	1080.16
767.94	1078.52
768.27	1071.50
768.59	1080.16
768.92	1080.39
769.25	1091.63
769.58	1093.73
769.90	1092.80
770.23	1098.18
770.56	1101.22
770.89	1095.60
771.21	1086.24
771.54	1090.22
771.87	1075.48
772.19	1069.16
772.52	1067.75
772.85	1080.39
773.17	1069.62
773.50	1075.94
773.83	1075.01
774.15	1075.94
774.48	1074.07
774.81	1082.73
775.13	1081.09
775.46	1074.54
775.79	1076.18
776.11	1066.82
776.44	1065.88
776.77	1068.92
777.09	1072.20
777.42	1071.26
777.74	1078.75
778.07	1081.80
778.40	1084.14
778.72	1087.88
779.05	1092.56
779.37	1089.75
779.70	1100.05
780.03	1098.41
780.35	1095.60
780.68	1086.24
781.00	1094.20
781.33	1075.48
781.65	1074.54
781.98	1078.28
782.31	1082.50
782.63	1071.50
782.96	1076.41
783.28	1072.90
783.61	1073.14
783.93	1069.62
784.26	1067.52
784.58	1070.33
784.91	1071.03
785.23	1075.71
785.56	1080.86
785.88	1095.84
786.21	1098.88
786.53	1104.50
786.86	1097.95
787.18	1096.31
787.51	1085.77
787.83	1090.46
788.16	1088.58
788.48	1075.71
788.81	1091.86
789.13	1089.99
789.46	1080.86
789.78	1066.58
790.10	1082.50
790.43	1061.67
790.75	1070.56
791.08	1067.52
791.40	1092.33
791.73	1100.52
792.05	1103.09
792.37	1092.80
792.70	1094.67
793.02	1074.77
793.35	1069.62
793.67	1068.45
793.99	1067.75
794.32	1067.52
794.64	1076.88
794.96	1066.82
795.29	1070.56
795.61	1081.09
795.93	1083.90
796.26	1087.88
796.58	1090.69
796.91	1091.86
797.23	1084.84
797.55	1090.46
797.87	1083.90
798.20	1079.69
798.52	1084.37
798.84	1091.16
799.17	1087.18
799.49	1090.22
799.81	1094.90
800.14	1088.58
800.46	1082.50
800.78	1074.54
801.10	1073.60
801.43	1068.45
801.75	1076.41
802.07	1083.43
802.40	1095.37
802.72	1091.39
803.04	1100.29
803.36	1090.69
803.69	1091.63
804.01	1081.09
804.33	1079.69
804.65	1086.24
804.97	1094.43
805.30	1084.84
805.62	1080.63
805.94	1089.99
806.26	1074.54
806.58	1066.58
806.91	1067.52
807.23	1082.50
807.55	1078.52
807.87	1087.88
808.19	1091.16
808.52	1086.01
808.84	1076.65
809.16	1073.60
809.48	1072.20
809.80	1081.80
810.12	1085.54
810.44	1093.97
810.77	1092.09
811.09	1083.20
811.41	1074.31
811.73	1074.77
812.05	1071.03
812.37	1076.65
812.69	1079.69
813.01	1086.24
813.33	1078.05
813.66	1076.88
813.98	1077.11
814.30	1081.33
814.62	1083.90
814.94	1094.90
815.26	1104.50
815.58	1109.88
815.90	1101.22
816.22	1090.69
816.54	1091.63
816.86	1072.43
817.18	1063.07
817.50	1067.28
817.82	1067.05
818.14	1060.96
818.46	1067.05
818.78	1071.26
819.10	1075.01
819.42	1072.67
819.74	1073.37
820.06	1082.73
820.38	1088.12
820.70	1097.48
821.02	1100.05
821.34	1111.05
821.66	1103.33
821.98	1092.33
822.30	1087.88
822.62	1093.50
822.94	1083.67
823.26	1086.94
823.58	1093.73
823.90	1088.12
824.22	1085.07
824.54	1090.92
824.86	1090.69
825.18	1081.56
825.50	1078.28
825.81	1078.28
826.13	1078.75
826.45	1071.03
826.77	1075.71
827.09	1074.07
827.41	1065.88
827.73	1060.73
828.05	1064.24
828.36	1064.24
828.68	1076.65
829.00	1083.90
829.32	1092.80
829.64	1098.88
829.96	1097.71
830.28	1088.58
830.59	1087.18
830.91	1085.54
831.23	1087.65
831.55	1080.63
831.87	1074.77
832.19	1075.71
832.50	1060.96
832.82	1058.16
833.14	1060.50
833.46	1070.56
833.78	1067.52
834.09	1075.71
834.41	1069.62
834.73	1078.75
835.05	1079.22
835.36	1076.88
835.68	1078.28
836.00	1075.24
836.32	1075.48
836.63	1075.24
836.95	1084.37
837.27	1081.09
837.59	1080.39
837.90	1079.46
838.22	1074.07
838.54	1062.37
838.85	1058.62
839.17	1067.75
839.49	1063.77
839.80	1066.82
840.12	1076.41
840.44	1079.92
840.76	1078.28
841.07	1082.97
841.39	1072.20
841.71	1070.33
842.02	1071.50
842.34	1065.41
842.65	1069.86
842.97	1086.01
843.29	1089.75
843.60	1089.99
843.92	1099.12
844.24	1098.88
844.55	1087.65
844.87	1078.52
845.18	1090.22
845.50	1086.71
845.82	1086.94
846.13	1095.60
846.45	1097.71
846.76	1096.31
847.08	1097.24
847.40	1084.14
847.71	1079.22
848.03	1081.56
848.34	1080.39
848.66	1082.50
848.97	1087.18
849.29	1088.12
849.60	1080.63
849.92	1081.56
850.24	1067.99
850.55	1069.39
850.87	1063.77
851.18	1072.43
851.50	1068.22
851.81	1074.07
852.13	1071.50
852.44	1075.24
852.76	1083.20
853.07	1084.84
853.39	1084.60
853.70	1089.05
854.01	1093.26
854.33	1078.05
854.64	1069.39
854.96	1068.69
855.27	1064.48
855.59	1066.11
855.90	1075.24
856.22	1085.31
856.53	1097.48
856.84	1092.80
857.16	1089.05
857.47	1088.35
857.79	1074.07
858.10	1071.03
858.41	1084.14
858.73	1090.46
859.04	1086.94
859.36	1089.52
859.67	1082.26
859.98	1070.56
860.30	1060.73
860.61	1067.99
860.92	1064.01
861.24	1061.67
861.55	1068.45
861.87	1069.39
862.18	1070.09
862.49	1078.52
862.81	1082.50
863.12	1078.28
863.43	1078.99
863.74	1062.14
864.06	1063.54
864.37	1062.37
864.68	1073.37
865.00	1074.31
865.31	1080.63
865.62	1074.07
865.94	1079.46
866.25	1064.24
866.56	1068.69
866.87	1071.73
867.19	1069.39
867.50	1071.03
867.81	1074.07
868.12	1065.41
868.44	1069.39
868.75	1081.56
869.06	1079.92
869.37	1078.99
869.68	1089.52
870.00	1085.77
870.31	1092.33
870.62	1091.16
870.93	1092.80
871.24	1088.35
871.56	1088.82
871.87	1073.14
872.18	1069.62
872.49	1077.58
872.80	1077.11
873.12	1083.67
873.43	1090.46
873.74	1099.82
874.05	1093.03
874.36	1093.50
874.67	1092.80
874.98	1090.46
875.29	1097.01
875.61	1103.80
875.92	1102.63
876.23	1092.33
876.54	1092.09
876.85	1078.05
877.16	1071.73
877.47	1072.90
877.78	1076.41
878.09	1071.73
878.40	1069.16
878.72	1072.20
879.03	1074.07
879.34	1075.94
879.65	1070.33
879.96	1076.88
880.27	1075.01
880.58	1075.48
880.89	1079.22
881.20	1080.86
881.51	1082.97
881.82	1073.14
882.13	1064.71
882.44	1057.92
882.75	1073.84
883.06	1061.67
883.37	1072.20
883.68	1075.48
883.99	1080.16
884.30	1077.11
884.61	1088.35
884.92	1084.37
885.23	1083.20
885.54	1075.94
885.85	1077.35
886.16	1073.14
886.47	1073.84
886.78	1090.22
887.08	1097.01
887.39	1096.31
887.70	1098.18
888.01	1104.73
888.32	1092.09
888.63	1094.67
888.94	1095.60
889.25	1096.54
889.56	1087.65
889.87	1087.65
890.17	1078.05
890.48	1073.37
890.79	1069.86
891.10	1079.69
891.41	1078.99
891.72	1082.50
892.03	1076.18
892.34	1078.05
892.64	1062.14
892.95	1058.39
893.26	1055.58
893.57	1056.75
893.88	1052.54
894.18	1053.48
894.49	1056.52
894.80	1069.62
895.11	1080.63
895.42	1081.56
895.72	1085.07
896.03	1081.33
896.34	1074.77
896.65	1061.43
896.96	1070.09
897.26	1078.75
897.57	1078.75
897.88	1080.39
898.19	1086.01
898.49	1072.90
898.80	1066.58
899.11	1076.65
899.41	1078.52
899.72	1086.24
900.03	1092.09
900.34	1100.99
900.64	1093.03
900.95	1091.63
901.26	1087.65
901.56	1084.14
901.87	1081.56
902.18	1084.14
902.48	1088.82
902.79	1082.03
903.10	1080.86
903.40	1076.65
903.71	1077.82
904.02	1073.14
904.32	1072.67
904.63	1077.11
904.94	1086.71
905.24	1079.46
905.55	1071.73
905.85	1070.09
906.16	1066.35
906.47	1058.16
906.77	1069.16
907.08	1071.97
907.38	1075.48
907.69	1082.97
908.00	1086.48
908.30	1078.75
908.61	1082.73
908.91	1075.94
909.22	1069.16
909.52	1063.77
909.83	1059.33
910.14	1051.13
910.44	1059.79
910.75	1054.18
911.05	1054.18
911.36	1075.24
911.66	1081.80
911.97	1078.99
912.27	1082.26
912.58	1090.69
912.88	1078.75
913.19	1077.58
913.49	1086.48
913.80	1087.88
914.10	1088.82
914.41	1096.78
914.71	1095.14
915.01	1088.82
915.32	1098.65
915.62	1100.75
915.93	1084.60
916.23	1081.33
916.54	1080.39
916.84	1070.80
917.15	1069.62
917.45	1074.07
917.75	1069.16
918.06	1082.50
918.36	1087.65
918.67	1089.99
918.97	1097.95
919.27	1108.01
919.58	1099.12
919.88	1092.09
920.18	1071.50
920.49	1066.58
920.79	1067.28
921.10	1062.37
921.40	1069.62
921.70	1093.03
922.01	1097.01
922.31	1094.67
922.61	1094.43
922.92	1095.14
923.22	1079.92
923.52	1069.16
923.82	1067.05
924.13	1073.84
924.43	1078.05
924.73	1085.07
925.04	1095.60
925.34	1104.50
925.64	1104.73
925.94	1107.54
926.25	1097.01
926.55	1093.73
926.85	1092.33
927.15	1082.97
927.46	1069.16
927.76	1079.46
928.06	1077.82
928.36	1075.24
928.67	1086.48
928.97	1086.24
929.27	1082.97
929.57	1080.16
929.87	1071.73
930.18	1072.20
930.48	1086.48
930.78	1084.60
931.08	1080.63
931.38	1089.52
931.69	1084.14
931.99	1074.77
932.29	1073.84
932.59	1077.58
932.89	1074.07
933.19	1081.80
933.49	1084.60
933.80	1082.03
934.10	1080.16
934.40	1080.16
934.70	1068.69
935.00	1061.43
935.30	1071.03
935.60	1076.18
935.90	1079.46
936.20	1082.97
936.50	1086.24
936.81	1082.73
937.11	1092.33
937.41	1093.26
937.71	1100.05
938.01	1095.14
938.31	1098.65
938.61	1096.31
938.91	1093.26
939.21	1090.92
939.51	1096.07
939.81	1094.43
940.11	1083.90
940.41	1092.80
940.71	1086.01
941.01	1084.84
941.31	1082.73
941.61	1079.69
941.91	1080.39
942.21	1084.14
942.51	1083.20
942.81	1075.01
943.11	1082.73
943.41	1075.71
943.71	1071.50
944.01	1068.22
944.31	1073.60
944.61	1073.84
944.90	1078.52
945.20	1081.80
945.50	1088.12
945.80	1097.01
946.10	1092.56
946.40	1079.46
946.70	1083.43
947.00	1089.05
947.30	1080.86
947.60	1086.94
947.89	1093.26
948.19	1086.01
948.49	1081.33
948.79	1087.65
949.09	1091.39
949.39	1092.56
949.69	1093.50
949.98	1090.22
950.28	1083.90
950.58	1081.80
950.88	1088.58
951.18	1088.82
951.48	1093.97
951.77	1097.71
952.07	1090.22
952.37	1082.26
952.67	1092.80
952.97	1094.67
953.26	1091.86
953.56	1101.69
953.86	1106.37
954.16	1100.29
954.45	1092.09
954.75	1082.97
955.05	1078.99
955.35	1067.28
955.64	1066.58
955.94	1075.24
956.24	1085.07
956.54	1075.71
956.83	1077.58
957.13	1077.82
957.43	1068.22
957.72	1064.24
958.02	1082.73
958.32	1085.07
958.61	1087.88
958.91	1099.82
959.21	1098.18
959.50	1087.41
959.80	1092.09
960.10	1081.80
960.39	1065.65
960.69	1075.71
960.99	1072.67
961.28	1063.54
961.58	1065.18
961.87	1069.62
962.17	1063.07
962.47	1067.52
962.76	1069.39
963.06	1079.92
963.36	1083.43
963.65	1083.43
963.95	1082.26
964.24	1094.20
964.54	1088.58
964.83	1090.69
965.13	1089.99
965.42	1086.71
965.72	1081.33
966.02	1080.39
966.31	1072.20
966.61	1081.33
966.90	1084.84
967.20	1074.31
967.49	1070.33
967.79	1080.16
968.08	1075.01
968.38	1071.26
968.67	1084.37
968.97	1080.16
969.26	1084.84
969.56	1086.48
969.85	1084.37
970.15	1071.26
970.44	1066.35
970.74	1059.79
971.03	1058.16
971.32	1060.03
971.62	1065.88
971.91	1078.75
972.21	1069.16
972.50	1068.45
972.80	1069.62
973.09	1068.92
973.38	1067.28
973.68	1081.33
973.97	1087.41
974.27	1094.20
974.56	1106.61
974.85	1103.80
975.15	1098.65
975.44	1089.05
975.73	1082.50
976.03	1073.60
976.32	1073.84
976.61	1081.09
976.91	1079.92
977.20	1077.58
977.49	1073.14
977.79	1077.82
978.08	1074.31
978.37	1081.09
978.67	1084.37
978.96	1082.50
979.25	1080.16
979.55	1082.73
979.84	1083.20
980.13	1076.65
980.42	1077.11
980.72	1078.75
981.01	1073.14
981.30	1072.20
981.59	1074.54
981.89	1084.84
982.18	1084.37
982.47	1087.65
982.76	1088.35
983.06	1091.86
983.35	1089.99
983.64	1091.63
983.93	1082.26
984.22	1083.20
984.52	1087.18
984.81	1076.41
985.10	1075.71
985.39	1084.60
985.68	1081.56
985.97	1083.67
986.27	1094.20
986.56	1101.69
986.85	1096.54
987.14	1099.35
987.43	1087.88
987.72	1079.22
988.01	1073.14
988.31	1070.80
988.60	1073.60
988.89	1075.94
989.18	1076.18
989.47	1068.92
989.76	1066.58
990.05	1050.43
990.34	1048.79
990.63	1054.65
990.92	1059.33
991.21	1067.05
991.51	1082.26
991.80	1089.29
992.09	1086.48
992.38	1095.14
992.67	1094.43
992.96	1082.73
993.25	1084.84
993.54	1086.24
993.83	1082.50
994.12	1079.69
994.41	1088.35
994.70	1082.26
994.99	1089.75
995.28	1092.56
995.57	1096.07
995.86	1080.16
996.15	1078.99
996.44	1061.20
996.73	1047.62
997.02	1039.20
997.31	1047.86
997.59	1058.39
997.88	1066.35
998.17	1072.90
998.46	1082.73
998.75	1090.92
999.04	1083.90
999.33	1089.99
999.62	1092.09
999.91	1089.05
1000.20	1077.11
1000.49	1079.92
1000.77	1082.50
1001.06	1083.90
1001.35	1089.99
1001.64	1091.16
1001.93	1076.18
1002.22	1071.97
1002.51	1065.41
1002.79	1066.82
1003.08	1068.22
1003.37	1077.35
1003.66	1070.33
1003.95	1075.48
1004.23	1069.86
1004.52	1078.75
1004.81	1084.14
1005.10	1090.92
1005.39	1091.39
1005.67	1084.60
1005.96	1076.18
1006.25	1069.62
1006.54	1067.05
1006.83	1059.09
1007.11	1067.99
1007.40	1073.37
1007.69	1077.58
1007.97	1089.75
1008.26	1093.97
1008.55	1088.35
1008.84	1089.75
1009.12	1082.26
1009.41	1075.71
1009.70	1089.29
1009.98	1089.29
1010.27	1090.22
1010.56	1094.67
1010.85	1083.43
1011.13	1061.20
1011.42	1056.99
1011.71	1054.18
1011.99	1058.62
1012.28	1066.11
1012.56	1072.90
1012.85	1075.71
1013.14	1069.39
1013.42	1067.99
1013.71	1067.99
1014.00	1064.01
1014.28	1070.56
1014.57	1075.01
1014.85	1075.01
1015.14	1078.75
1015.43	1082.97
1015.71	1091.63
1016.00	1088.35
1016.28	1100.99
1016.57	1097.48
1016.85	1106.14
1017.14	1093.26
1017.43	1098.41
1017.71	1089.29
1018.00	1089.75
1018.28	1085.07
1018.57	1087.41
1018.85	1089.99
1019.14	1090.22
1019.42	1084.14
1019.71	1091.86
1019.99	1084.60
1020.28	1080.16
1020.56	1075.48
1020.85	1089.99
1021.13	1079.92
1021.42	1096.54
1021.70	1104.50
1021.99	1108.48
1022.27	1100.52
1022.55	1095.37
1022.84	1083.67
>>>>>End Processed Spectral Data<<<<<
