SpectraSuite Data File
++++++++++++++++++++++++++++++++++++
Date: Mon Aug 26 10:24:45 PDT 2019
User: corrico
Dark Spectrum Present: No
Reference Spectrum Present: No
Number of Sampled Component Spectra: 1
Spectrometers: USB2+H06089
Integration Time (usec): 10000 (USB2+H06089)
Spectra Averaged: 2 (USB2+H06089)
Boxcar Smoothing: 2 (USB2+H06089)
Correct for Electrical Dark: No (USB2+H06089)
Strobe/Lamp Enabled: No (USB2+H06089)
Correct for Detector Non-linearity: No (USB2+H06089)
Correct for Stray Light: No (USB2+H06089)
Number of Pixels in Processed Spectrum: 2048
>>>>>Begin Processed Spectral Data<<<<<
339.70	1018.13
340.07	1018.13
340.45	988.88
340.82	967.81
341.19	946.04
341.57	923.34
341.94	916.79
342.31	920.06
342.69	906.96
343.06	891.28
343.43	877.47
343.81	870.68
344.18	870.45
344.55	880.74
344.93	900.17
345.30	919.83
345.67	927.79
346.04	934.58
346.42	946.75
346.79	952.36
347.16	957.51
347.54	968.51
347.91	976.47
348.28	990.98
348.65	996.37
349.03	1002.45
349.40	1020.94
349.77	1029.60
350.14	1031.24
350.52	1045.28
350.89	1056.99
351.26	1049.50
351.63	1054.65
352.01	1064.24
352.38	1076.18
352.75	1083.90
353.12	1094.43
353.50	1087.65
353.87	1080.86
354.24	1076.41
354.61	1080.63
354.98	1080.39
355.36	1094.67
355.73	1103.33
356.10	1100.99
356.47	1098.65
356.84	1098.88
357.22	1097.95
357.59	1097.48
357.96	1096.31
358.33	1095.14
358.70	1087.18
359.08	1088.58
359.45	1087.88
359.82	1093.26
360.19	1090.69
360.56	1100.99
360.94	1098.41
361.31	1091.16
361.68	1085.77
362.05	1089.05
362.42	1086.01
362.79	1085.31
363.16	1087.65
363.54	1092.80
363.91	1089.52
364.28	1082.97
364.65	1085.31
365.02	1092.33
365.39	1096.54
365.76	1102.86
366.14	1110.12
366.51	1098.18
366.88	1098.88
367.25	1103.56
367.62	1099.35
367.99	1091.86
368.36	1103.56
368.73	1102.63
369.10	1092.33
369.48	1095.84
369.85	1108.01
370.22	1104.97
370.59	1098.41
370.96	1092.33
371.33	1100.05
371.70	1089.52
372.07	1081.80
372.44	1085.31
372.81	1096.07
373.18	1080.39
373.55	1079.46
373.93	1088.82
374.30	1090.69
374.67	1093.26
375.04	1102.63
375.41	1108.48
375.78	1106.61
376.15	1108.95
376.52	1105.44
376.89	1103.33
377.26	1105.44
377.63	1101.46
378.00	1093.97
378.37	1088.58
378.74	1088.12
379.11	1082.26
379.48	1085.54
379.85	1097.71
380.22	1106.37
380.59	1106.37
380.96	1105.20
381.33	1100.05
381.70	1097.24
382.07	1090.22
382.44	1093.97
382.81	1097.01
383.18	1097.01
383.55	1088.82
383.92	1099.58
384.29	1093.73
384.66	1101.69
385.03	1111.52
385.40	1121.35
385.77	1111.29
386.14	1105.67
386.51	1103.56
386.88	1101.92
387.25	1088.82
387.62	1089.29
387.99	1104.73
388.36	1104.97
388.73	1107.78
389.10	1130.24
389.46	1132.12
389.83	1116.90
390.20	1109.65
390.57	1110.35
390.94	1102.86
391.31	1110.82
391.68	1116.20
392.05	1122.75
392.42	1135.16
392.79	1132.59
393.16	1128.61
393.53	1142.42
393.89	1146.16
394.26	1138.20
394.63	1141.48
395.00	1148.73
395.37	1144.29
395.74	1144.99
396.11	1140.07
396.48	1138.44
396.84	1138.90
397.21	1133.99
397.58	1143.82
397.95	1156.46
398.32	1167.23
398.69	1173.54
399.06	1188.29
399.42	1183.84
399.79	1190.40
400.16	1191.57
400.53	1187.82
400.90	1195.31
401.27	1200.93
401.64	1204.44
402.00	1211.93
402.37	1226.21
402.74	1226.44
403.11	1243.99
403.48	1256.17
403.84	1267.87
404.21	1271.38
404.58	1292.68
404.95	1297.12
405.32	1301.81
405.68	1322.64
406.05	1355.40
406.42	1378.11
406.79	1415.09
407.16	1447.86
407.52	1482.73
407.89	1501.22
408.26	1534.69
408.63	1564.88
408.99	1598.35
409.36	1636.27
409.73	1685.19
410.10	1724.74
410.47	1770.85
410.83	1848.56
411.20	1912.92
411.57	1982.43
411.94	2046.80
412.30	2118.18
412.67	2177.63
413.04	2246.21
413.40	2329.07
413.77	2432.05
414.14	2534.33
414.51	2657.68
414.87	2785.71
415.24	2920.29
415.61	3067.27
415.97	3208.17
416.34	3365.92
416.71	3531.17
417.08	3735.26
417.44	3905.65
417.81	4147.20
418.18	4353.16
418.54	4617.88
418.91	4845.85
419.28	5145.90
419.64	5436.83
420.01	5766.61
420.38	6099.90
420.74	6447.47
421.11	6835.53
421.48	7202.76
421.84	7614.93
422.21	7996.91
422.58	8465.48
422.94	8943.66
423.31	9459.28
423.68	9984.49
424.04	10605.67
424.41	11191.27
424.77	11753.23
425.14	12374.65
425.51	12992.78
425.87	13678.09
426.24	14401.08
426.61	15282.06
426.97	16193.00
427.34	17128.98
427.70	18150.62
428.07	19135.52
428.44	20051.84
428.80	21037.91
429.17	22172.60
429.53	23183.47
429.90	24408.28
430.27	25535.71
430.63	26671.11
431.00	27858.46
431.36	29232.82
431.73	30417.84
432.09	31778.62
432.46	33024.72
432.83	34314.83
433.19	35400.37
433.56	36785.26
433.92	38147.46
434.29	39532.35
434.65	40887.52
435.02	42091.02
435.38	43172.35
435.75	43984.52
436.11	45139.81
436.48	46001.12
436.84	47029.09
437.21	47951.49
437.57	48886.07
437.94	49531.82
438.30	50258.09
438.67	50746.79
439.03	51065.81
439.40	51364.93
439.76	51241.58
440.13	51006.83
440.49	50844.63
440.86	50416.08
441.22	49998.52
441.59	49543.76
441.95	49038.67
442.32	48250.14
442.68	47529.96
443.05	46589.30
443.41	45689.13
443.78	44550.69
444.14	43540.28
444.51	42310.33
444.87	41431.93
445.24	40288.58
445.60	39254.53
445.96	38129.20
446.33	37251.73
446.69	36096.68
447.06	35182.46
447.42	34171.82
447.79	33114.84
448.15	32170.20
448.51	31206.13
448.88	30417.60
449.24	29516.03
449.61	28881.51
449.97	28110.77
450.33	27406.27
450.70	26563.68
451.06	26018.80
451.43	25270.06
451.79	24773.40
452.15	24185.69
452.52	23619.52
452.88	23028.06
453.24	22512.21
453.61	21859.67
453.97	21296.53
454.34	20680.04
454.70	20114.56
455.06	19498.30
455.43	18851.38
455.79	18099.60
456.15	17546.06
456.52	16856.07
456.88	16344.90
457.24	15759.30
457.61	15362.81
457.97	14825.19
458.33	14332.97
458.70	13797.93
459.06	13293.54
459.42	12818.65
459.79	12332.05
460.15	11921.28
460.51	11466.75
460.88	11136.74
461.24	10738.61
461.60	10462.43
461.96	10118.37
462.33	9842.89
462.69	9513.11
463.05	9202.99
463.42	8905.74
463.78	8652.49
464.14	8398.08
464.50	8174.09
464.87	7948.69
465.23	7715.58
465.59	7505.16
465.95	7304.81
466.32	7108.44
466.68	6918.39
467.04	6705.40
467.40	6545.78
467.77	6384.75
468.13	6215.53
468.49	6084.46
468.85	5972.34
469.22	5827.70
469.58	5678.61
469.94	5546.37
470.30	5401.49
470.66	5296.16
471.03	5176.33
471.39	5078.96
471.75	4971.77
472.11	4874.87
472.47	4771.65
472.84	4688.56
473.20	4580.90
473.56	4490.08
473.92	4394.59
474.28	4313.37
474.65	4236.37
475.01	4158.43
475.37	4055.68
475.73	3978.68
476.09	3890.67
476.45	3812.03
476.81	3729.41
477.18	3675.34
477.54	3592.49
477.90	3508.46
478.26	3412.74
478.62	3337.60
478.98	3282.60
479.34	3234.39
479.71	3198.11
480.07	3166.04
480.43	3140.53
480.79	3087.40
481.15	3026.55
481.51	2959.37
481.87	2917.95
482.23	2870.43
482.59	2815.20
482.96	2788.51
483.32	2763.24
483.68	2706.83
484.04	2653.00
484.40	2628.89
484.76	2587.46
485.12	2539.72
485.48	2520.99
485.84	2501.33
486.20	2456.86
486.56	2421.05
486.92	2398.82
487.28	2366.75
487.64	2320.64
488.00	2291.15
488.37	2274.30
488.73	2229.59
489.09	2193.78
489.45	2171.55
489.81	2141.82
490.17	2108.59
490.53	2089.40
490.89	2054.05
491.25	2032.52
491.61	2006.31
491.97	1963.71
492.33	1934.92
492.69	1924.39
493.05	1889.75
493.41	1868.22
493.77	1862.36
494.13	1848.32
494.49	1822.34
494.85	1802.21
495.21	1779.04
495.57	1754.23
495.93	1740.42
496.29	1715.85
496.64	1714.21
497.00	1696.65
497.36	1670.21
497.72	1654.29
498.08	1630.65
498.44	1611.69
498.80	1594.37
499.16	1593.44
499.52	1568.86
499.88	1563.01
500.24	1542.88
500.60	1527.20
500.96	1503.33
501.32	1497.71
501.68	1493.50
502.03	1476.41
502.39	1476.18
502.75	1462.60
503.11	1448.09
503.47	1427.73
503.83	1415.56
504.19	1405.96
504.55	1411.58
504.91	1393.32
505.26	1384.19
505.62	1385.13
505.98	1369.68
506.34	1348.85
506.70	1339.49
507.06	1332.94
507.42	1321.70
507.78	1317.96
508.13	1319.13
508.49	1308.83
508.85	1308.83
509.21	1307.66
509.57	1300.40
509.93	1289.64
510.28	1302.74
510.64	1287.29
511.00	1276.06
511.36	1273.25
511.72	1262.25
512.07	1249.38
512.43	1254.76
512.79	1255.23
513.15	1250.08
513.51	1246.80
513.86	1245.63
514.22	1243.29
514.58	1244.46
514.94	1247.97
515.30	1254.29
515.65	1249.38
516.01	1244.23
516.37	1229.02
516.73	1225.74
517.08	1215.21
517.44	1212.16
517.80	1207.48
518.16	1213.10
518.51	1202.57
518.87	1193.67
519.23	1183.37
519.59	1180.33
519.94	1171.44
520.30	1172.84
520.66	1185.72
521.01	1189.23
521.37	1188.76
521.73	1190.40
522.09	1193.67
522.44	1196.25
522.80	1195.55
523.16	1185.48
523.51	1180.57
523.87	1174.71
524.23	1159.03
524.58	1158.80
524.94	1159.97
525.30	1164.42
525.65	1160.20
526.01	1170.03
526.37	1172.84
526.72	1178.46
527.08	1171.67
527.44	1161.37
527.79	1149.20
528.15	1146.63
528.51	1136.80
528.86	1136.80
529.22	1133.05
529.58	1130.01
529.93	1117.84
530.29	1112.22
530.65	1115.97
531.00	1128.61
531.36	1131.41
531.71	1150.37
532.07	1170.97
532.43	1171.67
532.78	1172.37
533.14	1177.76
533.49	1155.05
533.85	1139.61
534.21	1129.31
534.56	1119.01
534.92	1112.69
535.27	1128.14
535.63	1135.63
535.98	1143.82
536.34	1146.63
536.69	1141.01
537.05	1131.18
537.41	1129.54
537.76	1134.46
538.12	1137.27
538.47	1148.03
538.83	1155.52
539.18	1150.37
539.54	1145.22
539.89	1148.97
540.25	1146.86
540.60	1142.18
540.96	1141.71
541.31	1124.86
541.67	1117.14
542.02	1112.69
542.38	1112.69
542.73	1119.48
543.09	1129.78
543.44	1122.29
543.80	1122.99
544.15	1118.54
544.51	1124.16
544.86	1126.03
545.22	1136.56
545.57	1133.29
545.93	1137.73
546.28	1128.14
546.64	1124.63
546.99	1111.75
547.35	1112.69
547.70	1111.52
548.05	1110.12
548.41	1114.80
548.76	1129.31
549.12	1138.67
549.47	1144.29
549.83	1148.73
550.18	1143.35
550.53	1133.29
550.89	1128.37
551.24	1117.37
551.60	1110.12
551.95	1115.03
552.30	1110.12
552.66	1108.71
553.01	1105.90
553.37	1108.71
553.72	1108.48
554.07	1118.78
554.43	1120.88
554.78	1130.01
555.13	1125.56
555.49	1125.56
555.84	1117.14
556.19	1101.69
556.55	1087.65
556.90	1086.71
557.26	1078.52
557.61	1082.73
557.96	1092.56
558.32	1107.07
558.67	1111.99
559.02	1111.29
559.37	1117.84
559.73	1130.71
560.08	1125.80
560.43	1132.35
560.79	1146.39
561.14	1140.07
561.49	1128.84
561.85	1128.14
562.20	1121.12
562.55	1121.82
562.90	1127.20
563.26	1124.86
563.61	1119.95
563.96	1121.35
564.32	1115.27
564.67	1108.71
565.02	1108.71
565.37	1110.12
565.73	1105.67
566.08	1096.31
566.43	1101.69
566.78	1104.50
567.14	1099.35
567.49	1097.01
567.84	1105.67
568.19	1104.97
568.54	1098.41
568.90	1109.88
569.25	1116.90
569.60	1105.67
569.95	1108.48
570.31	1115.03
570.66	1118.07
571.01	1110.58
571.36	1120.18
571.71	1120.88
572.06	1122.99
572.42	1108.01
572.77	1122.99
573.12	1115.03
573.47	1103.80
573.82	1101.69
574.18	1108.01
574.53	1091.39
574.88	1098.41
575.23	1108.95
575.58	1112.69
575.93	1108.24
576.28	1109.88
576.64	1107.54
576.99	1099.35
577.34	1095.14
577.69	1100.52
578.04	1099.35
578.39	1098.41
578.74	1109.65
579.09	1106.84
579.44	1104.03
579.80	1107.78
580.15	1104.50
580.50	1100.52
580.85	1101.22
581.20	1105.44
581.55	1100.75
581.90	1100.29
582.25	1101.69
582.60	1090.46
582.95	1089.29
583.30	1095.14
583.65	1095.60
584.00	1089.52
584.35	1111.52
584.71	1113.16
585.06	1119.95
585.41	1128.14
585.76	1124.63
586.11	1118.78
586.46	1115.73
586.81	1106.37
587.16	1103.80
587.51	1095.84
587.86	1086.24
588.21	1086.24
588.56	1083.43
588.91	1080.16
589.26	1104.26
589.61	1107.78
589.96	1104.73
590.31	1107.07
590.66	1109.18
591.01	1102.63
591.36	1094.43
591.71	1098.88
592.06	1093.26
592.41	1087.41
592.76	1080.39
593.10	1090.46
593.45	1084.37
593.80	1095.14
594.15	1092.09
594.50	1091.39
594.85	1087.41
595.20	1095.60
595.55	1102.16
595.90	1114.33
596.25	1116.20
596.60	1121.58
596.95	1119.95
597.30	1101.92
597.64	1142.18
597.99	1145.46
598.34	1137.27
598.69	1137.73
599.04	1151.08
599.39	1111.75
599.74	1102.86
600.09	1110.12
600.44	1107.07
600.78	1098.88
601.13	1100.75
601.48	1108.48
601.83	1106.37
602.18	1111.99
602.53	1111.29
602.88	1108.24
603.22	1102.63
603.57	1094.90
603.92	1089.99
604.27	1093.50
604.62	1086.94
604.97	1092.56
605.31	1100.75
605.66	1095.37
606.01	1087.65
606.36	1088.82
606.71	1091.39
607.05	1092.56
607.40	1095.84
607.75	1110.35
608.10	1105.20
608.44	1100.99
608.79	1101.69
609.14	1103.09
609.49	1086.01
609.84	1092.80
610.18	1097.71
610.53	1098.41
610.88	1101.69
611.23	1112.92
611.57	1110.58
611.92	1109.18
612.27	1114.33
612.62	1120.88
612.96	1112.46
613.31	1118.78
613.66	1109.65
614.00	1098.18
614.35	1095.60
614.70	1103.09
615.05	1102.86
615.39	1113.86
615.74	1115.27
616.09	1103.80
616.43	1111.29
616.78	1101.69
617.13	1091.16
617.47	1093.97
617.82	1110.35
618.17	1091.39
618.51	1097.24
618.86	1094.90
619.21	1087.65
619.55	1082.03
619.90	1081.80
620.25	1075.24
620.59	1087.18
620.94	1083.20
621.29	1082.50
621.63	1094.67
621.98	1097.71
622.32	1094.67
622.67	1103.80
623.02	1094.67
623.36	1092.80
623.71	1096.78
624.05	1096.78
624.40	1100.05
624.75	1103.56
625.09	1107.07
625.44	1106.61
625.78	1100.52
626.13	1095.37
626.48	1098.18
626.82	1097.01
627.17	1092.09
627.51	1086.71
627.86	1085.77
628.20	1084.14
628.55	1082.50
628.89	1073.60
629.24	1079.22
629.58	1080.86
629.93	1080.16
630.28	1091.16
630.62	1109.18
630.97	1110.12
631.31	1111.05
631.66	1111.29
632.00	1094.43
632.35	1085.77
632.69	1083.43
633.04	1078.28
633.38	1087.88
633.73	1092.80
634.07	1098.18
634.42	1108.71
634.76	1116.90
635.11	1108.95
635.45	1111.52
635.79	1111.99
636.14	1106.14
636.48	1097.71
636.83	1101.69
637.17	1098.65
637.52	1100.05
637.86	1097.71
638.21	1100.75
638.55	1103.56
638.89	1104.03
639.24	1099.82
639.58	1095.14
639.93	1099.35
640.27	1092.09
640.61	1092.09
640.96	1094.90
641.30	1096.31
641.65	1092.09
641.99	1090.46
642.33	1098.88
642.68	1092.80
643.02	1099.58
643.37	1108.71
643.71	1115.03
644.05	1105.90
644.40	1100.29
644.74	1104.97
645.08	1096.31
645.43	1088.58
645.77	1088.35
646.11	1100.05
646.46	1088.82
646.80	1089.99
647.14	1089.29
647.49	1088.82
647.83	1094.43
648.17	1105.90
648.52	1113.63
648.86	1108.01
649.20	1116.90
649.55	1120.65
649.89	1114.56
650.23	1102.16
650.57	1104.50
650.92	1092.33
651.26	1081.80
651.60	1065.18
651.95	1066.58
652.29	1074.77
652.63	1072.43
652.97	1060.96
653.32	1067.05
653.66	1073.37
654.00	1070.56
654.34	1083.90
654.69	1086.24
655.03	1093.03
655.37	1091.86
655.71	1083.90
656.05	1085.07
656.40	1092.09
656.74	1098.18
657.08	1098.65
657.42	1101.46
657.76	1098.88
658.11	1106.61
658.45	1101.46
658.79	1097.01
659.13	1106.14
659.47	1115.50
659.82	1105.20
660.16	1105.90
660.50	1096.31
660.84	1088.58
661.18	1083.43
661.52	1082.73
661.87	1089.05
662.21	1094.67
662.55	1095.37
662.89	1078.28
663.23	1080.63
663.57	1074.31
663.91	1080.39
664.25	1087.18
664.60	1092.80
664.94	1095.14
665.28	1089.29
665.62	1098.88
665.96	1093.26
666.30	1095.37
666.64	1087.41
666.98	1096.07
667.32	1078.99
667.66	1070.56
668.01	1069.39
668.35	1070.09
668.69	1065.41
669.03	1074.54
669.37	1083.20
669.71	1081.56
670.05	1091.63
670.39	1097.01
670.73	1105.20
671.07	1109.65
671.41	1108.48
671.75	1104.97
672.09	1108.48
672.43	1096.31
672.77	1095.84
673.11	1105.20
673.45	1103.09
673.79	1099.58
674.13	1099.58
674.47	1083.43
674.81	1072.43
675.15	1066.58
675.49	1060.96
675.83	1060.26
676.17	1079.92
676.51	1080.16
676.85	1079.22
677.19	1072.43
677.53	1072.43
677.87	1067.52
678.21	1078.52
678.55	1087.41
678.89	1102.16
679.23	1106.14
679.57	1095.37
679.90	1092.09
680.24	1088.35
680.58	1080.63
680.92	1080.39
681.26	1089.05
681.60	1087.41
681.94	1085.54
682.28	1088.12
682.62	1086.48
682.96	1083.90
683.29	1081.56
683.63	1093.50
683.97	1098.18
684.31	1095.37
684.65	1102.39
684.99	1101.22
685.33	1082.03
685.67	1078.75
686.00	1076.88
686.34	1071.50
686.68	1077.35
687.02	1091.16
687.36	1089.75
687.70	1092.09
688.03	1082.03
688.37	1078.75
688.71	1079.46
689.05	1079.22
689.39	1083.67
689.72	1087.18
690.06	1081.56
690.40	1081.80
690.74	1081.80
691.08	1074.31
691.41	1080.39
691.75	1077.58
692.09	1082.26
692.43	1091.39
692.76	1094.67
693.10	1096.54
693.44	1104.26
693.78	1097.95
694.11	1090.92
694.45	1097.71
694.79	1105.67
695.13	1102.16
695.46	1107.78
695.80	1100.52
696.14	1097.48
696.48	1095.37
696.81	1105.20
697.15	1095.14
697.49	1096.07
697.82	1091.86
698.16	1088.35
698.50	1081.56
698.83	1091.63
699.17	1097.95
699.51	1104.50
699.84	1104.97
700.18	1111.29
700.52	1098.88
700.85	1107.07
701.19	1116.67
701.53	1107.54
701.86	1108.24
702.20	1113.63
702.54	1104.97
702.87	1100.05
703.21	1108.71
703.55	1100.29
703.88	1089.99
704.22	1087.88
704.55	1079.46
704.89	1070.80
705.23	1067.52
705.56	1073.14
705.90	1066.82
706.23	1066.82
706.57	1071.50
706.91	1079.69
707.24	1081.56
707.58	1086.24
707.91	1082.97
708.25	1083.43
708.58	1090.22
708.92	1092.09
709.26	1097.71
709.59	1102.39
709.93	1100.75
710.26	1095.60
710.60	1100.29
710.93	1094.90
711.27	1087.18
711.60	1084.60
711.94	1073.84
712.27	1066.82
712.61	1071.03
712.94	1069.39
713.28	1069.16
713.61	1076.41
713.95	1077.58
714.28	1072.43
714.62	1075.24
714.95	1086.01
715.29	1083.67
715.62	1083.90
715.96	1082.97
716.29	1086.71
716.63	1083.43
716.96	1077.11
717.29	1073.37
717.63	1073.14
717.96	1081.33
718.30	1086.71
718.63	1104.50
718.97	1100.29
719.30	1099.58
719.63	1090.46
719.97	1076.41
720.30	1062.60
720.64	1070.80
720.97	1076.41
721.30	1077.11
721.64	1079.69
721.97	1078.52
722.31	1080.86
722.64	1074.77
722.97	1069.39
723.31	1077.82
723.64	1078.75
723.97	1080.63
724.31	1089.05
724.64	1093.50
724.98	1088.35
725.31	1090.46
725.64	1086.48
725.98	1086.48
726.31	1092.09
726.64	1097.71
726.97	1101.46
727.31	1100.05
727.64	1089.52
727.97	1085.31
728.31	1079.92
728.64	1079.46
728.97	1086.71
729.31	1097.71
729.64	1097.01
729.97	1092.09
730.30	1084.60
730.64	1080.16
730.97	1074.07
731.30	1081.80
731.63	1090.92
731.97	1106.14
732.30	1097.48
732.63	1101.22
732.96	1094.67
733.30	1091.39
733.63	1071.50
733.96	1077.82
734.29	1075.48
734.63	1075.01
734.96	1072.90
735.29	1080.16
735.62	1084.37
735.95	1089.29
736.29	1092.09
736.62	1084.37
736.95	1087.65
737.28	1084.84
737.61	1072.90
737.94	1073.84
738.28	1078.99
738.61	1076.65
738.94	1066.35
739.27	1064.01
739.60	1064.48
739.93	1061.90
740.27	1067.99
740.60	1084.60
740.93	1086.48
741.26	1077.35
741.59	1075.71
741.92	1070.80
742.25	1065.18
742.58	1075.94
742.91	1077.35
743.25	1079.69
743.58	1084.84
743.91	1089.29
744.24	1077.35
744.57	1092.33
744.90	1105.20
745.23	1098.88
745.56	1090.22
745.89	1100.05
746.22	1088.58
746.55	1087.18
746.88	1092.56
747.21	1084.37
747.54	1088.35
747.87	1085.77
748.20	1082.50
748.53	1080.39
748.87	1088.12
749.20	1083.43
749.53	1083.43
749.86	1078.75
750.19	1077.58
750.52	1082.97
750.85	1083.67
751.18	1084.60
751.51	1078.75
751.84	1071.97
752.16	1062.14
752.49	1056.28
752.82	1052.07
753.15	1060.73
753.48	1067.05
753.81	1074.31
754.14	1076.65
754.47	1089.05
754.80	1089.05
755.13	1089.99
755.46	1090.69
755.79	1086.48
756.12	1081.80
756.45	1075.94
756.78	1082.50
757.11	1086.71
757.43	1090.22
757.76	1085.31
758.09	1092.56
758.42	1083.67
758.75	1080.39
759.08	1087.65
759.41	1086.94
759.74	1073.37
760.07	1068.45
760.39	1065.65
760.72	1063.31
761.05	1075.24
761.38	1093.97
761.71	1104.73
762.04	1110.82
762.36	1107.78
762.69	1100.05
763.02	1103.09
763.35	1094.20
763.68	1089.29
764.01	1090.46
764.33	1100.75
764.66	1089.99
764.99	1093.73
765.32	1096.54
765.65	1097.01
765.97	1081.80
766.30	1077.35
766.63	1076.18
766.96	1073.37
767.28	1076.18
767.61	1076.18
767.94	1084.14
768.27	1083.67
768.59	1082.97
768.92	1079.69
769.25	1081.33
769.58	1072.67
769.90	1075.94
770.23	1079.22
770.56	1076.18
770.89	1078.99
771.21	1081.80
771.54	1085.07
771.87	1080.39
772.19	1088.58
772.52	1093.97
772.85	1095.60
773.17	1093.03
773.50	1096.54
773.83	1090.46
774.15	1082.50
774.48	1079.92
774.81	1072.43
775.13	1071.26
775.46	1065.88
775.79	1060.96
776.11	1071.97
776.44	1074.54
776.77	1069.16
777.09	1072.67
777.42	1075.71
777.74	1060.03
778.07	1063.77
778.40	1068.45
778.72	1071.97
779.05	1079.46
779.37	1090.22
779.70	1104.73
780.03	1101.69
780.35	1094.67
780.68	1096.31
781.00	1097.71
781.33	1082.50
781.65	1081.56
781.98	1087.18
782.31	1077.82
782.63	1079.22
782.96	1081.09
783.28	1078.05
783.61	1076.65
783.93	1086.01
784.26	1079.22
784.58	1071.97
784.91	1073.84
785.23	1077.35
785.56	1069.86
785.88	1067.75
786.21	1084.37
786.53	1088.35
786.86	1090.46
787.18	1100.75
787.51	1103.09
787.83	1087.41
788.16	1084.14
788.48	1078.28
788.81	1078.28
789.13	1082.03
789.46	1086.48
789.78	1098.65
790.10	1098.41
790.43	1083.20
790.75	1083.67
791.08	1076.88
791.40	1070.56
791.73	1074.07
792.05	1083.90
792.37	1084.84
792.70	1087.18
793.02	1094.20
793.35	1091.39
793.67	1093.73
793.99	1091.86
794.32	1092.80
794.64	1082.97
794.96	1086.24
795.29	1085.54
795.61	1079.22
795.93	1078.99
796.26	1084.84
796.58	1083.67
796.91	1070.80
797.23	1068.69
797.55	1073.14
797.87	1077.35
798.20	1080.39
798.52	1088.58
798.84	1098.88
799.17	1095.14
799.49	1087.18
799.81	1079.46
800.14	1075.01
800.46	1071.03
800.78	1070.56
801.10	1066.11
801.43	1070.80
801.75	1078.28
802.07	1077.35
802.40	1073.37
802.72	1074.54
803.04	1077.82
803.36	1069.39
803.69	1067.99
804.01	1073.37
804.33	1076.88
804.65	1066.11
804.97	1073.60
805.30	1077.82
805.62	1080.39
805.94	1077.82
806.26	1084.60
806.58	1090.92
806.91	1095.84
807.23	1102.39
807.55	1095.60
807.87	1095.37
808.19	1083.43
808.52	1072.67
808.84	1060.96
809.16	1066.11
809.48	1053.01
809.80	1055.82
810.12	1056.05
810.44	1064.01
810.77	1062.84
811.09	1082.50
811.41	1079.92
811.73	1083.43
812.05	1084.84
812.37	1086.01
812.69	1082.73
813.01	1083.43
813.33	1087.65
813.66	1085.31
813.98	1095.14
814.30	1092.33
814.62	1093.03
814.94	1087.18
815.26	1080.39
815.58	1072.67
815.90	1068.22
816.22	1065.18
816.54	1061.20
816.86	1066.11
817.18	1063.54
817.50	1065.65
817.82	1067.75
818.14	1075.24
818.46	1071.26
818.78	1066.35
819.10	1071.26
819.42	1066.82
819.74	1055.35
820.06	1050.20
820.38	1058.16
820.70	1056.05
821.02	1062.84
821.34	1067.05
821.66	1066.82
821.98	1066.58
822.30	1065.18
822.62	1068.69
822.94	1073.14
823.26	1077.82
823.58	1082.73
823.90	1080.39
824.22	1074.54
824.54	1082.97
824.86	1087.65
825.18	1081.56
825.50	1093.03
825.81	1098.88
826.13	1092.33
826.45	1097.95
826.77	1104.50
827.09	1096.78
827.41	1101.46
827.73	1096.78
828.05	1097.95
828.36	1097.95
828.68	1103.33
829.00	1086.48
829.32	1079.92
829.64	1075.48
829.96	1082.97
830.28	1074.07
830.59	1088.35
830.91	1099.12
831.23	1100.75
831.55	1087.18
831.87	1094.20
832.19	1088.12
832.50	1091.63
832.82	1095.14
833.14	1103.80
833.46	1096.54
833.78	1104.73
834.09	1092.56
834.41	1086.24
834.73	1082.97
835.05	1084.60
835.36	1081.80
835.68	1089.52
836.00	1094.67
836.32	1087.65
836.63	1086.94
836.95	1078.52
837.27	1081.80
837.59	1067.75
837.90	1066.35
838.22	1067.52
838.54	1082.26
838.85	1070.80
839.17	1075.71
839.49	1088.35
839.80	1080.86
840.12	1064.01
840.44	1073.14
840.76	1075.94
841.07	1070.09
841.39	1073.84
841.71	1078.99
842.02	1071.26
842.34	1074.07
842.65	1077.58
842.97	1080.16
843.29	1082.50
843.60	1093.03
843.92	1088.82
844.24	1089.52
844.55	1093.50
844.87	1088.12
845.18	1086.71
845.50	1099.12
845.82	1093.50
846.13	1093.50
846.45	1096.54
846.76	1092.33
847.08	1078.75
847.40	1068.45
847.71	1057.92
848.03	1056.75
848.34	1060.73
848.66	1058.62
848.97	1083.43
849.29	1083.20
849.60	1081.33
849.92	1080.86
850.24	1085.77
850.55	1077.82
850.87	1085.31
851.18	1095.60
851.50	1088.58
851.81	1088.58
852.13	1089.75
852.44	1087.41
852.76	1078.75
853.07	1088.82
853.39	1086.71
853.70	1080.63
854.01	1080.86
854.33	1077.35
854.64	1068.22
854.96	1071.97
855.27	1076.18
855.59	1076.18
855.90	1087.18
856.22	1094.43
856.53	1086.48
856.84	1077.58
857.16	1082.97
857.47	1080.16
857.79	1072.67
858.10	1078.99
858.41	1089.29
858.73	1086.94
859.04	1088.35
859.36	1100.75
859.67	1095.60
859.98	1084.60
860.30	1082.03
860.61	1089.29
860.92	1081.09
861.24	1087.41
861.55	1089.99
861.87	1098.65
862.18	1087.88
862.49	1090.22
862.81	1093.26
863.12	1094.90
863.43	1089.52
863.74	1094.67
864.06	1087.41
864.37	1085.77
864.68	1080.39
865.00	1081.80
865.31	1083.43
865.62	1088.12
865.94	1082.97
866.25	1085.31
866.56	1083.67
866.87	1075.71
867.19	1078.75
867.50	1095.60
867.81	1101.46
868.12	1101.22
868.44	1101.92
868.75	1101.46
869.06	1085.07
869.37	1080.86
869.68	1077.35
870.00	1086.01
870.31	1089.29
870.62	1092.56
870.93	1087.65
871.24	1084.14
871.56	1074.07
871.87	1074.07
872.18	1077.82
872.49	1087.88
872.80	1100.29
873.12	1105.20
873.43	1107.07
873.74	1100.29
874.05	1092.33
874.36	1085.31
874.67	1087.18
874.98	1071.03
875.29	1071.03
875.61	1079.22
875.92	1079.92
876.23	1082.97
876.54	1091.16
876.85	1100.29
877.16	1093.97
877.47	1094.67
877.78	1087.65
878.09	1092.56
878.40	1079.22
878.72	1077.35
879.03	1088.58
879.34	1092.09
879.65	1084.60
879.96	1092.09
880.27	1091.39
880.58	1080.63
880.89	1079.22
881.20	1089.29
881.51	1086.71
881.82	1100.99
882.13	1099.58
882.44	1096.78
882.75	1081.80
883.06	1088.12
883.37	1073.60
883.68	1067.99
883.99	1074.77
884.30	1081.09
884.61	1080.16
884.92	1090.46
885.23	1103.09
885.54	1097.48
885.85	1099.12
886.16	1089.52
886.47	1075.48
886.78	1072.43
887.08	1061.43
887.39	1058.86
887.70	1063.31
888.01	1068.69
888.32	1071.26
888.63	1076.18
888.94	1083.90
889.25	1078.05
889.56	1086.01
889.87	1088.82
890.17	1088.35
890.48	1081.56
890.79	1089.05
891.10	1087.18
891.41	1081.09
891.72	1086.24
892.03	1090.92
892.34	1082.26
892.64	1077.82
892.95	1074.07
893.26	1075.01
893.57	1070.80
893.88	1067.99
894.18	1066.58
894.49	1068.92
894.80	1066.11
895.11	1077.11
895.42	1088.82
895.72	1092.56
896.03	1087.41
896.34	1082.97
896.65	1070.09
896.96	1058.86
897.26	1056.99
897.57	1064.71
897.88	1075.71
898.19	1079.92
898.49	1089.29
898.80	1089.05
899.11	1082.26
899.41	1076.65
899.72	1084.84
900.03	1076.65
900.34	1078.05
900.64	1085.54
900.95	1080.39
901.26	1063.07
901.56	1069.86
901.87	1070.33
902.18	1064.48
902.48	1076.41
902.79	1078.05
903.10	1082.50
903.40	1081.09
903.71	1076.65
904.02	1069.86
904.32	1066.82
904.63	1060.96
904.94	1071.03
905.24	1067.75
905.55	1077.82
905.85	1090.22
906.16	1091.39
906.47	1083.20
906.77	1094.20
907.08	1080.39
907.38	1081.09
907.69	1075.71
908.00	1071.50
908.30	1074.31
908.61	1074.77
908.91	1069.86
909.22	1077.58
909.52	1076.18
909.83	1076.41
910.14	1084.84
910.44	1092.80
910.75	1096.07
911.05	1094.20
911.36	1081.80
911.66	1075.01
911.97	1065.65
912.27	1055.58
912.58	1067.99
912.88	1069.16
913.19	1075.71
913.49	1068.92
913.80	1071.26
914.10	1062.14
914.41	1063.77
914.71	1057.69
915.01	1067.28
915.32	1073.14
915.62	1076.41
915.93	1077.35
916.23	1075.24
916.54	1074.77
916.84	1067.05
917.15	1069.16
917.45	1064.24
917.75	1072.67
918.06	1069.86
918.36	1068.45
918.67	1056.75
918.97	1058.62
919.27	1058.16
919.58	1060.03
919.88	1059.09
920.18	1071.03
920.49	1070.33
920.79	1061.67
921.10	1067.99
921.40	1084.14
921.70	1080.63
922.01	1090.22
922.31	1097.01
922.61	1095.37
922.92	1087.18
923.22	1085.07
923.52	1089.05
923.82	1085.07
924.13	1081.09
924.43	1081.80
924.73	1091.63
925.04	1084.84
925.34	1081.56
925.64	1088.35
925.94	1081.56
926.25	1070.33
926.55	1077.11
926.85	1088.82
927.15	1089.75
927.46	1102.39
927.76	1108.48
928.06	1101.46
928.36	1089.75
928.67	1085.31
928.97	1073.60
929.27	1076.18
929.57	1073.84
929.87	1074.54
930.18	1063.77
930.48	1058.16
930.78	1053.48
931.08	1060.50
931.38	1056.52
931.69	1066.82
931.99	1075.71
932.29	1080.39
932.59	1083.67
932.89	1089.52
933.19	1079.69
933.49	1071.26
933.80	1071.03
934.10	1058.86
934.40	1066.35
934.70	1073.37
935.00	1075.71
935.30	1069.16
935.60	1073.84
935.90	1067.99
936.20	1070.33
936.50	1085.77
936.81	1085.54
937.11	1091.63
937.41	1104.73
937.71	1105.20
938.01	1093.97
938.31	1098.41
938.61	1088.82
938.91	1080.16
939.21	1083.20
939.51	1090.46
939.81	1078.75
940.11	1084.84
940.41	1075.71
940.71	1064.71
941.01	1065.41
941.31	1071.50
941.61	1071.03
941.91	1079.22
942.21	1076.18
942.51	1067.52
942.81	1077.11
943.11	1083.67
943.41	1083.90
943.71	1088.35
944.01	1093.73
944.31	1085.31
944.61	1072.20
944.90	1073.84
945.20	1084.37
945.50	1086.24
945.80	1089.52
946.10	1084.37
946.40	1081.33
946.70	1068.69
947.00	1065.65
947.30	1066.11
947.60	1073.14
947.89	1084.37
948.19	1088.58
948.49	1089.29
948.79	1089.52
949.09	1099.12
949.39	1085.54
949.69	1090.92
949.98	1093.26
950.28	1095.60
950.58	1091.39
950.88	1102.63
951.18	1103.09
951.48	1105.67
951.77	1100.99
952.07	1100.29
952.37	1089.75
952.67	1087.41
952.97	1085.54
953.26	1088.82
953.56	1089.99
953.86	1096.78
954.16	1088.58
954.45	1084.37
954.75	1078.28
955.05	1072.90
955.35	1067.99
955.64	1071.26
955.94	1068.22
956.24	1073.37
956.54	1067.99
956.83	1071.26
957.13	1071.97
957.43	1081.80
957.72	1077.82
958.02	1081.09
958.32	1073.84
958.61	1067.52
958.91	1052.54
959.21	1054.18
959.50	1056.99
959.80	1060.50
960.10	1076.18
960.39	1091.39
960.69	1102.39
960.99	1102.86
961.28	1103.80
961.58	1099.82
961.87	1088.82
962.17	1073.84
962.47	1070.09
962.76	1064.71
963.06	1058.62
963.36	1065.18
963.65	1075.01
963.95	1083.90
964.24	1093.73
964.54	1087.18
964.83	1084.84
965.13	1082.03
965.42	1081.56
965.72	1079.46
966.02	1087.65
966.31	1086.94
966.61	1086.24
966.90	1085.77
967.20	1082.50
967.49	1088.35
967.79	1086.71
968.08	1086.94
968.38	1087.88
968.67	1086.01
968.97	1080.16
969.26	1081.80
969.56	1081.33
969.85	1084.60
970.15	1080.16
970.44	1081.09
970.74	1081.09
971.03	1083.90
971.32	1078.05
971.62	1084.37
971.91	1089.29
972.21	1085.07
972.50	1092.80
972.80	1091.86
973.09	1091.16
973.38	1094.67
973.68	1102.39
973.97	1095.14
974.27	1100.99
974.56	1091.39
974.85	1084.14
975.15	1084.84
975.44	1074.07
975.73	1069.86
976.03	1076.88
976.32	1080.86
976.61	1074.54
976.91	1090.22
977.20	1097.01
977.49	1093.03
977.79	1088.82
978.08	1090.69
978.37	1081.09
978.67	1076.18
978.96	1087.41
979.25	1088.58
979.55	1083.67
979.84	1084.84
980.13	1079.22
980.42	1077.35
980.72	1071.73
981.01	1073.60
981.30	1080.63
981.59	1082.73
981.89	1082.73
982.18	1083.90
982.47	1085.31
982.76	1076.65
983.06	1077.82
983.35	1076.65
983.64	1081.56
983.93	1083.20
984.22	1084.14
984.52	1080.16
984.81	1078.05
985.10	1083.67
985.39	1081.80
985.68	1083.90
985.97	1085.31
986.27	1084.37
986.56	1076.88
986.85	1082.50
987.14	1084.37
987.43	1077.35
987.72	1083.90
988.01	1087.65
988.31	1092.33
988.60	1095.84
988.89	1103.56
989.18	1093.73
989.47	1093.73
989.76	1096.31
990.05	1088.12
990.34	1088.12
990.63	1098.65
990.92	1111.52
991.21	1098.41
991.51	1099.12
991.80	1104.73
992.09	1099.12
992.38	1078.05
992.67	1080.63
992.96	1084.60
993.25	1079.69
993.54	1078.99
993.83	1088.12
994.12	1094.43
994.41	1086.48
994.70	1093.26
994.99	1098.65
995.28	1087.18
995.57	1082.97
995.86	1080.39
996.15	1070.80
996.44	1058.39
996.73	1070.09
997.02	1066.11
997.31	1069.62
997.59	1077.11
997.88	1086.01
998.17	1083.20
998.46	1087.18
998.75	1085.77
999.04	1080.86
999.33	1076.18
999.62	1073.14
999.91	1070.80
1000.20	1068.69
1000.49	1068.92
1000.77	1066.58
1001.06	1066.11
1001.35	1064.24
1001.64	1072.90
1001.93	1069.62
1002.22	1078.05
1002.51	1089.29
1002.79	1098.65
1003.08	1096.54
1003.37	1105.20
1003.66	1103.80
1003.95	1095.60
1004.23	1093.26
1004.52	1090.46
1004.81	1079.69
1005.10	1079.92
1005.39	1080.86
1005.67	1077.58
1005.96	1092.09
1006.25	1095.14
1006.54	1095.60
1006.83	1089.05
1007.11	1088.35
1007.40	1074.77
1007.69	1074.31
1007.97	1075.48
1008.26	1076.65
1008.55	1077.82
1008.84	1079.46
1009.12	1079.46
1009.41	1076.41
1009.70	1083.90
1009.98	1080.16
1010.27	1078.52
1010.56	1087.41
1010.85	1094.90
1011.13	1080.86
1011.42	1077.35
1011.71	1083.90
1011.99	1066.11
1012.28	1058.16
1012.56	1073.60
1012.85	1074.07
1013.14	1073.60
1013.42	1082.26
1013.71	1091.39
1014.00	1076.65
1014.28	1080.63
1014.57	1073.37
1014.85	1076.88
1015.14	1074.77
1015.43	1076.41
1015.71	1074.31
1016.00	1078.75
1016.28	1079.69
1016.57	1075.48
1016.85	1076.65
1017.14	1082.03
1017.43	1080.86
1017.71	1082.97
1018.00	1080.39
1018.28	1083.67
1018.57	1088.58
1018.85	1085.07
1019.14	1097.24
1019.42	1101.46
1019.71	1111.52
1019.99	1108.24
1020.28	1106.84
1020.56	1101.92
1020.85	1090.22
1021.13	1092.09
1021.42	1085.54
1021.70	1086.01
1021.99	1065.18
1022.27	1072.67
1022.55	1032.18
1022.84	1078.99
>>>>>End Processed Spectral Data<<<<<
