SpectraSuite Data File
++++++++++++++++++++++++++++++++++++
Date: Mon Aug 26 10:24:48 PDT 2019
User: corrico
Dark Spectrum Present: No
Reference Spectrum Present: No
Number of Sampled Component Spectra: 1
Spectrometers: USB2+H06089
Integration Time (usec): 10000 (USB2+H06089)
Spectra Averaged: 2 (USB2+H06089)
Boxcar Smoothing: 2 (USB2+H06089)
Correct for Electrical Dark: No (USB2+H06089)
Strobe/Lamp Enabled: No (USB2+H06089)
Correct for Detector Non-linearity: No (USB2+H06089)
Correct for Stray Light: No (USB2+H06089)
Number of Pixels in Processed Spectrum: 2048
>>>>>Begin Processed Spectral Data<<<<<
339.70	1039.20
340.07	1039.20
340.45	1004.56
340.82	977.88
341.19	950.26
341.57	915.85
341.94	897.60
342.31	887.06
342.69	881.91
343.06	880.28
343.43	880.98
343.81	887.53
344.18	894.08
344.55	907.19
344.93	912.57
345.30	921.70
345.67	923.34
346.04	936.92
346.42	939.73
346.79	952.36
347.16	965.71
347.54	976.94
347.91	977.88
348.28	982.09
348.65	988.64
349.03	993.79
349.40	1009.47
349.77	1023.75
350.14	1043.88
350.52	1053.01
350.89	1060.50
351.26	1065.88
351.63	1067.99
352.01	1066.35
352.38	1072.43
352.75	1087.18
353.12	1086.48
353.50	1098.18
353.87	1105.20
354.24	1098.88
354.61	1096.54
354.98	1098.88
355.36	1085.31
355.73	1088.35
356.10	1097.71
356.47	1091.39
356.84	1096.31
357.22	1101.92
357.59	1087.88
357.96	1088.12
358.33	1085.31
358.70	1080.39
359.08	1089.75
359.45	1098.41
359.82	1101.69
360.19	1103.33
360.56	1107.07
360.94	1097.01
361.31	1092.80
361.68	1091.86
362.05	1098.41
362.42	1094.20
362.79	1096.31
363.16	1105.44
363.54	1094.20
363.91	1089.75
364.28	1093.26
364.65	1096.78
365.02	1090.69
365.39	1095.14
365.76	1100.75
366.14	1097.71
366.51	1093.03
366.88	1088.12
367.25	1087.88
367.62	1078.75
367.99	1074.31
368.36	1070.09
368.73	1072.20
369.10	1065.18
369.48	1074.31
369.85	1075.71
370.22	1075.71
370.59	1074.31
370.96	1090.22
371.33	1090.69
371.70	1091.86
372.07	1094.20
372.44	1101.46
372.81	1094.43
373.18	1085.77
373.55	1081.80
373.93	1084.84
374.30	1076.88
374.67	1089.52
375.04	1086.24
375.41	1094.90
375.78	1093.97
376.15	1099.12
376.52	1085.77
376.89	1090.92
377.26	1095.37
377.63	1102.16
378.00	1102.86
378.37	1107.78
378.74	1103.80
379.11	1101.46
379.48	1103.56
379.85	1105.90
380.22	1097.01
380.59	1096.31
380.96	1094.90
381.33	1088.12
381.70	1087.41
382.07	1097.71
382.44	1102.16
382.81	1097.24
383.18	1085.07
383.55	1083.20
383.92	1078.05
384.29	1082.03
384.66	1085.54
385.03	1104.50
385.40	1102.16
385.77	1112.69
386.14	1108.01
386.51	1106.37
386.88	1095.14
387.25	1090.69
387.62	1083.67
387.99	1085.31
388.36	1080.86
388.73	1087.18
389.10	1100.29
389.46	1101.46
389.83	1105.20
390.20	1116.67
390.57	1115.73
390.94	1109.65
391.31	1109.18
391.68	1111.99
392.05	1101.22
392.42	1095.37
392.79	1082.73
393.16	1081.09
393.53	1079.22
393.89	1088.82
394.26	1089.75
394.63	1107.54
395.00	1118.54
395.37	1119.95
395.74	1115.50
396.11	1115.73
396.48	1100.05
396.84	1091.86
397.21	1096.07
397.58	1110.35
397.95	1121.35
398.32	1137.97
398.69	1134.22
399.06	1134.93
399.42	1127.90
399.79	1128.14
400.16	1143.82
400.53	1160.91
400.90	1175.42
401.27	1172.61
401.64	1176.35
402.00	1170.97
402.37	1163.48
402.74	1155.52
403.11	1171.91
403.48	1177.76
403.84	1179.40
404.21	1196.25
404.58	1207.25
404.95	1212.16
405.32	1226.44
405.68	1236.04
406.05	1237.44
406.42	1245.87
406.79	1262.25
407.16	1274.42
407.52	1293.15
407.89	1317.02
408.26	1335.51
408.63	1351.19
408.99	1376.00
409.36	1406.43
409.73	1436.85
410.10	1459.79
410.47	1499.58
410.83	1533.52
411.20	1562.07
411.57	1584.54
411.94	1635.33
412.30	1681.21
412.67	1720.53
413.04	1779.74
413.40	1839.19
413.77	1899.11
414.14	1947.33
414.51	2013.33
414.87	2082.84
415.24	2170.14
415.61	2240.13
415.97	2305.19
416.34	2389.69
416.71	2477.22
417.08	2559.38
417.44	2668.21
417.81	2805.60
418.18	2936.90
418.54	3059.31
418.91	3203.49
419.28	3346.50
419.64	3496.53
420.01	3661.07
420.38	3821.39
420.74	4018.23
421.11	4238.94
421.48	4436.25
421.84	4656.73
422.21	4909.27
422.58	5155.73
422.94	5408.98
423.31	5669.95
423.68	5963.22
424.04	6261.40
424.41	6545.54
424.77	6827.34
425.14	7179.83
425.51	7479.18
425.87	7878.48
426.24	8250.15
426.61	8665.83
426.97	9125.05
427.34	9577.94
427.70	10009.30
428.07	10517.43
428.44	11059.97
428.80	11590.80
429.17	12192.08
429.53	12765.05
429.90	13393.48
430.27	13932.74
430.63	14481.83
431.00	15136.71
431.36	15911.66
431.73	16506.86
432.09	17239.22
432.46	17992.17
432.83	18645.41
433.19	19186.78
433.56	19934.81
433.92	20621.06
434.29	21262.60
434.65	21957.27
435.02	22645.85
435.38	23285.99
435.75	23823.61
436.11	24417.87
436.48	24904.94
436.84	25399.26
437.21	25868.54
437.57	26338.75
437.94	26816.22
438.30	27232.60
438.67	27511.59
439.03	27666.30
439.40	27903.63
439.76	27848.86
440.13	27689.24
440.49	27658.58
440.86	27460.34
441.22	27105.98
441.59	26753.96
441.95	26432.37
442.32	25896.86
442.68	25482.35
443.05	24954.09
443.41	24409.45
443.78	23825.48
444.14	23301.20
444.51	22665.51
444.87	22252.18
445.24	21733.04
445.60	21282.26
445.96	20683.31
446.33	20220.59
446.69	19564.77
447.06	19051.73
447.42	18456.29
447.79	17940.67
448.15	17479.82
448.51	17005.40
448.88	16601.89
449.24	16131.44
449.61	15822.72
449.97	15395.34
450.33	15026.47
450.70	14553.22
451.06	14228.58
451.43	13765.86
451.79	13417.36
452.15	13048.02
452.52	12752.41
452.88	12452.59
453.24	12216.89
453.61	11924.56
453.97	11663.36
454.34	11342.70
454.70	11094.61
455.06	10785.66
455.43	10444.17
455.79	10060.09
456.15	9775.25
456.52	9432.59
456.88	9151.96
457.24	8892.87
457.61	8705.62
457.97	8458.23
458.33	8193.51
458.70	7914.05
459.06	7619.61
459.42	7360.05
459.79	7090.65
460.15	6893.58
460.51	6663.04
460.88	6486.33
461.24	6290.19
461.60	6132.44
461.96	5925.30
462.33	5746.95
462.69	5575.39
463.05	5416.94
463.42	5279.55
463.78	5132.56
464.14	5018.81
464.50	4901.32
464.87	4781.48
465.23	4674.05
465.59	4577.15
465.95	4479.79
466.32	4364.63
466.68	4270.54
467.04	4154.92
467.40	4064.57
467.77	3970.48
468.13	3900.97
468.49	3819.75
468.85	3780.90
469.22	3712.56
469.58	3649.83
469.94	3584.53
470.30	3524.14
470.66	3440.59
471.03	3359.84
471.39	3306.24
471.75	3246.32
472.11	3187.81
472.47	3131.64
472.84	3094.42
473.20	3024.91
473.56	2973.65
473.92	2906.01
474.28	2838.84
474.65	2782.90
475.01	2743.11
475.37	2681.55
475.73	2643.40
476.09	2612.04
476.45	2575.29
476.81	2536.67
477.18	2498.29
477.54	2469.50
477.90	2425.50
478.26	2391.56
478.62	2347.56
478.98	2314.56
479.34	2280.85
479.71	2271.49
480.07	2243.64
480.43	2235.91
480.79	2208.53
481.15	2166.40
481.51	2120.29
481.87	2101.80
482.23	2060.37
482.59	2036.03
482.96	2016.14
483.32	2004.90
483.68	1977.52
484.04	1956.92
484.40	1940.30
484.76	1923.92
485.12	1899.58
485.48	1878.51
485.84	1858.15
486.20	1840.36
486.56	1826.55
486.92	1813.45
487.28	1797.77
487.64	1782.32
488.00	1769.91
488.37	1760.08
488.73	1739.72
489.09	1716.08
489.45	1690.33
489.81	1676.99
490.17	1653.59
490.53	1646.10
490.89	1635.10
491.25	1631.12
491.61	1614.03
491.97	1608.88
492.33	1597.18
492.69	1579.63
493.05	1565.82
493.41	1560.67
493.77	1548.50
494.13	1525.56
494.49	1512.92
494.85	1489.75
495.21	1460.49
495.57	1436.39
495.93	1420.47
496.29	1403.62
496.64	1411.81
497.00	1407.13
497.36	1400.11
497.72	1409.24
498.08	1404.79
498.44	1392.85
498.80	1386.77
499.16	1393.55
499.52	1368.98
499.88	1363.83
500.24	1353.77
500.60	1343.00
500.96	1316.55
501.32	1323.81
501.68	1308.59
502.03	1302.04
502.39	1295.02
502.75	1292.44
503.11	1270.68
503.47	1266.93
503.83	1263.42
504.19	1261.31
504.55	1260.85
504.91	1270.21
505.26	1267.87
505.62	1259.91
505.98	1255.46
506.34	1250.31
506.70	1231.82
507.06	1233.70
507.42	1225.97
507.78	1235.33
508.13	1233.93
508.49	1230.65
508.85	1220.36
509.21	1219.42
509.57	1205.38
509.93	1201.16
510.28	1188.99
510.64	1193.21
511.00	1185.48
511.36	1175.42
511.72	1174.25
512.07	1192.03
512.43	1183.84
512.79	1201.16
513.15	1201.40
513.51	1188.99
513.86	1175.89
514.22	1178.46
514.58	1162.54
514.94	1167.46
515.30	1167.69
515.65	1174.25
516.01	1172.84
516.37	1164.65
516.73	1153.42
517.08	1149.67
517.44	1148.03
517.80	1144.76
518.16	1149.91
518.51	1153.42
518.87	1143.35
519.23	1136.56
519.59	1135.86
519.94	1132.35
520.30	1134.93
520.66	1145.22
521.01	1152.95
521.37	1148.50
521.73	1151.54
522.09	1139.61
522.44	1141.01
522.80	1139.61
523.16	1142.88
523.51	1138.20
523.87	1136.80
524.23	1142.18
524.58	1134.69
524.94	1130.95
525.30	1134.93
525.65	1138.20
526.01	1128.61
526.37	1134.22
526.72	1137.73
527.08	1134.22
527.44	1142.65
527.79	1148.03
528.15	1139.14
528.51	1135.39
528.86	1136.33
529.22	1125.56
529.58	1128.84
529.93	1137.03
530.29	1140.31
530.65	1138.44
531.00	1147.80
531.36	1139.61
531.71	1122.52
532.07	1117.37
532.43	1118.07
532.78	1105.20
533.14	1102.39
533.49	1108.95
533.85	1119.48
534.21	1117.37
534.56	1131.88
534.92	1128.84
535.27	1135.63
535.63	1126.50
535.98	1119.01
536.34	1118.31
536.69	1122.75
537.05	1113.16
537.41	1111.05
537.76	1118.31
538.12	1113.63
538.47	1111.05
538.83	1111.29
539.18	1113.63
539.54	1112.22
539.89	1114.10
540.25	1111.52
540.60	1110.82
540.96	1103.80
541.31	1106.84
541.67	1103.80
542.02	1108.01
542.38	1121.35
542.73	1125.56
543.09	1117.84
543.44	1104.50
543.80	1102.39
544.15	1095.84
544.51	1101.22
544.86	1105.90
545.22	1124.86
545.57	1126.50
545.93	1119.48
546.28	1112.46
546.64	1119.95
546.99	1104.50
547.35	1105.90
547.70	1108.48
548.05	1106.14
548.41	1096.54
548.76	1097.24
549.12	1104.97
549.47	1102.16
549.83	1108.48
550.18	1111.99
550.53	1117.37
550.89	1105.90
551.24	1119.24
551.60	1117.84
551.95	1110.12
552.30	1106.84
552.66	1109.18
553.01	1097.95
553.37	1099.58
553.72	1100.99
554.07	1105.90
554.43	1107.31
554.78	1117.37
555.13	1117.84
555.49	1123.22
555.84	1120.18
556.19	1117.61
556.55	1115.03
556.90	1106.84
557.26	1106.61
557.61	1107.54
557.96	1102.63
558.32	1095.84
558.67	1095.84
559.02	1100.75
559.37	1101.22
559.73	1095.84
560.08	1092.56
560.43	1092.09
560.79	1084.14
561.14	1082.50
561.49	1095.60
561.85	1104.73
562.20	1106.61
562.55	1102.39
562.90	1110.82
563.26	1110.82
563.61	1099.82
563.96	1105.20
564.32	1101.92
564.67	1094.90
565.02	1097.48
565.37	1102.39
565.73	1096.78
566.08	1109.65
566.43	1105.44
566.78	1096.78
567.14	1090.92
567.49	1099.12
567.84	1097.48
568.19	1100.52
568.54	1107.31
568.90	1116.67
569.25	1114.33
569.60	1111.05
569.95	1112.46
570.31	1101.22
570.66	1099.82
571.01	1097.48
571.36	1104.50
571.71	1114.56
572.06	1119.95
572.42	1113.63
572.77	1109.65
573.12	1099.82
573.47	1089.75
573.82	1087.65
574.18	1089.99
574.53	1090.22
574.88	1101.92
575.23	1099.58
575.58	1104.97
575.93	1093.73
576.28	1099.12
576.64	1088.12
576.99	1089.29
577.34	1088.35
577.69	1096.07
578.04	1090.69
578.39	1086.71
578.74	1075.71
579.09	1085.54
579.44	1096.31
579.80	1087.88
580.15	1097.71
580.50	1108.95
580.85	1101.22
581.20	1090.22
581.55	1103.33
581.90	1097.24
582.25	1092.80
582.60	1087.88
582.95	1093.50
583.30	1090.69
583.65	1093.03
584.00	1099.82
584.35	1100.99
584.71	1098.88
585.06	1086.71
585.41	1087.88
585.76	1085.31
586.11	1087.18
586.46	1090.69
586.81	1108.24
587.16	1100.99
587.51	1095.14
587.86	1088.12
588.21	1088.12
588.56	1069.16
588.91	1085.07
589.26	1080.63
589.61	1085.31
589.96	1076.65
590.31	1085.77
590.66	1071.26
591.01	1078.52
591.36	1081.80
591.71	1086.94
592.06	1091.86
592.41	1096.78
592.76	1091.63
593.10	1095.37
593.45	1095.14
593.80	1100.29
594.15	1104.73
594.50	1105.90
594.85	1102.16
595.20	1105.20
595.55	1107.31
595.90	1101.92
596.25	1110.82
596.60	1115.50
596.95	1105.67
597.30	1102.63
597.64	1148.73
597.99	1142.42
598.34	1138.44
598.69	1147.80
599.04	1146.39
599.39	1105.44
599.74	1107.54
600.09	1096.54
600.44	1096.07
600.78	1092.33
601.13	1082.97
601.48	1082.03
601.83	1094.67
602.18	1092.80
602.53	1093.03
602.88	1094.43
603.22	1086.71
603.57	1093.97
603.92	1094.67
604.27	1095.84
604.62	1093.97
604.97	1104.03
605.31	1083.90
605.66	1082.50
606.01	1079.69
606.36	1092.33
606.71	1082.50
607.05	1086.24
607.40	1086.71
607.75	1083.67
608.10	1078.75
608.44	1091.16
608.79	1100.52
609.14	1098.41
609.49	1101.92
609.84	1100.05
610.18	1093.03
610.53	1093.03
610.88	1099.58
611.23	1093.97
611.57	1101.46
611.92	1104.50
612.27	1092.09
612.62	1088.12
612.96	1091.86
613.31	1077.35
613.66	1073.60
614.00	1079.69
614.35	1072.20
614.70	1078.75
615.05	1090.22
615.39	1101.22
615.74	1094.67
616.09	1101.69
616.43	1092.56
616.78	1091.39
617.13	1081.09
617.47	1092.09
617.82	1089.99
618.17	1090.46
618.51	1091.16
618.86	1094.20
619.21	1089.29
619.55	1097.24
619.90	1102.16
620.25	1097.95
620.59	1090.46
620.94	1085.07
621.29	1084.14
621.63	1075.94
621.98	1069.16
622.32	1072.90
622.67	1077.11
623.02	1066.82
623.36	1078.99
623.71	1084.84
624.05	1092.80
624.40	1094.67
624.75	1098.65
625.09	1099.35
625.44	1103.56
625.78	1101.46
626.13	1109.65
626.48	1101.92
626.82	1092.09
627.17	1082.73
627.51	1078.05
627.86	1065.88
628.20	1083.67
628.55	1084.60
628.89	1087.65
629.24	1089.99
629.58	1093.50
629.93	1086.48
630.28	1085.77
630.62	1086.94
630.97	1089.05
631.31	1093.97
631.66	1094.43
632.00	1087.41
632.35	1092.80
632.69	1092.56
633.04	1089.99
633.38	1082.50
633.73	1091.63
634.07	1086.24
634.42	1074.31
634.76	1063.54
635.11	1070.56
635.45	1073.37
635.79	1076.65
636.14	1078.05
636.48	1076.41
636.83	1072.20
637.17	1068.92
637.52	1073.60
637.86	1078.52
638.21	1085.07
638.55	1093.03
638.89	1099.12
639.24	1100.99
639.58	1109.41
639.93	1111.52
640.27	1105.67
640.61	1097.71
640.96	1082.50
641.30	1081.33
641.65	1085.07
641.99	1079.22
642.33	1077.58
642.68	1086.94
643.02	1081.80
643.37	1081.80
643.71	1081.56
644.05	1084.37
644.40	1073.84
644.74	1076.88
645.08	1069.16
645.43	1079.69
645.77	1077.35
646.11	1078.75
646.46	1076.65
646.80	1078.75
647.14	1077.82
647.49	1081.09
647.83	1083.20
648.17	1077.58
648.52	1072.43
648.86	1068.22
649.20	1067.75
649.55	1075.24
649.89	1083.43
650.23	1094.90
650.57	1096.31
650.92	1091.39
651.26	1089.05
651.60	1086.94
651.95	1075.48
652.29	1068.92
652.63	1073.14
652.97	1066.58
653.32	1062.60
653.66	1061.20
654.00	1058.86
654.34	1060.50
654.69	1068.69
655.03	1073.37
655.37	1077.58
655.71	1084.84
656.05	1087.65
656.40	1086.01
656.74	1079.69
657.08	1082.50
657.42	1083.20
657.76	1090.69
658.11	1092.09
658.45	1098.18
658.79	1100.05
659.13	1100.99
659.47	1095.14
659.82	1091.39
660.16	1093.50
660.50	1088.12
660.84	1087.41
661.18	1091.86
661.52	1097.24
661.87	1100.52
662.21	1111.05
662.55	1111.52
662.89	1109.41
663.23	1103.09
663.57	1102.16
663.91	1096.54
664.25	1099.12
664.60	1102.16
664.94	1093.26
665.28	1090.92
665.62	1089.99
665.96	1087.41
666.30	1078.28
666.64	1086.01
666.98	1077.11
667.32	1076.41
667.66	1068.45
668.01	1061.43
668.35	1068.92
668.69	1073.84
669.03	1070.33
669.37	1077.58
669.71	1085.07
670.05	1077.11
670.39	1075.01
670.73	1078.28
671.07	1075.71
671.41	1076.41
671.75	1080.63
672.09	1090.69
672.43	1095.60
672.77	1101.69
673.11	1104.03
673.45	1104.50
673.79	1097.01
674.13	1094.90
674.47	1087.65
674.81	1079.92
675.15	1078.05
675.49	1082.26
675.83	1090.92
676.17	1106.14
676.51	1109.88
676.85	1103.56
677.19	1108.24
677.53	1096.54
677.87	1085.54
678.21	1084.37
678.55	1086.94
678.89	1083.90
679.23	1076.65
679.57	1070.80
679.90	1082.73
680.24	1082.97
680.58	1077.58
680.92	1088.35
681.26	1089.29
681.60	1077.35
681.94	1080.16
682.28	1083.20
682.62	1079.92
682.96	1086.94
683.29	1088.35
683.63	1093.73
683.97	1094.20
684.31	1113.16
684.65	1105.44
684.99	1099.35
685.33	1096.54
685.67	1097.71
686.00	1083.43
686.34	1092.56
686.68	1093.03
687.02	1097.95
687.36	1094.90
687.70	1097.01
688.03	1091.16
688.37	1099.58
688.71	1098.65
689.05	1097.01
689.39	1093.97
689.72	1089.52
690.06	1086.94
690.40	1080.86
690.74	1090.22
691.08	1092.09
691.41	1095.84
691.75	1093.73
692.09	1097.71
692.43	1083.20
692.76	1070.09
693.10	1075.71
693.44	1074.77
693.78	1074.31
694.11	1085.07
694.45	1094.90
694.79	1093.97
695.13	1099.35
695.46	1093.73
695.80	1091.16
696.14	1081.09
696.48	1077.82
696.81	1085.77
697.15	1095.14
697.49	1088.35
697.82	1094.20
698.16	1092.80
698.50	1080.63
698.83	1076.41
699.17	1071.50
699.51	1080.16
699.84	1085.54
700.18	1082.26
700.52	1074.31
700.85	1078.99
701.19	1069.62
701.53	1062.37
701.86	1067.99
702.20	1076.18
702.54	1078.05
702.87	1079.69
703.21	1080.63
703.55	1082.73
703.88	1073.84
704.22	1072.43
704.55	1073.14
704.89	1074.07
705.23	1077.11
705.56	1077.82
705.90	1071.50
706.23	1082.03
706.57	1082.26
706.91	1078.05
707.24	1079.69
707.58	1093.50
707.91	1087.88
708.25	1092.80
708.58	1082.73
708.92	1083.90
709.26	1079.92
709.59	1082.03
709.93	1078.75
710.26	1091.86
710.60	1097.24
710.93	1100.99
711.27	1088.82
711.60	1093.97
711.94	1089.29
712.27	1080.63
712.61	1083.67
712.94	1081.56
713.28	1071.50
713.61	1068.92
713.95	1067.99
714.28	1059.09
714.62	1072.43
714.95	1075.94
715.29	1089.52
715.62	1089.29
715.96	1089.05
716.29	1086.24
716.63	1093.97
716.96	1086.01
717.29	1086.94
717.63	1090.92
717.96	1082.97
718.30	1080.63
718.63	1079.22
718.97	1090.46
719.30	1096.31
719.63	1103.33
719.97	1104.50
720.30	1104.03
720.64	1095.84
720.97	1099.58
721.30	1094.43
721.64	1090.92
721.97	1089.75
722.31	1097.71
722.64	1085.54
722.97	1085.07
723.31	1078.99
723.64	1077.35
723.97	1073.37
724.31	1071.03
724.64	1077.35
724.98	1078.28
725.31	1081.80
725.64	1079.92
725.98	1078.28
726.31	1075.94
726.64	1079.22
726.97	1072.67
727.31	1073.60
727.64	1085.77
727.97	1081.09
728.31	1083.20
728.64	1089.75
728.97	1089.75
729.31	1085.31
729.64	1082.97
729.97	1077.58
730.30	1086.01
730.64	1082.03
730.97	1077.35
731.30	1095.14
731.63	1095.37
731.97	1082.50
732.30	1086.01
732.63	1088.58
732.96	1079.46
733.30	1079.46
733.63	1086.01
733.96	1080.63
734.29	1078.52
734.63	1080.86
734.96	1076.18
735.29	1076.65
735.62	1084.37
735.95	1083.43
736.29	1075.94
736.62	1084.60
736.95	1085.77
737.28	1082.73
737.61	1086.71
737.94	1095.14
738.28	1096.07
738.61	1090.69
738.94	1090.22
739.27	1088.82
739.60	1078.99
739.93	1063.77
740.27	1069.16
740.60	1075.24
740.93	1069.16
741.26	1076.88
741.59	1095.37
741.92	1087.65
742.25	1079.46
742.58	1089.75
742.91	1090.46
743.25	1092.09
743.58	1092.80
743.91	1092.56
744.24	1083.90
744.57	1070.09
744.90	1067.99
745.23	1069.86
745.56	1071.50
745.89	1078.52
746.22	1092.09
746.55	1083.90
746.88	1075.94
747.21	1075.24
747.54	1073.84
747.87	1073.60
748.20	1074.77
748.53	1075.24
748.87	1069.39
749.20	1063.31
749.53	1066.11
749.86	1067.75
750.19	1078.99
750.52	1099.12
750.85	1114.33
751.18	1111.29
751.51	1116.44
751.84	1114.56
752.16	1103.33
752.49	1093.97
752.82	1090.92
753.15	1093.73
753.48	1093.50
753.81	1094.90
754.14	1096.54
754.47	1114.80
754.80	1104.50
755.13	1092.33
755.46	1082.73
755.79	1076.65
756.12	1065.41
756.45	1065.41
756.78	1071.97
757.11	1077.58
757.43	1083.20
757.76	1081.09
758.09	1073.14
758.42	1080.16
758.75	1081.56
759.08	1078.99
759.41	1070.80
759.74	1076.88
760.07	1071.26
760.39	1063.31
760.72	1062.14
761.05	1067.52
761.38	1082.26
761.71	1080.39
762.04	1084.37
762.36	1078.05
762.69	1076.18
763.02	1069.39
763.35	1061.90
763.68	1069.39
764.01	1070.56
764.33	1076.18
764.66	1070.09
764.99	1078.99
765.32	1073.60
765.65	1069.86
765.97	1064.94
766.30	1065.65
766.63	1070.33
766.96	1076.18
767.28	1088.82
767.61	1082.50
767.94	1075.24
768.27	1069.39
768.59	1067.75
768.92	1061.67
769.25	1076.18
769.58	1088.58
769.90	1094.67
770.23	1093.26
770.56	1095.37
770.89	1087.18
771.21	1084.14
771.54	1088.12
771.87	1091.63
772.19	1096.07
772.52	1097.95
772.85	1104.26
773.17	1104.26
773.50	1103.33
773.83	1098.65
774.15	1093.26
774.48	1082.97
774.81	1067.99
775.13	1066.35
775.46	1060.50
775.79	1073.37
776.11	1077.82
776.44	1092.80
776.77	1084.84
777.09	1090.46
777.42	1082.73
777.74	1080.16
778.07	1072.90
778.40	1089.05
778.72	1088.58
779.05	1081.80
779.37	1076.41
779.70	1078.99
780.03	1073.14
780.35	1081.09
780.68	1092.80
781.00	1098.88
781.33	1092.80
781.65	1082.97
781.98	1067.75
782.31	1055.35
782.63	1057.69
782.96	1058.62
783.28	1060.50
783.61	1073.14
783.93	1074.77
784.26	1078.75
784.58	1090.69
784.91	1096.54
785.23	1093.50
785.56	1099.12
785.88	1103.33
786.21	1085.31
786.53	1081.33
786.86	1083.90
787.18	1089.05
787.51	1077.58
787.83	1088.58
788.16	1088.12
788.48	1080.63
788.81	1069.86
789.13	1069.62
789.46	1073.84
789.78	1068.69
790.10	1078.28
790.43	1076.41
790.75	1082.50
791.08	1084.84
791.40	1088.35
791.73	1088.58
792.05	1094.20
792.37	1096.54
792.70	1088.12
793.02	1083.20
793.35	1074.54
793.67	1075.24
793.99	1075.71
794.32	1075.71
794.64	1086.71
794.96	1091.39
795.29	1093.73
795.61	1094.90
795.93	1100.99
796.26	1101.22
796.58	1096.54
796.91	1103.80
797.23	1086.24
797.55	1088.82
797.87	1079.46
798.20	1082.73
798.52	1068.22
798.84	1081.33
799.17	1075.71
799.49	1082.26
799.81	1077.11
800.14	1086.71
800.46	1084.37
800.78	1083.67
801.10	1087.65
801.43	1091.16
801.75	1086.01
802.07	1089.52
802.40	1091.16
802.72	1081.80
803.04	1083.90
803.36	1075.71
803.69	1078.52
804.01	1065.41
804.33	1071.73
804.65	1073.60
804.97	1079.92
805.30	1071.26
805.62	1082.73
805.94	1079.46
806.26	1070.33
806.58	1072.67
806.91	1070.80
807.23	1068.45
807.55	1072.90
807.87	1079.92
808.19	1093.26
808.52	1096.07
808.84	1084.84
809.16	1083.43
809.48	1082.26
809.80	1062.84
810.12	1058.62
810.44	1066.11
810.77	1070.33
811.09	1067.28
811.41	1071.97
811.73	1067.75
812.05	1069.62
812.37	1064.24
812.69	1068.45
813.01	1066.82
813.33	1076.88
813.66	1069.86
813.98	1068.45
814.30	1065.41
814.62	1072.43
814.94	1078.52
815.26	1082.73
815.58	1080.86
815.90	1082.50
816.22	1081.09
816.54	1078.99
816.86	1074.07
817.18	1075.24
817.50	1081.80
817.82	1076.65
818.14	1064.01
818.46	1073.14
818.78	1065.65
819.10	1059.56
819.42	1072.67
819.74	1076.88
820.06	1086.71
820.38	1097.71
820.70	1101.46
821.02	1094.20
821.34	1093.03
821.66	1086.48
821.98	1087.41
822.30	1097.71
822.62	1097.71
822.94	1108.95
823.26	1107.31
823.58	1101.92
823.90	1087.88
824.22	1086.94
824.54	1075.01
824.86	1064.71
825.18	1061.43
825.50	1063.31
825.81	1062.37
826.13	1070.56
826.45	1077.11
826.77	1082.03
827.09	1070.80
827.41	1069.62
827.73	1061.90
828.05	1063.07
828.36	1064.24
828.68	1067.05
829.00	1063.54
829.32	1057.92
829.64	1051.37
829.96	1048.56
830.28	1049.73
830.59	1055.35
830.91	1065.88
831.23	1081.09
831.55	1085.54
831.87	1082.97
832.19	1079.46
832.50	1081.56
832.82	1077.11
833.14	1077.11
833.46	1089.29
833.78	1084.14
834.09	1074.77
834.41	1080.39
834.73	1078.52
835.05	1069.86
835.36	1066.82
835.68	1079.92
836.00	1070.80
836.32	1073.37
836.63	1079.22
836.95	1097.48
837.27	1083.43
837.59	1068.45
837.90	1069.86
838.22	1076.88
838.54	1069.86
838.85	1071.97
839.17	1083.90
839.49	1078.75
839.80	1080.86
840.12	1078.28
840.44	1088.12
840.76	1089.29
841.07	1091.63
841.39	1092.33
841.71	1086.01
842.02	1084.60
842.34	1084.14
842.65	1087.18
842.97	1083.67
843.29	1084.37
843.60	1086.71
843.92	1090.69
844.24	1091.63
844.55	1084.84
844.87	1094.43
845.18	1091.39
845.50	1099.82
845.82	1088.12
846.13	1081.33
846.45	1084.60
846.76	1087.88
847.08	1083.90
847.40	1088.58
847.71	1093.73
848.03	1093.03
848.34	1084.84
848.66	1085.77
848.97	1096.54
849.29	1099.12
849.60	1093.50
849.92	1096.54
850.24	1092.33
850.55	1085.31
850.87	1089.52
851.18	1089.99
851.50	1086.01
851.81	1083.20
852.13	1077.82
852.44	1075.01
852.76	1075.71
853.07	1072.67
853.39	1069.62
853.70	1073.14
854.01	1073.84
854.33	1073.37
854.64	1082.97
854.96	1084.84
855.27	1087.41
855.59	1082.03
855.90	1084.14
856.22	1086.24
856.53	1078.52
856.84	1074.54
857.16	1070.33
857.47	1070.09
857.79	1069.16
858.10	1071.73
858.41	1079.69
858.73	1090.69
859.04	1085.54
859.36	1076.18
859.67	1085.07
859.98	1076.65
860.30	1061.20
860.61	1059.79
860.92	1065.41
861.24	1060.96
861.55	1053.24
861.87	1066.11
862.18	1071.73
862.49	1059.33
862.81	1070.80
863.12	1084.84
863.43	1082.03
863.74	1079.22
864.06	1099.12
864.37	1088.12
864.68	1079.69
865.00	1072.67
865.31	1072.90
865.62	1065.41
865.94	1066.35
866.25	1073.14
866.56	1078.28
866.87	1075.48
867.19	1072.20
867.50	1067.52
867.81	1054.88
868.12	1060.50
868.44	1062.84
868.75	1065.65
869.06	1060.96
869.37	1072.43
869.68	1066.11
870.00	1066.82
870.31	1069.62
870.62	1085.07
870.93	1079.92
871.24	1083.90
871.56	1089.99
871.87	1082.03
872.18	1071.97
872.49	1066.11
872.80	1062.14
873.12	1057.22
873.43	1057.22
873.74	1064.94
874.05	1069.39
874.36	1074.77
874.67	1085.54
874.98	1091.86
875.29	1082.73
875.61	1094.20
875.92	1089.99
876.23	1084.37
876.54	1084.60
876.85	1092.80
877.16	1085.54
877.47	1081.33
877.78	1072.43
878.09	1069.39
878.40	1064.71
878.72	1069.62
879.03	1072.67
879.34	1079.92
879.65	1082.50
879.96	1082.97
880.27	1082.26
880.58	1081.33
880.89	1075.24
881.20	1073.37
881.51	1079.69
881.82	1078.99
882.13	1076.65
882.44	1077.11
882.75	1090.69
883.06	1089.52
883.37	1083.67
883.68	1090.46
883.99	1097.95
884.30	1094.43
884.61	1092.33
884.92	1091.16
885.23	1087.18
885.54	1086.24
885.85	1080.63
886.16	1086.24
886.47	1089.05
886.78	1091.39
887.08	1085.31
887.39	1081.09
887.70	1068.22
888.01	1064.71
888.32	1061.67
888.63	1061.43
888.94	1061.90
889.25	1063.54
889.56	1070.80
889.87	1079.69
890.17	1074.54
890.48	1074.07
890.79	1068.22
891.10	1073.14
891.41	1070.33
891.72	1078.52
892.03	1078.52
892.34	1089.52
892.64	1082.73
892.95	1079.22
893.26	1077.58
893.57	1075.24
893.88	1071.50
894.18	1068.45
894.49	1072.43
894.80	1075.24
895.11	1081.56
895.42	1088.82
895.72	1095.84
896.03	1096.78
896.34	1091.16
896.65	1085.31
896.96	1078.52
897.26	1066.82
897.57	1065.65
897.88	1063.07
898.19	1068.92
898.49	1065.65
898.80	1068.22
899.11	1064.01
899.41	1062.37
899.72	1060.26
900.03	1070.80
900.34	1076.88
900.64	1079.92
900.95	1087.18
901.26	1086.01
901.56	1087.65
901.87	1089.05
902.18	1089.52
902.48	1081.80
902.79	1080.16
903.10	1075.48
903.40	1068.92
903.71	1061.90
904.02	1066.82
904.32	1068.92
904.63	1067.52
904.94	1066.82
905.24	1059.33
905.55	1057.92
905.85	1053.01
906.16	1061.20
906.47	1068.22
906.77	1086.01
907.08	1098.18
907.38	1104.03
907.69	1088.12
908.00	1086.24
908.30	1089.05
908.61	1091.63
908.91	1094.90
909.22	1104.26
909.52	1102.16
909.83	1091.86
910.14	1078.52
910.44	1075.01
910.75	1075.94
911.05	1077.35
911.36	1082.73
911.66	1087.18
911.97	1087.41
912.27	1087.18
912.58	1092.33
912.88	1083.43
913.19	1068.92
913.49	1067.28
913.80	1065.41
914.10	1062.37
914.41	1064.94
914.71	1070.33
915.01	1069.39
915.32	1073.37
915.62	1072.43
915.93	1078.99
916.23	1078.28
916.54	1084.60
916.84	1080.16
917.15	1083.67
917.45	1085.54
917.75	1097.95
918.06	1095.84
918.36	1100.52
918.67	1099.35
918.97	1098.18
919.27	1097.71
919.58	1100.99
919.88	1108.24
920.18	1101.46
920.49	1099.12
920.79	1095.37
921.10	1082.26
921.40	1067.28
921.70	1078.05
922.01	1082.26
922.31	1078.05
922.61	1084.14
922.92	1088.35
923.22	1084.84
923.52	1083.90
923.82	1098.88
924.13	1094.43
924.43	1091.39
924.73	1091.39
925.04	1094.20
925.34	1085.54
925.64	1088.82
925.94	1088.58
926.25	1088.35
926.55	1076.41
926.85	1065.88
927.15	1067.52
927.46	1068.92
927.76	1068.22
928.06	1078.99
928.36	1085.07
928.67	1081.56
928.97	1087.88
929.27	1076.88
929.57	1075.01
929.87	1080.39
930.18	1086.24
930.48	1090.69
930.78	1105.20
931.08	1107.31
931.38	1103.33
931.69	1108.95
931.99	1100.99
932.29	1095.37
932.59	1085.77
932.89	1086.71
933.19	1073.60
933.49	1075.71
933.80	1080.16
934.10	1080.86
934.40	1078.52
934.70	1077.35
935.00	1067.75
935.30	1069.62
935.60	1072.67
935.90	1074.77
936.20	1093.50
936.50	1100.52
936.81	1086.01
937.11	1092.33
937.41	1082.73
937.71	1073.37
938.01	1076.41
938.31	1088.35
938.61	1075.94
938.91	1093.03
939.21	1087.41
939.51	1078.28
939.81	1067.99
940.11	1065.88
940.41	1064.71
940.71	1060.03
941.01	1064.48
941.31	1068.45
941.61	1089.75
941.91	1084.60
942.21	1093.26
942.51	1085.77
942.81	1082.97
943.11	1066.58
943.41	1067.52
943.71	1060.03
944.01	1066.35
944.31	1066.82
944.61	1062.37
944.90	1056.05
945.20	1063.31
945.50	1069.86
945.80	1071.97
946.10	1088.35
946.40	1092.56
946.70	1093.03
947.00	1082.03
947.30	1085.54
947.60	1075.48
947.89	1070.80
948.19	1068.69
948.49	1088.12
948.79	1075.24
949.09	1080.39
949.39	1078.75
949.69	1079.69
949.98	1060.03
950.28	1072.43
950.58	1073.60
950.88	1067.05
951.18	1064.71
951.48	1069.62
951.77	1069.62
952.07	1056.05
952.37	1068.45
952.67	1073.84
952.97	1072.90
953.26	1071.26
953.56	1074.54
953.86	1069.16
954.16	1064.48
954.45	1053.24
954.75	1051.84
955.05	1059.33
955.35	1068.92
955.64	1069.86
955.94	1071.97
956.24	1074.54
956.54	1076.41
956.83	1072.90
957.13	1068.45
957.43	1081.33
957.72	1078.05
958.02	1067.99
958.32	1068.69
958.61	1064.71
958.91	1059.33
959.21	1060.96
959.50	1069.62
959.80	1060.96
960.10	1062.37
960.39	1066.35
960.69	1076.18
960.99	1076.88
961.28	1090.46
961.58	1094.43
961.87	1099.82
962.17	1097.24
962.47	1088.58
962.76	1075.94
963.06	1080.16
963.36	1067.99
963.65	1066.58
963.95	1064.24
964.24	1082.26
964.54	1077.35
964.83	1080.86
965.13	1067.75
965.42	1071.73
965.72	1057.22
966.02	1059.79
966.31	1061.67
966.61	1069.62
966.90	1067.75
967.20	1068.92
967.49	1067.75
967.79	1070.80
968.08	1078.05
968.38	1078.99
968.67	1082.26
968.97	1083.90
969.26	1078.99
969.56	1077.58
969.85	1083.20
970.15	1087.41
970.44	1081.09
970.74	1085.31
971.03	1081.33
971.32	1080.39
971.62	1073.37
971.91	1077.11
972.21	1081.09
972.50	1083.43
972.80	1079.46
973.09	1085.54
973.38	1083.20
973.68	1078.05
973.97	1069.16
974.27	1060.26
974.56	1059.79
974.85	1062.84
975.15	1065.18
975.44	1063.54
975.73	1069.16
976.03	1069.39
976.32	1065.88
976.61	1064.01
976.91	1059.33
977.20	1064.24
977.49	1054.88
977.79	1063.07
978.08	1064.71
978.37	1080.16
978.67	1089.52
978.96	1094.43
979.25	1095.14
979.55	1091.63
979.84	1082.50
980.13	1068.69
980.42	1081.09
980.72	1078.05
981.01	1077.58
981.30	1080.63
981.59	1088.58
981.89	1061.20
982.18	1058.16
982.47	1059.33
982.76	1067.28
983.06	1063.54
983.35	1070.33
983.64	1072.43
983.93	1068.92
984.22	1063.54
984.52	1064.48
984.81	1075.94
985.10	1078.52
985.39	1085.54
985.68	1081.09
985.97	1076.18
986.27	1074.07
986.56	1068.69
986.85	1065.65
987.14	1070.09
987.43	1084.60
987.72	1076.18
988.01	1084.84
988.31	1082.50
988.60	1082.97
988.89	1080.39
989.18	1089.05
989.47	1093.73
989.76	1095.84
990.05	1093.50
990.34	1086.71
990.63	1082.03
990.92	1063.77
991.21	1076.18
991.51	1082.03
991.80	1084.60
992.09	1097.48
992.38	1106.84
992.67	1090.46
992.96	1080.39
993.25	1079.22
993.54	1066.58
993.83	1057.22
994.12	1064.24
994.41	1066.82
994.70	1065.88
994.99	1067.52
995.28	1076.18
995.57	1075.48
995.86	1081.33
996.15	1081.09
996.44	1082.97
996.73	1072.90
997.02	1072.20
997.31	1063.31
997.59	1065.88
997.88	1069.39
998.17	1081.33
998.46	1083.43
998.75	1089.29
999.04	1086.24
999.33	1084.84
999.62	1084.84
999.91	1077.58
1000.20	1080.16
1000.49	1079.92
1000.77	1084.84
1001.06	1081.80
1001.35	1087.18
1001.64	1080.86
1001.93	1079.22
1002.22	1068.69
1002.51	1074.07
1002.79	1066.11
1003.08	1070.09
1003.37	1075.24
1003.66	1076.65
1003.95	1072.67
1004.23	1087.18
1004.52	1076.18
1004.81	1074.07
1005.10	1077.58
1005.39	1087.18
1005.67	1079.46
1005.96	1081.09
1006.25	1075.01
1006.54	1073.60
1006.83	1061.67
1007.11	1067.05
1007.40	1079.22
1007.69	1085.31
1007.97	1079.92
1008.26	1082.73
1008.55	1071.26
1008.84	1062.37
1009.12	1061.43
1009.41	1063.77
1009.70	1061.67
1009.98	1071.73
1010.27	1078.52
1010.56	1077.11
1010.85	1079.46
1011.13	1082.03
1011.42	1076.65
1011.71	1077.11
1011.99	1081.56
1012.28	1075.24
1012.56	1071.73
1012.85	1077.35
1013.14	1079.92
1013.42	1085.07
1013.71	1087.65
1014.00	1087.88
1014.28	1082.03
1014.57	1085.07
1014.85	1092.09
1015.14	1098.41
1015.43	1100.99
1015.71	1105.90
1016.00	1105.90
1016.28	1091.86
1016.57	1089.05
1016.85	1089.29
1017.14	1092.09
1017.43	1084.14
1017.71	1085.77
1018.00	1082.03
1018.28	1080.16
1018.57	1067.52
1018.85	1068.92
1019.14	1059.79
1019.42	1066.82
1019.71	1073.84
1019.99	1077.58
1020.28	1077.11
1020.56	1079.22
1020.85	1083.20
1021.13	1073.14
1021.42	1070.80
1021.70	1072.20
1021.99	1073.14
1022.27	1065.88
1022.55	1060.26
1022.84	1075.48
>>>>>End Processed Spectral Data<<<<<
