SpectraSuite Data File
++++++++++++++++++++++++++++++++++++
Date: Mon Aug 26 10:24:49 PDT 2019
User: corrico
Dark Spectrum Present: No
Reference Spectrum Present: No
Number of Sampled Component Spectra: 1
Spectrometers: USB2+H06089
Integration Time (usec): 10000 (USB2+H06089)
Spectra Averaged: 2 (USB2+H06089)
Boxcar Smoothing: 2 (USB2+H06089)
Correct for Electrical Dark: No (USB2+H06089)
Strobe/Lamp Enabled: No (USB2+H06089)
Correct for Detector Non-linearity: No (USB2+H06089)
Correct for Stray Light: No (USB2+H06089)
Number of Pixels in Processed Spectrum: 2048
>>>>>Begin Processed Spectral Data<<<<<
339.70	1057.92
340.07	1057.92
340.45	1011.58
340.82	985.37
341.19	945.11
341.57	914.21
341.94	901.57
342.31	893.38
342.69	898.06
343.06	903.91
343.43	913.04
343.81	918.19
344.18	921.94
344.55	911.40
344.93	916.79
345.30	913.75
345.67	919.60
346.04	928.96
346.42	932.94
346.79	944.41
347.16	954.00
347.54	952.83
347.91	971.79
348.28	989.58
348.65	994.03
349.03	995.20
349.40	1007.83
349.77	1006.90
350.14	1014.62
350.52	1024.69
350.89	1046.45
351.26	1056.52
351.63	1062.84
352.01	1074.07
352.38	1082.73
352.75	1085.07
353.12	1091.39
353.50	1096.07
353.87	1089.75
354.24	1088.82
354.61	1094.90
354.98	1088.35
355.36	1091.86
355.73	1093.03
356.10	1101.22
356.47	1097.48
356.84	1102.63
357.22	1100.52
357.59	1092.33
357.96	1080.86
358.33	1074.77
358.70	1071.03
359.08	1071.03
359.45	1084.14
359.82	1100.52
360.19	1096.31
360.56	1094.67
360.94	1089.75
361.31	1088.82
361.68	1071.50
362.05	1070.80
362.42	1078.75
362.79	1083.43
363.16	1085.77
363.54	1089.52
363.91	1100.99
364.28	1092.33
364.65	1097.48
365.02	1082.73
365.39	1082.03
365.76	1073.37
366.14	1076.18
366.51	1074.77
366.88	1086.01
367.25	1081.09
367.62	1074.77
367.99	1085.07
368.36	1081.56
368.73	1079.92
369.10	1080.16
369.48	1085.07
369.85	1077.35
370.22	1073.60
370.59	1074.07
370.96	1082.03
371.33	1079.92
371.70	1079.92
372.07	1084.37
372.44	1079.69
372.81	1073.84
373.18	1069.39
373.55	1057.22
373.93	1064.71
374.30	1066.58
374.67	1077.58
375.04	1084.84
375.41	1098.41
375.78	1095.14
376.15	1098.41
376.52	1104.03
376.89	1109.88
377.26	1112.22
377.63	1104.03
378.00	1097.24
378.37	1082.03
378.74	1090.92
379.11	1102.39
379.48	1104.50
379.85	1110.58
380.22	1112.92
380.59	1112.92
380.96	1101.69
381.33	1107.54
381.70	1117.61
382.07	1114.80
382.44	1110.82
382.81	1111.99
383.18	1119.01
383.55	1105.44
383.92	1107.54
384.29	1102.39
384.66	1099.58
385.03	1095.37
385.40	1104.50
385.77	1107.54
386.14	1104.03
386.51	1101.92
386.88	1091.63
387.25	1083.90
387.62	1087.65
387.99	1093.97
388.36	1093.73
388.73	1098.65
389.10	1098.41
389.46	1091.16
389.83	1095.84
390.20	1100.99
390.57	1108.01
390.94	1105.67
391.31	1119.01
391.68	1107.54
392.05	1109.41
392.42	1114.33
392.79	1114.56
393.16	1102.63
393.53	1109.41
393.89	1099.82
394.26	1100.52
394.63	1104.03
395.00	1113.16
395.37	1114.10
395.74	1113.86
396.11	1109.88
396.48	1111.75
396.84	1115.27
397.21	1111.75
397.58	1121.82
397.95	1122.52
398.32	1130.48
398.69	1130.71
399.06	1141.48
399.42	1148.73
399.79	1147.10
400.16	1152.48
400.53	1153.65
400.90	1158.33
401.27	1161.84
401.64	1166.99
402.00	1167.93
402.37	1169.10
402.74	1169.80
403.11	1163.01
403.48	1168.40
403.84	1176.12
404.21	1188.76
404.58	1196.01
404.95	1210.99
405.32	1220.82
405.68	1226.91
406.05	1233.46
406.42	1246.80
406.79	1260.38
407.16	1267.17
407.52	1277.23
407.89	1284.72
408.26	1305.32
408.63	1321.93
408.99	1348.15
409.36	1383.96
409.73	1429.83
410.10	1452.77
410.47	1477.81
410.83	1510.58
411.20	1538.90
411.57	1564.41
411.94	1594.14
412.30	1647.50
412.67	1689.87
413.04	1740.42
413.40	1800.11
413.77	1869.85
414.14	1931.18
414.51	1999.52
414.87	2076.76
415.24	2129.65
415.61	2210.40
415.97	2287.41
416.34	2383.37
416.71	2474.65
417.08	2598.93
417.44	2699.81
417.81	2820.58
418.18	2921.22
418.54	3045.74
418.91	3189.68
419.28	3345.80
419.64	3493.72
420.01	3678.62
420.38	3857.20
420.74	4029.47
421.11	4223.03
421.48	4434.14
421.84	4655.09
422.21	4872.29
422.58	5140.52
422.94	5382.06
423.31	5653.33
423.68	5915.47
424.04	6226.53
424.41	6519.09
424.77	6838.34
425.14	7136.76
425.51	7491.12
425.87	7839.86
426.24	8175.96
426.61	8597.49
426.97	9093.68
427.34	9541.19
427.70	10038.09
428.07	10550.20
428.44	11045.46
428.80	11556.40
429.17	12120.93
429.53	12652.94
429.90	13257.50
430.27	13822.27
430.63	14407.40
431.00	15101.84
431.36	15863.68
431.73	16507.56
432.09	17188.89
432.46	17866.71
432.83	18486.02
433.19	19014.51
433.56	19709.65
433.92	20447.62
434.29	21105.31
434.65	21822.45
435.02	22535.38
435.38	23158.90
435.75	23723.44
436.11	24396.11
436.48	24876.62
436.84	25412.83
437.21	25956.78
437.57	26426.52
437.94	26851.56
438.30	27258.35
438.67	27474.14
439.03	27610.83
439.40	27771.16
439.76	27648.28
440.13	27618.32
440.49	27593.98
440.86	27355.48
441.22	27061.98
441.59	26782.52
441.95	26320.26
442.32	25785.21
442.68	25336.30
443.05	24791.19
443.41	24272.29
443.78	23700.97
444.14	23184.64
444.51	22608.64
444.87	22190.85
445.24	21712.68
445.60	21298.17
445.96	20766.87
446.33	20258.51
446.69	19656.52
447.06	19112.58
447.42	18484.85
447.79	17966.19
448.15	17595.45
448.51	17097.85
448.88	16654.32
449.24	16214.30
449.61	15917.52
449.97	15484.75
450.33	15097.16
450.70	14644.03
451.06	14304.89
451.43	13794.88
451.79	13381.54
452.15	13055.98
452.52	12750.77
452.88	12459.14
453.24	12215.26
453.61	11964.82
453.97	11681.38
454.34	11370.79
454.70	11090.86
455.06	10796.42
455.43	10452.83
455.79	10090.52
456.15	9799.59
456.52	9434.70
456.88	9153.13
457.24	8869.23
457.61	8628.85
457.97	8362.27
458.33	8125.17
458.70	7859.05
459.06	7586.38
459.42	7344.13
459.79	7113.82
460.15	6890.30
460.51	6657.19
460.88	6474.62
461.24	6277.55
461.60	6104.35
461.96	5946.13
462.33	5786.97
462.69	5611.90
463.05	5441.75
463.42	5282.82
463.78	5098.86
464.14	4962.17
464.50	4862.23
464.87	4757.61
465.23	4651.11
465.59	4561.94
465.95	4456.61
466.32	4339.35
466.68	4239.65
467.04	4141.11
467.40	4043.74
467.77	3950.82
468.13	3874.29
468.49	3806.41
468.85	3734.09
469.22	3671.60
469.58	3614.02
469.94	3556.21
470.30	3470.55
470.66	3413.20
471.03	3363.82
471.39	3309.52
471.75	3234.62
472.11	3181.72
472.47	3120.17
472.84	3052.29
473.20	2964.99
473.56	2923.33
473.92	2866.45
474.28	2825.26
474.65	2775.88
475.01	2756.21
475.37	2694.89
475.73	2647.61
476.09	2598.46
476.45	2567.80
476.81	2524.03
477.18	2495.25
477.54	2464.35
477.90	2441.65
478.26	2392.96
478.62	2360.66
478.98	2339.13
479.34	2303.56
479.71	2279.92
480.07	2264.94
480.43	2245.04
480.79	2192.15
481.15	2155.17
481.51	2119.12
481.87	2091.03
482.23	2050.31
482.59	2037.67
482.96	2037.67
483.32	2018.01
483.68	2003.50
484.04	1989.22
484.40	1969.33
484.76	1946.62
485.12	1920.88
485.48	1903.79
485.84	1888.11
486.20	1871.26
486.56	1851.83
486.92	1829.60
487.28	1806.89
487.64	1795.19
488.00	1774.13
488.37	1752.36
488.73	1746.98
489.09	1732.46
489.45	1703.44
489.81	1703.21
490.17	1696.65
490.53	1682.61
490.89	1660.14
491.25	1641.89
491.61	1622.46
491.97	1599.99
492.33	1569.10
492.69	1551.78
493.05	1547.56
493.41	1523.22
493.77	1505.43
494.13	1497.24
494.49	1489.75
494.85	1468.92
495.21	1459.32
495.57	1452.07
495.93	1450.66
496.29	1436.62
496.64	1440.83
497.00	1427.02
497.36	1424.68
497.72	1402.45
498.08	1393.32
498.44	1372.72
498.80	1381.85
499.16	1371.79
499.52	1373.89
499.88	1374.83
500.24	1372.72
500.60	1362.43
500.96	1355.64
501.32	1347.21
501.68	1321.23
502.03	1312.10
502.39	1300.87
502.75	1291.27
503.11	1273.95
503.47	1266.93
503.83	1255.00
504.19	1234.63
504.55	1222.23
504.91	1220.12
505.26	1233.46
505.62	1233.70
505.98	1236.97
506.34	1239.55
506.70	1239.55
507.06	1236.51
507.42	1230.65
507.78	1238.38
508.13	1234.16
508.49	1223.63
508.85	1209.82
509.21	1202.80
509.57	1175.42
509.93	1174.01
510.28	1188.52
510.64	1191.10
511.00	1188.76
511.36	1198.59
511.72	1184.31
512.07	1164.65
512.43	1163.01
512.79	1169.80
513.15	1177.99
513.51	1192.27
513.86	1199.52
514.22	1199.52
514.58	1196.72
514.94	1192.27
515.30	1185.01
515.65	1180.10
516.01	1169.80
516.37	1157.86
516.73	1157.16
517.08	1153.88
517.44	1149.67
517.80	1156.46
518.16	1161.61
518.51	1157.16
518.87	1154.59
519.23	1148.73
519.59	1148.03
519.94	1144.29
520.30	1146.39
520.66	1147.80
521.01	1156.93
521.37	1147.80
521.73	1146.63
522.09	1141.95
522.44	1134.93
522.80	1127.20
523.16	1126.27
523.51	1126.50
523.87	1130.01
524.23	1130.95
524.58	1135.39
524.94	1140.31
525.30	1139.37
525.65	1135.63
526.01	1139.84
526.37	1135.16
526.72	1121.82
527.08	1119.95
527.44	1114.33
527.79	1107.31
528.15	1105.67
528.51	1112.69
528.86	1109.88
529.22	1111.05
529.58	1119.95
529.93	1121.35
530.29	1119.95
530.65	1128.14
531.00	1136.56
531.36	1133.99
531.71	1142.88
532.07	1151.54
532.43	1144.52
532.78	1138.20
533.14	1133.52
533.49	1120.88
533.85	1119.95
534.21	1124.63
534.56	1114.33
534.92	1116.67
535.27	1115.50
535.63	1104.73
535.98	1102.63
536.34	1114.33
536.69	1111.05
537.05	1121.12
537.41	1126.50
537.76	1125.33
538.12	1117.61
538.47	1115.73
538.83	1114.80
539.18	1104.26
539.54	1102.63
539.89	1111.29
540.25	1111.75
540.60	1099.12
540.96	1104.97
541.31	1111.05
541.67	1101.69
542.02	1107.07
542.38	1107.54
542.73	1110.82
543.09	1110.35
543.44	1119.24
543.80	1116.20
544.15	1134.22
544.51	1134.93
544.86	1122.75
545.22	1114.10
545.57	1119.48
545.93	1109.65
546.28	1114.56
546.64	1114.33
546.99	1109.41
547.35	1089.99
547.70	1090.92
548.05	1084.60
548.41	1088.58
548.76	1083.20
549.12	1090.22
549.47	1075.71
549.83	1071.50
550.18	1071.03
550.53	1080.63
550.89	1080.63
551.24	1078.99
551.60	1079.22
551.95	1082.97
552.30	1092.33
552.66	1097.71
553.01	1100.05
553.37	1106.14
553.72	1114.10
554.07	1116.90
554.43	1114.56
554.78	1124.86
555.13	1118.07
555.49	1108.24
555.84	1087.88
556.19	1085.77
556.55	1074.07
556.90	1077.11
557.26	1083.43
557.61	1093.97
557.96	1091.63
558.32	1104.73
558.67	1106.37
559.02	1096.78
559.37	1092.80
559.73	1092.33
560.08	1075.94
560.43	1077.35
560.79	1084.14
561.14	1083.20
561.49	1085.54
561.85	1090.92
562.20	1090.46
562.55	1082.97
562.90	1081.80
563.26	1089.75
563.61	1091.86
563.96	1096.07
564.32	1101.46
564.67	1104.97
565.02	1099.35
565.37	1108.01
565.73	1101.46
566.08	1107.78
566.43	1104.03
566.78	1107.54
567.14	1105.90
567.49	1114.09
567.84	1105.20
568.19	1098.88
568.54	1085.31
568.90	1080.39
569.25	1069.62
569.60	1074.07
569.95	1082.03
570.31	1095.37
570.66	1099.82
571.01	1108.71
571.36	1109.41
571.71	1112.92
572.06	1114.80
572.42	1105.44
572.77	1097.01
573.12	1087.18
573.47	1090.92
573.82	1085.07
574.18	1098.18
574.53	1102.63
574.88	1103.56
575.23	1093.97
575.58	1093.97
575.93	1087.41
576.28	1088.58
576.64	1090.92
576.99	1098.18
577.34	1100.29
577.69	1097.01
578.04	1092.33
578.39	1087.41
578.74	1084.60
579.09	1075.24
579.44	1078.75
579.80	1073.14
580.15	1077.35
580.50	1076.65
580.85	1081.56
581.20	1086.71
581.55	1087.88
581.90	1090.22
582.25	1087.65
582.60	1088.82
582.95	1087.18
583.30	1092.56
583.65	1089.99
584.00	1095.60
584.35	1098.41
584.71	1099.58
585.06	1094.67
585.41	1100.52
585.76	1097.24
586.11	1101.22
586.46	1086.24
586.81	1086.94
587.16	1078.52
587.51	1078.75
587.86	1070.09
588.21	1075.71
588.56	1077.11
588.91	1075.01
589.26	1078.75
589.61	1089.29
589.96	1097.24
590.31	1098.65
590.66	1107.31
591.01	1110.35
591.36	1112.22
591.71	1107.78
592.06	1116.44
592.41	1108.01
592.76	1107.78
593.10	1087.65
593.45	1098.65
593.80	1089.05
594.15	1100.99
594.50	1086.01
594.85	1101.46
595.20	1095.37
595.55	1096.54
595.90	1094.67
596.25	1106.14
596.60	1105.90
596.95	1106.37
597.30	1112.22
597.64	1151.54
597.99	1146.63
598.34	1141.95
598.69	1138.20
599.04	1132.59
599.39	1091.39
599.74	1096.07
600.09	1092.09
600.44	1091.39
600.78	1098.18
601.13	1085.54
601.48	1082.03
601.83	1079.46
602.18	1077.82
602.53	1074.31
602.88	1088.82
603.22	1081.56
603.57	1085.77
603.92	1081.56
604.27	1065.88
604.62	1060.96
604.97	1063.77
605.31	1070.56
605.66	1078.05
606.01	1090.69
606.36	1096.54
606.71	1109.65
607.05	1105.20
607.40	1103.80
607.75	1100.99
608.10	1097.48
608.44	1089.99
608.79	1097.48
609.14	1098.18
609.49	1097.24
609.84	1094.67
610.18	1096.07
610.53	1091.16
610.88	1083.20
611.23	1086.48
611.57	1083.20
611.92	1083.67
612.27	1083.67
612.62	1088.12
612.96	1084.37
613.31	1081.56
613.66	1075.24
614.00	1073.84
614.35	1081.56
614.70	1085.77
615.05	1093.73
615.39	1103.80
615.74	1108.48
616.09	1100.29
616.43	1110.35
616.78	1104.97
617.13	1097.48
617.47	1096.31
617.82	1099.58
618.17	1089.29
618.51	1094.43
618.86	1097.95
619.21	1094.20
619.55	1099.12
619.90	1098.88
620.25	1094.67
620.59	1091.16
620.94	1089.99
621.29	1091.39
621.63	1086.94
621.98	1090.46
622.32	1094.67
622.67	1084.84
623.02	1078.52
623.36	1081.80
623.71	1083.67
624.05	1086.01
624.40	1102.39
624.75	1106.61
625.09	1101.46
625.44	1102.86
625.78	1105.90
626.13	1089.99
626.48	1090.69
626.82	1090.92
627.17	1089.75
627.51	1089.75
627.86	1097.71
628.20	1092.33
628.55	1090.22
628.89	1094.43
629.24	1089.29
629.58	1087.41
629.93	1089.52
630.28	1103.33
630.62	1086.71
630.97	1083.67
631.31	1077.58
631.66	1070.33
632.00	1057.92
632.35	1066.82
632.69	1067.99
633.04	1082.26
633.38	1083.90
633.73	1086.24
634.07	1078.28
634.42	1073.37
634.76	1069.86
635.11	1071.97
635.45	1070.56
635.79	1089.29
636.14	1087.88
636.48	1084.37
636.83	1084.60
637.17	1089.05
637.52	1072.90
637.86	1079.46
638.21	1078.52
638.55	1078.28
638.89	1078.75
639.24	1086.71
639.58	1086.01
639.93	1083.67
640.27	1086.48
640.61	1089.05
640.96	1081.56
641.30	1087.18
641.65	1093.50
641.99	1096.31
642.33	1091.63
642.68	1102.16
643.02	1097.95
643.37	1085.54
643.71	1076.65
644.05	1087.65
644.40	1082.26
644.74	1068.92
645.08	1083.20
645.43	1084.84
645.77	1077.58
646.11	1083.90
646.46	1097.48
646.80	1091.39
647.14	1098.65
647.49	1100.99
647.83	1095.84
648.17	1086.94
648.52	1091.39
648.86	1084.60
649.20	1077.82
649.55	1077.58
649.89	1084.37
650.23	1082.50
650.57	1091.16
650.92	1091.86
651.26	1092.33
651.60	1092.56
651.95	1095.84
652.29	1098.18
652.63	1100.52
652.97	1101.22
653.32	1100.75
653.66	1102.16
654.00	1097.24
654.34	1097.24
654.69	1091.16
655.03	1092.33
655.37	1098.88
655.71	1092.80
656.05	1094.43
656.40	1096.07
656.74	1089.75
657.08	1073.14
657.42	1071.73
657.76	1064.01
658.11	1073.14
658.45	1082.26
658.79	1081.80
659.13	1088.12
659.47	1096.78
659.82	1091.16
660.16	1086.71
660.50	1090.22
660.84	1088.82
661.18	1076.41
661.52	1071.97
661.87	1070.80
662.21	1075.48
662.55	1078.05
662.89	1094.20
663.23	1096.31
663.57	1093.26
663.91	1095.37
664.25	1093.97
664.60	1077.58
664.94	1084.60
665.28	1094.67
665.62	1092.09
665.96	1097.48
666.30	1109.18
666.64	1105.90
666.98	1098.41
667.32	1093.97
667.66	1086.24
668.01	1089.29
668.35	1088.12
668.69	1089.52
669.03	1080.86
669.37	1071.73
669.71	1070.33
670.05	1073.60
670.39	1064.71
670.73	1082.97
671.07	1090.69
671.41	1089.75
671.75	1085.54
672.09	1095.84
672.43	1091.86
672.77	1097.01
673.11	1095.84
673.45	1091.86
673.79	1091.86
674.13	1087.18
674.47	1081.33
674.81	1086.24
675.15	1091.86
675.49	1087.18
675.83	1090.92
676.17	1096.07
676.51	1086.48
676.85	1082.97
677.19	1083.90
677.53	1083.90
677.87	1080.16
678.21	1091.16
678.55	1084.14
678.89	1086.71
679.23	1091.16
679.57	1093.50
679.90	1082.26
680.24	1092.09
680.58	1088.82
680.92	1072.67
681.26	1071.97
681.60	1076.88
681.94	1076.18
682.28	1076.41
682.62	1079.92
682.96	1078.99
683.29	1072.90
683.63	1067.99
683.97	1069.39
684.31	1069.16
684.65	1075.24
684.99	1080.16
685.33	1083.90
685.67	1084.14
686.00	1087.18
686.34	1079.69
686.68	1088.82
687.02	1086.71
687.36	1090.46
687.70	1095.84
688.03	1096.31
688.37	1090.69
688.71	1093.50
689.05	1089.75
689.39	1085.77
689.72	1092.33
690.06	1091.39
690.40	1095.14
690.74	1089.29
691.08	1090.69
691.41	1079.69
691.75	1080.63
692.09	1080.39
692.43	1093.03
692.76	1092.56
693.10	1105.67
693.44	1105.90
693.78	1106.37
694.11	1099.82
694.45	1105.44
694.79	1101.22
695.13	1096.78
695.46	1090.22
695.80	1087.18
696.14	1082.73
696.48	1073.14
696.81	1073.14
697.15	1076.65
697.49	1083.20
697.82	1084.14
698.16	1090.46
698.50	1096.07
698.83	1088.35
699.17	1085.54
699.51	1086.94
699.84	1086.71
700.18	1076.41
700.52	1084.84
700.85	1081.09
701.19	1077.35
701.53	1076.65
701.86	1081.33
702.20	1080.16
702.54	1078.99
702.87	1079.22
703.21	1086.01
703.55	1095.37
703.88	1097.71
704.22	1106.84
704.55	1103.56
704.89	1090.69
705.23	1081.33
705.56	1072.43
705.90	1065.41
706.23	1077.82
706.57	1080.86
706.91	1082.03
707.24	1084.84
707.58	1088.58
707.91	1087.41
708.25	1089.05
708.58	1095.14
708.92	1100.05
709.26	1095.14
709.59	1088.58
709.93	1090.46
710.26	1075.24
710.60	1071.03
710.93	1075.48
711.27	1075.48
711.60	1074.54
711.94	1078.28
712.27	1081.56
712.61	1091.86
712.94	1097.48
713.28	1099.35
713.61	1113.86
713.95	1111.52
714.28	1108.01
714.62	1100.52
714.95	1098.18
715.29	1088.12
715.62	1093.97
715.96	1076.65
716.29	1073.37
716.63	1066.58
716.96	1063.54
717.29	1058.86
717.63	1071.50
717.96	1066.82
718.30	1071.50
718.63	1075.24
718.97	1078.75
719.30	1076.65
719.63	1083.90
719.97	1087.65
720.30	1085.77
720.64	1081.56
720.97	1080.86
721.30	1079.46
721.64	1075.94
721.97	1069.39
722.31	1064.94
722.64	1067.28
722.97	1070.09
723.31	1067.99
723.64	1076.41
723.97	1087.41
724.31	1085.07
724.64	1078.75
724.98	1085.77
725.31	1091.63
725.64	1086.24
725.98	1093.73
726.31	1096.31
726.64	1099.58
726.97	1094.43
727.31	1098.88
727.64	1097.24
727.97	1105.44
728.31	1108.95
728.64	1100.29
728.97	1095.84
729.31	1090.22
729.64	1086.24
729.97	1072.67
730.30	1088.12
730.64	1085.07
730.97	1083.90
731.30	1094.90
731.63	1102.86
731.97	1090.22
732.30	1095.14
732.63	1086.94
732.96	1071.03
733.30	1075.48
733.63	1071.26
733.96	1064.48
734.29	1064.48
734.63	1062.84
734.96	1058.39
735.29	1068.22
735.62	1069.39
735.95	1084.84
736.29	1089.05
736.62	1093.73
736.95	1089.99
737.28	1092.09
737.61	1082.73
737.94	1084.14
738.28	1075.94
738.61	1081.09
738.94	1092.09
739.27	1091.16
739.60	1089.52
739.93	1088.35
740.27	1091.63
740.60	1086.24
740.93	1093.50
741.26	1090.92
741.59	1094.20
741.92	1090.22
742.25	1087.18
742.58	1082.03
742.91	1084.14
743.25	1074.77
743.58	1069.39
743.91	1057.45
744.24	1055.35
744.57	1058.39
744.90	1064.24
745.23	1073.60
745.56	1083.20
745.89	1078.99
746.22	1077.35
746.55	1081.09
746.88	1075.71
747.21	1087.65
747.54	1090.92
747.87	1096.78
748.20	1097.71
748.53	1100.99
748.87	1087.18
749.20	1093.97
749.53	1089.99
749.86	1073.37
750.19	1067.99
750.52	1074.54
750.85	1084.84
751.18	1078.28
751.51	1087.41
751.84	1090.92
752.16	1091.86
752.49	1075.48
752.82	1079.92
753.15	1081.09
753.48	1074.77
753.81	1068.45
754.14	1065.88
754.47	1071.50
754.80	1076.18
755.13	1079.22
755.46	1075.01
755.79	1084.60
756.12	1077.35
756.45	1072.67
756.78	1071.97
757.11	1081.33
757.43	1073.60
757.76	1077.58
758.09	1069.86
758.42	1075.24
758.75	1071.50
759.08	1076.18
759.41	1069.86
759.74	1071.03
760.07	1052.54
760.39	1052.07
760.72	1047.62
761.05	1056.28
761.38	1063.54
761.71	1081.56
762.04	1080.39
762.36	1080.63
762.69	1079.69
763.02	1090.92
763.35	1097.24
763.68	1101.22
764.01	1100.05
764.33	1093.97
764.66	1088.82
764.99	1066.82
765.32	1059.09
765.65	1071.73
765.97	1070.33
766.30	1071.03
766.63	1076.88
766.96	1090.92
767.28	1080.86
767.61	1087.41
767.94	1084.14
768.27	1089.52
768.59	1084.84
768.92	1090.46
769.25	1086.71
769.58	1080.39
769.90	1084.60
770.23	1083.20
770.56	1075.01
770.89	1078.28
771.21	1084.84
771.54	1081.56
771.87	1079.22
772.19	1095.14
772.52	1090.92
772.85	1088.58
773.17	1091.16
773.50	1092.09
773.83	1081.09
774.15	1076.41
774.48	1074.54
774.81	1064.94
775.13	1051.60
775.46	1049.50
775.79	1051.37
776.11	1055.82
776.44	1065.18
776.77	1069.86
777.09	1070.33
777.42	1078.52
777.74	1077.11
778.07	1076.18
778.40	1075.48
778.72	1074.07
779.05	1068.92
779.37	1071.26
779.70	1074.54
780.03	1080.39
780.35	1092.80
780.68	1100.05
781.00	1088.35
781.33	1073.60
781.65	1072.90
781.98	1055.82
782.31	1045.28
782.63	1049.50
782.96	1063.31
783.28	1064.71
783.61	1070.80
783.93	1070.09
784.26	1071.50
784.58	1068.45
784.91	1073.37
785.23	1076.88
785.56	1082.50
785.88	1089.05
786.21	1087.88
786.53	1087.18
786.86	1083.43
787.18	1089.52
787.51	1088.58
787.83	1084.84
788.16	1084.84
788.48	1086.71
788.81	1086.24
789.13	1080.39
789.46	1083.67
789.78	1082.26
790.10	1079.69
790.43	1071.97
790.75	1074.07
791.08	1071.50
791.40	1071.97
791.73	1084.84
792.05	1077.11
792.37	1078.75
792.70	1080.86
793.02	1078.28
793.35	1071.97
793.67	1074.54
793.99	1077.82
794.32	1083.43
794.64	1089.75
794.96	1082.97
795.29	1090.46
795.61	1084.14
795.93	1079.22
796.26	1080.16
796.58	1078.05
796.91	1082.50
797.23	1091.63
797.55	1091.16
797.87	1087.88
798.20	1089.52
798.52	1090.69
798.84	1081.09
799.17	1084.37
799.49	1087.88
799.81	1093.73
800.14	1088.12
800.46	1089.75
800.78	1087.88
801.10	1078.75
801.43	1075.24
801.75	1079.69
802.07	1083.20
802.40	1085.54
802.72	1084.60
803.04	1090.22
803.36	1085.31
803.69	1081.80
804.01	1084.14
804.33	1089.29
804.65	1082.73
804.97	1087.18
805.30	1084.37
805.62	1074.77
805.94	1079.22
806.26	1080.63
806.58	1078.05
806.91	1084.60
807.23	1088.58
807.55	1086.01
807.87	1090.22
808.19	1093.73
808.52	1092.09
808.84	1099.35
809.16	1100.99
809.48	1101.22
809.80	1096.54
810.12	1091.39
810.44	1086.24
810.77	1080.16
811.09	1070.80
811.41	1071.97
811.73	1076.41
812.05	1074.31
812.37	1089.52
812.69	1092.56
813.01	1089.52
813.33	1086.48
813.66	1095.14
813.98	1077.58
814.30	1078.99
814.62	1079.69
814.94	1082.73
815.26	1078.75
815.58	1080.39
815.90	1076.88
816.22	1070.33
816.54	1070.33
816.86	1070.56
817.18	1076.18
817.50	1081.33
817.82	1092.56
818.14	1097.01
818.46	1091.63
818.78	1086.94
819.10	1087.41
819.42	1078.99
819.74	1074.54
820.06	1080.16
820.38	1084.84
820.70	1084.60
821.02	1093.73
821.34	1100.29
821.66	1102.16
821.98	1093.26
822.30	1095.14
822.62	1090.22
822.94	1087.65
823.26	1082.50
823.58	1088.58
823.90	1090.46
824.22	1094.90
824.54	1088.82
824.86	1083.20
825.18	1086.71
825.50	1080.86
825.81	1076.65
826.13	1083.90
826.45	1089.29
826.77	1087.65
827.09	1090.46
827.41	1079.22
827.73	1075.71
828.05	1080.86
828.36	1076.65
828.68	1073.14
829.00	1087.18
829.32	1090.22
829.64	1083.20
829.96	1079.92
830.28	1085.07
830.59	1081.09
830.91	1084.14
831.23	1084.84
831.55	1088.35
831.87	1087.18
832.19	1078.28
832.50	1071.03
832.82	1074.31
833.14	1070.33
833.46	1064.24
833.78	1080.16
834.09	1083.43
834.41	1081.80
834.73	1089.99
835.05	1097.48
835.36	1100.99
835.68	1089.29
836.00	1082.50
836.32	1070.80
836.63	1063.07
836.95	1056.99
837.27	1053.01
837.59	1065.41
837.90	1072.20
838.22	1083.90
838.54	1085.07
838.85	1095.60
839.17	1084.37
839.49	1079.92
839.80	1078.28
840.12	1076.41
840.44	1081.09
840.76	1093.03
841.07	1097.48
841.39	1086.71
841.71	1080.39
842.02	1075.94
842.34	1068.92
842.65	1072.43
842.97	1076.18
843.29	1087.65
843.60	1092.80
843.92	1093.73
844.24	1094.67
844.55	1093.03
844.87	1092.56
845.18	1095.37
845.50	1095.14
845.82	1102.63
846.13	1100.52
846.45	1092.56
846.76	1092.56
847.08	1087.18
847.40	1081.33
847.71	1083.20
848.03	1085.77
848.34	1081.09
848.66	1079.46
848.97	1072.43
849.29	1078.52
849.60	1071.50
849.92	1067.52
850.24	1069.62
850.55	1067.99
850.87	1059.56
851.18	1060.73
851.50	1067.28
851.81	1074.07
852.13	1078.52
852.44	1088.12
852.76	1093.97
853.07	1085.07
853.39	1086.48
853.70	1084.84
854.01	1080.86
854.33	1081.56
854.64	1087.18
854.96	1086.94
855.27	1085.54
855.59	1084.37
855.90	1083.67
856.22	1083.90
856.53	1073.60
856.84	1071.03
857.16	1073.84
857.47	1067.05
857.79	1071.03
858.10	1080.39
858.41	1081.33
858.73	1066.82
859.04	1070.56
859.36	1066.82
859.67	1069.62
859.98	1073.37
860.30	1087.18
860.61	1090.22
860.92	1091.63
861.24	1088.58
861.55	1093.73
861.87	1080.63
862.18	1084.14
862.49	1069.86
862.81	1061.90
863.12	1064.94
863.43	1080.86
863.74	1075.94
864.06	1087.88
864.37	1089.52
864.68	1080.63
865.00	1080.39
865.31	1074.54
865.62	1071.73
865.94	1075.71
866.25	1084.37
866.56	1085.54
866.87	1093.97
867.19	1087.65
867.50	1091.63
867.81	1083.67
868.12	1079.22
868.44	1078.75
868.75	1084.84
869.06	1080.39
869.37	1084.14
869.68	1083.20
870.00	1077.58
870.31	1084.37
870.62	1088.12
870.93	1082.26
871.24	1078.99
871.56	1086.71
871.87	1083.90
872.18	1080.16
872.49	1085.31
872.80	1088.82
873.12	1075.71
873.43	1058.16
873.74	1066.82
874.05	1071.73
874.36	1066.11
874.67	1079.69
874.98	1096.54
875.29	1089.52
875.61	1077.58
875.92	1086.24
876.23	1076.65
876.54	1082.50
876.85	1083.43
877.16	1091.63
877.47	1079.92
877.78	1075.94
878.09	1072.20
878.40	1070.33
878.72	1065.41
879.03	1073.14
879.34	1088.82
879.65	1082.97
879.96	1081.80
880.27	1089.29
880.58	1092.33
880.89	1084.37
881.20	1085.07
881.51	1087.88
881.82	1085.54
882.13	1084.14
882.44	1091.86
882.75	1096.07
883.06	1089.75
883.37	1088.82
883.68	1082.97
883.99	1071.97
884.30	1072.20
884.61	1068.69
884.92	1067.05
885.23	1071.73
885.54	1084.14
885.85	1085.31
886.16	1095.60
886.47	1090.69
886.78	1098.65
887.08	1086.94
887.39	1081.80
887.70	1089.05
888.01	1082.50
888.32	1080.86
888.63	1083.20
888.94	1082.26
889.25	1082.50
889.56	1098.41
889.87	1088.58
890.17	1088.12
890.48	1087.88
890.79	1076.18
891.10	1064.48
891.41	1061.90
891.72	1069.16
892.03	1074.31
892.34	1073.60
892.64	1085.77
892.95	1091.86
893.26	1086.71
893.57	1081.09
893.88	1078.05
894.18	1073.84
894.49	1070.09
894.80	1061.67
895.11	1069.62
895.42	1080.16
895.72	1074.31
896.03	1078.75
896.34	1096.54
896.65	1090.22
896.96	1078.52
897.26	1086.24
897.57	1093.73
897.88	1087.65
898.19	1088.82
898.49	1095.60
898.80	1096.54
899.11	1091.39
899.41	1090.92
899.72	1095.14
900.03	1089.99
900.34	1072.90
900.64	1064.48
900.95	1052.54
901.26	1039.67
901.56	1045.05
901.87	1056.99
902.18	1054.18
902.48	1056.75
902.79	1063.31
903.10	1063.31
903.40	1066.35
903.71	1074.07
904.02	1078.99
904.32	1078.99
904.63	1080.86
904.94	1082.03
905.24	1090.22
905.55	1087.65
905.85	1086.48
906.16	1080.63
906.47	1079.69
906.77	1075.48
907.08	1079.46
907.38	1082.97
907.69	1090.92
908.00	1089.05
908.30	1092.09
908.61	1091.16
908.91	1084.60
909.22	1071.97
909.52	1072.20
909.83	1068.92
910.14	1082.73
910.44	1089.75
910.75	1099.12
911.05	1094.43
911.36	1088.35
911.66	1077.58
911.97	1087.65
912.27	1081.56
912.58	1080.63
912.88	1083.67
913.19	1085.31
913.49	1078.75
913.80	1084.84
914.10	1087.18
914.41	1086.24
914.71	1081.33
915.01	1078.52
915.32	1082.03
915.62	1086.94
915.93	1098.65
916.23	1109.88
916.54	1107.54
916.84	1102.63
917.15	1102.39
917.45	1093.73
917.75	1079.69
918.06	1080.16
918.36	1080.86
918.67	1063.07
918.97	1047.86
919.27	1043.88
919.58	1046.22
919.88	1048.79
920.18	1069.86
920.49	1086.94
920.79	1096.31
921.10	1096.31
921.40	1092.09
921.70	1087.18
922.01	1075.94
922.31	1066.58
922.61	1060.50
922.92	1061.20
923.22	1065.88
923.52	1075.01
923.82	1069.16
924.13	1074.54
924.43	1069.86
924.73	1061.43
925.04	1063.77
925.34	1074.54
925.64	1073.60
925.94	1076.18
926.25	1069.16
926.55	1064.94
926.85	1061.90
927.15	1060.96
927.46	1064.94
927.76	1070.56
928.06	1073.60
928.36	1085.31
928.67	1086.48
928.97	1077.11
929.27	1086.01
929.57	1090.69
929.87	1080.63
930.18	1089.29
930.48	1089.75
930.78	1089.29
931.08	1084.84
931.38	1092.56
931.69	1077.82
931.99	1089.99
932.29	1084.37
932.59	1080.63
932.89	1078.28
933.19	1085.07
933.49	1069.62
933.80	1072.90
934.10	1070.56
934.40	1069.86
934.70	1066.58
935.00	1073.60
935.30	1069.86
935.60	1074.31
935.90	1074.54
936.20	1075.94
936.50	1080.16
936.81	1078.75
937.11	1071.50
937.41	1077.11
937.71	1085.31
938.01	1087.18
938.31	1083.43
938.61	1093.03
938.91	1083.43
939.21	1075.01
939.51	1072.67
939.81	1088.58
940.11	1084.14
940.41	1081.56
940.71	1078.99
941.01	1079.69
941.31	1067.99
941.61	1065.18
941.91	1071.50
942.21	1078.75
942.51	1075.24
942.81	1077.58
943.11	1079.46
943.41	1080.86
943.71	1083.67
944.01	1087.18
944.31	1086.94
944.61	1087.18
944.90	1086.24
945.20	1081.80
945.50	1078.28
945.80	1079.69
946.10	1091.16
946.40	1087.18
946.70	1074.77
947.00	1083.43
947.30	1074.31
947.60	1056.05
947.89	1065.65
948.19	1081.56
948.49	1071.73
948.79	1086.71
949.09	1094.67
949.39	1089.99
949.69	1089.99
949.98	1097.71
950.28	1089.99
950.58	1099.12
950.88	1093.73
951.18	1094.67
951.48	1095.37
951.77	1092.56
952.07	1086.48
952.37	1094.20
952.67	1090.69
952.97	1086.71
953.26	1091.63
953.56	1082.26
953.86	1076.41
954.16	1073.14
954.45	1079.92
954.75	1074.31
955.05	1082.97
955.35	1088.35
955.64	1092.33
955.94	1081.09
956.24	1079.46
956.54	1080.86
956.83	1075.01
957.13	1063.54
957.43	1058.86
957.72	1078.75
958.02	1074.77
958.32	1080.16
958.61	1076.65
958.91	1088.82
959.21	1082.50
959.50	1082.26
959.80	1081.80
960.10	1089.99
960.39	1091.63
960.69	1084.37
960.99	1083.90
961.28	1085.54
961.58	1097.24
961.87	1092.80
962.17	1093.26
962.47	1098.18
962.76	1093.97
963.06	1087.65
963.36	1084.37
963.65	1087.65
963.95	1079.69
964.24	1087.88
964.54	1096.78
964.83	1106.84
965.13	1093.73
965.42	1093.26
965.72	1087.18
966.02	1081.80
966.31	1076.41
966.61	1084.60
966.90	1083.67
967.20	1081.80
967.49	1071.73
967.79	1063.77
968.08	1063.54
968.38	1066.11
968.67	1064.94
968.97	1071.50
969.26	1079.46
969.56	1076.41
969.85	1086.71
970.15	1084.37
970.44	1086.94
970.74	1090.69
971.03	1083.20
971.32	1073.14
971.62	1075.48
971.91	1073.84
972.21	1069.62
972.50	1071.50
972.80	1071.97
973.09	1074.31
973.38	1072.67
973.68	1075.01
973.97	1088.12
974.27	1085.31
974.56	1084.37
974.85	1074.77
975.15	1071.97
975.44	1064.71
975.73	1071.97
976.03	1071.50
976.32	1081.80
976.61	1082.03
976.91	1079.22
977.20	1074.54
977.49	1078.28
977.79	1078.05
978.08	1082.03
978.37	1097.71
978.67	1108.01
978.96	1098.18
979.25	1097.24
979.55	1088.12
979.84	1081.09
980.13	1066.58
980.42	1069.86
980.72	1071.26
981.01	1067.99
981.30	1064.71
981.59	1074.77
981.89	1070.56
982.18	1074.54
982.47	1083.43
982.76	1080.63
983.06	1081.80
983.35	1084.60
983.64	1080.86
983.93	1073.14
984.22	1074.77
984.52	1068.45
984.81	1067.75
985.10	1055.58
985.39	1062.60
985.68	1067.05
985.97	1070.80
986.27	1075.71
986.56	1089.05
986.85	1079.92
987.14	1079.92
987.43	1084.60
987.72	1085.31
988.01	1086.01
988.31	1094.43
988.60	1091.63
988.89	1086.01
989.18	1087.41
989.47	1083.20
989.76	1077.35
990.05	1075.24
990.34	1072.20
990.63	1065.41
990.92	1067.52
991.21	1068.69
991.51	1066.82
991.80	1065.88
992.09	1059.33
992.38	1047.86
992.67	1043.64
992.96	1056.28
993.25	1059.33
993.54	1074.77
993.83	1084.84
994.12	1085.31
994.41	1075.01
994.70	1068.22
994.99	1068.45
995.28	1062.84
995.57	1066.11
995.86	1064.94
996.15	1065.65
996.44	1063.31
996.73	1067.05
997.02	1070.09
997.31	1077.35
997.59	1091.86
997.88	1098.18
998.17	1095.60
998.46	1099.12
998.75	1096.54
999.04	1086.94
999.33	1089.05
999.62	1086.01
999.91	1085.07
1000.20	1080.16
1000.49	1074.54
1000.77	1065.18
1001.06	1070.09
1001.35	1066.82
1001.64	1067.52
1001.93	1077.35
1002.22	1075.71
1002.51	1076.88
1002.79	1078.28
1003.08	1081.56
1003.37	1079.92
1003.66	1081.56
1003.95	1078.99
1004.23	1082.97
1004.52	1083.20
1004.81	1076.18
1005.10	1068.45
1005.39	1070.09
1005.67	1061.20
1005.96	1059.79
1006.25	1070.33
1006.54	1083.67
1006.83	1076.41
1007.11	1085.77
1007.40	1087.65
1007.69	1079.22
1007.97	1071.03
1008.26	1073.84
1008.55	1072.20
1008.84	1074.54
1009.12	1075.24
1009.41	1071.03
1009.70	1075.71
1009.98	1073.14
1010.27	1077.82
1010.56	1083.67
1010.85	1082.73
1011.13	1083.43
1011.42	1079.46
1011.71	1067.75
1011.99	1067.05
1012.28	1071.50
1012.56	1068.69
1012.85	1066.82
1013.14	1071.03
1013.42	1073.37
1013.71	1072.20
1014.00	1081.80
1014.28	1089.52
1014.57	1093.26
1014.85	1085.07
1015.14	1091.63
1015.43	1089.75
1015.71	1086.94
1016.00	1081.80
1016.28	1089.99
1016.57	1090.46
1016.85	1090.69
1017.14	1087.41
1017.43	1075.48
1017.71	1074.31
1018.00	1065.65
1018.28	1061.43
1018.57	1059.33
1018.85	1061.90
1019.14	1055.82
1019.42	1064.48
1019.71	1063.77
1019.99	1058.39
1020.28	1071.26
1020.56	1075.71
1020.85	1073.60
1021.13	1076.18
1021.42	1092.09
1021.70	1093.03
1021.99	1089.29
1022.27	1087.88
1022.55	1069.62
1022.84	1082.50
>>>>>End Processed Spectral Data<<<<<
