SpectraSuite Data File
++++++++++++++++++++++++++++++++++++
Date: Mon Aug 26 10:24:51 PDT 2019
User: corrico
Dark Spectrum Present: No
Reference Spectrum Present: No
Number of Sampled Component Spectra: 1
Spectrometers: USB2+H06089
Integration Time (usec): 10000 (USB2+H06089)
Spectra Averaged: 2 (USB2+H06089)
Boxcar Smoothing: 2 (USB2+H06089)
Correct for Electrical Dark: No (USB2+H06089)
Strobe/Lamp Enabled: No (USB2+H06089)
Correct for Detector Non-linearity: No (USB2+H06089)
Correct for Stray Light: No (USB2+H06089)
Number of Pixels in Processed Spectrum: 2048
>>>>>Begin Processed Spectral Data<<<<<
339.70	1038.03
340.07	1038.03
340.45	989.34
340.82	976.00
341.19	945.34
341.57	919.83
341.94	910.23
342.31	902.74
342.69	883.08
343.06	879.34
343.43	883.32
343.81	882.62
344.18	891.28
344.55	903.91
344.93	915.38
345.30	917.72
345.67	923.34
346.04	935.04
346.42	939.02
346.79	941.13
347.16	957.51
347.54	977.17
347.91	988.17
348.28	1005.26
348.65	1024.22
349.03	1031.71
349.40	1045.28
349.77	1054.18
350.14	1053.01
350.52	1062.14
350.89	1058.62
351.26	1055.82
351.63	1059.33
352.01	1073.14
352.38	1075.94
352.75	1085.07
353.12	1088.12
353.50	1086.01
353.87	1091.16
354.24	1092.80
354.61	1095.60
354.98	1104.73
355.36	1113.39
355.73	1102.16
356.10	1100.05
356.47	1103.09
356.84	1103.33
357.22	1108.24
357.59	1116.20
357.96	1120.18
358.33	1112.22
358.70	1093.97
359.08	1087.41
359.45	1075.24
359.82	1068.45
360.19	1064.01
360.56	1077.82
360.94	1077.11
361.31	1078.52
361.68	1081.80
362.05	1087.41
362.42	1087.41
362.79	1079.22
363.16	1084.60
363.54	1080.16
363.91	1086.94
364.28	1083.90
364.65	1087.41
365.02	1093.50
365.39	1097.24
365.76	1096.54
366.14	1095.14
366.51	1097.95
366.88	1093.03
367.25	1095.60
367.62	1098.88
367.99	1100.75
368.36	1103.80
368.73	1108.48
369.10	1108.95
369.48	1096.54
369.85	1102.63
370.22	1100.75
370.59	1100.52
370.96	1099.58
371.33	1108.01
371.70	1111.29
372.07	1109.88
372.44	1104.26
372.81	1104.97
373.18	1097.71
373.55	1083.20
373.93	1075.94
374.30	1087.18
374.67	1091.86
375.04	1090.69
375.41	1095.84
375.78	1107.54
376.15	1085.31
376.52	1082.26
376.89	1089.75
377.26	1098.65
377.63	1086.94
378.00	1101.69
378.37	1101.22
378.74	1089.75
379.11	1090.46
379.48	1091.63
379.85	1097.71
380.22	1093.03
380.59	1098.18
380.96	1090.69
381.33	1089.99
381.70	1080.16
382.07	1083.90
382.44	1084.37
382.81	1090.92
383.18	1095.37
383.55	1090.22
383.92	1087.88
384.29	1091.63
384.66	1091.86
385.03	1095.14
385.40	1097.01
385.77	1095.37
386.14	1099.82
386.51	1099.35
386.88	1105.20
387.25	1115.27
387.62	1124.39
387.99	1117.61
388.36	1113.16
388.73	1100.05
389.10	1098.65
389.46	1091.39
389.83	1095.37
390.20	1100.99
390.57	1103.33
390.94	1102.86
391.31	1102.86
391.68	1113.16
392.05	1114.33
392.42	1119.24
392.79	1113.39
393.16	1121.35
393.53	1099.82
393.89	1094.43
394.26	1096.31
394.63	1094.20
395.00	1096.07
395.37	1113.63
395.74	1116.67
396.11	1124.39
396.48	1130.01
396.84	1127.90
397.21	1132.35
397.58	1124.39
397.95	1123.22
398.32	1127.20
398.69	1125.56
399.06	1122.05
399.42	1132.59
399.79	1144.52
400.16	1149.67
400.53	1153.18
400.90	1152.95
401.27	1166.99
401.64	1163.71
402.00	1157.16
402.37	1161.14
402.74	1163.01
403.11	1158.57
403.48	1159.97
403.84	1173.54
404.21	1183.14
404.58	1191.80
404.95	1192.97
405.32	1205.61
405.68	1218.72
406.05	1225.50
406.42	1243.76
406.79	1271.14
407.16	1285.66
407.52	1296.89
407.89	1322.17
408.26	1342.77
408.63	1354.23
408.99	1383.96
409.36	1416.02
409.73	1426.79
410.10	1445.28
410.47	1470.32
410.83	1500.28
411.20	1537.50
411.57	1593.67
411.94	1636.27
412.30	1694.08
412.67	1732.00
413.04	1779.74
413.40	1824.45
413.77	1893.49
414.14	1939.60
414.51	1985.71
414.87	2033.46
415.24	2110.70
415.61	2197.06
415.97	2284.36
416.34	2385.47
416.71	2484.71
417.08	2571.31
417.44	2657.91
417.81	2780.09
418.18	2902.03
418.54	3061.89
418.91	3217.07
419.28	3355.39
419.64	3506.36
420.01	3672.30
420.38	3809.92
420.74	3977.97
421.11	4194.71
421.48	4394.36
421.84	4611.32
422.21	4856.38
422.58	5097.45
422.94	5325.42
423.31	5565.79
423.68	5830.98
424.04	6133.37
424.41	6444.67
424.77	6741.21
425.14	7065.38
425.51	7415.75
425.87	7775.03
426.24	8140.15
426.61	8540.38
426.97	9022.30
427.34	9449.91
427.70	9930.19
428.07	10416.79
428.44	10939.66
428.80	11420.18
429.17	11977.46
429.53	12460.31
429.90	13083.36
430.27	13631.98
430.63	14216.65
431.00	14891.19
431.36	15694.23
431.73	16326.87
432.09	17058.53
432.46	17789.24
432.83	18417.21
433.19	18892.34
433.56	19535.28
433.92	20204.21
434.29	20783.72
434.65	21444.92
435.02	22120.17
435.38	22770.37
435.75	23273.35
436.11	23968.49
436.48	24437.30
436.84	24953.39
437.21	25404.41
437.57	25907.86
437.94	26322.60
438.30	26783.22
438.67	27098.96
439.03	27278.01
439.40	27444.65
439.76	27335.12
440.13	27251.09
440.49	27196.56
440.86	26994.33
441.22	26717.45
441.59	26382.99
441.95	25989.31
442.32	25445.84
442.68	25030.86
443.05	24518.28
443.41	24011.32
443.78	23374.46
444.14	22848.31
444.51	22221.51
444.87	21782.66
445.24	21323.68
445.60	20917.13
445.96	20337.15
446.33	19865.53
446.69	19237.10
447.06	18661.09
447.42	18104.75
447.79	17628.21
448.15	17184.92
448.51	16679.13
448.88	16284.98
449.24	15829.04
449.61	15497.86
449.97	15105.58
450.33	14741.40
450.70	14306.06
451.06	13964.57
451.43	13536.02
451.79	13158.26
452.15	12824.50
452.52	12514.14
452.88	12226.26
453.24	11972.78
453.61	11684.42
453.97	11415.96
454.34	11129.95
454.70	10854.23
455.06	10601.69
455.43	10303.27
455.79	9940.02
456.15	9646.75
456.52	9318.61
456.88	9029.08
457.24	8758.52
457.61	8582.74
457.97	8344.71
458.33	8107.15
458.70	7838.22
459.06	7547.99
459.42	7279.07
459.79	7024.18
460.15	6808.85
460.51	6564.03
460.88	6369.30
461.24	6164.97
461.60	6010.96
461.96	5830.04
462.33	5666.67
462.69	5542.62
463.05	5413.89
463.42	5240.23
463.78	5100.73
464.14	4976.68
464.50	4853.10
464.87	4727.18
465.23	4622.56
465.59	4511.15
465.95	4406.99
466.32	4283.18
466.68	4181.13
467.04	4096.87
467.40	4016.13
467.77	3937.02
468.13	3863.29
468.49	3786.05
468.85	3719.58
469.22	3648.90
469.58	3585.70
469.94	3527.66
470.30	3448.78
470.66	3384.41
471.03	3307.65
471.39	3245.85
471.75	3187.34
472.11	3151.30
472.47	3093.95
472.84	3045.04
473.20	2985.59
473.56	2939.24
473.92	2877.45
474.28	2822.45
474.65	2790.62
475.01	2746.85
475.37	2693.96
475.73	2649.95
476.09	2608.53
476.45	2560.31
476.81	2526.37
477.18	2477.69
477.54	2442.11
477.90	2418.94
478.26	2394.84
478.62	2365.58
478.98	2341.94
479.34	2329.77
479.71	2286.24
480.07	2244.34
480.43	2209.70
480.79	2192.38
481.15	2148.38
481.51	2139.48
481.87	2123.33
482.23	2098.76
482.59	2067.63
482.96	2043.52
483.32	2012.16
483.68	1986.65
484.04	1959.73
484.40	1936.79
484.76	1913.86
485.12	1890.92
485.48	1878.98
485.84	1868.92
486.20	1867.75
486.56	1861.66
486.92	1845.75
487.28	1828.66
487.64	1801.98
488.00	1767.81
488.37	1745.57
488.73	1728.95
489.09	1702.27
489.45	1691.74
489.81	1669.97
490.17	1651.25
490.53	1636.97
490.89	1604.44
491.25	1596.01
491.61	1579.86
491.97	1573.78
492.33	1552.71
492.69	1556.46
493.05	1534.22
493.41	1524.16
493.77	1510.11
494.13	1498.41
494.49	1478.75
494.85	1469.86
495.21	1463.54
495.57	1444.34
495.93	1426.32
496.29	1423.05
496.64	1412.51
497.00	1405.73
497.36	1405.26
497.72	1411.11
498.08	1398.94
498.44	1395.43
498.80	1381.38
499.16	1359.85
499.52	1349.32
499.88	1353.30
500.24	1343.47
500.60	1336.91
500.96	1341.60
501.32	1336.68
501.68	1326.15
502.03	1319.13
502.39	1317.72
502.75	1303.21
503.11	1302.51
503.47	1300.17
503.83	1297.83
504.19	1292.44
504.55	1287.53
504.91	1271.85
505.26	1253.59
505.62	1238.14
505.98	1235.57
506.34	1235.33
506.70	1241.19
507.06	1237.68
507.42	1237.21
507.78	1229.95
508.13	1223.16
508.49	1211.93
508.85	1210.76
509.21	1211.46
509.57	1208.65
509.93	1204.91
510.28	1207.48
510.64	1200.46
511.00	1199.99
511.36	1210.29
511.72	1215.67
512.07	1211.23
512.43	1211.70
512.79	1205.84
513.15	1191.10
513.51	1179.40
513.86	1177.99
514.22	1172.61
514.58	1156.93
514.94	1148.50
515.30	1148.27
515.65	1147.10
516.01	1150.37
516.37	1159.97
516.73	1160.67
517.08	1170.27
517.44	1170.74
517.80	1176.82
518.16	1184.78
518.51	1186.89
518.87	1181.97
519.23	1169.10
519.59	1162.08
519.94	1150.14
520.30	1145.69
520.66	1134.22
521.01	1134.93
521.37	1135.63
521.73	1142.65
522.09	1142.65
522.44	1142.88
522.80	1139.37
523.16	1135.86
523.51	1120.88
523.87	1118.07
524.23	1128.84
524.58	1134.93
524.94	1133.05
525.30	1137.50
525.65	1137.03
526.01	1131.18
526.37	1128.61
526.72	1121.82
527.08	1120.41
527.44	1128.84
527.79	1119.48
528.15	1118.54
528.51	1125.33
528.86	1128.37
529.22	1120.65
529.58	1130.48
529.93	1133.76
530.29	1128.37
530.65	1133.76
531.00	1133.29
531.36	1130.48
531.71	1129.54
532.07	1138.90
532.43	1129.07
532.78	1126.03
533.14	1122.05
533.49	1115.27
533.85	1111.75
534.21	1115.50
534.56	1112.46
534.92	1110.58
535.27	1113.16
535.63	1110.12
535.98	1100.99
536.34	1109.88
536.69	1113.16
537.05	1111.52
537.41	1110.58
537.76	1112.46
538.12	1108.24
538.47	1104.26
538.83	1099.12
539.18	1098.65
539.54	1103.09
539.89	1093.03
540.25	1092.56
540.60	1090.92
540.96	1076.88
541.31	1080.86
541.67	1091.39
542.02	1097.95
542.38	1103.33
542.73	1116.20
543.09	1106.61
543.44	1103.80
543.80	1087.88
544.15	1094.43
544.51	1093.03
544.86	1099.58
545.22	1104.03
545.57	1104.26
545.93	1096.07
546.28	1102.86
546.64	1102.86
546.99	1100.99
547.35	1118.54
547.70	1123.93
548.05	1122.99
548.41	1123.46
548.76	1113.63
549.12	1108.24
549.47	1111.29
549.83	1111.29
550.18	1103.33
550.53	1110.82
550.89	1113.63
551.24	1116.44
551.60	1110.35
551.95	1116.90
552.30	1112.92
552.66	1100.52
553.01	1086.94
553.37	1083.20
553.72	1081.56
554.07	1090.46
554.43	1103.80
554.78	1097.01
555.13	1100.05
555.49	1106.37
555.84	1097.95
556.19	1092.56
556.55	1101.69
556.90	1107.31
557.26	1098.18
557.61	1095.60
557.96	1092.56
558.32	1096.31
558.67	1090.92
559.02	1089.52
559.37	1100.05
559.73	1109.65
560.08	1109.41
560.43	1109.88
560.79	1118.07
561.14	1111.29
561.49	1103.56
561.85	1103.56
562.20	1104.97
562.55	1101.46
562.90	1101.69
563.26	1099.82
563.61	1103.09
563.96	1093.73
564.32	1079.46
564.67	1080.16
565.02	1072.20
565.37	1061.90
565.73	1070.56
566.08	1074.77
566.43	1076.88
566.78	1078.28
567.14	1084.60
567.49	1091.39
567.84	1102.16
568.19	1097.71
568.54	1099.58
568.90	1099.82
569.25	1094.43
569.60	1091.63
569.95	1088.58
570.31	1091.63
570.66	1089.99
571.01	1093.97
571.36	1086.24
571.71	1093.97
572.06	1095.37
572.42	1087.18
572.77	1078.75
573.12	1085.31
573.47	1082.26
573.82	1084.60
574.18	1094.20
574.53	1099.12
574.88	1098.18
575.23	1094.43
575.58	1095.60
575.93	1088.12
576.28	1075.48
576.64	1078.05
576.99	1080.39
577.34	1074.07
577.69	1078.52
578.04	1087.88
578.39	1099.12
578.74	1095.60
579.09	1105.67
579.44	1100.05
579.80	1098.65
580.15	1091.16
580.50	1096.07
580.85	1091.39
581.20	1092.09
581.55	1089.29
581.90	1087.88
582.25	1090.69
582.60	1089.99
582.95	1103.09
583.30	1106.37
583.65	1102.39
584.00	1092.09
584.35	1099.12
584.71	1090.92
585.06	1092.09
585.41	1093.26
585.76	1107.78
586.11	1107.31
586.46	1109.18
586.81	1099.35
587.16	1099.58
587.51	1093.73
587.86	1086.94
588.21	1094.67
588.56	1099.12
588.91	1100.05
589.26	1095.60
589.61	1093.50
589.96	1083.43
590.31	1090.92
590.66	1088.58
591.01	1088.12
591.36	1085.77
591.71	1082.73
592.06	1084.60
592.41	1079.92
592.76	1079.92
593.10	1084.84
593.45	1099.58
593.80	1101.46
594.15	1100.05
594.50	1104.97
594.85	1100.05
595.20	1087.65
595.55	1084.14
595.90	1097.48
596.25	1098.88
596.60	1109.41
596.95	1108.01
597.30	1110.35
597.64	1153.42
597.99	1153.42
598.34	1152.25
598.69	1157.16
599.04	1144.99
599.39	1098.65
599.74	1099.82
600.09	1089.99
600.44	1083.20
600.78	1093.50
601.13	1092.09
601.48	1079.69
601.83	1068.22
602.18	1075.94
602.53	1077.58
602.88	1082.97
603.22	1091.86
603.57	1091.86
603.92	1089.99
604.27	1086.71
604.62	1077.82
604.97	1078.99
605.31	1090.46
605.66	1096.78
606.01	1089.99
606.36	1099.82
606.71	1104.73
607.05	1108.95
607.40	1108.48
607.75	1113.16
608.10	1095.37
608.44	1087.88
608.79	1084.14
609.14	1083.43
609.49	1086.48
609.84	1097.48
610.18	1100.05
610.53	1102.63
610.88	1101.22
611.23	1099.82
611.57	1094.90
611.92	1094.20
612.27	1093.73
612.62	1090.46
612.96	1081.80
613.31	1083.90
613.66	1081.09
614.00	1082.03
614.35	1084.37
614.70	1087.65
615.05	1091.39
615.39	1097.48
615.74	1093.03
616.09	1096.78
616.43	1098.88
616.78	1092.09
617.13	1078.52
617.47	1092.09
617.82	1089.52
618.17	1093.73
618.51	1097.48
618.86	1102.39
619.21	1093.03
619.55	1085.31
619.90	1087.18
620.25	1077.58
620.59	1069.86
620.94	1075.94
621.29	1081.56
621.63	1074.31
621.98	1084.14
622.32	1098.65
622.67	1094.43
623.02	1093.03
623.36	1092.56
623.71	1091.39
624.05	1090.46
624.40	1083.90
624.75	1081.33
625.09	1079.22
625.44	1083.90
625.78	1082.73
626.13	1092.09
626.48	1097.48
626.82	1107.54
627.17	1096.78
627.51	1088.35
627.86	1079.92
628.20	1070.09
628.55	1072.20
628.89	1091.16
629.24	1098.65
629.58	1099.35
629.93	1102.86
630.28	1094.20
630.62	1088.82
630.97	1089.75
631.31	1089.99
631.66	1089.52
632.00	1093.03
632.35	1079.69
632.69	1080.39
633.04	1073.37
633.38	1079.92
633.73	1068.69
634.07	1080.16
634.42	1068.92
634.76	1078.05
635.11	1073.14
635.45	1091.39
635.79	1087.41
636.14	1098.18
636.48	1097.48
636.83	1098.18
637.17	1092.80
637.52	1096.07
637.86	1101.46
638.21	1108.48
638.55	1111.52
638.89	1106.84
639.24	1111.99
639.58	1106.14
639.93	1103.56
640.27	1100.05
640.61	1104.97
640.96	1092.80
641.30	1087.65
641.65	1083.90
641.99	1088.82
642.33	1087.88
642.68	1088.58
643.02	1098.41
643.37	1097.95
643.71	1089.05
644.05	1084.37
644.40	1085.77
644.74	1087.88
645.08	1085.54
645.43	1093.03
645.77	1100.29
646.11	1093.03
646.46	1086.48
646.80	1088.12
647.14	1070.80
647.49	1065.41
647.83	1072.20
648.17	1069.39
648.52	1064.24
648.86	1075.48
649.20	1069.86
649.55	1067.28
649.89	1076.41
650.23	1083.90
650.57	1082.50
650.92	1092.33
651.26	1095.14
651.60	1086.71
651.95	1088.82
652.29	1089.29
652.63	1086.94
652.97	1087.41
653.32	1099.58
653.66	1095.60
654.00	1101.22
654.34	1097.95
654.69	1102.16
655.03	1087.18
655.37	1085.31
655.71	1079.46
656.05	1087.41
656.40	1088.58
656.74	1087.18
657.08	1087.88
657.42	1097.95
657.76	1095.14
658.11	1091.63
658.45	1104.26
658.79	1101.69
659.13	1088.12
659.47	1089.29
659.82	1087.88
660.16	1072.90
660.50	1075.24
660.84	1080.63
661.18	1073.37
661.52	1068.22
661.87	1073.84
662.21	1077.35
662.55	1084.84
662.89	1089.52
663.23	1097.01
663.57	1100.75
663.91	1109.65
664.25	1102.16
664.60	1094.20
664.94	1093.97
665.28	1086.94
665.62	1078.28
665.96	1080.16
666.30	1086.01
666.64	1074.31
666.98	1081.33
667.32	1082.50
667.66	1085.77
668.01	1086.01
668.35	1091.86
668.69	1091.16
669.03	1083.67
669.37	1074.07
669.71	1071.73
670.05	1067.28
670.39	1066.82
670.73	1072.67
671.07	1072.43
671.41	1078.52
671.75	1083.90
672.09	1082.50
672.43	1083.67
672.77	1097.01
673.11	1089.52
673.45	1101.22
673.79	1103.33
674.13	1108.95
674.47	1105.90
674.81	1108.95
675.15	1096.07
675.49	1093.73
675.83	1087.65
676.17	1078.99
676.51	1081.09
676.85	1080.16
677.19	1076.41
677.53	1084.14
677.87	1086.24
678.21	1082.26
678.55	1088.12
678.89	1089.99
679.23	1087.41
679.57	1093.03
679.90	1100.75
680.24	1100.52
680.58	1104.50
680.92	1093.26
681.26	1088.82
681.60	1077.58
681.94	1076.18
682.28	1075.71
682.62	1086.01
682.96	1086.01
683.29	1098.88
683.63	1098.88
683.97	1098.18
684.31	1093.97
684.65	1096.31
684.99	1087.88
685.33	1090.69
685.67	1100.05
686.00	1101.92
686.34	1086.24
686.68	1076.41
687.02	1078.28
687.36	1064.24
687.70	1060.03
688.03	1070.80
688.37	1084.60
688.71	1084.84
689.05	1086.24
689.39	1091.39
689.72	1099.12
690.06	1091.16
690.40	1073.14
690.74	1074.54
691.08	1063.54
691.41	1059.79
691.75	1072.43
692.09	1087.41
692.43	1095.84
692.76	1097.95
693.10	1102.39
693.44	1106.84
693.78	1100.75
694.11	1090.46
694.45	1095.37
694.79	1099.12
695.13	1083.20
695.46	1090.69
695.80	1096.07
696.14	1089.29
696.48	1089.05
696.81	1094.20
697.15	1093.03
697.49	1093.26
697.82	1101.69
698.16	1087.65
698.50	1079.46
698.83	1069.16
699.17	1065.88
699.51	1055.82
699.84	1061.20
700.18	1068.45
700.52	1071.26
700.85	1070.80
701.19	1087.88
701.53	1089.05
701.86	1087.65
702.20	1094.67
702.54	1101.22
702.87	1090.46
703.21	1089.52
703.55	1088.35
703.88	1101.46
704.22	1103.56
704.55	1106.61
704.89	1094.67
705.23	1096.31
705.56	1074.77
705.90	1067.75
706.23	1076.88
706.57	1097.01
706.91	1090.92
707.24	1094.67
707.58	1098.18
707.91	1088.58
708.25	1088.82
708.58	1092.80
708.92	1094.90
709.26	1084.84
709.59	1079.92
709.93	1072.43
710.26	1077.82
710.60	1073.37
710.93	1073.84
711.27	1082.03
711.60	1091.63
711.94	1086.01
712.27	1088.12
712.61	1087.65
712.94	1084.60
713.28	1073.37
713.61	1073.84
713.95	1072.90
714.28	1081.56
714.62	1075.71
714.95	1078.05
715.29	1081.09
715.62	1084.60
715.96	1084.60
716.29	1093.50
716.63	1082.73
716.96	1082.97
717.29	1079.92
717.63	1073.84
717.96	1073.37
718.30	1078.52
718.63	1075.71
718.97	1082.26
719.30	1082.03
719.63	1078.75
719.97	1085.77
720.30	1083.20
720.64	1076.41
720.97	1075.01
721.30	1074.07
721.64	1076.41
721.97	1085.07
722.31	1085.31
722.64	1085.07
722.97	1095.84
723.31	1097.48
723.64	1090.69
723.97	1082.50
724.31	1096.07
724.64	1086.71
724.98	1071.26
725.31	1071.73
725.64	1082.03
725.98	1077.35
726.31	1079.92
726.64	1084.84
726.97	1081.09
727.31	1074.54
727.64	1065.88
727.97	1055.58
728.31	1060.73
728.64	1064.71
728.97	1070.80
729.31	1087.18
729.64	1097.48
729.97	1096.31
730.30	1105.20
730.64	1099.58
730.97	1089.05
731.30	1083.43
731.63	1089.05
731.97	1083.67
732.30	1098.41
732.63	1096.54
732.96	1094.67
733.30	1090.92
733.63	1083.67
733.96	1076.18
734.29	1075.94
734.63	1070.80
734.96	1064.01
735.29	1078.52
735.62	1083.20
735.95	1084.60
736.29	1093.50
736.62	1096.07
736.95	1088.82
737.28	1088.12
737.61	1084.60
737.94	1083.43
738.28	1086.94
738.61	1086.94
738.94	1086.71
739.27	1092.33
739.60	1088.12
739.93	1082.03
740.27	1068.69
740.60	1073.60
740.93	1073.37
741.26	1072.43
741.59	1091.86
741.92	1108.95
742.25	1092.80
742.58	1094.43
742.91	1106.14
743.25	1095.14
743.58	1092.56
743.91	1104.26
744.24	1096.07
744.57	1088.58
744.90	1082.97
745.23	1071.97
745.56	1075.24
745.89	1084.14
746.22	1097.24
746.55	1105.90
746.88	1111.05
747.21	1108.71
747.54	1106.14
747.87	1096.07
748.20	1090.92
748.53	1095.60
748.87	1093.73
749.20	1090.92
749.53	1086.94
749.86	1079.69
750.19	1083.43
750.52	1078.28
750.85	1064.71
751.18	1065.18
751.51	1074.54
751.84	1073.60
752.16	1086.48
752.49	1099.35
752.82	1100.52
753.15	1096.54
753.48	1094.67
753.81	1087.18
754.14	1095.37
754.47	1104.50
754.80	1099.35
755.13	1093.73
755.46	1095.14
755.79	1097.48
756.12	1096.54
756.45	1106.14
756.78	1108.48
757.11	1093.26
757.43	1087.41
757.76	1086.01
758.09	1086.94
758.42	1091.63
758.75	1099.35
759.08	1102.86
759.41	1094.20
759.74	1090.69
760.07	1088.35
760.39	1094.43
760.72	1086.71
761.05	1086.01
761.38	1085.07
761.71	1082.97
762.04	1079.22
762.36	1087.41
762.69	1089.52
763.02	1087.18
763.35	1100.75
763.68	1104.03
764.01	1090.92
764.33	1094.67
764.66	1087.65
764.99	1073.14
765.32	1068.45
765.65	1068.45
765.97	1067.52
766.30	1075.01
766.63	1074.07
766.96	1069.62
767.28	1078.52
767.61	1070.56
767.94	1064.71
768.27	1066.82
768.59	1078.75
768.92	1069.86
769.25	1078.99
769.58	1088.12
769.90	1085.07
770.23	1076.65
770.56	1076.18
770.89	1071.73
771.21	1068.92
771.54	1068.69
771.87	1059.79
772.19	1062.14
772.52	1074.54
772.85	1080.39
773.17	1081.09
773.50	1103.56
773.83	1106.84
774.15	1090.46
774.48	1084.37
774.81	1088.58
775.13	1067.99
775.46	1066.58
775.79	1067.28
776.11	1067.05
776.44	1063.54
776.77	1082.03
777.09	1079.22
777.42	1083.43
777.74	1088.82
778.07	1096.31
778.40	1089.75
778.72	1095.60
779.05	1104.73
779.37	1097.24
779.70	1080.16
780.03	1070.33
780.35	1076.18
780.68	1064.71
781.00	1069.86
781.33	1079.92
781.65	1088.82
781.98	1081.56
782.31	1085.31
782.63	1080.63
782.96	1078.28
783.28	1075.94
783.61	1070.80
783.93	1076.41
784.26	1081.33
784.58	1085.77
784.91	1081.56
785.23	1088.35
785.56	1081.09
785.88	1077.58
786.21	1073.37
786.53	1079.22
786.86	1076.41
787.18	1070.80
787.51	1065.65
787.83	1058.86
788.16	1055.35
788.48	1048.09
788.81	1057.22
789.13	1064.48
789.46	1085.07
789.78	1079.22
790.10	1089.29
790.43	1086.94
790.75	1093.03
791.08	1083.67
791.40	1082.26
791.73	1085.54
792.05	1087.65
792.37	1085.31
792.70	1084.84
793.02	1096.78
793.35	1096.31
793.67	1092.80
793.99	1092.09
794.32	1094.67
794.64	1085.54
794.96	1078.75
795.29	1082.50
795.61	1074.54
795.93	1067.28
796.26	1066.35
796.58	1063.07
796.91	1056.99
797.23	1059.09
797.55	1066.58
797.87	1079.92
798.20	1080.86
798.52	1089.99
798.84	1090.22
799.17	1086.71
799.49	1079.69
799.81	1073.14
800.14	1067.28
800.46	1070.56
800.78	1067.52
801.10	1066.58
801.43	1080.63
801.75	1081.33
802.07	1088.35
802.40	1082.97
802.72	1085.07
803.04	1077.11
803.36	1073.14
803.69	1068.69
804.01	1083.90
804.33	1084.60
804.65	1079.69
804.97	1084.84
805.30	1080.63
805.62	1072.67
805.94	1068.69
806.26	1082.97
806.58	1081.09
806.91	1077.58
807.23	1076.88
807.55	1084.14
807.87	1078.28
808.19	1077.35
808.52	1084.14
808.84	1080.86
809.16	1073.60
809.48	1084.37
809.80	1086.24
810.12	1080.86
810.44	1084.60
810.77	1094.20
811.09	1083.90
811.41	1081.33
811.73	1084.14
812.05	1075.94
812.37	1073.84
812.69	1071.50
813.01	1070.56
813.33	1071.73
813.66	1077.35
813.98	1071.97
814.30	1082.50
814.62	1080.39
814.94	1086.71
815.26	1090.92
815.58	1085.54
815.90	1078.75
816.22	1082.50
816.54	1077.35
816.86	1089.29
817.18	1095.84
817.50	1094.67
817.82	1091.16
818.14	1099.58
818.46	1089.75
818.78	1094.20
819.10	1100.05
819.42	1103.80
819.74	1083.43
820.06	1083.20
820.38	1086.71
820.70	1083.43
821.02	1090.69
821.34	1102.63
821.66	1096.07
821.98	1089.29
822.30	1090.92
822.62	1092.56
822.94	1090.46
823.26	1098.65
823.58	1100.05
823.90	1094.20
824.22	1083.67
824.54	1074.77
824.86	1071.97
825.18	1072.67
825.50	1082.03
825.81	1087.41
826.13	1096.31
826.45	1092.80
826.77	1098.65
827.09	1087.41
827.41	1078.75
827.73	1075.71
828.05	1078.75
828.36	1071.03
828.68	1074.77
829.00	1078.28
829.32	1080.63
829.64	1081.80
829.96	1078.99
830.28	1072.90
830.59	1076.88
830.91	1089.05
831.23	1086.01
831.55	1081.80
831.87	1085.54
832.19	1073.60
832.50	1062.37
832.82	1064.71
833.14	1072.20
833.46	1078.52
833.78	1090.69
834.09	1087.88
834.41	1077.58
834.73	1079.69
835.05	1068.22
835.36	1073.37
835.68	1075.71
836.00	1078.99
836.32	1068.92
836.63	1083.43
836.95	1067.75
837.27	1064.94
837.59	1067.52
837.90	1068.22
838.22	1060.03
838.54	1069.86
838.85	1062.84
839.17	1064.71
839.49	1067.75
839.80	1063.77
840.12	1064.24
840.44	1068.45
840.76	1067.05
841.07	1071.50
841.39	1072.90
841.71	1068.92
842.02	1072.67
842.34	1072.20
842.65	1076.88
842.97	1080.16
843.29	1082.03
843.60	1073.37
843.92	1077.82
844.24	1071.50
844.55	1072.67
844.87	1074.54
845.18	1073.37
845.50	1071.97
845.82	1073.84
846.13	1074.31
846.45	1065.18
846.76	1076.18
847.08	1076.41
847.40	1071.03
847.71	1060.50
848.03	1074.31
848.34	1075.94
848.66	1074.31
848.97	1083.43
849.29	1101.46
849.60	1099.12
849.92	1095.84
850.24	1101.22
850.55	1089.75
850.87	1080.39
851.18	1075.48
851.50	1075.48
851.81	1068.22
852.13	1061.20
852.44	1067.99
852.76	1066.35
853.07	1062.14
853.39	1070.80
853.70	1079.92
854.01	1061.43
854.33	1066.58
854.64	1073.14
854.96	1059.79
855.27	1068.22
855.59	1083.67
855.90	1080.39
856.22	1078.75
856.53	1088.35
856.84	1084.84
857.16	1070.80
857.47	1072.43
857.79	1073.14
858.10	1056.99
858.41	1060.03
858.73	1075.24
859.04	1066.82
859.36	1064.48
859.67	1078.05
859.98	1069.16
860.30	1064.94
860.61	1070.56
860.92	1072.20
861.24	1064.48
861.55	1069.39
861.87	1064.71
862.18	1067.75
862.49	1067.05
862.81	1073.84
863.12	1070.80
863.43	1069.62
863.74	1057.92
864.06	1051.84
864.37	1054.41
864.68	1058.39
865.00	1069.39
865.31	1081.56
865.62	1089.99
865.94	1085.77
866.25	1080.86
866.56	1078.28
866.87	1073.84
867.19	1071.03
867.50	1073.37
867.81	1078.05
868.12	1078.75
868.44	1073.60
868.75	1067.99
869.06	1068.22
869.37	1065.88
869.68	1066.35
870.00	1067.75
870.31	1067.99
870.62	1061.90
870.93	1065.88
871.24	1064.71
871.56	1071.73
871.87	1076.88
872.18	1079.46
872.49	1074.31
872.80	1078.75
873.12	1075.01
873.43	1081.33
873.74	1086.71
874.05	1098.41
874.36	1090.46
874.67	1089.52
874.98	1080.86
875.29	1075.24
875.61	1065.41
875.92	1075.71
876.23	1077.35
876.54	1086.24
876.85	1092.80
877.16	1091.63
877.47	1085.07
877.78	1085.07
878.09	1077.58
878.40	1073.84
878.72	1079.46
879.03	1079.46
879.34	1071.73
879.65	1079.22
879.96	1078.05
880.27	1068.45
880.58	1065.18
880.89	1074.77
881.20	1068.92
881.51	1069.39
881.82	1078.75
882.13	1079.46
882.44	1083.67
882.75	1093.73
883.06	1092.33
883.37	1084.84
883.68	1084.60
883.99	1082.03
884.30	1080.16
884.61	1095.37
884.92	1096.54
885.23	1091.16
885.54	1092.80
885.85	1085.77
886.16	1079.69
886.47	1085.54
886.78	1094.20
887.08	1091.39
887.39	1100.99
887.70	1096.07
888.01	1101.46
888.32	1100.29
888.63	1097.48
888.94	1092.33
889.25	1095.14
889.56	1088.58
889.87	1088.82
890.17	1101.22
890.48	1092.09
890.79	1089.75
891.10	1092.56
891.41	1087.65
891.72	1071.50
892.03	1073.37
892.34	1064.94
892.64	1058.16
892.95	1054.88
893.26	1057.45
893.57	1064.01
893.88	1076.41
894.18	1071.50
894.49	1077.82
894.80	1073.37
895.11	1055.82
895.42	1053.01
895.72	1060.96
896.03	1061.43
896.34	1070.09
896.65	1083.67
896.96	1076.65
897.26	1078.28
897.57	1082.73
897.88	1087.88
898.19	1085.07
898.49	1090.92
898.80	1080.86
899.11	1072.90
899.41	1070.80
899.72	1080.16
900.03	1077.82
900.34	1091.63
900.64	1093.97
900.95	1089.52
901.26	1081.56
901.56	1085.77
901.87	1077.35
902.18	1080.63
902.48	1091.63
902.79	1093.50
903.10	1087.88
903.40	1089.99
903.71	1082.97
904.02	1069.39
904.32	1066.58
904.63	1076.65
904.94	1077.82
905.24	1081.33
905.55	1088.12
905.85	1086.71
906.16	1080.63
906.47	1077.11
906.77	1077.82
907.08	1076.88
907.38	1075.01
907.69	1071.97
908.00	1072.67
908.30	1071.73
908.61	1060.03
908.91	1060.73
909.22	1050.20
909.52	1059.79
909.83	1055.82
910.14	1057.92
910.44	1059.79
910.75	1071.97
911.05	1058.62
911.36	1068.45
911.66	1081.09
911.97	1077.35
912.27	1079.92
912.58	1088.12
912.88	1092.09
913.19	1093.26
913.49	1105.44
913.80	1104.26
914.10	1098.41
914.41	1099.58
914.71	1098.41
915.01	1100.52
915.32	1112.22
915.62	1113.39
915.93	1096.31
916.23	1100.52
916.54	1099.58
916.84	1090.69
917.15	1092.80
917.45	1104.26
917.75	1092.09
918.06	1090.92
918.36	1087.41
918.67	1087.88
918.97	1084.84
919.27	1091.63
919.58	1099.58
919.88	1102.86
920.18	1100.75
920.49	1101.69
920.79	1101.46
921.10	1082.73
921.40	1078.05
921.70	1081.56
922.01	1080.16
922.31	1078.05
922.61	1074.31
922.92	1078.05
923.22	1079.69
923.52	1072.90
923.82	1074.77
924.13	1076.65
924.43	1077.35
924.73	1062.37
925.04	1072.67
925.34	1071.97
925.64	1084.37
925.94	1082.97
926.25	1103.33
926.55	1100.52
926.85	1094.67
927.15	1086.71
927.46	1082.97
927.76	1063.31
928.06	1061.20
928.36	1072.43
928.67	1068.45
928.97	1077.58
929.27	1090.22
929.57	1093.50
929.87	1082.73
930.18	1090.92
930.48	1082.03
930.78	1076.88
931.08	1069.39
931.38	1074.54
931.69	1075.71
931.99	1070.56
932.29	1077.58
932.59	1087.41
932.89	1090.22
933.19	1092.09
933.49	1097.01
933.80	1096.07
934.10	1094.90
934.40	1087.18
934.70	1087.18
935.00	1089.29
935.30	1092.09
935.60	1088.82
935.90	1089.29
936.20	1079.92
936.50	1080.16
936.81	1082.50
937.11	1088.58
937.41	1087.88
937.71	1093.03
938.01	1086.71
938.31	1086.71
938.61	1086.24
938.91	1088.35
939.21	1084.37
939.51	1094.20
939.81	1091.63
940.11	1079.69
940.41	1082.26
940.71	1075.71
941.01	1063.31
941.31	1053.24
941.61	1061.67
941.91	1051.37
942.21	1054.41
942.51	1054.88
942.81	1058.62
943.11	1052.77
943.41	1056.52
943.71	1071.03
944.01	1073.60
944.31	1077.58
944.61	1083.43
944.90	1082.26
945.20	1082.97
945.50	1089.29
945.80	1091.16
946.10	1082.26
946.40	1082.97
946.70	1080.39
947.00	1081.09
947.30	1071.73
947.60	1072.43
947.89	1085.77
948.19	1079.92
948.49	1070.80
948.79	1070.09
949.09	1068.69
949.39	1058.62
949.69	1055.58
949.98	1062.60
950.28	1059.09
950.58	1064.24
950.88	1063.54
951.18	1066.58
951.48	1068.69
951.77	1075.24
952.07	1083.20
952.37	1094.43
952.67	1091.39
952.97	1085.07
953.26	1088.58
953.56	1085.54
953.86	1078.99
954.16	1082.73
954.45	1085.54
954.75	1085.77
955.05	1077.82
955.35	1071.03
955.64	1065.65
955.94	1063.77
956.24	1065.65
956.54	1066.35
956.83	1065.88
957.13	1060.26
957.43	1061.67
957.72	1059.33
958.02	1067.52
958.32	1077.11
958.61	1089.05
958.91	1090.69
959.21	1089.99
959.50	1083.67
959.80	1074.77
960.10	1076.88
960.39	1073.14
960.69	1074.07
960.99	1072.20
961.28	1074.77
961.58	1074.07
961.87	1082.03
962.17	1076.88
962.47	1093.50
962.76	1094.20
963.06	1084.14
963.36	1085.77
963.65	1091.86
963.95	1075.48
964.24	1067.99
964.54	1065.65
964.83	1063.31
965.13	1064.94
965.42	1070.33
965.72	1083.20
966.02	1092.56
966.31	1093.50
966.61	1081.33
966.90	1079.22
967.20	1078.99
967.49	1074.54
967.79	1068.69
968.08	1069.39
968.38	1072.90
968.67	1073.14
968.97	1075.01
969.26	1076.18
969.56	1074.77
969.85	1085.77
970.15	1086.71
970.44	1082.97
970.74	1082.73
971.03	1092.56
971.32	1073.60
971.62	1078.28
971.91	1079.69
972.21	1079.92
972.50	1080.16
972.80	1088.58
973.09	1076.88
973.38	1087.41
973.68	1096.78
973.97	1095.84
974.27	1084.37
974.56	1092.80
974.85	1086.01
975.15	1072.67
975.44	1071.26
975.73	1076.41
976.03	1065.65
976.32	1071.03
976.61	1072.43
976.91	1074.54
977.20	1076.88
977.49	1078.05
977.79	1075.01
978.08	1077.11
978.37	1080.39
978.67	1080.63
978.96	1079.92
979.25	1066.58
979.55	1065.18
979.84	1057.22
980.13	1062.37
980.42	1065.18
980.72	1081.33
981.01	1079.69
981.30	1077.58
981.59	1076.18
981.89	1070.80
982.18	1067.28
982.47	1067.05
982.76	1078.99
983.06	1071.73
983.35	1081.80
983.64	1083.90
983.93	1095.37
984.22	1086.24
984.52	1086.24
984.81	1082.03
985.10	1076.41
985.39	1074.54
985.68	1082.97
985.97	1089.99
986.27	1086.48
986.56	1096.54
986.85	1093.50
987.14	1086.24
987.43	1081.33
987.72	1084.14
988.01	1074.54
988.31	1077.35
988.60	1080.86
988.89	1089.52
989.18	1094.90
989.47	1092.80
989.76	1080.86
990.05	1073.60
990.34	1054.65
990.63	1050.20
990.92	1048.79
991.21	1056.75
991.51	1062.14
991.80	1075.24
992.09	1067.52
992.38	1071.50
992.67	1078.28
992.96	1077.35
993.25	1076.18
993.54	1091.86
993.83	1097.48
994.12	1088.82
994.41	1080.63
994.70	1079.22
994.99	1071.97
995.28	1061.20
995.57	1062.14
995.86	1066.11
996.15	1060.26
996.44	1057.45
996.73	1053.71
997.02	1050.67
997.31	1050.67
997.59	1053.48
997.88	1056.05
998.17	1062.84
998.46	1066.58
998.75	1075.48
999.04	1076.18
999.33	1075.24
999.62	1076.65
999.91	1076.18
1000.20	1067.05
1000.49	1080.39
1000.77	1082.97
1001.06	1091.86
1001.35	1086.48
1001.64	1087.88
1001.93	1078.28
1002.22	1071.03
1002.51	1066.35
1002.79	1066.58
1003.08	1069.16
1003.37	1064.48
1003.66	1078.28
1003.95	1067.52
1004.23	1071.26
1004.52	1072.43
1004.81	1085.77
1005.10	1073.84
1005.39	1091.39
1005.67	1091.86
1005.96	1092.56
1006.25	1075.24
1006.54	1072.67
1006.83	1066.35
1007.11	1065.18
1007.40	1073.60
1007.69	1076.88
1007.97	1081.09
1008.26	1080.39
1008.55	1082.97
1008.84	1080.16
1009.12	1089.05
1009.41	1090.69
1009.70	1085.31
1009.98	1083.43
1010.27	1078.05
1010.56	1066.35
1010.85	1061.67
1011.13	1066.58
1011.42	1066.35
1011.71	1058.16
1011.99	1070.56
1012.28	1070.56
1012.56	1073.60
1012.85	1071.26
1013.14	1085.31
1013.42	1086.01
1013.71	1086.24
1014.00	1079.22
1014.28	1082.26
1014.57	1064.01
1014.85	1059.33
1015.14	1066.35
1015.43	1063.54
1015.71	1064.01
1016.00	1073.60
1016.28	1075.71
1016.57	1066.35
1016.85	1073.84
1017.14	1073.37
1017.43	1083.90
1017.71	1072.90
1018.00	1073.84
1018.28	1074.07
1018.57	1065.88
1018.85	1050.90
1019.14	1058.16
1019.42	1060.03
1019.71	1059.56
1019.99	1072.90
1020.28	1077.82
1020.56	1078.52
1020.85	1079.92
1021.13	1083.43
1021.42	1083.90
1021.70	1081.33
1021.99	1077.11
1022.27	1076.65
1022.55	1055.58
1022.84	1062.60
>>>>>End Processed Spectral Data<<<<<
