SpectraSuite Data File
++++++++++++++++++++++++++++++++++++
Date: Mon Aug 26 10:24:48 PDT 2019
User: corrico
Dark Spectrum Present: No
Reference Spectrum Present: No
Number of Sampled Component Spectra: 1
Spectrometers: USB2+H06089
Integration Time (usec): 10000 (USB2+H06089)
Spectra Averaged: 2 (USB2+H06089)
Boxcar Smoothing: 2 (USB2+H06089)
Correct for Electrical Dark: No (USB2+H06089)
Strobe/Lamp Enabled: No (USB2+H06089)
Correct for Detector Non-linearity: No (USB2+H06089)
Correct for Stray Light: No (USB2+H06089)
Number of Pixels in Processed Spectrum: 2048
>>>>>Begin Processed Spectral Data<<<<<
339.70	1053.24
340.07	1053.24
340.45	1010.18
340.82	988.17
341.19	960.79
341.57	929.66
341.94	920.77
342.31	925.21
342.69	913.98
343.06	909.53
343.43	912.81
343.81	907.19
344.18	899.23
344.55	906.96
344.93	916.32
345.30	918.43
345.67	926.85
346.04	943.00
346.42	950.26
346.79	953.77
347.16	974.13
347.54	985.83
347.91	980.45
348.28	992.15
348.65	1009.94
349.03	1010.18
349.40	1017.20
349.77	1030.77
350.14	1036.39
350.52	1037.09
350.89	1041.30
351.26	1045.05
351.63	1048.56
352.01	1046.69
352.38	1052.54
352.75	1060.50
353.12	1062.14
353.50	1071.73
353.87	1091.63
354.24	1091.63
354.61	1092.09
354.98	1099.35
355.36	1099.82
355.73	1091.39
356.10	1095.37
356.47	1087.88
356.84	1089.29
357.22	1090.22
357.59	1090.46
357.96	1083.90
358.33	1092.80
358.70	1093.97
359.08	1095.37
359.45	1099.12
359.82	1106.37
360.19	1103.56
360.56	1097.95
360.94	1091.16
361.31	1088.58
361.68	1081.09
362.05	1077.82
362.42	1078.75
362.79	1072.43
363.16	1069.39
363.54	1068.45
363.91	1067.05
364.28	1066.82
364.65	1075.24
365.02	1073.14
365.39	1064.01
365.76	1067.28
366.14	1064.71
366.51	1068.45
366.88	1075.01
367.25	1089.75
367.62	1094.43
367.99	1099.58
368.36	1093.50
368.73	1090.22
369.10	1079.46
369.48	1077.58
369.85	1068.45
370.22	1074.31
370.59	1070.33
370.96	1083.20
371.33	1084.60
371.70	1094.43
372.07	1094.43
372.44	1104.73
372.81	1104.50
373.18	1092.33
373.55	1086.24
373.93	1078.05
374.30	1073.37
374.67	1069.86
375.04	1081.80
375.41	1089.05
375.78	1098.18
376.15	1094.90
376.52	1107.07
376.89	1094.90
377.26	1099.35
377.63	1093.26
378.00	1100.99
378.37	1096.54
378.74	1112.22
379.11	1107.31
379.48	1109.88
379.85	1095.84
380.22	1092.56
380.59	1084.60
380.96	1079.92
381.33	1077.82
381.70	1094.20
382.07	1096.31
382.44	1100.99
382.81	1103.56
383.18	1109.65
383.55	1102.16
383.92	1101.69
384.29	1098.88
384.66	1099.58
385.03	1103.09
385.40	1097.24
385.77	1101.69
386.14	1110.58
386.51	1106.84
386.88	1108.24
387.25	1111.29
387.62	1108.48
387.99	1108.01
388.36	1113.39
388.73	1100.75
389.10	1100.75
389.46	1099.35
389.83	1099.82
390.20	1098.65
390.57	1101.69
390.94	1110.12
391.31	1110.58
391.68	1100.29
392.05	1104.03
392.42	1106.84
392.79	1107.78
393.16	1105.20
393.53	1118.07
393.89	1119.71
394.26	1118.07
394.63	1108.48
395.00	1101.46
395.37	1087.88
395.74	1086.48
396.11	1089.05
396.48	1090.92
396.84	1104.97
397.21	1107.07
397.58	1111.99
397.95	1130.48
398.32	1141.01
398.69	1136.56
399.06	1148.03
399.42	1146.16
399.79	1148.73
400.16	1157.63
400.53	1165.12
400.90	1160.44
401.27	1155.99
401.64	1138.44
402.00	1141.48
402.37	1144.99
402.74	1158.10
403.11	1174.01
403.48	1192.97
403.84	1189.46
404.21	1199.06
404.58	1206.08
404.95	1216.61
405.32	1219.42
405.68	1232.76
406.05	1242.82
406.42	1258.04
406.79	1267.87
407.16	1282.38
407.52	1296.42
407.89	1308.13
408.26	1323.81
408.63	1338.55
408.99	1352.36
409.36	1383.02
409.73	1413.22
410.10	1442.71
410.47	1473.13
410.83	1506.13
411.20	1537.97
411.57	1569.10
411.94	1599.52
412.30	1650.55
412.67	1701.80
413.04	1750.95
413.40	1805.02
413.77	1869.62
414.14	1919.24
414.51	1993.43
414.87	2058.74
415.24	2125.67
415.61	2194.25
415.97	2276.87
416.34	2351.07
416.71	2429.24
417.08	2522.63
417.44	2622.34
417.81	2748.73
418.18	2874.65
418.54	3006.42
418.91	3162.77
419.28	3324.73
419.64	3458.61
420.01	3625.96
420.38	3793.54
420.74	3948.72
421.11	4137.36
421.48	4351.06
421.84	4549.53
422.21	4773.52
422.58	5028.64
422.94	5293.36
423.31	5540.52
423.68	5826.76
424.04	6140.16
424.41	6421.73
424.77	6695.57
425.14	7016.22
425.51	7341.79
425.87	7689.83
426.24	8068.76
426.61	8461.50
426.97	8947.40
427.34	9382.27
427.70	9857.17
428.07	10384.25
428.44	10934.98
428.80	11433.28
429.17	12009.76
429.53	12547.85
429.90	13134.62
430.27	13661.00
430.63	14237.01
431.00	14890.25
431.36	15629.40
431.73	16214.53
432.09	16906.86
432.46	17596.85
432.83	18170.28
433.19	18670.22
433.56	19361.61
433.92	20010.88
434.29	20609.59
434.65	21353.64
435.02	22082.02
435.38	22749.54
435.75	23314.78
436.11	23925.42
436.48	24355.15
436.84	24824.89
437.21	25255.08
437.57	25783.81
437.94	26267.83
438.30	26730.79
438.67	27022.89
439.03	27177.36
439.40	27278.01
439.76	27164.73
440.13	27042.08
440.49	26974.91
440.86	26830.26
441.22	26566.25
441.59	26272.98
441.95	25892.88
442.32	25410.03
442.68	24960.64
443.05	24419.04
443.41	23916.30
443.78	23295.35
444.14	22706.24
444.51	22066.10
444.87	21659.08
445.24	21173.66
445.60	20797.30
445.96	20350.72
446.33	19908.60
446.69	19292.33
447.06	18735.52
447.42	18196.96
447.79	17651.85
448.15	17187.72
448.51	16727.81
448.88	16323.13
449.24	15861.58
449.61	15522.43
449.97	15133.90
450.33	14739.52
450.70	14284.06
451.06	13947.72
451.43	13468.14
451.79	13098.11
452.15	12759.90
452.52	12482.08
452.88	12217.60
453.24	12002.74
453.61	11746.68
453.97	11485.94
454.34	11179.80
454.70	10894.02
455.06	10623.22
455.43	10276.36
455.79	9925.98
456.15	9658.69
456.52	9279.29
456.88	8985.32
457.24	8727.86
457.61	8519.78
457.97	8281.75
458.33	8059.87
458.70	7795.15
459.06	7527.16
459.42	7280.70
459.79	7006.63
460.15	6800.89
460.51	6591.18
460.88	6386.15
461.24	6181.35
461.60	5992.71
461.96	5819.04
462.33	5651.46
462.69	5530.45
463.05	5367.32
463.42	5226.88
463.78	5083.18
464.14	4930.57
464.50	4788.03
464.87	4679.20
465.23	4579.73
465.59	4452.87
465.95	4356.44
466.32	4262.35
466.68	4167.32
467.04	4087.75
467.40	4011.91
467.77	3937.02
468.13	3862.82
468.49	3790.73
468.85	3713.73
469.22	3648.19
469.58	3596.47
469.94	3530.70
470.30	3461.89
470.66	3386.52
471.03	3331.28
471.39	3264.81
471.75	3202.56
472.11	3147.32
472.47	3100.74
472.84	3017.42
473.20	2939.95
473.56	2873.71
473.92	2822.69
474.28	2788.51
474.65	2757.15
475.01	2734.45
475.37	2692.08
475.73	2634.27
476.09	2586.06
476.45	2549.31
476.81	2489.86
477.18	2458.26
477.54	2439.07
477.90	2400.45
478.26	2353.17
478.62	2319.24
478.98	2295.36
479.34	2269.15
479.71	2252.06
480.07	2233.81
480.43	2220.00
480.79	2193.55
481.15	2155.63
481.51	2120.76
481.87	2090.57
482.23	2068.57
482.59	2043.52
482.96	2024.33
483.32	2010.29
483.68	1992.50
484.04	1977.52
484.40	1953.41
484.76	1923.69
485.12	1884.83
485.48	1865.88
485.84	1836.38
486.20	1812.04
486.56	1795.66
486.92	1785.13
487.28	1772.49
487.64	1765.70
488.00	1755.17
488.37	1745.34
488.73	1734.34
489.09	1707.65
489.45	1675.82
489.81	1666.23
490.17	1662.72
490.53	1638.84
490.89	1638.38
491.25	1631.35
491.61	1615.44
491.97	1588.29
492.33	1578.93
492.69	1552.95
493.05	1547.09
493.41	1537.26
493.77	1542.41
494.13	1511.05
494.49	1501.45
494.85	1491.39
495.21	1464.94
495.57	1440.60
495.93	1440.13
496.29	1428.66
496.64	1409.70
497.00	1403.62
497.36	1396.36
497.72	1398.24
498.08	1391.92
498.44	1382.55
498.80	1373.19
499.16	1360.79
499.52	1345.57
499.88	1337.62
500.24	1338.79
500.60	1345.11
500.96	1341.13
501.32	1329.89
501.68	1321.93
502.03	1307.66
502.39	1295.02
502.75	1279.10
503.11	1271.38
503.47	1271.61
503.83	1267.87
504.19	1250.31
504.55	1251.25
504.91	1252.19
505.26	1236.04
505.62	1230.89
505.98	1238.14
506.34	1234.87
506.70	1235.10
507.06	1235.33
507.42	1224.57
507.78	1210.29
508.13	1206.08
508.49	1189.93
508.85	1190.86
509.21	1190.63
509.57	1194.84
509.93	1187.59
510.28	1200.23
510.64	1196.95
511.00	1199.52
511.36	1188.52
511.72	1195.08
512.07	1186.89
512.43	1179.63
512.79	1177.06
513.15	1180.10
513.51	1173.08
513.86	1167.46
514.22	1172.84
514.58	1170.27
514.94	1178.69
515.30	1169.33
515.65	1176.82
516.01	1162.78
516.37	1156.93
516.73	1141.48
517.08	1144.52
517.44	1145.69
517.80	1157.63
518.16	1164.88
518.51	1168.86
518.87	1163.48
519.23	1154.82
519.59	1151.08
519.94	1145.69
520.30	1148.97
520.66	1151.54
521.01	1147.33
521.37	1137.97
521.73	1131.18
522.09	1133.52
522.44	1126.73
522.80	1131.18
523.16	1140.54
523.51	1148.50
523.87	1144.99
524.23	1146.16
524.58	1136.10
524.94	1125.80
525.30	1108.01
525.65	1111.99
526.01	1109.88
526.37	1105.67
526.72	1105.44
527.08	1111.52
527.44	1102.86
527.79	1105.90
528.15	1111.05
528.51	1123.93
528.86	1130.95
529.22	1135.39
529.58	1139.61
529.93	1140.54
530.29	1132.12
530.65	1127.44
531.00	1121.58
531.36	1128.84
531.71	1126.27
532.07	1121.12
532.43	1131.65
532.78	1127.44
533.14	1115.73
533.49	1116.20
533.85	1119.24
534.21	1104.73
534.56	1098.18
534.92	1093.26
535.27	1089.99
535.63	1092.56
535.98	1100.29
536.34	1115.97
536.69	1120.88
537.05	1120.88
537.41	1120.18
537.76	1108.01
538.12	1097.24
538.47	1090.69
538.83	1087.41
539.18	1090.69
539.54	1094.90
539.89	1104.03
540.25	1105.20
540.60	1110.12
540.96	1100.05
541.31	1106.37
541.67	1099.82
542.02	1104.73
542.38	1114.33
542.73	1115.97
543.09	1111.52
543.44	1114.33
543.80	1119.01
544.15	1110.35
544.51	1111.05
544.86	1111.05
545.22	1101.22
545.57	1097.48
545.93	1089.75
546.28	1092.09
546.64	1086.01
546.99	1101.92
547.35	1097.48
547.70	1108.71
548.05	1108.01
548.41	1115.27
548.76	1102.16
549.12	1110.35
549.47	1100.52
549.83	1099.82
550.18	1092.33
550.53	1099.58
550.89	1100.05
551.24	1104.73
551.60	1100.52
551.95	1111.99
552.30	1105.90
552.66	1095.37
553.01	1097.95
553.37	1099.82
553.72	1095.60
554.07	1090.69
554.43	1090.92
554.78	1087.41
555.13	1097.01
555.49	1104.97
555.84	1118.07
556.19	1118.07
556.55	1116.44
556.90	1108.71
557.26	1104.50
557.61	1094.67
557.96	1097.71
558.32	1099.58
558.67	1097.24
559.02	1089.75
559.37	1088.82
559.73	1089.52
560.08	1098.88
560.43	1100.05
560.79	1106.84
561.14	1110.12
561.49	1115.27
561.85	1105.67
562.20	1102.86
562.55	1102.39
562.90	1103.33
563.26	1100.52
563.61	1107.78
563.96	1111.52
564.32	1107.07
564.67	1103.80
565.02	1091.39
565.37	1079.69
565.73	1095.84
566.08	1087.65
566.43	1093.03
566.78	1107.07
567.14	1109.41
567.49	1086.01
567.84	1088.82
568.19	1090.69
568.54	1079.92
568.90	1092.33
569.25	1106.61
569.60	1112.69
569.95	1112.92
570.31	1116.44
570.66	1108.24
571.01	1099.82
571.36	1108.48
571.71	1106.37
572.06	1101.92
572.42	1098.18
572.77	1090.46
573.12	1082.03
573.47	1079.22
573.82	1085.07
574.18	1089.75
574.53	1098.41
574.88	1101.69
575.23	1091.16
575.58	1085.54
575.93	1084.14
576.28	1076.88
576.64	1070.09
576.99	1084.60
577.34	1082.26
577.69	1086.24
578.04	1097.01
578.39	1099.82
578.74	1092.09
579.09	1099.82
579.44	1096.07
579.80	1081.33
580.15	1078.99
580.50	1078.75
580.85	1075.71
581.20	1073.14
581.55	1078.75
581.90	1076.88
582.25	1083.20
582.60	1090.46
582.95	1098.18
583.30	1113.63
583.65	1113.39
584.00	1108.01
584.35	1100.75
584.71	1097.71
585.06	1091.86
585.41	1093.50
585.76	1093.50
586.11	1098.18
586.46	1091.86
586.81	1085.31
587.16	1092.56
587.51	1098.18
587.86	1092.56
588.21	1100.75
588.56	1104.03
588.91	1105.20
589.26	1107.78
589.61	1118.31
589.96	1111.75
590.31	1106.14
590.66	1101.69
591.01	1091.16
591.36	1088.12
591.71	1089.99
592.06	1092.80
592.41	1096.31
592.76	1109.65
593.10	1104.26
593.45	1112.22
593.80	1109.65
594.15	1109.41
594.50	1106.14
594.85	1111.29
595.20	1104.50
595.55	1104.50
595.90	1100.52
596.25	1096.78
596.60	1094.43
596.95	1098.88
597.30	1105.90
597.64	1159.97
597.99	1161.84
598.34	1159.03
598.69	1147.33
599.04	1142.88
599.39	1098.18
599.74	1087.18
600.09	1092.33
600.44	1094.90
600.78	1087.65
601.13	1079.22
601.48	1093.97
601.83	1095.60
602.18	1101.22
602.53	1102.16
602.88	1100.99
603.22	1096.78
603.57	1096.31
603.92	1089.05
604.27	1094.67
604.62	1100.75
604.97	1092.80
605.31	1083.67
605.66	1089.75
606.01	1087.65
606.36	1083.43
606.71	1082.03
607.05	1088.58
607.40	1089.05
607.75	1089.75
608.10	1082.26
608.44	1093.50
608.79	1089.05
609.14	1089.52
609.49	1090.92
609.84	1098.18
610.18	1082.26
610.53	1081.09
610.88	1080.63
611.23	1097.01
611.57	1091.63
611.92	1103.80
612.27	1105.44
612.62	1099.82
612.96	1083.90
613.31	1084.84
613.66	1089.29
614.00	1092.09
614.35	1088.58
614.70	1097.01
615.05	1091.86
615.39	1085.07
615.74	1084.84
616.09	1100.29
616.43	1087.41
616.78	1101.92
617.13	1096.31
617.47	1092.09
617.82	1077.58
618.17	1080.16
618.51	1074.54
618.86	1082.50
619.21	1089.52
619.55	1093.50
619.90	1097.01
620.25	1090.22
620.59	1091.63
620.94	1097.48
621.29	1106.37
621.63	1103.56
621.98	1098.41
622.32	1093.50
622.67	1081.80
623.02	1072.20
623.36	1072.43
623.71	1070.33
624.05	1066.82
624.40	1068.92
624.75	1078.28
625.09	1073.84
625.44	1080.16
625.78	1085.54
626.13	1078.52
626.48	1069.62
626.82	1070.80
627.17	1071.97
627.51	1074.07
627.86	1083.43
628.20	1086.71
628.55	1086.24
628.89	1092.09
629.24	1092.80
629.58	1094.20
629.93	1088.82
630.28	1100.29
630.62	1102.86
630.97	1096.78
631.31	1095.37
631.66	1097.48
632.00	1086.71
632.35	1079.46
632.69	1077.82
633.04	1072.90
633.38	1068.69
633.73	1073.14
634.07	1073.60
634.42	1082.50
634.76	1083.67
635.11	1093.26
635.45	1096.31
635.79	1091.16
636.14	1087.18
636.48	1082.97
636.83	1097.48
637.17	1086.94
637.52	1091.86
637.86	1096.07
638.21	1099.58
638.55	1078.52
638.89	1080.63
639.24	1096.31
639.58	1085.31
639.93	1089.75
640.27	1107.07
640.61	1111.29
640.96	1093.26
641.30	1098.41
641.65	1095.37
641.99	1082.97
642.33	1078.75
642.68	1081.56
643.02	1088.35
643.37	1088.58
643.71	1082.50
644.05	1093.73
644.40	1087.88
644.74	1089.75
645.08	1093.73
645.43	1099.58
645.77	1105.20
646.11	1115.27
646.46	1110.35
646.80	1102.39
647.14	1107.54
647.49	1099.12
647.83	1095.84
648.17	1090.22
648.52	1089.75
648.86	1086.94
649.20	1083.90
649.55	1089.99
649.89	1086.24
650.23	1098.88
650.57	1103.33
650.92	1106.61
651.26	1102.16
651.60	1105.90
651.95	1095.84
652.29	1089.52
652.63	1082.26
652.97	1082.03
653.32	1086.24
653.66	1089.52
654.00	1084.60
654.34	1088.82
654.69	1089.29
655.03	1089.75
655.37	1085.07
655.71	1088.58
656.05	1087.88
656.40	1083.43
656.74	1080.16
657.08	1097.24
657.42	1094.90
657.76	1107.54
658.11	1111.75
658.45	1105.90
658.79	1092.33
659.13	1093.50
659.47	1078.99
659.82	1082.50
660.16	1087.41
660.50	1084.60
660.84	1092.56
661.18	1097.95
661.52	1096.07
661.87	1095.37
662.21	1103.09
662.55	1099.58
662.89	1089.99
663.23	1090.92
663.57	1098.65
663.91	1095.37
664.25	1084.60
664.60	1087.88
664.94	1083.43
665.28	1078.99
665.62	1067.52
665.96	1085.31
666.30	1087.41
666.64	1090.22
666.98	1090.69
667.32	1107.54
667.66	1093.50
668.01	1093.03
668.35	1093.97
668.69	1090.92
669.03	1081.80
669.37	1086.48
669.71	1083.90
670.05	1083.67
670.39	1093.26
670.73	1095.37
671.07	1093.97
671.41	1105.20
671.75	1099.82
672.09	1091.86
672.43	1092.33
672.77	1094.20
673.11	1097.71
673.45	1103.80
673.79	1095.60
674.13	1097.24
674.47	1097.24
674.81	1080.16
675.15	1079.92
675.49	1096.31
675.83	1088.35
676.17	1087.88
676.51	1091.63
676.85	1089.52
677.19	1076.88
677.53	1081.80
677.87	1085.31
678.21	1085.77
678.55	1083.90
678.89	1090.92
679.23	1094.43
679.57	1097.48
679.90	1102.63
680.24	1108.95
680.58	1103.33
680.92	1099.58
681.26	1089.99
681.60	1080.39
681.94	1075.24
682.28	1085.07
682.62	1089.75
682.96	1093.03
683.29	1095.84
683.63	1086.24
683.97	1082.03
684.31	1075.71
684.65	1072.67
684.99	1074.07
685.33	1078.99
685.67	1073.37
686.00	1074.54
686.34	1077.11
686.68	1075.94
687.02	1075.94
687.36	1073.60
687.70	1077.35
688.03	1073.37
688.37	1074.54
688.71	1083.20
689.05	1089.29
689.39	1090.92
689.72	1103.33
690.06	1106.84
690.40	1093.26
690.74	1091.86
691.08	1081.80
691.41	1076.65
691.75	1073.60
692.09	1089.52
692.43	1092.33
692.76	1103.09
693.10	1094.90
693.44	1097.95
693.78	1093.26
694.11	1084.14
694.45	1078.99
694.79	1082.03
695.13	1081.33
695.46	1068.69
695.80	1072.90
696.14	1080.39
696.48	1084.84
696.81	1089.52
697.15	1097.48
697.49	1096.07
697.82	1089.75
698.16	1090.69
698.50	1083.20
698.83	1084.60
699.17	1078.05
699.51	1077.11
699.84	1075.01
700.18	1079.69
700.52	1080.39
700.85	1090.92
701.19	1090.69
701.53	1090.69
701.86	1081.80
702.20	1085.77
702.54	1084.60
702.87	1081.33
703.21	1071.50
703.55	1081.56
703.88	1071.73
704.22	1070.80
704.55	1074.31
704.89	1082.03
705.23	1076.41
705.56	1088.58
705.90	1094.67
706.23	1088.58
706.57	1089.05
706.91	1093.26
707.24	1090.46
707.58	1092.56
707.91	1097.01
708.25	1095.60
708.58	1089.29
708.92	1084.14
709.26	1076.18
709.59	1079.46
709.93	1081.33
710.26	1083.90
710.60	1085.07
710.93	1090.46
711.27	1081.80
711.60	1088.35
711.94	1091.86
712.27	1093.73
712.61	1093.97
712.94	1106.37
713.28	1096.31
713.61	1098.65
713.95	1099.58
714.28	1097.95
714.62	1095.37
714.95	1097.48
715.29	1090.92
715.62	1093.73
715.96	1094.20
716.29	1098.65
716.63	1100.99
716.96	1089.05
717.29	1085.07
717.63	1083.90
717.96	1070.09
718.30	1075.01
718.63	1088.35
718.97	1087.88
719.30	1086.48
719.63	1083.43
719.97	1080.16
720.30	1083.90
720.64	1075.94
720.97	1077.35
721.30	1089.05
721.64	1092.33
721.97	1092.09
722.31	1107.07
722.64	1103.56
722.97	1094.20
723.31	1087.18
723.64	1082.03
723.97	1071.50
724.31	1074.54
724.64	1072.90
724.98	1061.90
725.31	1054.88
725.64	1062.84
725.98	1059.33
726.31	1074.31
726.64	1083.90
726.97	1098.65
727.31	1098.41
727.64	1102.63
727.97	1100.99
728.31	1101.46
728.64	1097.01
728.97	1082.26
729.31	1075.71
729.64	1071.73
729.97	1073.37
730.30	1068.92
730.64	1073.14
730.97	1073.84
731.30	1073.37
731.63	1076.65
731.97	1082.26
732.30	1084.14
732.63	1086.24
732.96	1086.48
733.30	1072.67
733.63	1067.05
733.96	1076.88
734.29	1076.88
734.63	1081.56
734.96	1097.48
735.29	1100.99
735.62	1091.86
735.95	1099.12
736.29	1092.33
736.62	1085.54
736.95	1088.82
737.28	1104.26
737.61	1104.03
737.94	1112.22
738.28	1104.97
738.61	1098.65
738.94	1084.84
739.27	1078.52
739.60	1068.92
739.93	1069.62
740.27	1074.54
740.60	1075.48
740.93	1083.43
741.26	1089.52
741.59	1098.65
741.92	1097.71
742.25	1104.50
742.58	1106.14
742.91	1093.03
743.25	1079.92
743.58	1071.97
743.91	1059.79
744.24	1051.60
744.57	1048.33
744.90	1068.92
745.23	1075.71
745.56	1076.18
745.89	1076.65
746.22	1094.90
746.55	1089.75
746.88	1086.48
747.21	1089.05
747.54	1079.46
747.87	1069.39
748.20	1059.56
748.53	1064.94
748.87	1067.99
749.20	1082.73
749.53	1097.95
749.86	1105.67
750.19	1108.95
750.52	1110.82
750.85	1106.61
751.18	1100.29
751.51	1099.12
751.84	1089.99
752.16	1093.97
752.49	1090.22
752.82	1082.97
753.15	1086.24
753.48	1086.48
753.81	1077.11
754.14	1073.37
754.47	1083.90
754.80	1076.41
755.13	1076.65
755.46	1079.46
755.79	1081.09
756.12	1071.03
756.45	1075.24
756.78	1066.35
757.11	1069.62
757.43	1080.39
757.76	1082.73
758.09	1076.18
758.42	1081.09
758.75	1075.01
759.08	1079.69
759.41	1074.07
759.74	1078.52
760.07	1081.33
760.39	1088.82
760.72	1079.69
761.05	1089.99
761.38	1090.69
761.71	1095.84
762.04	1098.18
762.36	1091.16
762.69	1087.65
763.02	1090.46
763.35	1089.29
763.68	1084.14
764.01	1090.22
764.33	1086.48
764.66	1074.77
764.99	1076.88
765.32	1089.29
765.65	1087.18
765.97	1093.73
766.30	1106.14
766.63	1096.31
766.96	1082.26
767.28	1081.33
767.61	1080.86
767.94	1070.80
768.27	1084.60
768.59	1094.20
768.92	1100.29
769.25	1089.29
769.58	1094.20
769.90	1084.60
770.23	1074.54
770.56	1059.09
770.89	1064.01
771.21	1056.05
771.54	1059.09
771.87	1056.52
772.19	1071.03
772.52	1072.90
772.85	1083.67
773.17	1081.56
773.50	1093.26
773.83	1084.37
774.15	1083.43
774.48	1083.43
774.81	1090.69
775.13	1079.46
775.46	1072.67
775.79	1080.86
776.11	1086.24
776.44	1087.88
776.77	1087.65
777.09	1104.97
777.42	1099.58
777.74	1095.84
778.07	1093.50
778.40	1091.63
778.72	1096.78
779.05	1091.63
779.37	1089.05
779.70	1087.65
780.03	1090.46
780.35	1074.77
780.68	1080.86
781.00	1081.09
781.33	1074.07
781.65	1071.50
781.98	1078.05
782.31	1078.75
782.63	1072.43
782.96	1082.26
783.28	1089.29
783.61	1093.73
783.93	1088.58
784.26	1098.18
784.58	1085.31
784.91	1084.60
785.23	1077.58
785.56	1093.73
785.88	1095.14
786.21	1105.20
786.53	1102.16
786.86	1096.54
787.18	1082.26
787.51	1067.28
787.83	1059.33
788.16	1062.14
788.48	1070.80
788.81	1071.03
789.13	1075.48
789.46	1075.94
789.78	1069.86
790.10	1065.41
790.43	1072.43
790.75	1075.48
791.08	1082.03
791.40	1081.33
791.73	1092.09
792.05	1092.56
792.37	1087.18
792.70	1091.39
793.02	1095.84
793.35	1083.90
793.67	1075.71
793.99	1077.11
794.32	1067.99
794.64	1065.41
794.96	1071.73
795.29	1075.71
795.61	1082.03
795.93	1084.37
796.26	1092.09
796.58	1088.35
796.91	1074.31
797.23	1073.84
797.55	1075.48
797.87	1064.71
798.20	1062.37
798.52	1076.88
798.84	1080.39
799.17	1086.48
799.49	1097.24
799.81	1100.05
800.14	1098.41
800.46	1086.24
800.78	1073.37
801.10	1063.77
801.43	1071.26
801.75	1057.45
802.07	1062.14
802.40	1062.60
802.72	1061.90
803.04	1051.13
803.36	1058.86
803.69	1071.50
804.01	1083.43
804.33	1084.60
804.65	1086.94
804.97	1092.33
805.30	1079.22
805.62	1068.45
805.94	1072.67
806.26	1071.26
806.58	1065.41
806.91	1060.96
807.23	1061.90
807.55	1069.39
807.87	1069.86
808.19	1074.54
808.52	1084.37
808.84	1087.88
809.16	1081.80
809.48	1084.84
809.80	1080.16
810.12	1087.41
810.44	1092.80
810.77	1094.20
811.09	1097.71
811.41	1101.22
811.73	1085.77
812.05	1081.33
812.37	1087.88
812.69	1083.20
813.01	1078.28
813.33	1086.01
813.66	1086.71
813.98	1076.65
814.30	1082.03
814.62	1093.26
814.94	1097.01
815.26	1094.90
815.58	1100.29
815.90	1100.75
816.22	1105.90
816.54	1105.20
816.86	1101.46
817.18	1093.73
817.50	1098.41
817.82	1102.86
818.14	1108.01
818.46	1111.05
818.78	1115.97
819.10	1093.97
819.42	1077.11
819.74	1060.26
820.06	1055.11
820.38	1041.30
820.70	1058.39
821.02	1062.60
821.34	1062.84
821.66	1069.16
821.98	1077.58
822.30	1071.03
822.62	1066.35
822.94	1067.75
823.26	1059.09
823.58	1054.18
823.90	1057.45
824.22	1064.24
824.54	1066.35
824.86	1074.31
825.18	1066.58
825.50	1064.24
825.81	1055.11
826.13	1061.90
826.45	1061.67
826.77	1078.05
827.09	1077.58
827.41	1077.35
827.73	1072.90
828.05	1077.58
828.36	1075.01
828.68	1066.35
829.00	1073.37
829.32	1068.69
829.64	1072.20
829.96	1076.41
830.28	1082.97
830.59	1085.54
830.91	1092.33
831.23	1078.75
831.55	1072.20
831.87	1078.52
832.19	1075.24
832.50	1081.33
832.82	1090.46
833.14	1096.54
833.46	1091.16
833.78	1098.41
834.09	1094.90
834.41	1089.05
834.73	1084.37
835.05	1090.22
835.36	1081.80
835.68	1078.99
836.00	1083.90
836.32	1079.22
836.63	1064.48
836.95	1064.01
837.27	1066.82
837.59	1066.35
837.90	1074.07
838.22	1083.67
838.54	1082.26
838.85	1076.41
839.17	1079.92
839.49	1082.26
839.80	1084.37
840.12	1093.50
840.44	1090.22
840.76	1089.05
841.07	1093.50
841.39	1092.33
841.71	1090.22
842.02	1089.75
842.34	1084.60
842.65	1078.05
842.97	1082.26
843.29	1082.97
843.60	1083.67
843.92	1082.50
844.24	1082.26
844.55	1077.11
844.87	1078.52
845.18	1092.33
845.50	1099.12
845.82	1090.69
846.13	1094.43
846.45	1088.82
846.76	1082.26
847.08	1069.86
847.40	1080.86
847.71	1079.22
848.03	1067.99
848.34	1059.09
848.66	1061.90
848.97	1060.73
849.29	1055.35
849.60	1059.33
849.92	1064.71
850.24	1066.82
850.55	1069.62
850.87	1072.90
851.18	1076.65
851.50	1080.86
851.81	1081.56
852.13	1077.11
852.44	1067.99
852.76	1071.50
853.07	1067.75
853.39	1060.96
853.70	1054.18
854.01	1062.60
854.33	1061.90
854.64	1065.65
854.96	1074.07
855.27	1075.24
855.59	1074.77
855.90	1073.14
856.22	1072.90
856.53	1070.56
856.84	1073.14
857.16	1076.88
857.47	1076.88
857.79	1075.71
858.10	1074.54
858.41	1076.18
858.73	1079.69
859.04	1076.88
859.36	1074.07
859.67	1074.31
859.98	1065.88
860.30	1063.31
860.61	1067.99
860.92	1063.54
861.24	1071.03
861.55	1087.88
861.87	1088.35
862.18	1089.29
862.49	1101.46
862.81	1089.29
863.12	1077.11
863.43	1075.48
863.74	1076.88
864.06	1070.80
864.37	1071.73
864.68	1075.71
865.00	1078.99
865.31	1076.18
865.62	1076.88
865.94	1082.26
866.25	1081.33
866.56	1080.39
866.87	1072.67
867.19	1074.31
867.50	1075.94
867.81	1076.18
868.12	1072.90
868.44	1078.99
868.75	1081.33
869.06	1082.73
869.37	1086.94
869.68	1083.43
870.00	1089.05
870.31	1075.71
870.62	1076.65
870.93	1067.99
871.24	1071.03
871.56	1069.16
871.87	1075.01
872.18	1069.62
872.49	1070.33
872.80	1071.03
873.12	1063.07
873.43	1060.03
873.74	1069.16
874.05	1076.88
874.36	1081.56
874.67	1086.48
874.98	1090.22
875.29	1082.97
875.61	1076.41
875.92	1064.94
876.23	1058.62
876.54	1070.09
876.85	1075.48
877.16	1083.20
877.47	1083.90
877.78	1087.18
878.09	1072.90
878.40	1071.73
878.72	1071.97
879.03	1070.09
879.34	1071.73
879.65	1080.86
879.96	1072.90
880.27	1081.56
880.58	1090.46
880.89	1092.09
881.20	1080.63
881.51	1085.77
881.82	1075.01
882.13	1075.94
882.44	1075.24
882.75	1077.11
883.06	1085.54
883.37	1078.99
883.68	1080.16
883.99	1079.92
884.30	1077.35
884.61	1079.46
884.92	1083.20
885.23	1084.60
885.54	1083.90
885.85	1088.82
886.16	1074.07
886.47	1070.56
886.78	1071.26
887.08	1070.80
887.39	1072.67
887.70	1084.84
888.01	1092.09
888.32	1089.29
888.63	1091.39
888.94	1096.54
889.25	1083.20
889.56	1085.54
889.87	1086.94
890.17	1081.56
890.48	1073.60
890.79	1070.09
891.10	1068.45
891.41	1063.07
891.72	1062.37
892.03	1060.50
892.34	1062.14
892.64	1063.77
892.95	1067.28
893.26	1074.77
893.57	1077.11
893.88	1083.90
894.18	1084.37
894.49	1088.12
894.80	1090.22
895.11	1086.71
895.42	1088.35
895.72	1086.48
896.03	1073.37
896.34	1070.56
896.65	1068.22
896.96	1065.41
897.26	1069.62
897.57	1084.37
897.88	1088.12
898.19	1094.90
898.49	1091.16
898.80	1077.35
899.11	1063.07
899.41	1064.94
899.72	1067.52
900.03	1070.56
900.34	1079.46
900.64	1088.12
900.95	1082.50
901.26	1080.16
901.56	1075.48
901.87	1077.11
902.18	1074.07
902.48	1072.90
902.79	1071.73
903.10	1076.88
903.40	1070.09
903.71	1065.65
904.02	1070.56
904.32	1077.11
904.63	1077.11
904.94	1072.43
905.24	1071.26
905.55	1060.73
905.85	1056.75
906.16	1070.09
906.47	1074.77
906.77	1073.60
907.08	1078.28
907.38	1079.46
907.69	1061.43
908.00	1060.50
908.30	1069.39
908.61	1076.65
908.91	1075.48
909.22	1086.71
909.52	1092.56
909.83	1088.58
910.14	1081.56
910.44	1081.56
910.75	1084.60
911.05	1081.56
911.36	1077.58
911.66	1079.92
911.97	1081.80
912.27	1078.52
912.58	1082.50
912.88	1095.84
913.19	1089.75
913.49	1088.82
913.80	1091.63
914.10	1086.48
914.41	1072.20
914.71	1070.56
915.01	1066.82
915.32	1056.52
915.62	1056.75
915.93	1064.48
916.23	1064.71
916.54	1065.88
916.84	1068.22
917.15	1073.37
917.45	1074.07
917.75	1088.35
918.06	1093.50
918.36	1096.07
918.67	1093.73
918.97	1091.86
919.27	1077.82
919.58	1071.03
919.88	1066.82
920.18	1080.16
920.49	1081.56
920.79	1096.07
921.10	1101.92
921.40	1101.22
921.70	1086.94
922.01	1084.37
922.31	1076.18
922.61	1074.07
922.92	1074.54
923.22	1073.60
923.52	1078.99
923.82	1076.65
924.13	1067.52
924.43	1068.45
924.73	1070.80
925.04	1081.80
925.34	1089.05
925.64	1091.86
925.94	1086.94
926.25	1089.75
926.55	1075.71
926.85	1070.56
927.15	1070.80
927.46	1084.37
927.76	1077.58
928.06	1081.09
928.36	1071.73
928.67	1071.73
928.97	1060.50
929.27	1065.41
929.57	1060.50
929.87	1066.11
930.18	1073.60
930.48	1078.52
930.78	1075.01
931.08	1069.16
931.38	1060.96
931.69	1067.28
931.99	1064.94
932.29	1067.52
932.59	1077.58
932.89	1086.94
933.19	1087.18
933.49	1098.65
933.80	1109.18
934.10	1110.35
934.40	1106.37
934.70	1092.09
935.00	1075.01
935.30	1066.58
935.60	1060.26
935.90	1061.90
936.20	1066.11
936.50	1065.65
936.81	1055.35
937.11	1064.48
937.41	1065.41
937.71	1073.14
938.01	1074.54
938.31	1082.50
938.61	1076.41
938.91	1080.63
939.21	1085.07
939.51	1093.03
939.81	1089.99
940.11	1093.50
940.41	1089.75
940.71	1086.48
941.01	1079.22
941.31	1083.90
941.61	1089.75
941.91	1089.52
942.21	1076.65
942.51	1085.77
942.81	1085.54
943.11	1069.39
943.41	1075.24
943.71	1084.14
944.01	1071.97
944.31	1063.77
944.61	1067.28
944.90	1063.31
945.20	1055.35
945.50	1047.86
945.80	1047.39
946.10	1050.90
946.40	1049.03
946.70	1056.28
947.00	1072.43
947.30	1076.88
947.60	1067.52
947.89	1069.16
948.19	1063.77
948.49	1067.99
948.79	1068.22
949.09	1078.99
949.39	1075.48
949.69	1082.03
949.98	1083.20
950.28	1085.77
950.58	1091.39
950.88	1088.82
951.18	1095.37
951.48	1093.03
951.77	1096.54
952.07	1087.65
952.37	1095.84
952.67	1081.80
952.97	1075.71
953.26	1069.16
953.56	1068.45
953.86	1061.67
954.16	1066.35
954.45	1071.26
954.75	1075.24
955.05	1075.01
955.35	1074.77
955.64	1076.41
955.94	1073.37
956.24	1067.99
956.54	1068.45
956.83	1076.41
957.13	1072.20
957.43	1071.73
957.72	1077.58
958.02	1075.01
958.32	1077.35
958.61	1085.77
958.91	1087.41
959.21	1084.37
959.50	1085.07
959.80	1082.73
960.10	1078.99
960.39	1073.37
960.69	1075.94
960.99	1083.90
961.28	1081.56
961.58	1073.60
961.87	1074.54
962.17	1074.77
962.47	1071.97
962.76	1078.99
963.06	1082.03
963.36	1088.58
963.65	1085.07
963.95	1085.77
964.24	1081.09
964.54	1082.97
964.83	1078.75
965.13	1088.82
965.42	1094.90
965.72	1091.16
966.02	1095.60
966.31	1092.33
966.61	1082.50
966.90	1084.37
967.20	1082.73
967.49	1083.90
967.79	1089.99
968.08	1093.97
968.38	1092.33
968.67	1108.24
968.97	1103.80
969.26	1099.58
969.56	1095.37
969.85	1084.84
970.15	1078.28
970.44	1070.09
970.74	1068.22
971.03	1067.28
971.32	1064.71
971.62	1056.99
971.91	1070.33
972.21	1078.99
972.50	1077.82
972.80	1081.56
973.09	1086.01
973.38	1073.84
973.68	1071.97
973.97	1067.52
974.27	1061.43
974.56	1060.50
974.85	1066.58
975.15	1075.48
975.44	1080.63
975.73	1087.41
976.03	1093.26
976.32	1100.05
976.61	1084.14
976.91	1089.52
977.20	1085.31
977.49	1078.28
977.79	1067.28
978.08	1071.26
978.37	1066.35
978.67	1080.39
978.96	1072.20
979.25	1073.14
979.55	1070.80
979.84	1075.94
980.13	1072.43
980.42	1074.31
980.72	1081.09
981.01	1098.88
981.30	1098.88
981.59	1089.75
981.89	1101.92
982.18	1093.97
982.47	1084.14
982.76	1076.65
983.06	1077.35
983.35	1062.60
983.64	1064.71
983.93	1063.31
984.22	1059.33
984.52	1070.56
984.81	1085.54
985.10	1082.97
985.39	1084.37
985.68	1086.01
985.97	1074.31
986.27	1063.07
986.56	1073.37
986.85	1059.56
987.14	1069.86
987.43	1075.24
987.72	1078.99
988.01	1070.33
988.31	1074.31
988.60	1068.45
988.89	1055.35
989.18	1058.39
989.47	1055.82
989.76	1067.75
990.05	1066.82
990.34	1080.16
990.63	1081.09
990.92	1088.12
991.21	1082.97
991.51	1088.58
991.80	1087.41
992.09	1092.56
992.38	1097.24
992.67	1100.29
992.96	1097.48
993.25	1104.73
993.54	1102.16
993.83	1092.33
994.12	1093.03
994.41	1096.07
994.70	1084.37
994.99	1078.05
995.28	1087.41
995.57	1089.29
995.86	1090.92
996.15	1091.86
996.44	1084.84
996.73	1080.39
997.02	1087.18
997.31	1087.41
997.59	1091.39
997.88	1102.16
998.17	1100.52
998.46	1091.39
998.75	1098.88
999.04	1111.05
999.33	1109.88
999.62	1114.80
999.91	1109.18
1000.20	1100.75
1000.49	1086.71
1000.77	1090.22
1001.06	1097.01
1001.35	1104.03
1001.64	1097.95
1001.93	1101.46
1002.22	1101.46
1002.51	1082.03
1002.79	1068.22
1003.08	1068.22
1003.37	1067.99
1003.66	1064.01
1003.95	1075.24
1004.23	1090.69
1004.52	1099.58
1004.81	1088.35
1005.10	1085.77
1005.39	1082.97
1005.67	1083.43
1005.96	1082.97
1006.25	1087.41
1006.54	1080.63
1006.83	1083.43
1007.11	1070.56
1007.40	1063.54
1007.69	1072.20
1007.97	1082.50
1008.26	1081.80
1008.55	1079.92
1008.84	1081.09
1009.12	1076.88
1009.41	1066.58
1009.70	1060.26
1009.98	1060.50
1010.27	1054.88
1010.56	1062.37
1010.85	1075.48
1011.13	1079.92
1011.42	1088.58
1011.71	1096.31
1011.99	1083.67
1012.28	1072.43
1012.56	1073.84
1012.85	1070.56
1013.14	1070.56
1013.42	1073.14
1013.71	1073.84
1014.00	1068.92
1014.28	1078.52
1014.57	1077.35
1014.85	1065.88
1015.14	1067.99
1015.43	1061.90
1015.71	1053.01
1016.00	1056.99
1016.28	1070.80
1016.57	1078.75
1016.85	1084.84
1017.14	1079.69
1017.43	1068.69
1017.71	1067.52
1018.00	1072.43
1018.28	1075.94
1018.57	1090.92
1018.85	1094.20
1019.14	1092.33
1019.42	1082.73
1019.71	1084.60
1019.99	1075.71
1020.28	1071.97
1020.56	1077.82
1020.85	1079.69
1021.13	1083.20
1021.42	1089.29
1021.70	1097.24
1021.99	1085.54
1022.27	1089.05
1022.55	1041.54
1022.84	1104.73
>>>>>End Processed Spectral Data<<<<<
