SpectraSuite Data File
++++++++++++++++++++++++++++++++++++
Date: Mon Aug 26 10:24:50 PDT 2019
User: corrico
Dark Spectrum Present: No
Reference Spectrum Present: No
Number of Sampled Component Spectra: 1
Spectrometers: USB2+H06089
Integration Time (usec): 10000 (USB2+H06089)
Spectra Averaged: 2 (USB2+H06089)
Boxcar Smoothing: 2 (USB2+H06089)
Correct for Electrical Dark: No (USB2+H06089)
Strobe/Lamp Enabled: No (USB2+H06089)
Correct for Detector Non-linearity: No (USB2+H06089)
Correct for Stray Light: No (USB2+H06089)
Number of Pixels in Processed Spectrum: 2048
>>>>>Begin Processed Spectral Data<<<<<
339.70	1012.28
340.07	1012.28
340.45	990.98
340.82	977.17
341.19	962.90
341.57	944.87
341.94	922.17
342.31	918.89
342.69	909.30
343.06	906.96
343.43	898.30
343.81	892.68
344.18	901.34
344.55	901.57
344.93	902.28
345.30	916.32
345.67	921.47
346.04	931.30
346.42	939.73
346.79	946.28
347.16	954.47
347.54	969.68
347.91	977.88
348.28	1000.11
348.65	1011.35
349.03	1029.60
349.40	1037.09
349.77	1043.41
350.14	1042.01
350.52	1042.24
350.89	1036.62
351.26	1047.16
351.63	1053.71
352.01	1060.96
352.38	1064.71
352.75	1067.99
353.12	1064.01
353.50	1066.11
353.87	1061.67
354.24	1066.58
354.61	1069.16
354.98	1080.86
355.36	1093.97
355.73	1096.54
356.10	1094.67
356.47	1097.24
356.84	1089.05
357.22	1074.07
357.59	1085.31
357.96	1095.37
358.33	1095.37
358.70	1090.69
359.08	1090.69
359.45	1083.90
359.82	1083.20
360.19	1076.18
360.56	1093.50
360.94	1092.80
361.31	1081.33
361.68	1082.26
362.05	1083.90
362.42	1075.71
362.79	1074.54
363.16	1078.05
363.54	1065.65
363.91	1073.84
364.28	1077.11
364.65	1082.03
365.02	1086.24
365.39	1093.03
365.76	1080.39
366.14	1076.65
366.51	1074.54
366.88	1078.99
367.25	1078.75
367.62	1094.20
367.99	1093.97
368.36	1093.97
368.73	1091.86
369.10	1098.41
369.48	1079.22
369.85	1072.90
370.22	1076.18
370.59	1077.35
370.96	1076.41
371.33	1083.20
371.70	1091.63
372.07	1082.73
372.44	1071.73
372.81	1074.77
373.18	1084.84
373.55	1082.73
373.93	1089.52
374.30	1101.46
374.67	1093.50
375.04	1080.86
375.41	1076.41
375.78	1082.73
376.15	1084.60
376.52	1088.82
376.89	1100.05
377.26	1103.09
377.63	1098.65
378.00	1099.58
378.37	1098.41
378.74	1092.33
379.11	1093.73
379.48	1089.75
379.85	1080.86
380.22	1077.11
380.59	1083.67
380.96	1078.52
381.33	1088.35
381.70	1086.01
382.07	1086.94
382.44	1080.63
382.81	1081.09
383.18	1077.58
383.55	1086.01
383.92	1090.69
384.29	1097.01
384.66	1099.12
385.03	1097.24
385.40	1103.80
385.77	1107.78
386.14	1105.67
386.51	1112.69
386.88	1109.18
387.25	1104.97
387.62	1093.26
387.99	1091.16
388.36	1093.50
388.73	1100.29
389.10	1096.07
389.46	1107.31
389.83	1107.07
390.20	1098.65
390.57	1100.99
390.94	1112.22
391.31	1105.90
391.68	1105.67
392.05	1107.78
392.42	1096.07
392.79	1102.86
393.16	1111.05
393.53	1107.54
393.89	1105.20
394.26	1110.58
394.63	1108.95
395.00	1107.07
395.37	1112.92
395.74	1115.50
396.11	1127.20
396.48	1111.05
396.84	1112.22
397.21	1106.37
397.58	1106.84
397.95	1107.07
398.32	1112.22
398.69	1115.73
399.06	1133.52
399.42	1141.71
399.79	1152.01
400.16	1154.12
400.53	1160.91
400.90	1165.82
401.27	1158.33
401.64	1143.35
402.00	1153.42
402.37	1143.59
402.74	1145.46
403.11	1154.12
403.48	1161.14
403.84	1165.59
404.21	1177.99
404.58	1181.50
404.95	1189.23
405.32	1200.23
405.68	1218.48
406.05	1241.42
406.42	1253.82
406.79	1274.19
407.16	1284.49
407.52	1294.32
407.89	1300.87
408.26	1330.13
408.63	1356.34
408.99	1391.21
409.36	1405.02
409.73	1436.85
410.10	1452.07
410.47	1472.67
410.83	1497.01
411.20	1544.99
411.57	1577.99
411.94	1623.16
412.30	1660.61
412.67	1709.29
413.04	1753.30
413.40	1801.98
413.77	1851.13
414.14	1912.45
414.51	1966.28
414.87	2030.65
415.24	2097.82
415.61	2189.57
415.97	2268.68
416.34	2367.92
416.71	2462.01
417.08	2568.27
417.44	2645.04
417.81	2776.11
418.18	2910.92
418.54	3059.55
418.91	3188.51
419.28	3342.05
419.64	3466.10
420.01	3636.72
420.38	3795.88
420.74	3973.76
421.11	4185.35
421.48	4420.10
421.84	4628.64
422.21	4821.27
422.58	5095.81
422.94	5344.38
423.31	5586.16
423.68	5849.00
424.04	6152.10
424.41	6413.30
424.77	6692.06
425.14	7006.16
425.51	7306.22
425.87	7706.45
426.24	8097.55
426.61	8515.81
426.97	9023.47
427.34	9452.72
427.70	9852.25
428.07	10335.10
428.44	10853.77
428.80	11326.32
429.17	11917.54
429.53	12483.48
429.90	13101.62
430.27	13604.60
430.63	14183.18
431.00	14847.66
431.36	15587.50
431.73	16229.27
432.09	16977.08
432.46	17649.75
432.83	18219.43
433.19	18787.71
433.56	19455.94
433.92	20102.16
434.29	20717.02
434.65	21466.69
435.02	22144.98
435.38	22817.65
435.75	23363.93
436.11	24042.92
436.48	24501.66
436.84	24993.18
437.21	25392.00
437.57	25863.86
437.94	26248.17
438.30	26683.28
438.67	26927.40
439.03	27114.87
439.40	27261.86
439.76	27166.60
440.13	27042.32
440.49	27035.06
440.86	26828.86
441.22	26525.76
441.59	26197.62
441.95	25821.49
442.32	25284.11
442.68	24861.40
443.05	24381.83
443.41	23927.30
443.78	23364.16
444.14	22821.86
444.51	22148.49
444.87	21719.47
445.24	21274.07
445.60	20897.01
445.96	20335.98
446.33	19933.64
446.69	19340.08
447.06	18762.20
447.42	18106.85
447.79	17670.81
448.15	17221.90
448.51	16753.79
448.88	16355.66
449.24	15928.05
449.61	15556.37
449.97	15165.03
450.33	14767.38
450.70	14300.21
451.06	13963.87
451.43	13543.74
451.79	13162.94
452.15	12823.56
452.52	12534.27
452.88	12250.36
453.24	11993.14
453.61	11724.68
453.97	11469.09
454.34	11173.72
454.70	10919.07
455.06	10643.59
455.43	10331.36
455.79	9963.43
456.15	9680.92
456.52	9371.74
456.88	9096.96
457.24	8777.48
457.61	8560.74
457.97	8320.37
458.33	8050.51
458.70	7779.71
459.06	7530.91
459.42	7310.43
459.79	7055.08
460.15	6815.64
460.51	6582.52
460.88	6383.58
461.24	6163.57
461.60	6005.81
461.96	5849.00
462.33	5680.71
462.69	5550.58
463.05	5376.68
463.42	5214.48
463.78	5059.30
464.14	4912.78
464.50	4785.93
464.87	4699.09
465.23	4576.22
465.59	4463.40
465.95	4378.44
466.32	4276.63
466.68	4184.88
467.04	4094.07
467.40	4004.42
467.77	3922.50
468.13	3846.90
468.49	3767.09
468.85	3698.98
469.22	3662.70
469.58	3605.83
469.94	3537.72
470.30	3459.78
470.66	3399.86
471.03	3315.13
471.39	3245.39
471.75	3170.49
472.11	3124.38
472.47	3066.34
472.84	3016.01
473.20	2967.57
473.56	2920.29
473.92	2868.79
474.28	2825.73
474.65	2776.58
475.01	2734.68
475.37	2695.13
475.73	2639.42
476.09	2584.19
476.45	2550.72
476.81	2505.31
477.18	2476.05
477.54	2458.50
477.90	2445.63
478.26	2407.94
478.62	2382.43
478.98	2330.24
479.34	2297.70
479.71	2252.53
480.07	2229.83
480.43	2194.49
480.79	2180.21
481.15	2150.02
481.51	2133.16
481.87	2088.46
482.23	2059.44
482.59	2038.61
482.96	2021.29
483.32	1996.01
483.68	1992.73
484.04	1972.14
484.40	1958.56
484.76	1930.47
485.12	1929.54
485.48	1910.11
485.84	1892.56
486.20	1871.49
486.56	1851.83
486.92	1813.92
487.28	1788.40
487.64	1773.89
488.00	1753.76
488.37	1743.00
488.73	1725.91
489.09	1700.87
489.45	1668.33
489.81	1648.44
490.17	1623.86
490.53	1614.27
490.89	1604.67
491.25	1596.95
491.61	1583.14
491.97	1564.88
492.33	1539.84
492.69	1530.48
493.05	1525.33
493.41	1508.24
493.77	1495.60
494.13	1488.81
494.49	1476.88
494.85	1454.41
495.21	1450.90
495.57	1449.03
495.93	1442.24
496.29	1439.43
496.64	1441.54
497.00	1424.22
497.36	1410.87
497.72	1394.49
498.08	1376.70
498.44	1358.68
498.80	1343.00
499.16	1335.98
499.52	1324.04
499.88	1314.91
500.24	1319.13
500.60	1328.96
500.96	1330.59
501.32	1333.17
501.68	1322.17
502.03	1307.19
502.39	1279.80
502.75	1271.38
503.11	1266.46
503.47	1266.00
503.83	1266.46
504.19	1267.63
504.55	1255.23
504.91	1252.65
505.26	1249.14
505.62	1238.14
505.98	1249.14
506.34	1245.40
506.70	1239.55
507.06	1238.61
507.42	1236.97
507.78	1216.84
508.13	1214.74
508.49	1208.89
508.85	1206.55
509.21	1210.29
509.57	1205.38
509.93	1214.50
510.28	1210.76
510.64	1212.87
511.00	1207.25
511.36	1214.04
511.72	1207.48
512.07	1201.40
512.43	1190.16
512.79	1183.14
513.15	1179.16
513.51	1174.71
513.86	1177.06
514.22	1179.40
514.58	1179.86
514.94	1178.69
515.30	1180.10
515.65	1171.44
516.01	1163.25
516.37	1168.16
516.73	1169.80
517.08	1162.31
517.44	1168.86
517.80	1172.14
518.16	1160.44
518.51	1160.91
518.87	1155.05
519.23	1148.03
519.59	1140.78
519.94	1147.10
520.30	1133.29
520.66	1140.07
521.01	1143.59
521.37	1144.05
521.73	1136.33
522.09	1143.12
522.44	1136.33
522.80	1133.76
523.16	1135.63
523.51	1137.73
523.87	1134.69
524.23	1136.56
524.58	1135.16
524.94	1134.69
525.30	1121.82
525.65	1118.54
526.01	1122.75
526.37	1122.05
526.72	1117.14
527.08	1125.33
527.44	1127.90
527.79	1122.05
528.15	1125.33
528.51	1125.33
528.86	1141.01
529.22	1151.54
529.58	1158.80
529.93	1153.65
530.29	1152.01
530.65	1126.73
531.00	1110.82
531.36	1104.73
531.71	1117.37
532.07	1114.33
532.43	1115.27
532.78	1116.44
533.14	1121.35
533.49	1113.39
533.85	1122.52
534.21	1128.14
534.56	1123.22
534.92	1119.48
535.27	1115.50
535.63	1108.01
535.98	1109.18
536.34	1115.50
536.69	1115.03
537.05	1117.14
537.41	1118.54
537.76	1115.73
538.12	1117.14
538.47	1110.58
538.83	1114.10
539.18	1109.65
539.54	1112.92
539.89	1112.22
540.25	1116.20
540.60	1107.31
540.96	1111.75
541.31	1109.88
541.67	1102.39
542.02	1098.18
542.38	1097.95
542.73	1102.39
543.09	1104.26
543.44	1110.82
543.80	1117.84
544.15	1123.69
544.51	1116.44
544.86	1117.37
545.22	1120.41
545.57	1111.99
545.93	1114.33
546.28	1108.71
546.64	1108.71
546.99	1104.97
547.35	1106.61
547.70	1103.09
548.05	1101.46
548.41	1101.92
548.76	1105.20
549.12	1101.46
549.47	1100.75
549.83	1102.16
550.18	1109.18
550.53	1104.26
550.89	1104.97
551.24	1104.97
551.60	1109.41
551.95	1111.75
552.30	1116.20
552.66	1120.88
553.01	1119.95
553.37	1129.78
553.72	1122.05
554.07	1119.71
554.43	1121.35
554.78	1120.41
555.13	1103.80
555.49	1100.05
555.84	1089.29
556.19	1085.07
556.55	1079.92
556.90	1084.37
557.26	1085.77
557.61	1100.29
557.96	1096.54
558.32	1098.88
558.67	1102.63
559.02	1103.56
559.37	1100.05
559.73	1100.75
560.08	1103.33
560.43	1103.80
560.79	1104.97
561.14	1105.20
561.49	1109.41
561.85	1109.18
562.20	1112.69
562.55	1105.44
562.90	1103.56
563.26	1108.48
563.61	1108.24
563.96	1108.01
564.32	1113.86
564.67	1118.31
565.02	1114.33
565.37	1105.20
565.73	1104.73
566.08	1099.58
566.43	1101.22
566.78	1096.07
567.14	1103.09
567.49	1091.63
567.84	1087.18
568.19	1084.60
568.54	1092.33
568.90	1089.05
569.25	1108.95
569.60	1110.58
569.95	1110.58
570.31	1107.07
570.66	1109.41
571.01	1091.86
571.36	1096.78
571.71	1087.88
572.06	1086.01
572.42	1100.52
572.77	1109.65
573.12	1114.33
573.47	1124.39
573.82	1129.07
574.18	1118.07
574.53	1109.41
574.88	1106.14
575.23	1093.73
575.58	1092.09
575.93	1089.05
576.28	1081.33
576.64	1071.50
576.99	1080.16
577.34	1077.35
577.69	1079.69
578.04	1090.46
578.39	1101.46
578.74	1104.73
579.09	1108.24
579.44	1101.46
579.80	1107.54
580.15	1097.48
580.50	1089.05
580.85	1091.63
581.20	1093.03
581.55	1092.80
581.90	1091.63
582.25	1095.84
582.60	1092.33
582.95	1093.26
583.30	1096.31
583.65	1102.63
584.00	1099.82
584.35	1100.75
584.71	1106.37
585.06	1100.75
585.41	1107.54
585.76	1105.20
586.11	1099.58
586.46	1090.92
586.81	1085.77
587.16	1082.97
587.51	1085.07
587.86	1079.92
588.21	1088.35
588.56	1087.65
588.91	1090.22
589.26	1093.26
589.61	1097.01
589.96	1086.71
590.31	1088.12
590.66	1082.73
591.01	1084.14
591.36	1082.26
591.71	1091.86
592.06	1096.31
592.41	1089.05
592.76	1088.35
593.10	1097.71
593.45	1097.01
593.80	1094.20
594.15	1093.97
594.50	1089.75
594.85	1082.26
595.20	1084.14
595.55	1080.39
595.90	1087.65
596.25	1083.43
596.60	1088.82
596.95	1086.94
597.30	1088.82
597.64	1143.82
597.99	1151.31
598.34	1149.91
598.69	1155.76
599.04	1153.65
599.39	1095.60
599.74	1083.43
600.09	1085.54
600.44	1082.73
600.78	1080.63
601.13	1077.58
601.48	1082.97
601.83	1082.26
602.18	1070.80
602.53	1082.26
602.88	1089.99
603.22	1095.14
603.57	1084.60
603.92	1094.90
604.27	1095.60
604.62	1096.78
604.97	1089.29
605.31	1102.63
605.66	1096.78
606.01	1089.29
606.36	1089.05
606.71	1087.88
607.05	1081.56
607.40	1085.77
607.75	1088.58
608.10	1077.58
608.44	1082.73
608.79	1076.41
609.14	1067.75
609.49	1077.58
609.84	1089.29
610.18	1101.22
610.53	1108.71
610.88	1121.35
611.23	1118.78
611.57	1112.22
611.92	1104.03
612.27	1104.03
612.62	1093.73
612.96	1084.14
613.31	1091.86
613.66	1098.41
614.00	1103.80
614.35	1105.90
614.70	1104.03
615.05	1103.09
615.39	1091.63
615.74	1087.88
616.09	1085.07
616.43	1080.86
616.78	1075.24
617.13	1077.58
617.47	1076.18
617.82	1076.18
618.17	1075.24
618.51	1075.01
618.86	1077.35
619.21	1084.14
619.55	1089.05
619.90	1105.90
620.25	1100.05
620.59	1094.20
620.94	1103.33
621.29	1102.39
621.63	1096.78
621.98	1110.82
622.32	1118.07
622.67	1102.86
623.02	1104.26
623.36	1104.26
623.71	1107.31
624.05	1110.58
624.40	1108.48
624.75	1105.90
625.09	1103.09
625.44	1102.63
625.78	1103.33
626.13	1101.46
626.48	1108.95
626.82	1110.12
627.17	1096.31
627.51	1090.22
627.86	1087.65
628.20	1083.20
628.55	1085.54
628.89	1085.07
629.24	1090.22
629.58	1087.41
629.93	1092.33
630.28	1086.94
630.62	1097.24
630.97	1092.80
631.31	1098.65
631.66	1093.03
632.00	1079.69
632.35	1065.65
632.69	1067.75
633.04	1071.97
633.38	1066.82
633.73	1082.97
634.07	1092.33
634.42	1086.94
634.76	1081.80
635.11	1089.05
635.45	1088.82
635.79	1086.24
636.14	1091.86
636.48	1094.20
636.83	1092.33
637.17	1093.03
637.52	1089.52
637.86	1086.24
638.21	1079.46
638.55	1072.67
638.89	1077.35
639.24	1079.92
639.58	1094.67
639.93	1100.29
640.27	1102.16
640.61	1097.24
640.96	1099.82
641.30	1085.54
641.65	1092.56
641.99	1100.05
642.33	1095.84
642.68	1094.90
643.02	1092.80
643.37	1087.88
643.71	1081.09
644.05	1082.73
644.40	1081.33
644.74	1083.43
645.08	1071.97
645.43	1079.92
645.77	1076.41
646.11	1076.18
646.46	1074.07
646.80	1086.94
647.14	1083.43
647.49	1093.50
647.83	1092.56
648.17	1096.07
648.52	1096.07
648.86	1105.67
649.20	1111.99
649.55	1109.18
649.89	1115.03
650.23	1112.92
650.57	1103.56
650.92	1083.20
651.26	1084.60
651.60	1078.28
651.95	1073.14
652.29	1068.45
652.63	1079.69
652.97	1084.14
653.32	1080.86
653.66	1086.94
654.00	1092.80
654.34	1090.92
654.69	1086.94
655.03	1084.84
655.37	1091.16
655.71	1087.88
656.05	1086.71
656.40	1084.60
656.74	1088.58
657.08	1079.69
657.42	1078.75
657.76	1082.03
658.11	1092.33
658.45	1101.46
658.79	1095.60
659.13	1093.03
659.47	1088.35
659.82	1084.60
660.16	1087.88
660.50	1096.54
660.84	1102.39
661.18	1101.46
661.52	1108.71
661.87	1096.54
662.21	1088.12
662.55	1077.58
662.89	1066.11
663.23	1060.50
663.57	1054.88
663.91	1069.39
664.25	1071.97
664.60	1086.01
664.94	1074.07
665.28	1076.88
665.62	1061.67
665.96	1065.65
666.30	1068.22
666.64	1067.75
666.98	1062.37
667.32	1066.58
667.66	1071.50
668.01	1069.39
668.35	1075.48
668.69	1079.22
669.03	1086.94
669.37	1084.60
669.71	1080.16
670.05	1084.14
670.39	1092.56
670.73	1082.03
671.07	1074.77
671.41	1082.50
671.75	1081.33
672.09	1077.82
672.43	1083.43
672.77	1092.09
673.11	1082.03
673.45	1076.65
673.79	1074.07
674.13	1075.71
674.47	1063.77
674.81	1070.56
675.15	1078.75
675.49	1084.84
675.83	1087.88
676.17	1102.63
676.51	1098.65
676.85	1106.37
677.19	1097.71
677.53	1097.24
677.87	1092.09
678.21	1093.50
678.55	1083.43
678.89	1079.92
679.23	1081.09
679.57	1088.12
679.90	1088.82
680.24	1099.82
680.58	1110.35
680.92	1098.18
681.26	1088.58
681.60	1084.14
681.94	1071.50
682.28	1074.54
682.62	1073.60
682.96	1077.11
683.29	1091.39
683.63	1099.82
683.97	1098.88
684.31	1110.12
684.65	1109.41
684.99	1098.41
685.33	1089.75
685.67	1084.37
686.00	1077.11
686.34	1080.86
686.68	1081.56
687.02	1081.80
687.36	1089.29
687.70	1093.97
688.03	1084.37
688.37	1084.60
688.71	1086.24
689.05	1079.22
689.39	1077.82
689.72	1082.50
690.06	1085.07
690.40	1096.54
690.74	1094.67
691.08	1097.01
691.41	1094.67
691.75	1095.14
692.09	1087.41
692.43	1088.58
692.76	1092.33
693.10	1094.90
693.44	1087.65
693.78	1081.33
694.11	1086.71
694.45	1083.43
694.79	1085.31
695.13	1087.18
695.46	1085.31
695.80	1075.01
696.14	1073.37
696.48	1069.16
696.81	1068.69
697.15	1081.09
697.49	1081.80
697.82	1084.37
698.16	1087.65
698.50	1092.80
698.83	1090.92
699.17	1099.12
699.51	1094.20
699.84	1097.24
700.18	1086.71
700.52	1089.29
700.85	1084.84
701.19	1089.52
701.53	1087.18
701.86	1094.20
702.20	1089.29
702.54	1081.09
702.87	1077.82
703.21	1071.73
703.55	1074.07
703.88	1061.43
704.22	1061.20
704.55	1069.39
704.89	1071.73
705.23	1068.92
705.56	1077.82
705.90	1089.05
706.23	1079.69
706.57	1078.05
706.91	1076.41
707.24	1072.67
707.58	1069.86
707.91	1075.94
708.25	1084.60
708.58	1086.01
708.92	1089.29
709.26	1095.60
709.59	1096.78
709.93	1089.52
710.26	1093.26
710.60	1092.80
710.93	1084.60
711.27	1082.50
711.60	1085.54
711.94	1081.80
712.27	1084.84
712.61	1089.05
712.94	1081.09
713.28	1078.05
713.61	1073.84
713.95	1074.31
714.28	1080.63
714.62	1087.88
714.95	1086.01
715.29	1091.86
715.62	1088.12
715.96	1084.84
716.29	1080.86
716.63	1082.73
716.96	1089.29
717.29	1081.80
717.63	1085.31
717.96	1088.82
718.30	1095.84
718.63	1089.29
718.97	1101.46
719.30	1099.58
719.63	1100.75
719.97	1097.01
720.30	1107.07
720.64	1096.54
720.97	1094.43
721.30	1091.63
721.64	1099.35
721.97	1087.88
722.31	1095.37
722.64	1098.18
722.97	1083.90
723.31	1073.60
723.64	1061.20
723.97	1062.37
724.31	1045.52
724.64	1054.65
724.98	1059.79
725.31	1077.58
725.64	1068.22
725.98	1078.52
726.31	1083.67
726.64	1077.82
726.97	1082.50
727.31	1093.73
727.64	1091.63
727.97	1087.41
728.31	1091.39
728.64	1084.84
728.97	1075.48
729.31	1083.90
729.64	1088.35
729.97	1090.46
730.30	1090.69
730.64	1087.18
730.97	1086.94
731.30	1079.46
731.63	1072.20
731.97	1070.09
732.30	1080.63
732.63	1078.99
732.96	1078.28
733.30	1087.18
733.63	1084.60
733.96	1085.77
734.29	1081.33
734.63	1093.26
734.96	1092.33
735.29	1091.86
735.62	1095.14
735.95	1088.35
736.29	1084.84
736.62	1082.73
736.95	1090.69
737.28	1083.20
737.61	1089.75
737.94	1086.01
738.28	1084.84
738.61	1081.80
738.94	1082.73
739.27	1079.92
739.60	1081.80
739.93	1079.92
740.27	1076.41
740.60	1077.82
740.93	1080.39
741.26	1067.99
741.59	1064.24
741.92	1061.43
742.25	1063.77
742.58	1069.39
742.91	1090.22
743.25	1091.63
743.58	1095.60
743.91	1092.80
744.24	1089.29
744.57	1082.97
744.90	1084.60
745.23	1080.39
745.56	1086.24
745.89	1082.26
746.22	1071.97
746.55	1075.48
746.88	1090.22
747.21	1082.97
747.54	1081.56
747.87	1084.37
748.20	1082.97
748.53	1075.71
748.87	1082.97
749.20	1088.58
749.53	1096.54
749.86	1097.48
750.19	1092.80
750.52	1082.03
750.85	1077.35
751.18	1073.14
751.51	1078.28
751.84	1081.80
752.16	1082.73
752.49	1080.16
752.82	1083.90
753.15	1078.99
753.48	1088.12
753.81	1079.46
754.14	1076.65
754.47	1070.56
754.80	1067.28
755.13	1060.73
755.46	1071.03
755.79	1071.26
756.12	1079.92
756.45	1083.67
756.78	1078.52
757.11	1073.84
757.43	1079.46
757.76	1084.14
758.09	1076.65
758.42	1076.88
758.75	1080.86
759.08	1083.90
759.41	1070.56
759.74	1074.54
760.07	1077.58
760.39	1078.52
760.72	1079.69
761.05	1089.52
761.38	1092.80
761.71	1093.73
762.04	1094.90
762.36	1091.86
762.69	1084.60
763.02	1073.60
763.35	1071.73
763.68	1077.35
764.01	1071.73
764.33	1079.92
764.66	1081.33
764.99	1080.16
765.32	1075.94
765.65	1089.75
765.97	1082.26
766.30	1089.05
766.63	1082.03
766.96	1084.37
767.28	1066.35
767.61	1058.16
767.94	1060.03
768.27	1071.03
768.59	1071.50
768.92	1081.56
769.25	1089.99
769.58	1088.58
769.90	1080.63
770.23	1069.62
770.56	1064.71
770.89	1063.77
771.21	1066.11
771.54	1062.84
771.87	1073.37
772.19	1081.56
772.52	1082.97
772.85	1086.48
773.17	1088.35
773.50	1083.67
773.83	1080.86
774.15	1072.67
774.48	1065.18
774.81	1078.05
775.13	1077.58
775.46	1078.28
775.79	1090.69
776.11	1090.46
776.44	1075.48
776.77	1075.01
777.09	1062.84
777.42	1062.37
777.74	1070.80
778.07	1087.18
778.40	1096.07
778.72	1106.61
779.05	1104.03
779.37	1098.65
779.70	1087.88
780.03	1084.60
780.35	1085.54
780.68	1078.75
781.00	1078.05
781.33	1069.86
781.65	1072.43
781.98	1078.75
782.31	1082.73
782.63	1086.48
782.96	1089.05
783.28	1093.73
783.61	1087.65
783.93	1091.63
784.26	1086.01
784.58	1087.88
784.91	1075.94
785.23	1075.01
785.56	1072.67
785.88	1070.09
786.21	1078.99
786.53	1079.69
786.86	1089.52
787.18	1087.65
787.51	1092.56
787.83	1093.73
788.16	1096.31
788.48	1092.09
788.81	1087.18
789.13	1082.50
789.46	1079.92
789.78	1083.90
790.10	1076.41
790.43	1084.60
790.75	1092.33
791.08	1091.39
791.40	1088.12
791.73	1090.92
792.05	1085.07
792.37	1085.07
792.70	1084.37
793.02	1092.33
793.35	1095.14
793.67	1092.80
793.99	1084.37
794.32	1082.50
794.64	1067.28
794.96	1064.48
795.29	1068.45
795.61	1067.75
795.93	1053.94
796.26	1053.01
796.58	1044.58
796.91	1043.64
797.23	1051.37
797.55	1071.03
797.87	1078.05
798.20	1088.58
798.52	1078.75
798.84	1076.18
799.17	1075.01
799.49	1086.01
799.81	1078.75
800.14	1082.97
800.46	1085.31
800.78	1085.31
801.10	1068.69
801.43	1076.41
801.75	1078.28
802.07	1079.92
802.40	1078.99
802.72	1082.97
803.04	1082.03
803.36	1081.09
803.69	1075.48
804.01	1073.60
804.33	1069.62
804.65	1066.82
804.97	1076.65
805.30	1083.20
805.62	1078.52
805.94	1080.16
806.26	1085.77
806.58	1079.22
806.91	1071.73
807.23	1079.46
807.55	1078.28
807.87	1080.63
808.19	1089.99
808.52	1092.80
808.84	1085.77
809.16	1089.75
809.48	1085.54
809.80	1087.41
810.12	1088.82
810.44	1091.63
810.77	1091.39
811.09	1085.31
811.41	1081.09
811.73	1080.39
812.05	1075.94
812.37	1076.41
812.69	1075.48
813.01	1072.20
813.33	1063.77
813.66	1060.50
813.98	1062.60
814.30	1062.37
814.62	1068.45
814.94	1077.58
815.26	1077.82
815.58	1083.43
815.90	1083.67
816.22	1080.63
816.54	1073.37
816.86	1087.88
817.18	1080.16
817.50	1091.86
817.82	1088.12
818.14	1094.67
818.46	1090.46
818.78	1086.24
819.10	1074.54
819.42	1077.58
819.74	1078.99
820.06	1076.41
820.38	1087.41
820.70	1086.24
821.02	1089.99
821.34	1082.97
821.66	1080.39
821.98	1075.01
822.30	1084.14
822.62	1077.58
822.94	1088.12
823.26	1093.50
823.58	1088.12
823.90	1086.01
824.22	1093.03
824.54	1082.03
824.86	1084.60
825.18	1078.05
825.50	1073.60
825.81	1063.07
826.13	1060.26
826.45	1053.01
826.77	1067.99
827.09	1070.09
827.41	1072.67
827.73	1081.33
828.05	1086.24
828.36	1076.18
828.68	1074.31
829.00	1071.50
829.32	1075.01
829.64	1066.35
829.96	1079.46
830.28	1081.09
830.59	1086.01
830.91	1084.14
831.23	1086.48
831.55	1083.67
831.87	1081.80
832.19	1087.41
832.50	1088.35
832.82	1094.43
833.14	1088.82
833.46	1091.39
833.78	1090.92
834.09	1087.65
834.41	1088.58
834.73	1092.33
835.05	1092.09
835.36	1089.75
835.68	1095.14
836.00	1094.90
836.32	1093.03
836.63	1097.48
836.95	1098.65
837.27	1093.50
837.59	1088.35
837.90	1086.24
838.22	1075.71
838.54	1072.20
838.85	1061.20
839.17	1062.60
839.49	1073.84
839.80	1074.77
840.12	1074.54
840.44	1091.63
840.76	1088.12
841.07	1074.77
841.39	1074.31
841.71	1079.46
842.02	1075.71
842.34	1082.50
842.65	1091.63
842.97	1096.54
843.29	1094.20
843.60	1098.41
843.92	1097.95
844.24	1093.97
844.55	1095.84
844.87	1090.69
845.18	1083.67
845.50	1081.80
845.82	1080.63
846.13	1082.73
846.45	1082.26
846.76	1084.84
847.08	1082.50
847.40	1082.26
847.71	1072.20
848.03	1071.73
848.34	1066.82
848.66	1064.71
848.97	1061.43
849.29	1071.03
849.60	1078.28
849.92	1075.94
850.24	1078.99
850.55	1084.14
850.87	1085.77
851.18	1086.48
851.50	1093.97
851.81	1103.33
852.13	1101.22
852.44	1099.82
852.76	1090.22
853.07	1086.94
853.39	1080.86
853.70	1075.71
854.01	1078.99
854.33	1087.41
854.64	1098.18
854.96	1095.37
855.27	1106.14
855.59	1097.01
855.90	1095.84
856.22	1086.71
856.53	1087.18
856.84	1082.50
857.16	1089.75
857.47	1087.88
857.79	1086.24
858.10	1083.67
858.41	1085.54
858.73	1082.03
859.04	1083.20
859.36	1089.52
859.67	1095.14
859.98	1082.26
860.30	1081.56
860.61	1078.99
860.92	1061.43
861.24	1056.75
861.55	1069.39
861.87	1067.99
862.18	1071.26
862.49	1078.28
862.81	1077.82
863.12	1067.52
863.43	1072.67
863.74	1071.97
864.06	1071.73
864.37	1079.69
864.68	1083.90
865.00	1075.24
865.31	1067.52
865.62	1065.41
865.94	1058.16
866.25	1059.33
866.56	1068.45
866.87	1076.18
867.19	1086.24
867.50	1093.97
867.81	1089.29
868.12	1084.37
868.44	1080.63
868.75	1078.99
869.06	1069.39
869.37	1077.11
869.68	1075.71
870.00	1083.20
870.31	1079.22
870.62	1086.94
870.93	1093.03
871.24	1106.37
871.56	1104.73
871.87	1115.97
872.18	1112.46
872.49	1110.82
872.80	1113.63
873.12	1111.52
873.43	1098.88
873.74	1089.52
874.05	1086.01
874.36	1072.67
874.67	1065.65
874.98	1069.86
875.29	1075.94
875.61	1073.37
875.92	1069.16
876.23	1078.99
876.54	1075.24
876.85	1075.48
877.16	1072.67
877.47	1075.48
877.78	1082.97
878.09	1080.39
878.40	1083.43
878.72	1090.22
879.03	1093.73
879.34	1085.77
879.65	1086.71
879.96	1083.20
880.27	1081.09
880.58	1081.33
880.89	1082.03
881.20	1083.43
881.51	1084.84
881.82	1080.63
882.13	1083.20
882.44	1069.62
882.75	1072.90
883.06	1082.03
883.37	1083.43
883.68	1082.73
883.99	1095.60
884.30	1096.31
884.61	1085.54
884.92	1081.09
885.23	1072.90
885.54	1066.82
885.85	1072.43
886.16	1064.94
886.47	1064.48
886.78	1075.24
887.08	1078.52
887.39	1071.26
887.70	1084.84
888.01	1088.35
888.32	1077.35
888.63	1075.71
888.94	1082.50
889.25	1081.56
889.56	1088.82
889.87	1092.80
890.17	1092.56
890.48	1089.29
890.79	1086.24
891.10	1078.99
891.41	1082.26
891.72	1082.73
892.03	1084.37
892.34	1082.03
892.64	1084.37
892.95	1083.90
893.26	1079.46
893.57	1081.80
893.88	1091.86
894.18	1086.48
894.49	1082.97
894.80	1088.35
895.11	1082.50
895.42	1075.71
895.72	1087.88
896.03	1087.88
896.34	1085.31
896.65	1086.24
896.96	1082.26
897.26	1073.14
897.57	1068.92
897.88	1069.39
898.19	1059.79
898.49	1065.65
898.80	1063.07
899.11	1068.69
899.41	1073.37
899.72	1095.37
900.03	1091.16
900.34	1093.03
900.64	1102.16
900.95	1096.31
901.26	1089.29
901.56	1090.46
901.87	1098.65
902.18	1097.01
902.48	1100.29
902.79	1097.48
903.10	1103.56
903.40	1087.88
903.71	1072.90
904.02	1069.62
904.32	1056.05
904.63	1041.54
904.94	1050.67
905.24	1053.71
905.55	1050.90
905.85	1068.45
906.16	1078.28
906.47	1078.99
906.77	1081.33
907.08	1087.41
907.38	1083.67
907.69	1082.26
908.00	1081.09
908.30	1072.90
908.61	1071.73
908.91	1064.94
909.22	1066.82
909.52	1072.43
909.83	1083.43
910.14	1087.41
910.44	1090.69
910.75	1089.75
911.05	1084.14
911.36	1086.94
911.66	1081.80
911.97	1078.99
912.27	1081.33
912.58	1082.97
912.88	1067.28
913.19	1065.88
913.49	1063.54
913.80	1069.62
914.10	1066.58
914.41	1078.05
914.71	1090.92
915.01	1092.09
915.32	1089.29
915.62	1086.01
915.93	1086.71
916.23	1077.11
916.54	1079.92
916.84	1075.48
917.15	1081.09
917.45	1083.67
917.75	1083.90
918.06	1082.26
918.36	1073.37
918.67	1079.69
918.97	1075.01
919.27	1067.75
919.58	1073.37
919.88	1078.28
920.18	1071.50
920.49	1073.37
920.79	1091.16
921.10	1090.46
921.40	1101.22
921.70	1100.29
922.01	1095.14
922.31	1077.35
922.61	1078.75
922.92	1070.56
923.22	1073.60
923.52	1076.88
923.82	1081.09
924.13	1077.58
924.43	1076.18
924.73	1082.03
925.04	1093.26
925.34	1098.88
925.64	1094.90
925.94	1096.07
926.25	1091.16
926.55	1083.20
926.85	1077.35
927.15	1077.58
927.46	1085.07
927.76	1093.50
928.06	1090.92
928.36	1083.20
928.67	1086.48
928.97	1081.09
929.27	1067.28
929.57	1061.43
929.87	1064.24
930.18	1069.39
930.48	1070.09
930.78	1077.35
931.08	1090.46
931.38	1095.84
931.69	1083.20
931.99	1089.75
932.29	1084.37
932.59	1075.48
932.89	1075.94
933.19	1085.77
933.49	1077.35
933.80	1076.65
934.10	1077.58
934.40	1077.58
934.70	1073.84
935.00	1069.62
935.30	1075.01
935.60	1074.31
935.90	1079.46
936.20	1085.54
936.50	1094.90
936.81	1101.69
937.11	1098.18
937.41	1102.39
937.71	1101.92
938.01	1094.20
938.31	1080.39
938.61	1082.97
938.91	1075.48
939.21	1073.37
939.51	1070.80
939.81	1080.63
940.11	1077.35
940.41	1078.05
940.71	1086.01
941.01	1087.65
941.31	1084.37
941.61	1091.16
941.91	1089.52
942.21	1082.03
942.51	1081.33
942.81	1084.60
943.11	1079.46
943.41	1086.24
943.71	1076.65
944.01	1083.90
944.31	1075.71
944.61	1076.88
944.90	1073.84
945.20	1081.56
945.50	1071.97
945.80	1067.52
946.10	1065.41
946.40	1067.75
946.70	1071.50
947.00	1068.69
947.30	1075.48
947.60	1081.56
947.89	1076.88
948.19	1073.14
948.49	1084.14
948.79	1081.56
949.09	1080.63
949.39	1081.56
949.69	1082.97
949.98	1081.33
950.28	1089.99
950.58	1082.50
950.88	1080.86
951.18	1081.33
951.48	1080.86
951.77	1073.14
952.07	1079.46
952.37	1083.43
952.67	1089.52
952.97	1100.75
953.26	1093.50
953.56	1099.58
953.86	1100.05
954.16	1096.31
954.45	1079.46
954.75	1090.69
955.05	1091.16
955.35	1091.39
955.64	1099.12
955.94	1107.54
956.24	1102.16
956.54	1099.58
956.83	1089.52
957.13	1069.86
957.43	1066.11
957.72	1063.77
958.02	1054.18
958.32	1056.28
958.61	1059.09
958.91	1057.69
959.21	1066.35
959.50	1072.67
959.80	1074.07
960.10	1076.88
960.39	1082.50
960.69	1077.58
960.99	1074.31
961.28	1077.35
961.58	1076.18
961.87	1059.56
962.17	1062.14
962.47	1071.50
962.76	1072.67
963.06	1075.01
963.36	1095.14
963.65	1093.97
963.95	1087.88
964.24	1091.16
964.54	1086.01
964.83	1075.71
965.13	1074.54
965.42	1071.97
965.72	1069.39
966.02	1074.77
966.31	1079.46
966.61	1082.73
966.90	1086.71
967.20	1082.50
967.49	1081.09
967.79	1087.65
968.08	1093.03
968.38	1093.50
968.67	1089.05
968.97	1092.80
969.26	1085.07
969.56	1079.92
969.85	1074.77
970.15	1083.67
970.44	1082.03
970.74	1075.94
971.03	1076.41
971.32	1076.88
971.62	1068.45
971.91	1071.97
972.21	1076.88
972.50	1074.07
972.80	1075.94
973.09	1064.71
973.38	1059.79
973.68	1061.43
973.97	1066.11
974.27	1065.88
974.56	1084.84
974.85	1090.46
975.15	1082.03
975.44	1080.39
975.73	1086.01
976.03	1082.26
976.32	1078.28
976.61	1089.52
976.91	1079.69
977.20	1083.43
977.49	1078.75
977.79	1074.07
978.08	1065.41
978.37	1075.94
978.67	1063.31
978.96	1065.41
979.25	1069.39
979.55	1071.03
979.84	1060.26
980.13	1064.94
980.42	1064.01
980.72	1060.03
981.01	1061.43
981.30	1070.56
981.59	1075.94
981.89	1077.11
982.18	1072.67
982.47	1072.20
982.76	1068.69
983.06	1068.92
983.35	1081.80
983.64	1091.16
983.93	1094.43
984.22	1099.35
984.52	1088.35
984.81	1084.14
985.10	1086.01
985.39	1084.60
985.68	1072.43
985.97	1084.14
986.27	1078.52
986.56	1070.33
986.85	1069.86
987.14	1073.37
987.43	1077.58
987.72	1069.86
988.01	1086.01
988.31	1081.33
988.60	1074.77
988.89	1062.14
989.18	1068.45
989.47	1065.65
989.76	1080.16
990.05	1102.16
990.34	1115.50
990.63	1115.50
990.92	1101.22
991.21	1091.16
991.51	1078.28
991.80	1067.05
992.09	1071.73
992.38	1076.88
992.67	1078.52
992.96	1078.28
993.25	1081.09
993.54	1074.31
993.83	1071.03
994.12	1070.80
994.41	1075.71
994.70	1066.35
994.99	1070.80
995.28	1079.69
995.57	1086.01
995.86	1084.84
996.15	1094.43
996.44	1092.56
996.73	1097.01
997.02	1095.14
997.31	1094.90
997.59	1092.33
997.88	1091.63
998.17	1082.97
998.46	1086.71
998.75	1080.39
999.04	1078.05
999.33	1083.20
999.62	1080.86
999.91	1079.46
1000.20	1092.09
1000.49	1088.35
1000.77	1084.37
1001.06	1080.63
1001.35	1079.92
1001.64	1064.71
1001.93	1074.07
1002.22	1074.54
1002.51	1079.69
1002.79	1073.60
1003.08	1086.48
1003.37	1080.16
1003.66	1071.26
1003.95	1074.07
1004.23	1075.24
1004.52	1059.33
1004.81	1052.30
1005.10	1052.54
1005.39	1049.26
1005.67	1044.35
1005.96	1061.67
1006.25	1070.33
1006.54	1075.71
1006.83	1082.50
1007.11	1090.46
1007.40	1078.52
1007.69	1076.18
1007.97	1074.31
1008.26	1068.45
1008.55	1066.58
1008.84	1076.88
1009.12	1081.33
1009.41	1086.01
1009.70	1074.54
1009.98	1070.56
1010.27	1073.84
1010.56	1075.94
1010.85	1070.33
1011.13	1084.84
1011.42	1092.33
1011.71	1089.52
1011.99	1090.69
1012.28	1094.20
1012.56	1090.22
1012.85	1084.84
1013.14	1082.97
1013.42	1077.35
1013.71	1075.71
1014.00	1082.26
1014.28	1081.33
1014.57	1079.69
1014.85	1074.31
1015.14	1074.77
1015.43	1072.67
1015.71	1077.11
1016.00	1082.26
1016.28	1097.01
1016.57	1101.46
1016.85	1093.03
1017.14	1090.69
1017.43	1080.16
1017.71	1072.43
1018.00	1072.20
1018.28	1070.80
1018.57	1062.37
1018.85	1063.77
1019.14	1069.39
1019.42	1073.37
1019.71	1081.33
1019.99	1082.26
1020.28	1079.92
1020.56	1075.48
1020.85	1071.03
1021.13	1076.41
1021.42	1086.01
1021.70	1093.03
1021.99	1089.52
1022.27	1091.16
1022.55	1073.14
1022.84	1084.84
>>>>>End Processed Spectral Data<<<<<
