SpectraSuite Data File
++++++++++++++++++++++++++++++++++++
Date: Mon Aug 26 10:24:47 PDT 2019
User: corrico
Dark Spectrum Present: No
Reference Spectrum Present: No
Number of Sampled Component Spectra: 1
Spectrometers: USB2+H06089
Integration Time (usec): 10000 (USB2+H06089)
Spectra Averaged: 2 (USB2+H06089)
Boxcar Smoothing: 2 (USB2+H06089)
Correct for Electrical Dark: No (USB2+H06089)
Strobe/Lamp Enabled: No (USB2+H06089)
Correct for Detector Non-linearity: No (USB2+H06089)
Correct for Stray Light: No (USB2+H06089)
Number of Pixels in Processed Spectrum: 2048
>>>>>Begin Processed Spectral Data<<<<<
339.70	1035.69
340.07	1035.69
340.45	1006.43
340.82	992.62
341.19	971.79
341.57	954.00
341.94	945.58
342.31	922.17
342.69	908.13
343.06	898.53
343.43	890.81
343.81	892.21
344.18	907.66
344.55	902.98
344.93	914.21
345.30	915.62
345.67	926.62
346.04	931.07
346.42	946.51
346.79	958.22
347.16	974.13
347.54	975.54
347.91	975.30
348.28	988.64
348.65	985.83
349.03	981.85
349.40	996.83
349.77	1014.15
350.14	1012.52
350.52	1025.39
350.89	1034.05
351.26	1036.62
351.63	1033.81
352.01	1042.94
352.38	1057.69
352.75	1080.63
353.12	1085.31
353.50	1095.37
353.87	1096.31
354.24	1082.73
354.61	1081.33
354.98	1071.26
355.36	1080.16
355.73	1089.99
356.10	1104.50
356.47	1100.05
356.84	1104.50
357.22	1095.37
357.59	1090.69
357.96	1086.94
358.33	1082.03
358.70	1086.48
359.08	1087.18
359.45	1086.94
359.82	1092.80
360.19	1095.84
360.56	1093.26
360.94	1088.58
361.31	1089.75
361.68	1077.35
362.05	1076.41
362.42	1084.37
362.79	1093.97
363.16	1099.58
363.54	1089.29
363.91	1079.22
364.28	1077.35
364.65	1075.01
365.02	1067.75
365.39	1075.71
365.76	1079.22
366.14	1081.33
366.51	1076.88
366.88	1071.97
367.25	1077.11
367.62	1080.86
367.99	1076.41
368.36	1077.35
368.73	1078.28
369.10	1079.22
369.48	1083.20
369.85	1071.26
370.22	1073.14
370.59	1074.77
370.96	1071.26
371.33	1065.41
371.70	1074.31
372.07	1073.14
372.44	1083.90
372.81	1086.71
373.18	1089.75
373.55	1095.14
373.93	1109.65
374.30	1106.84
374.67	1112.46
375.04	1109.41
375.41	1111.05
375.78	1092.80
376.15	1097.01
376.52	1090.46
376.89	1093.97
377.26	1091.86
377.63	1102.16
378.00	1097.48
378.37	1096.54
378.74	1088.82
379.11	1083.67
379.48	1084.14
379.85	1082.97
380.22	1087.18
380.59	1104.73
380.96	1117.37
381.33	1108.48
381.70	1112.69
382.07	1106.84
382.44	1097.71
382.81	1087.88
383.18	1099.82
383.55	1098.41
383.92	1112.22
384.29	1108.95
384.66	1109.88
385.03	1102.39
385.40	1090.92
385.77	1075.94
386.14	1077.35
386.51	1082.50
386.88	1087.18
387.25	1102.39
387.62	1104.03
387.99	1103.33
388.36	1101.46
388.73	1104.03
389.10	1104.03
389.46	1111.52
389.83	1122.29
390.20	1124.39
390.57	1122.99
390.94	1122.29
391.31	1109.18
391.68	1104.97
392.05	1106.61
392.42	1104.73
392.79	1103.09
393.16	1109.41
393.53	1116.67
393.89	1121.12
394.26	1129.78
394.63	1138.20
395.00	1145.46
395.37	1133.99
395.74	1130.71
396.11	1120.65
396.48	1106.37
396.84	1104.26
397.21	1110.58
397.58	1117.14
397.95	1126.03
398.32	1135.86
398.69	1144.05
399.06	1148.73
399.42	1145.93
399.79	1145.46
400.16	1137.50
400.53	1145.46
400.90	1152.01
401.27	1145.93
401.64	1143.12
402.00	1153.65
402.37	1144.29
402.74	1143.12
403.11	1154.12
403.48	1171.67
403.84	1179.40
404.21	1192.74
404.58	1202.33
404.95	1210.06
405.32	1218.25
405.68	1241.65
406.05	1255.46
406.42	1269.27
406.79	1286.83
407.16	1292.44
407.52	1306.96
407.89	1316.08
408.26	1335.28
408.63	1356.11
408.99	1390.51
409.36	1396.83
409.73	1426.09
410.10	1445.28
410.47	1476.18
410.83	1505.90
411.20	1549.90
411.57	1602.80
411.94	1657.80
412.30	1699.93
412.67	1744.87
413.04	1787.94
413.40	1831.70
413.77	1897.47
414.14	1959.03
414.51	2030.88
414.87	2117.48
415.24	2209.70
415.61	2282.49
415.97	2366.28
416.34	2452.41
416.71	2533.63
417.08	2625.14
417.44	2733.51
417.81	2876.75
418.18	3008.29
418.54	3156.45
418.91	3313.96
419.28	3457.44
419.64	3602.79
420.01	3768.73
420.38	3940.06
420.74	4104.60
421.11	4333.97
421.48	4546.72
421.84	4780.54
422.21	5019.75
422.58	5291.48
422.94	5552.45
423.31	5828.87
423.68	6105.05
424.04	6417.51
424.41	6722.49
424.77	6998.44
425.14	7283.28
425.51	7600.89
425.87	7979.59
426.24	8361.80
426.61	8837.63
426.97	9372.68
427.34	9878.93
427.70	10410.47
428.07	10935.92
428.44	11450.37
428.80	12004.14
429.17	12612.68
429.53	13177.45
429.90	13859.01
430.27	14450.47
430.63	15051.28
431.00	15724.19
431.36	16508.03
431.73	17124.30
432.09	17895.50
432.46	18660.62
432.83	19312.93
433.19	19882.62
433.56	20626.44
433.92	21290.45
434.29	21888.46
434.65	22640.94
435.02	23306.35
435.38	23939.94
435.75	24513.60
436.11	25189.78
436.48	25668.89
436.84	26217.04
437.21	26706.45
437.57	27212.71
437.94	27643.83
438.30	28108.20
438.67	28420.66
439.03	28610.71
439.40	28761.44
439.76	28732.88
440.13	28594.79
440.49	28520.60
440.86	28306.91
441.22	28008.02
441.59	27612.94
441.95	27224.64
442.32	26683.75
442.68	26222.43
443.05	25660.00
443.41	25143.67
443.78	24533.03
444.14	23952.11
444.51	23296.99
444.87	22854.63
445.24	22412.03
445.60	21941.82
445.96	21323.22
446.33	20846.68
446.69	20189.23
447.06	19563.13
447.42	18987.83
447.79	18494.68
448.15	18026.34
448.51	17524.29
448.88	17081.23
449.24	16568.18
449.61	16259.70
449.97	15829.51
450.33	15448.94
450.70	14969.13
451.06	14661.82
451.43	14161.41
451.79	13747.84
452.15	13410.80
452.52	13119.40
452.88	12784.71
453.24	12506.89
453.61	12281.96
453.97	12009.29
454.34	11694.72
454.70	11423.92
455.06	11148.91
455.43	10782.38
455.79	10402.75
456.15	10091.22
456.52	9706.44
456.88	9436.81
457.24	9143.30
457.61	8904.33
457.97	8660.22
458.33	8447.46
458.70	8151.62
459.06	7862.33
459.42	7632.25
459.79	7353.50
460.15	7097.91
460.51	6842.32
460.88	6649.70
461.24	6413.07
461.60	6231.44
461.96	6047.48
462.33	5893.23
462.69	5726.35
463.05	5572.35
463.42	5423.72
463.78	5302.48
464.14	5134.90
464.50	5007.81
464.87	4887.27
465.23	4748.48
465.59	4603.37
465.95	4515.13
466.32	4410.27
466.68	4288.80
467.04	4212.03
467.40	4135.26
467.77	4046.32
468.13	3950.36
468.49	3887.86
468.85	3828.41
469.22	3761.01
469.58	3696.41
469.94	3633.45
470.30	3570.02
470.66	3500.74
471.03	3423.74
471.39	3348.84
471.75	3306.94
472.11	3224.32
472.47	3150.60
472.84	3092.32
473.20	3040.82
473.56	2973.42
473.92	2929.65
474.28	2900.86
474.65	2864.82
475.01	2832.98
475.37	2777.28
475.73	2743.11
476.09	2697.47
476.45	2661.66
476.81	2607.82
477.18	2572.25
477.54	2527.08
477.90	2489.63
478.26	2435.80
478.62	2405.13
478.98	2376.35
479.34	2344.98
479.71	2316.19
480.07	2284.36
480.43	2260.49
480.79	2248.08
481.15	2227.25
481.51	2193.08
481.87	2183.25
482.23	2162.65
482.59	2117.48
482.96	2096.42
483.32	2082.37
483.68	2043.05
484.04	2018.95
484.40	2001.63
484.76	1972.37
485.12	1944.28
485.48	1934.22
485.84	1908.00
486.20	1886.94
486.56	1870.32
486.92	1849.73
487.28	1817.89
487.64	1795.19
488.00	1786.76
488.37	1756.57
488.73	1733.87
489.09	1724.74
489.45	1702.04
489.81	1677.23
490.17	1668.10
490.53	1650.31
490.89	1646.10
491.25	1646.57
491.61	1630.89
491.97	1621.99
492.33	1600.46
492.69	1576.12
493.05	1547.33
493.41	1538.43
493.77	1511.52
494.13	1511.28
494.49	1499.11
494.85	1489.75
495.21	1465.41
495.57	1460.03
495.93	1453.71
496.29	1432.64
496.64	1431.00
497.00	1427.26
497.36	1426.09
497.72	1409.00
498.08	1409.00
498.44	1392.85
498.80	1390.04
499.16	1379.28
499.52	1357.98
499.88	1344.87
500.24	1345.81
500.60	1330.59
500.96	1316.32
501.32	1320.76
501.68	1315.15
502.03	1308.59
502.39	1317.96
502.75	1310.00
503.11	1307.66
503.47	1306.25
503.83	1304.61
504.19	1288.46
504.55	1302.98
504.91	1297.83
505.26	1295.72
505.62	1277.93
505.98	1273.95
506.34	1246.80
506.70	1236.51
507.06	1240.25
507.42	1237.68
507.78	1226.67
508.13	1226.67
508.49	1223.40
508.85	1218.48
509.21	1219.65
509.57	1221.06
509.93	1225.27
510.28	1226.67
510.64	1211.23
511.00	1204.91
511.36	1206.31
511.72	1200.23
512.07	1200.23
512.43	1205.38
512.79	1202.57
513.15	1197.42
513.51	1197.18
513.86	1188.52
514.22	1190.40
514.58	1194.84
514.94	1192.97
515.30	1192.97
515.65	1194.84
516.01	1185.72
516.37	1184.08
516.73	1184.55
517.08	1173.54
517.44	1173.54
517.80	1166.05
518.16	1154.35
518.51	1156.22
518.87	1167.69
519.23	1167.46
519.59	1170.03
519.94	1174.01
520.30	1163.71
520.66	1152.95
521.01	1143.12
521.37	1131.41
521.73	1125.80
522.09	1126.97
522.44	1128.84
522.80	1130.24
523.16	1135.39
523.51	1135.16
523.87	1129.07
524.23	1120.65
524.58	1117.14
524.94	1114.80
525.30	1120.88
525.65	1112.46
526.01	1115.73
526.37	1118.31
526.72	1119.01
527.08	1118.78
527.44	1130.95
527.79	1126.73
528.15	1126.03
528.51	1132.12
528.86	1126.73
529.22	1121.82
529.58	1124.39
529.93	1131.88
530.29	1129.07
530.65	1134.46
531.00	1130.95
531.36	1120.65
531.71	1114.33
532.07	1107.54
532.43	1099.12
532.78	1114.80
533.14	1122.29
533.49	1127.44
533.85	1136.33
534.21	1136.33
534.56	1124.63
534.92	1119.71
535.27	1098.65
535.63	1087.65
535.98	1085.07
536.34	1092.09
536.69	1092.33
537.05	1102.39
537.41	1105.67
537.76	1108.95
538.12	1111.29
538.47	1112.92
538.83	1105.44
539.18	1098.88
539.54	1093.03
539.89	1085.54
540.25	1098.41
540.60	1108.01
540.96	1109.88
541.31	1106.61
541.67	1108.48
542.02	1093.26
542.38	1087.88
542.73	1094.20
543.09	1100.99
543.44	1095.60
543.80	1099.35
544.15	1105.90
544.51	1109.18
544.86	1111.75
545.22	1107.78
545.57	1111.29
545.93	1114.56
546.28	1117.37
546.64	1121.82
546.99	1130.71
547.35	1135.86
547.70	1133.76
548.05	1130.24
548.41	1126.03
548.76	1133.05
549.12	1125.33
549.47	1122.29
549.83	1113.39
550.18	1112.46
550.53	1099.82
550.89	1100.29
551.24	1097.01
551.60	1095.14
551.95	1094.67
552.30	1090.69
552.66	1085.54
553.01	1091.86
553.37	1108.48
553.72	1112.69
554.07	1121.82
554.43	1124.39
554.78	1117.84
555.13	1112.46
555.49	1092.80
555.84	1089.99
556.19	1094.90
556.55	1096.78
556.90	1093.03
557.26	1107.07
557.61	1107.07
557.96	1104.26
558.32	1104.73
558.67	1100.99
559.02	1094.90
559.37	1097.01
559.73	1104.50
560.08	1107.54
560.43	1104.03
560.79	1101.22
561.14	1093.73
561.49	1079.22
561.85	1066.58
562.20	1064.71
562.55	1070.80
562.90	1071.50
563.26	1078.99
563.61	1093.50
563.96	1109.65
564.32	1108.24
564.67	1114.56
565.02	1114.33
565.37	1108.71
565.73	1100.52
566.08	1093.03
566.43	1099.82
566.78	1094.90
567.14	1095.60
567.49	1093.26
567.84	1111.05
568.19	1099.82
568.54	1102.63
568.90	1096.78
569.25	1096.78
569.60	1088.58
569.95	1101.92
570.31	1098.88
570.66	1107.07
571.01	1115.27
571.36	1112.69
571.71	1094.43
572.06	1104.73
572.42	1102.39
572.77	1094.90
573.12	1100.75
573.47	1093.73
573.82	1084.84
574.18	1092.09
574.53	1101.46
574.88	1101.22
575.23	1118.78
575.58	1114.80
575.93	1106.84
576.28	1103.80
576.64	1104.50
576.99	1102.39
577.34	1096.31
577.69	1093.73
578.04	1080.39
578.39	1078.99
578.74	1078.28
579.09	1088.58
579.44	1092.09
579.80	1104.97
580.15	1100.52
580.50	1099.12
580.85	1092.33
581.20	1091.63
581.55	1086.71
581.90	1090.46
582.25	1090.46
582.60	1104.73
582.95	1104.97
583.30	1107.54
583.65	1104.73
584.00	1104.26
584.35	1096.78
584.71	1094.67
585.06	1087.65
585.41	1095.60
585.76	1096.78
586.11	1095.37
586.46	1087.65
586.81	1091.39
587.16	1094.43
587.51	1083.20
587.86	1095.14
588.21	1104.73
588.56	1111.52
588.91	1105.44
589.26	1117.37
589.61	1104.03
589.96	1108.95
590.31	1106.61
590.66	1094.20
591.01	1089.52
591.36	1085.54
591.71	1070.09
592.06	1060.50
592.41	1070.09
592.76	1075.24
593.10	1077.11
593.45	1090.46
593.80	1097.01
594.15	1099.58
594.50	1098.65
594.85	1097.71
595.20	1092.09
595.55	1092.09
595.90	1086.24
596.25	1080.39
596.60	1090.22
596.95	1094.43
597.30	1091.39
597.64	1141.48
597.99	1141.25
598.34	1142.18
598.69	1135.16
599.04	1132.12
599.39	1080.86
599.74	1075.48
600.09	1074.54
600.44	1068.92
600.78	1079.46
601.13	1088.58
601.48	1097.71
601.83	1101.22
602.18	1102.39
602.53	1092.33
602.88	1083.67
603.22	1081.33
603.57	1072.20
603.92	1084.14
604.27	1099.12
604.62	1108.71
604.97	1109.65
605.31	1118.07
605.66	1111.05
606.01	1098.41
606.36	1088.82
606.71	1089.52
607.05	1080.86
607.40	1085.07
607.75	1080.63
608.10	1085.31
608.44	1085.31
608.79	1085.54
609.14	1080.86
609.49	1086.48
609.84	1087.65
610.18	1088.35
610.53	1089.29
610.88	1094.67
611.23	1094.43
611.57	1095.37
611.92	1103.80
612.27	1111.52
612.62	1114.33
612.96	1123.93
613.31	1121.12
613.66	1111.99
614.00	1115.03
614.35	1115.27
614.70	1099.58
615.05	1105.44
615.39	1106.14
615.74	1107.54
616.09	1100.75
616.43	1095.60
616.78	1083.20
617.13	1068.22
617.47	1064.94
617.82	1071.03
618.17	1073.37
618.51	1079.92
618.86	1093.50
619.21	1088.12
619.55	1092.56
619.90	1097.71
620.25	1088.58
620.59	1096.07
620.94	1085.54
621.29	1076.65
621.63	1086.48
621.98	1086.01
622.32	1081.33
622.67	1082.97
623.02	1078.52
623.36	1074.54
623.71	1076.65
624.05	1073.37
624.40	1080.63
624.75	1093.03
625.09	1096.78
625.44	1092.09
625.78	1086.94
626.13	1089.75
626.48	1089.29
626.82	1094.20
627.17	1097.48
627.51	1104.26
627.86	1108.48
628.20	1093.03
628.55	1081.33
628.89	1096.78
629.24	1102.39
629.58	1097.01
629.93	1105.90
630.28	1098.88
630.62	1085.31
630.97	1075.94
631.31	1059.09
631.66	1062.37
632.00	1066.35
632.35	1068.69
632.69	1075.01
633.04	1094.90
633.38	1087.65
633.73	1089.52
634.07	1098.41
634.42	1094.20
634.76	1083.20
635.11	1090.92
635.45	1091.86
635.79	1090.69
636.14	1092.56
636.48	1089.05
636.83	1082.97
637.17	1078.28
637.52	1073.14
637.86	1057.69
638.21	1067.28
638.55	1070.80
638.89	1069.86
639.24	1074.54
639.58	1077.58
639.93	1072.90
640.27	1074.31
640.61	1087.88
640.96	1081.56
641.30	1082.26
641.65	1082.73
641.99	1071.97
642.33	1066.35
642.68	1065.18
643.02	1068.69
643.37	1080.63
643.71	1100.05
644.05	1096.54
644.40	1102.86
644.74	1107.07
645.08	1094.90
645.43	1087.41
645.77	1095.60
646.11	1096.54
646.46	1094.20
646.80	1101.22
647.14	1092.09
647.49	1090.46
647.83	1087.65
648.17	1093.97
648.52	1078.99
648.86	1082.73
649.20	1071.97
649.55	1065.65
649.89	1056.75
650.23	1072.43
650.57	1077.82
650.92	1082.03
651.26	1090.92
651.60	1094.67
651.95	1083.90
652.29	1072.67
652.63	1070.80
652.97	1063.54
653.32	1065.41
653.66	1072.90
654.00	1084.37
654.34	1092.56
654.69	1087.18
655.03	1094.20
655.37	1098.88
655.71	1095.14
656.05	1090.92
656.40	1093.50
656.74	1095.84
657.08	1086.48
657.42	1093.03
657.76	1087.18
658.11	1093.03
658.45	1078.52
658.79	1083.90
659.13	1080.39
659.47	1095.60
659.82	1102.39
660.16	1099.58
660.50	1103.09
660.84	1096.31
661.18	1089.99
661.52	1082.73
661.87	1094.20
662.21	1092.56
662.55	1094.67
662.89	1088.82
663.23	1087.41
663.57	1091.63
663.91	1086.48
664.25	1084.60
664.60	1097.48
664.94	1099.12
665.28	1092.33
665.62	1094.90
665.96	1103.33
666.30	1095.37
666.64	1095.14
666.98	1097.95
667.32	1100.99
667.66	1091.16
668.01	1083.43
668.35	1078.28
668.69	1071.97
669.03	1060.50
669.37	1058.16
669.71	1059.79
670.05	1064.94
670.39	1065.18
670.73	1079.46
671.07	1096.78
671.41	1106.61
671.75	1106.14
672.09	1103.09
672.43	1094.67
672.77	1080.63
673.11	1076.18
673.45	1074.31
673.79	1078.52
674.13	1080.39
674.47	1088.82
674.81	1091.16
675.15	1095.37
675.49	1093.73
675.83	1089.52
676.17	1077.11
676.51	1083.43
676.85	1080.39
677.19	1081.80
677.53	1080.16
677.87	1085.54
678.21	1082.50
678.55	1080.39
678.89	1089.99
679.23	1094.90
679.57	1102.39
679.90	1095.37
680.24	1095.84
680.58	1098.65
680.92	1099.35
681.26	1086.94
681.60	1083.90
681.94	1082.03
682.28	1073.37
682.62	1068.92
682.96	1073.84
683.29	1072.67
683.63	1079.69
683.97	1078.52
684.31	1086.71
684.65	1087.18
684.99	1087.88
685.33	1083.90
685.67	1081.56
686.00	1074.07
686.34	1064.71
686.68	1065.41
687.02	1063.07
687.36	1072.43
687.70	1076.41
688.03	1086.01
688.37	1091.63
688.71	1096.07
689.05	1090.46
689.39	1085.07
689.72	1078.28
690.06	1071.03
690.40	1074.07
690.74	1070.56
691.08	1072.90
691.41	1080.86
691.75	1085.77
692.09	1075.01
692.43	1080.39
692.76	1085.31
693.10	1086.48
693.44	1079.46
693.78	1079.92
694.11	1063.77
694.45	1054.18
694.79	1051.37
695.13	1055.35
695.46	1066.35
695.80	1087.65
696.14	1085.54
696.48	1084.37
696.81	1088.35
697.15	1083.90
697.49	1083.20
697.82	1100.29
698.16	1105.90
698.50	1099.35
698.83	1106.37
699.17	1097.01
699.51	1088.82
699.84	1081.09
700.18	1085.31
700.52	1074.77
700.85	1079.69
701.19	1076.65
701.53	1076.41
701.86	1079.22
702.20	1085.31
702.54	1080.63
702.87	1077.82
703.21	1079.22
703.55	1079.22
703.88	1082.03
704.22	1076.65
704.55	1078.28
704.89	1083.67
705.23	1084.37
705.56	1077.58
705.90	1091.39
706.23	1091.39
706.57	1082.97
706.91	1075.48
707.24	1081.56
707.58	1069.62
707.91	1083.90
708.25	1091.63
708.58	1105.67
708.92	1103.56
709.26	1122.29
709.59	1106.37
709.93	1109.41
710.26	1103.80
710.60	1111.99
710.93	1101.92
711.27	1101.92
711.60	1101.46
711.94	1103.56
712.27	1092.33
712.61	1086.48
712.94	1090.92
713.28	1087.18
713.61	1077.58
713.95	1075.71
714.28	1072.20
714.62	1076.65
714.95	1071.50
715.29	1060.96
715.62	1065.88
715.96	1069.62
716.29	1070.09
716.63	1078.99
716.96	1090.69
717.29	1079.46
717.63	1080.63
717.96	1082.50
718.30	1084.84
718.63	1084.84
718.97	1090.46
719.30	1077.82
719.63	1070.09
719.97	1061.43
720.30	1064.94
720.64	1061.67
720.97	1069.86
721.30	1078.75
721.64	1084.37
721.97	1077.58
722.31	1082.03
722.64	1081.80
722.97	1080.86
723.31	1080.63
723.64	1088.82
723.97	1091.39
724.31	1101.69
724.64	1097.71
724.98	1079.22
725.31	1076.41
725.64	1083.43
725.98	1076.18
726.31	1072.43
726.64	1092.09
726.97	1099.35
727.31	1091.63
727.64	1089.05
727.97	1083.43
728.31	1076.18
728.64	1071.97
728.97	1071.73
729.31	1080.16
729.64	1097.24
729.97	1096.31
730.30	1089.05
730.64	1087.65
730.97	1082.50
731.30	1078.28
731.63	1080.63
731.97	1086.01
732.30	1087.41
732.63	1085.77
732.96	1087.41
733.30	1078.05
733.63	1069.86
733.96	1071.97
734.29	1064.24
734.63	1054.88
734.96	1065.18
735.29	1073.14
735.62	1075.01
735.95	1084.84
736.29	1097.24
736.62	1098.41
736.95	1105.90
737.28	1103.80
737.61	1109.41
737.94	1098.88
738.28	1091.86
738.61	1079.92
738.94	1076.65
739.27	1066.11
739.60	1054.65
739.93	1068.22
740.27	1075.01
740.60	1068.69
740.93	1073.37
741.26	1081.56
741.59	1074.77
741.92	1063.31
742.25	1088.58
742.58	1095.37
742.91	1095.60
743.25	1089.05
743.58	1097.24
743.91	1063.77
744.24	1055.82
744.57	1056.52
744.90	1059.56
745.23	1056.75
745.56	1077.82
745.89	1076.88
746.22	1078.28
746.55	1085.54
746.88	1088.82
747.21	1085.54
747.54	1082.26
747.87	1088.58
748.20	1080.39
748.53	1082.03
748.87	1076.18
749.20	1078.52
749.53	1071.26
749.86	1073.60
750.19	1060.50
750.52	1061.67
750.85	1055.58
751.18	1051.60
751.51	1053.71
751.84	1064.01
752.16	1066.82
752.49	1083.67
752.82	1090.69
753.15	1088.12
753.48	1087.18
753.81	1088.35
754.14	1081.33
754.47	1074.77
754.80	1074.77
755.13	1072.20
755.46	1078.52
755.79	1069.62
756.12	1076.18
756.45	1074.77
756.78	1089.52
757.11	1086.94
757.43	1102.63
757.76	1104.03
758.09	1106.14
758.42	1089.29
758.75	1081.80
759.08	1072.67
759.41	1061.20
759.74	1064.01
760.07	1070.33
760.39	1069.16
760.72	1071.97
761.05	1077.11
761.38	1071.03
761.71	1072.43
762.04	1072.20
762.36	1071.03
762.69	1070.56
763.02	1079.22
763.35	1070.56
763.68	1074.54
764.01	1076.65
764.33	1080.16
764.66	1077.35
764.99	1077.35
765.32	1068.22
765.65	1068.45
765.97	1062.37
766.30	1063.77
766.63	1070.33
766.96	1082.97
767.28	1077.58
767.61	1078.99
767.94	1079.92
768.27	1083.90
768.59	1081.09
768.92	1088.82
769.25	1089.52
769.58	1088.12
769.90	1087.41
770.23	1082.97
770.56	1071.03
770.89	1071.50
771.21	1073.14
771.54	1067.75
771.87	1065.41
772.19	1069.16
772.52	1062.37
772.85	1067.52
773.17	1061.90
773.50	1061.20
773.83	1056.05
774.15	1067.52
774.48	1058.86
774.81	1063.77
775.13	1064.94
775.46	1075.71
775.79	1074.77
776.11	1070.09
776.44	1065.65
776.77	1067.75
777.09	1065.18
777.42	1059.09
777.74	1060.03
778.07	1066.35
778.40	1078.28
778.72	1081.80
779.05	1089.99
779.37	1092.33
779.70	1086.94
780.03	1077.58
780.35	1075.48
780.68	1066.11
781.00	1067.52
781.33	1069.39
781.65	1061.90
781.98	1057.92
782.31	1068.22
782.63	1074.31
782.96	1082.50
783.28	1083.67
783.61	1092.09
783.93	1086.94
784.26	1074.54
784.58	1073.37
784.91	1070.33
785.23	1061.20
785.56	1067.05
785.88	1066.58
786.21	1068.45
786.53	1077.58
786.86	1075.94
787.18	1079.92
787.51	1092.80
787.83	1085.54
788.16	1087.41
788.48	1096.54
788.81	1090.92
789.13	1086.24
789.46	1084.60
789.78	1079.92
790.10	1078.05
790.43	1076.41
790.75	1072.20
791.08	1075.24
791.40	1085.31
791.73	1086.01
792.05	1094.67
792.37	1091.63
792.70	1097.01
793.02	1092.80
793.35	1084.14
793.67	1071.26
793.99	1077.58
794.32	1082.26
794.64	1075.48
794.96	1081.33
795.29	1078.99
795.61	1078.05
795.93	1069.62
796.26	1076.18
796.58	1073.14
796.91	1081.80
797.23	1077.58
797.55	1076.65
797.87	1079.69
798.20	1084.14
798.52	1069.86
798.84	1072.90
799.17	1077.11
799.49	1075.24
799.81	1076.41
800.14	1078.75
800.46	1083.90
800.78	1076.18
801.10	1069.16
801.43	1078.52
801.75	1084.14
802.07	1079.92
802.40	1081.09
802.72	1080.16
803.04	1064.24
803.36	1064.94
803.69	1067.99
804.01	1070.56
804.33	1075.24
804.65	1078.28
804.97	1073.84
805.30	1069.16
805.62	1074.31
805.94	1078.75
806.26	1082.97
806.58	1091.16
806.91	1096.07
807.23	1104.73
807.55	1097.95
807.87	1094.43
808.19	1101.22
808.52	1103.09
808.84	1088.35
809.16	1092.33
809.48	1095.14
809.80	1083.20
810.12	1081.09
810.44	1083.20
810.77	1082.73
811.09	1075.48
811.41	1072.67
811.73	1075.01
812.05	1066.82
812.37	1062.84
812.69	1069.86
813.01	1071.97
813.33	1063.31
813.66	1079.46
813.98	1085.07
814.30	1085.31
814.62	1087.18
814.94	1088.58
815.26	1082.97
815.58	1084.37
815.90	1080.63
816.22	1078.99
816.54	1087.88
816.86	1088.58
817.18	1079.92
817.50	1074.54
817.82	1075.24
818.14	1064.48
818.46	1064.94
818.78	1076.88
819.10	1077.35
819.42	1090.69
819.74	1089.99
820.06	1084.60
820.38	1072.67
820.70	1080.86
821.02	1067.75
821.34	1077.58
821.66	1078.28
821.98	1084.37
822.30	1082.26
822.62	1092.56
822.94	1090.22
823.26	1094.67
823.58	1087.41
823.90	1091.63
824.22	1084.37
824.54	1074.54
824.86	1067.99
825.18	1076.65
825.50	1076.65
825.81	1070.33
826.13	1076.41
826.45	1075.24
826.77	1065.65
827.09	1057.45
827.41	1067.05
827.73	1069.62
828.05	1075.71
828.36	1083.20
828.68	1086.01
829.00	1082.26
829.32	1077.35
829.64	1075.01
829.96	1068.69
830.28	1068.69
830.59	1067.05
830.91	1062.37
831.23	1060.96
831.55	1070.33
831.87	1074.77
832.19	1069.86
832.50	1072.67
832.82	1076.41
833.14	1067.05
833.46	1066.82
833.78	1081.09
834.09	1081.09
834.41	1071.50
834.73	1074.07
835.05	1076.41
835.36	1075.71
835.68	1082.97
836.00	1090.92
836.32	1092.56
836.63	1093.97
836.95	1081.80
837.27	1080.39
837.59	1079.92
837.90	1076.18
838.22	1074.07
838.54	1081.80
838.85	1078.75
839.17	1082.26
839.49	1091.86
839.80	1083.67
840.12	1081.09
840.44	1086.71
840.76	1079.46
841.07	1077.11
841.39	1080.39
841.71	1079.92
842.02	1080.86
842.34	1089.52
842.65	1095.14
842.97	1103.56
843.29	1103.80
843.60	1088.58
843.92	1091.86
844.24	1081.09
844.55	1076.18
844.87	1080.16
845.18	1098.65
845.50	1088.12
845.82	1086.48
846.13	1076.18
846.45	1071.97
846.76	1068.69
847.08	1065.88
847.40	1062.84
847.71	1069.39
848.03	1072.90
848.34	1065.88
848.66	1070.33
848.97	1072.67
849.29	1072.67
849.60	1070.09
849.92	1076.41
850.24	1076.41
850.55	1087.18
850.87	1095.37
851.18	1093.97
851.50	1085.77
851.81	1091.16
852.13	1079.46
852.44	1073.60
852.76	1078.75
853.07	1088.12
853.39	1077.82
853.70	1081.80
854.01	1080.39
854.33	1081.09
854.64	1081.09
854.96	1087.65
855.27	1081.56
855.59	1080.86
855.90	1080.16
856.22	1070.56
856.53	1074.54
856.84	1079.22
857.16	1078.28
857.47	1075.01
857.79	1082.03
858.10	1077.58
858.41	1081.56
858.73	1081.80
859.04	1084.37
859.36	1077.35
859.67	1079.92
859.98	1076.18
860.30	1078.28
860.61	1078.28
860.92	1078.52
861.24	1073.60
861.55	1079.46
861.87	1067.28
862.18	1060.03
862.49	1055.11
862.81	1062.60
863.12	1060.26
863.43	1076.65
863.74	1088.82
864.06	1092.33
864.37	1087.88
864.68	1078.28
865.00	1072.90
865.31	1068.69
865.62	1066.11
865.94	1065.88
866.25	1079.46
866.56	1077.11
866.87	1073.37
867.19	1085.31
867.50	1079.46
867.81	1064.48
868.12	1078.05
868.44	1082.03
868.75	1068.69
869.06	1070.80
869.37	1083.90
869.68	1067.99
870.00	1060.96
870.31	1077.58
870.62	1085.31
870.93	1079.22
871.24	1083.43
871.56	1090.69
871.87	1082.26
872.18	1076.18
872.49	1080.86
872.80	1081.80
873.12	1078.28
873.43	1074.54
873.74	1081.56
874.05	1076.65
874.36	1080.86
874.67	1082.97
874.98	1097.01
875.29	1091.86
875.61	1097.48
875.92	1085.54
876.23	1082.50
876.54	1070.80
876.85	1066.11
877.16	1072.67
877.47	1079.92
877.78	1085.77
878.09	1093.73
878.40	1100.29
878.72	1096.78
879.03	1099.82
879.34	1100.99
879.65	1105.67
879.96	1106.37
880.27	1099.12
880.58	1099.35
880.89	1089.75
881.20	1078.05
881.51	1073.14
881.82	1079.92
882.13	1076.88
882.44	1083.43
882.75	1087.18
883.06	1082.03
883.37	1077.58
883.68	1085.07
883.99	1080.86
884.30	1086.71
884.61	1092.80
884.92	1094.67
885.23	1083.67
885.54	1089.05
885.85	1080.63
886.16	1082.03
886.47	1084.84
886.78	1090.22
887.08	1088.35
887.39	1095.37
887.70	1093.50
888.01	1088.12
888.32	1091.63
888.63	1090.22
888.94	1081.80
889.25	1076.65
889.56	1076.88
889.87	1063.54
890.17	1060.26
890.48	1059.79
890.79	1061.43
891.10	1059.09
891.41	1070.56
891.72	1072.20
892.03	1072.67
892.34	1074.07
892.64	1079.92
892.95	1070.33
893.26	1070.33
893.57	1069.62
893.88	1073.14
894.18	1070.33
894.49	1083.43
894.80	1083.90
895.11	1079.92
895.42	1083.20
895.72	1088.35
896.03	1079.46
896.34	1079.69
896.65	1095.37
896.96	1091.86
897.26	1081.56
897.57	1077.35
897.88	1075.24
898.19	1068.22
898.49	1062.84
898.80	1069.86
899.11	1076.88
899.41	1078.75
899.72	1075.01
900.03	1072.90
900.34	1063.54
900.64	1056.05
900.95	1055.11
901.26	1062.37
901.56	1071.73
901.87	1080.39
902.18	1086.01
902.48	1087.41
902.79	1091.39
903.10	1092.09
903.40	1096.07
903.71	1104.50
904.02	1114.33
904.32	1104.03
904.63	1109.18
904.94	1101.92
905.24	1094.20
905.55	1087.88
905.85	1097.48
906.16	1089.75
906.47	1088.12
906.77	1101.46
907.08	1104.50
907.38	1095.14
907.69	1093.50
908.00	1092.80
908.30	1075.48
908.61	1070.09
908.91	1076.18
909.22	1077.58
909.52	1075.71
909.83	1086.48
910.14	1078.28
910.44	1075.01
910.75	1076.65
911.05	1079.69
911.36	1080.63
911.66	1092.56
911.97	1085.54
912.27	1088.12
912.58	1084.37
912.88	1074.31
913.19	1076.41
913.49	1084.37
913.80	1087.88
914.10	1094.90
914.41	1099.82
914.71	1098.41
915.01	1096.31
915.32	1093.73
915.62	1089.52
915.93	1091.63
916.23	1085.54
916.54	1077.11
916.84	1065.65
917.15	1069.39
917.45	1070.09
917.75	1067.28
918.06	1073.84
918.36	1074.07
918.67	1069.62
918.97	1060.03
919.27	1064.94
919.58	1067.28
919.88	1078.05
920.18	1081.09
920.49	1091.16
920.79	1088.35
921.10	1091.39
921.40	1083.90
921.70	1084.37
922.01	1091.86
922.31	1090.69
922.61	1075.01
922.92	1085.54
923.22	1084.84
923.52	1060.50
923.82	1063.77
924.13	1076.88
924.43	1074.77
924.73	1078.28
925.04	1094.43
925.34	1100.05
925.64	1092.80
925.94	1085.31
926.25	1082.26
926.55	1085.07
926.85	1075.71
927.15	1085.31
927.46	1078.75
927.76	1082.26
928.06	1074.77
928.36	1069.86
928.67	1056.28
928.97	1063.54
929.27	1058.62
929.57	1058.86
929.87	1067.75
930.18	1078.28
930.48	1077.11
930.78	1080.86
931.08	1081.33
931.38	1075.24
931.69	1068.45
931.99	1065.41
932.29	1060.50
932.59	1062.37
932.89	1067.52
933.19	1076.65
933.49	1079.92
933.80	1093.03
934.10	1090.69
934.40	1092.33
934.70	1091.39
935.00	1091.63
935.30	1077.35
935.60	1076.41
935.90	1075.24
936.20	1068.92
936.50	1078.52
936.81	1091.86
937.11	1094.90
937.41	1097.24
937.71	1103.33
938.01	1092.33
938.31	1071.03
938.61	1067.52
938.91	1059.79
939.21	1051.13
939.51	1051.60
939.81	1056.99
940.11	1060.03
940.41	1060.03
940.71	1064.01
941.01	1064.71
941.31	1080.39
941.61	1078.52
941.91	1082.73
942.21	1080.39
942.51	1090.69
942.81	1083.67
943.11	1079.69
943.41	1084.14
943.71	1090.22
944.01	1087.18
944.31	1088.58
944.61	1097.48
944.90	1099.12
945.20	1095.37
945.50	1089.75
945.80	1091.63
946.10	1090.46
946.40	1085.54
946.70	1085.77
947.00	1079.69
947.30	1067.75
947.60	1054.41
947.89	1052.07
948.19	1047.16
948.49	1051.60
948.79	1065.41
949.09	1067.99
949.39	1071.73
949.69	1090.22
949.98	1093.97
950.28	1086.01
950.58	1094.20
950.88	1084.60
951.18	1077.82
951.48	1070.33
951.77	1072.67
952.07	1066.35
952.37	1080.16
952.67	1067.52
952.97	1079.69
953.26	1073.60
953.56	1071.73
953.86	1065.88
954.16	1074.07
954.45	1062.60
954.75	1065.88
955.05	1071.03
955.35	1070.80
955.64	1075.01
955.94	1080.86
956.24	1080.63
956.54	1071.50
956.83	1074.54
957.13	1069.39
957.43	1069.86
957.72	1075.71
958.02	1086.94
958.32	1080.39
958.61	1081.33
958.91	1069.39
959.21	1068.69
959.50	1076.41
959.80	1081.33
960.10	1092.56
960.39	1101.22
960.69	1100.52
960.99	1086.48
961.28	1088.35
961.58	1070.80
961.87	1072.20
962.17	1074.31
962.47	1077.82
962.76	1074.54
963.06	1085.54
963.36	1079.69
963.65	1067.28
963.95	1071.03
964.24	1076.88
964.54	1076.88
964.83	1076.41
965.13	1081.56
965.42	1075.94
965.72	1066.11
966.02	1064.71
966.31	1068.22
966.61	1079.22
966.90	1074.07
967.20	1084.14
967.49	1080.63
967.79	1079.22
968.08	1064.94
968.38	1084.60
968.67	1079.69
968.97	1078.99
969.26	1083.67
969.56	1096.54
969.85	1087.88
970.15	1087.18
970.44	1086.24
970.74	1092.56
971.03	1079.46
971.32	1073.60
971.62	1078.75
971.91	1083.20
972.21	1073.37
972.50	1079.69
972.80	1086.48
973.09	1078.28
973.38	1078.05
973.68	1085.54
973.97	1085.07
974.27	1085.31
974.56	1085.77
974.85	1084.60
975.15	1073.37
975.44	1080.63
975.73	1072.43
976.03	1075.48
976.32	1068.45
976.61	1072.67
976.91	1063.77
977.20	1067.75
977.49	1072.20
977.79	1068.92
978.08	1071.73
978.37	1066.82
978.67	1070.80
978.96	1059.33
979.25	1074.07
979.55	1075.71
979.84	1082.97
980.13	1076.18
980.42	1075.01
980.72	1070.33
981.01	1065.88
981.30	1066.82
981.59	1073.84
981.89	1087.88
982.18	1088.35
982.47	1089.05
982.76	1078.52
983.06	1080.39
983.35	1079.22
983.64	1073.84
983.93	1075.24
984.22	1084.14
984.52	1076.65
984.81	1073.14
985.10	1070.56
985.39	1068.92
985.68	1068.69
985.97	1073.84
986.27	1060.26
986.56	1063.07
986.85	1070.33
987.14	1075.94
987.43	1077.11
987.72	1087.41
988.01	1089.75
988.31	1090.22
988.60	1086.01
988.89	1076.65
989.18	1075.48
989.47	1074.77
989.76	1065.65
990.05	1069.39
990.34	1069.39
990.63	1077.35
990.92	1072.43
991.21	1071.50
991.51	1069.86
991.80	1076.41
992.09	1061.43
992.38	1062.37
992.67	1071.97
992.96	1067.75
993.25	1066.82
993.54	1079.92
993.83	1084.14
994.12	1081.56
994.41	1084.37
994.70	1089.29
994.99	1087.88
995.28	1083.67
995.57	1075.94
995.86	1078.52
996.15	1075.94
996.44	1070.56
996.73	1082.03
997.02	1086.48
997.31	1085.54
997.59	1087.41
997.88	1092.80
998.17	1090.69
998.46	1091.63
998.75	1092.80
999.04	1088.12
999.33	1077.58
999.62	1075.01
999.91	1076.18
1000.20	1071.03
1000.49	1075.01
1000.77	1077.58
1001.06	1070.09
1001.35	1070.80
1001.64	1078.05
1001.93	1073.37
1002.22	1081.33
1002.51	1087.88
1002.79	1096.78
1003.08	1096.54
1003.37	1099.82
1003.66	1095.37
1003.95	1093.50
1004.23	1095.60
1004.52	1093.97
1004.81	1093.03
1005.10	1095.14
1005.39	1096.54
1005.67	1089.05
1005.96	1085.31
1006.25	1088.12
1006.54	1087.18
1006.83	1088.82
1007.11	1075.94
1007.40	1077.82
1007.69	1077.58
1007.97	1081.33
1008.26	1078.52
1008.55	1093.03
1008.84	1087.18
1009.12	1078.75
1009.41	1074.31
1009.70	1076.65
1009.98	1069.86
1010.27	1070.80
1010.56	1071.03
1010.85	1071.26
1011.13	1074.07
1011.42	1081.09
1011.71	1078.28
1011.99	1089.52
1012.28	1093.03
1012.56	1091.39
1012.85	1089.29
1013.14	1105.67
1013.42	1093.73
1013.71	1085.07
1014.00	1084.60
1014.28	1083.67
1014.57	1068.92
1014.85	1074.31
1015.14	1085.07
1015.43	1086.94
1015.71	1083.43
1016.00	1098.65
1016.28	1109.88
1016.57	1098.88
1016.85	1091.86
1017.14	1087.18
1017.43	1074.54
1017.71	1067.28
1018.00	1079.22
1018.28	1074.31
1018.57	1075.71
1018.85	1078.99
1019.14	1072.67
1019.42	1078.05
1019.71	1093.97
1019.99	1101.46
1020.28	1098.65
1020.56	1092.80
1020.85	1082.73
1021.13	1065.88
1021.42	1061.90
1021.70	1076.88
1021.99	1090.46
1022.27	1090.92
1022.55	1108.24
1022.84	1084.84
>>>>>End Processed Spectral Data<<<<<
