SpectraSuite Data File
++++++++++++++++++++++++++++++++++++
Date: Mon Aug 26 10:24:47 PDT 2019
User: corrico
Dark Spectrum Present: No
Reference Spectrum Present: No
Number of Sampled Component Spectra: 1
Spectrometers: USB2+H06089
Integration Time (usec): 10000 (USB2+H06089)
Spectra Averaged: 2 (USB2+H06089)
Boxcar Smoothing: 2 (USB2+H06089)
Correct for Electrical Dark: No (USB2+H06089)
Strobe/Lamp Enabled: No (USB2+H06089)
Correct for Detector Non-linearity: No (USB2+H06089)
Correct for Stray Light: No (USB2+H06089)
Number of Pixels in Processed Spectrum: 2048
>>>>>Begin Processed Spectral Data<<<<<
339.70	1013.45
340.07	1013.45
340.45	970.39
340.82	956.11
341.19	925.68
341.57	901.34
341.94	893.15
342.31	893.38
342.69	883.32
343.06	891.28
343.43	895.72
343.81	897.13
344.18	898.77
344.55	900.40
344.93	905.55
345.30	910.70
345.67	919.83
346.04	916.55
346.42	924.04
346.79	933.41
347.16	939.02
347.54	947.21
347.91	970.15
348.28	985.60
348.65	996.37
349.03	1006.66
349.40	1022.81
349.77	1025.62
350.14	1028.90
350.52	1029.37
350.89	1040.37
351.26	1041.07
351.63	1062.14
352.01	1074.77
352.38	1086.01
352.75	1082.50
353.12	1085.31
353.50	1080.16
353.87	1077.82
354.24	1076.88
354.61	1079.46
354.98	1089.05
355.36	1088.35
355.73	1091.39
356.10	1099.58
356.47	1109.88
356.84	1109.18
357.22	1113.39
357.59	1108.48
357.96	1106.61
358.33	1106.84
358.70	1103.56
359.08	1103.80
359.45	1107.07
359.82	1098.41
360.19	1086.24
360.56	1080.63
360.94	1084.14
361.31	1085.31
361.68	1089.75
362.05	1093.03
362.42	1089.29
362.79	1082.97
363.16	1077.82
363.54	1073.60
363.91	1070.33
364.28	1077.82
364.65	1074.07
365.02	1080.39
365.39	1080.39
365.76	1081.56
366.14	1082.97
366.51	1084.37
366.88	1085.54
367.25	1075.24
367.62	1086.71
367.99	1082.03
368.36	1073.60
368.73	1055.58
369.10	1062.60
369.48	1057.69
369.85	1054.88
370.22	1060.50
370.59	1073.37
370.96	1077.11
371.33	1077.58
371.70	1092.09
372.07	1096.78
372.44	1101.92
372.81	1103.80
373.18	1101.22
373.55	1087.41
373.93	1085.54
374.30	1085.77
374.67	1090.69
375.04	1092.33
375.41	1096.31
375.78	1092.80
376.15	1090.46
376.52	1091.63
376.89	1094.20
377.26	1096.54
377.63	1098.88
378.00	1101.22
378.37	1097.01
378.74	1098.65
379.11	1095.14
379.48	1095.14
379.85	1096.78
380.22	1095.37
380.59	1084.14
380.96	1087.65
381.33	1091.16
381.70	1094.20
382.07	1089.99
382.44	1098.65
382.81	1097.95
383.18	1102.63
383.55	1097.71
383.92	1102.16
384.29	1096.31
384.66	1101.46
385.03	1096.54
385.40	1088.35
385.77	1088.35
386.14	1092.09
386.51	1086.94
386.88	1084.60
387.25	1092.80
387.62	1098.88
387.99	1107.07
388.36	1113.16
388.73	1115.03
389.10	1119.71
389.46	1115.73
389.83	1106.61
390.20	1108.71
390.57	1108.95
390.94	1104.97
391.31	1108.01
391.68	1104.03
392.05	1104.50
392.42	1114.80
392.79	1113.16
393.16	1115.50
393.53	1128.84
393.89	1123.93
394.26	1113.63
394.63	1105.90
395.00	1106.14
395.37	1104.03
395.74	1105.67
396.11	1107.78
396.48	1118.07
396.84	1118.78
397.21	1117.14
397.58	1115.97
397.95	1114.10
398.32	1122.05
398.69	1124.63
399.06	1128.61
399.42	1139.84
399.79	1155.76
400.16	1148.97
400.53	1147.33
400.90	1146.86
401.27	1137.50
401.64	1135.86
402.00	1139.61
402.37	1146.63
402.74	1155.05
403.11	1162.54
403.48	1163.48
403.84	1185.25
404.21	1194.84
404.58	1200.23
404.95	1213.33
405.32	1232.99
405.68	1239.08
406.05	1248.91
406.42	1274.89
406.79	1293.85
407.16	1312.34
407.52	1332.23
407.89	1344.64
408.26	1358.92
408.63	1384.43
408.99	1398.24
409.36	1420.71
409.73	1462.37
410.10	1484.60
410.47	1511.75
410.83	1557.16
411.20	1597.18
411.57	1636.03
411.94	1688.70
412.30	1739.95
412.67	1791.21
413.04	1823.51
413.40	1873.36
413.77	1929.07
414.14	1995.54
414.51	2062.71
414.87	2159.38
415.24	2238.49
415.61	2323.45
415.97	2399.75
416.34	2498.99
416.71	2599.40
417.08	2721.34
417.44	2837.67
417.81	2984.42
418.18	3115.72
418.54	3251.47
418.91	3397.76
419.28	3557.15
419.64	3705.07
420.01	3871.95
420.38	4076.75
420.74	4265.63
421.11	4483.30
421.48	4713.37
421.84	4948.59
422.21	5192.01
422.58	5479.43
422.94	5792.12
423.31	6074.39
423.68	6410.03
424.04	6740.98
424.41	7068.42
424.77	7379.48
425.14	7741.79
425.51	8079.30
425.87	8460.80
426.24	8843.71
426.61	9300.82
426.97	9830.95
427.34	10347.27
427.70	10898.24
428.07	11459.26
428.44	12016.78
428.80	12579.44
429.17	13185.17
429.53	13756.50
429.90	14461.23
430.27	15052.45
430.63	15655.38
431.00	16389.84
431.36	17191.94
431.73	17877.71
432.09	18678.88
432.46	19492.45
432.83	20221.06
433.19	20873.13
433.56	21586.53
433.92	22337.37
434.29	23018.00
434.65	23788.50
435.02	24491.60
435.38	25295.11
435.75	25872.52
436.11	26556.89
436.48	27040.44
436.84	27720.60
437.21	28172.56
437.57	28686.54
437.94	29142.95
438.30	29659.74
438.67	29867.81
439.03	30066.29
439.40	30320.70
439.76	30267.57
440.13	30111.23
440.49	30121.06
440.86	29866.64
441.22	29559.56
441.59	29228.61
441.95	28836.80
442.32	28179.35
442.68	27783.33
443.05	27092.87
443.41	26520.14
443.78	25853.56
444.14	25244.08
444.51	24504.00
444.87	24133.50
445.24	23547.66
445.60	23062.94
445.96	22518.29
446.33	22025.85
446.69	21306.13
447.06	20762.19
447.42	20081.33
447.79	19489.41
448.15	18958.57
448.51	18431.48
448.88	17963.61
449.24	17535.53
449.61	17182.81
449.97	16733.43
450.33	16303.94
450.70	15767.72
451.06	15383.64
451.43	14861.93
451.79	14466.85
452.15	14083.00
452.52	13774.05
452.88	13452.46
453.24	13177.45
453.61	12841.35
453.97	12537.31
454.34	12193.02
454.70	11850.83
455.06	11554.99
455.43	11230.83
455.79	10841.13
456.15	10501.98
456.52	10157.46
456.88	9834.46
457.24	9503.51
457.61	9250.27
457.97	9001.00
458.33	8697.90
458.70	8420.31
459.06	8165.90
459.42	7917.80
459.79	7674.15
460.15	7482.93
460.51	7221.02
460.88	6962.16
461.24	6732.79
461.60	6522.84
461.96	6289.49
462.33	6107.16
462.69	5944.96
463.05	5767.78
463.42	5617.99
463.78	5470.07
464.14	5334.08
464.50	5199.73
464.87	5069.60
465.23	4932.21
465.59	4824.31
465.95	4714.31
466.32	4596.34
466.68	4507.87
467.04	4406.29
467.40	4298.86
467.77	4197.05
468.13	4121.22
468.49	4033.21
468.85	3953.40
469.22	3875.69
469.58	3804.07
469.94	3728.71
470.30	3651.70
470.66	3577.74
471.03	3486.23
471.39	3414.37
471.75	3348.84
472.11	3290.56
472.47	3239.77
472.84	3210.98
473.20	3153.17
473.56	3111.98
473.92	3043.87
474.28	2983.95
474.65	2908.12
475.01	2866.69
475.37	2807.71
475.73	2762.30
476.09	2732.58
476.45	2707.53
476.81	2667.27
477.18	2620.70
477.54	2590.97
477.90	2536.67
478.26	2491.97
478.62	2447.97
478.98	2412.39
479.34	2379.15
479.71	2355.05
480.07	2330.71
480.43	2308.24
480.79	2277.34
481.15	2249.72
481.51	2216.02
481.87	2190.51
482.23	2150.72
482.59	2126.38
482.96	2106.01
483.32	2082.84
483.68	2071.14
484.04	2074.42
484.40	2052.18
484.76	2032.29
485.12	2010.05
485.48	1975.41
485.84	1934.69
486.20	1919.71
486.56	1889.75
486.92	1872.66
487.28	1867.51
487.64	1857.22
488.00	1836.38
488.37	1811.57
488.73	1789.11
489.09	1759.38
489.45	1737.15
489.81	1707.19
490.17	1695.02
490.53	1684.72
490.89	1675.12
491.25	1664.12
491.61	1661.55
491.97	1654.52
492.33	1646.10
492.69	1617.31
493.05	1597.65
493.41	1577.99
493.77	1551.78
494.13	1534.92
494.49	1516.90
494.85	1508.48
495.21	1489.75
495.57	1472.90
495.93	1455.81
496.29	1454.17
496.64	1431.94
497.00	1429.83
497.36	1440.60
497.72	1434.75
498.08	1419.07
498.44	1408.77
498.80	1392.62
499.16	1372.72
499.52	1358.21
499.88	1364.53
500.24	1365.00
500.60	1358.45
500.96	1361.49
501.32	1356.81
501.68	1331.06
502.03	1326.38
502.39	1328.02
502.75	1309.06
503.11	1301.81
503.47	1301.81
503.83	1302.74
504.19	1292.91
504.55	1289.64
504.91	1285.66
505.26	1290.10
505.62	1277.93
505.98	1265.06
506.34	1259.68
506.70	1251.95
507.06	1247.27
507.42	1246.57
507.78	1253.82
508.13	1248.21
508.49	1244.70
508.85	1244.46
509.21	1235.57
509.57	1232.29
509.93	1233.93
510.28	1224.57
510.64	1207.48
511.00	1203.74
511.36	1196.25
511.72	1188.99
512.07	1189.46
512.43	1195.55
512.79	1194.84
513.15	1195.78
513.51	1185.95
513.86	1187.82
514.22	1186.65
514.58	1186.89
514.94	1184.55
515.30	1193.91
515.65	1190.40
516.01	1187.59
516.37	1181.74
516.73	1179.40
517.08	1172.14
517.44	1180.33
517.80	1166.29
518.16	1157.16
518.51	1154.35
518.87	1152.71
519.23	1141.01
519.59	1144.76
519.94	1148.97
520.30	1144.52
520.66	1144.99
521.01	1143.35
521.37	1141.95
521.73	1138.44
522.09	1145.22
522.44	1147.33
522.80	1152.95
523.16	1166.76
523.51	1161.84
523.87	1157.16
524.23	1154.35
524.58	1146.63
524.94	1141.48
525.30	1139.37
525.65	1141.95
526.01	1134.93
526.37	1139.14
526.72	1126.27
527.08	1134.22
527.44	1129.54
527.79	1130.24
528.15	1128.14
528.51	1127.67
528.86	1128.37
529.22	1131.65
529.58	1137.97
529.93	1140.31
530.29	1148.27
530.65	1145.93
531.00	1142.88
531.36	1139.84
531.71	1134.46
532.07	1130.71
532.43	1128.37
532.78	1129.54
533.14	1120.65
533.49	1117.37
533.85	1116.44
534.21	1116.90
534.56	1115.73
534.92	1118.07
535.27	1121.35
535.63	1123.46
535.98	1122.29
536.34	1118.31
536.69	1112.46
537.05	1116.90
537.41	1119.48
537.76	1118.31
538.12	1118.31
538.47	1128.37
538.83	1122.29
539.18	1110.12
539.54	1117.14
539.89	1121.82
540.25	1110.82
540.60	1108.48
540.96	1117.14
541.31	1118.54
541.67	1110.82
542.02	1122.05
542.38	1121.58
542.73	1129.31
543.09	1124.16
543.44	1127.90
543.80	1123.69
544.15	1131.41
544.51	1120.18
544.86	1125.10
545.22	1126.97
545.57	1123.93
545.93	1112.69
546.28	1118.78
546.64	1109.65
546.99	1098.65
547.35	1094.90
547.70	1100.99
548.05	1099.82
548.41	1093.73
548.76	1104.03
549.12	1111.05
549.47	1124.39
549.83	1124.16
550.18	1135.63
550.53	1137.50
550.89	1144.76
551.24	1128.37
551.60	1121.82
551.95	1119.71
552.30	1113.16
552.66	1107.54
553.01	1106.14
553.37	1115.27
553.72	1100.05
554.07	1089.29
554.43	1079.92
554.78	1087.18
555.13	1076.18
555.49	1088.82
555.84	1099.35
556.19	1109.88
556.55	1111.52
556.90	1113.16
557.26	1106.37
557.61	1107.31
557.96	1107.31
558.32	1097.71
558.67	1093.97
559.02	1102.39
559.37	1093.03
559.73	1085.54
560.08	1085.31
560.43	1095.37
560.79	1089.75
561.14	1089.75
561.49	1098.41
561.85	1095.84
562.20	1082.50
562.55	1070.33
562.90	1078.75
563.26	1065.88
563.61	1074.54
563.96	1075.01
564.32	1093.26
564.67	1093.97
565.02	1112.46
565.37	1107.54
565.73	1114.80
566.08	1116.90
566.43	1112.22
566.78	1098.65
567.14	1099.58
567.49	1092.80
567.84	1089.29
568.19	1088.82
568.54	1091.63
568.90	1097.01
569.25	1092.09
569.60	1095.84
569.95	1102.39
570.31	1096.54
570.66	1088.35
571.01	1101.46
571.36	1094.90
571.71	1092.33
572.06	1098.65
572.42	1105.44
572.77	1104.73
573.12	1111.99
573.47	1120.65
573.82	1121.58
574.18	1126.97
574.53	1127.90
574.88	1119.48
575.23	1112.22
575.58	1108.01
575.93	1100.52
576.28	1089.29
576.64	1083.20
576.99	1077.11
577.34	1073.60
577.69	1068.45
578.04	1083.20
578.39	1095.60
578.74	1097.95
579.09	1100.99
579.44	1110.58
579.80	1106.14
580.15	1102.86
580.50	1101.92
580.85	1105.20
581.20	1093.03
581.55	1092.80
581.90	1087.88
582.25	1081.56
582.60	1073.84
582.95	1079.92
583.30	1076.18
583.65	1076.65
584.00	1079.22
584.35	1095.14
584.71	1093.73
585.06	1102.39
585.41	1108.01
585.76	1118.54
586.11	1106.84
586.46	1109.18
586.81	1102.39
587.16	1103.09
587.51	1093.73
587.86	1100.29
588.21	1100.75
588.56	1094.67
588.91	1091.16
589.26	1090.92
589.61	1089.05
589.96	1083.43
590.31	1084.84
590.66	1089.52
591.01	1097.48
591.36	1103.09
591.71	1110.35
592.06	1111.75
592.41	1105.20
592.76	1097.24
593.10	1092.56
593.45	1087.41
593.80	1089.29
594.15	1086.01
594.50	1088.82
594.85	1085.54
595.20	1090.69
595.55	1090.92
595.90	1095.37
596.25	1097.95
596.60	1104.97
596.95	1098.65
597.30	1097.95
597.64	1151.31
597.99	1155.29
598.34	1142.18
598.69	1142.42
599.04	1146.39
599.39	1100.52
599.74	1109.18
600.09	1110.12
600.44	1103.80
600.78	1098.18
601.13	1092.33
601.48	1075.94
601.83	1083.90
602.18	1091.16
602.53	1093.73
602.88	1086.01
603.22	1087.65
603.57	1086.01
603.92	1080.16
604.27	1078.52
604.62	1088.12
604.97	1092.33
605.31	1092.56
605.66	1096.54
606.01	1089.29
606.36	1082.97
606.71	1083.43
607.05	1083.90
607.40	1082.26
607.75	1087.18
608.10	1089.05
608.44	1083.20
608.79	1078.99
609.14	1069.39
609.49	1085.31
609.84	1078.52
610.18	1078.75
610.53	1079.46
610.88	1108.24
611.23	1089.52
611.57	1089.05
611.92	1087.88
612.27	1082.97
612.62	1074.31
612.96	1084.14
613.31	1097.95
613.66	1097.95
614.00	1106.14
614.35	1102.16
614.70	1100.99
615.05	1103.80
615.39	1107.07
615.74	1113.63
616.09	1110.12
616.43	1102.86
616.78	1096.54
617.13	1100.52
617.47	1080.16
617.82	1082.50
618.17	1099.58
618.51	1093.73
618.86	1086.94
619.21	1093.50
619.55	1095.60
619.90	1080.39
620.25	1082.50
620.59	1086.01
620.94	1084.60
621.29	1091.16
621.63	1096.31
621.98	1097.71
622.32	1103.09
622.67	1109.88
623.02	1101.46
623.36	1101.69
623.71	1100.29
624.05	1082.50
624.40	1083.20
624.75	1079.46
625.09	1073.84
625.44	1081.80
625.78	1089.29
626.13	1096.78
626.48	1100.52
626.82	1094.90
627.17	1087.41
627.51	1095.60
627.86	1082.73
628.20	1081.80
628.55	1101.46
628.89	1109.65
629.24	1106.14
629.58	1114.09
629.93	1111.29
630.28	1108.95
630.62	1095.14
630.97	1088.35
631.31	1093.03
631.66	1102.63
632.00	1085.77
632.35	1090.69
632.69	1093.26
633.04	1082.50
633.38	1072.43
633.73	1082.26
634.07	1075.94
634.42	1084.37
634.76	1081.09
635.11	1078.99
635.45	1075.01
635.79	1082.50
636.14	1080.39
636.48	1088.12
636.83	1091.86
637.17	1085.31
637.52	1089.05
637.86	1085.54
638.21	1084.84
638.55	1072.43
638.89	1085.54
639.24	1089.75
639.58	1096.31
639.93	1097.71
640.27	1112.69
640.61	1108.24
640.96	1102.16
641.30	1102.16
641.65	1099.35
641.99	1097.48
642.33	1096.31
642.68	1092.33
643.02	1091.16
643.37	1088.35
643.71	1083.67
644.05	1083.20
644.40	1083.20
644.74	1076.18
645.08	1082.73
645.43	1088.58
645.77	1097.71
646.11	1100.99
646.46	1101.46
646.80	1096.54
647.14	1096.54
647.49	1081.33
647.83	1081.33
648.17	1080.39
648.52	1084.37
648.86	1082.97
649.20	1096.54
649.55	1092.80
649.89	1094.20
650.23	1094.67
650.57	1103.80
650.92	1107.78
651.26	1109.65
651.60	1111.99
651.95	1111.99
652.29	1102.39
652.63	1089.52
652.97	1099.82
653.32	1093.97
653.66	1093.26
654.00	1090.69
654.34	1101.22
654.69	1085.07
655.03	1093.03
655.37	1088.58
655.71	1084.14
656.05	1075.01
656.40	1071.50
656.74	1071.26
657.08	1065.41
657.42	1074.77
657.76	1078.99
658.11	1081.80
658.45	1081.09
658.79	1086.01
659.13	1080.63
659.47	1075.94
659.82	1079.92
660.16	1070.56
660.50	1067.52
660.84	1071.03
661.18	1069.16
661.52	1075.71
661.87	1078.75
662.21	1081.33
662.55	1071.26
662.89	1069.86
663.23	1071.26
663.57	1081.80
663.91	1078.75
664.25	1077.82
664.60	1078.28
664.94	1076.65
665.28	1068.22
665.62	1071.50
665.96	1083.90
666.30	1092.09
666.64	1084.60
666.98	1084.84
667.32	1085.77
667.66	1086.71
668.01	1083.67
668.35	1088.58
668.69	1093.97
669.03	1097.01
669.37	1090.22
669.71	1086.94
670.05	1085.07
670.39	1076.41
670.73	1078.05
671.07	1079.46
671.41	1076.65
671.75	1077.35
672.09	1075.71
672.43	1073.37
672.77	1073.84
673.11	1075.24
673.45	1077.35
673.79	1078.52
674.13	1072.67
674.47	1077.82
674.81	1078.52
675.15	1082.03
675.49	1096.07
675.83	1095.14
676.17	1084.37
676.51	1090.22
676.85	1091.63
677.19	1089.52
677.53	1084.14
677.87	1093.50
678.21	1097.01
678.55	1098.65
678.89	1093.50
679.23	1104.97
679.57	1106.37
679.90	1097.01
680.24	1081.56
680.58	1073.60
680.92	1074.07
681.26	1069.16
681.60	1078.52
681.94	1083.43
682.28	1096.78
682.62	1097.01
682.96	1095.84
683.29	1087.88
683.63	1091.16
683.97	1082.26
684.31	1078.52
684.65	1082.03
684.99	1092.80
685.33	1089.99
685.67	1086.48
686.00	1092.09
686.34	1085.54
686.68	1083.43
687.02	1084.60
687.36	1083.90
687.70	1080.86
688.03	1084.60
688.37	1083.90
688.71	1084.37
689.05	1086.48
689.39	1082.73
689.72	1082.26
690.06	1081.80
690.40	1082.03
690.74	1087.88
691.08	1077.82
691.41	1076.18
691.75	1076.65
692.09	1075.71
692.43	1075.01
692.76	1089.29
693.10	1095.60
693.44	1088.82
693.78	1098.88
694.11	1098.18
694.45	1097.24
694.79	1083.43
695.13	1084.37
695.46	1059.56
695.80	1065.18
696.14	1067.05
696.48	1076.65
696.81	1077.35
697.15	1091.39
697.49	1088.58
697.82	1089.29
698.16	1097.95
698.50	1088.12
698.83	1082.97
699.17	1069.16
699.51	1069.16
699.84	1067.28
700.18	1079.46
700.52	1082.26
700.85	1094.20
701.19	1092.56
701.53	1087.65
701.86	1081.09
702.20	1081.33
702.54	1079.22
702.87	1076.18
703.21	1077.82
703.55	1075.24
703.88	1067.99
704.22	1067.05
704.55	1069.39
704.89	1065.18
705.23	1069.39
705.56	1076.88
705.90	1069.39
706.23	1077.82
706.57	1074.07
706.91	1072.90
707.24	1072.43
707.58	1075.48
707.91	1068.22
708.25	1074.54
708.58	1087.41
708.92	1086.48
709.26	1088.82
709.59	1092.09
709.93	1094.20
710.26	1084.14
710.60	1087.41
710.93	1091.39
711.27	1082.97
711.60	1089.75
711.94	1087.65
712.27	1087.88
712.61	1088.35
712.94	1100.29
713.28	1087.88
713.61	1088.12
713.95	1086.94
714.28	1089.29
714.62	1087.18
714.95	1086.94
715.29	1093.73
715.62	1099.82
715.96	1093.50
716.29	1090.69
716.63	1088.12
716.96	1077.58
717.29	1065.88
717.63	1078.28
717.96	1073.60
718.30	1078.99
718.63	1077.35
718.97	1087.88
719.30	1075.01
719.63	1075.48
719.97	1073.14
720.30	1075.71
720.64	1070.80
720.97	1071.26
721.30	1075.24
721.64	1076.65
721.97	1083.43
722.31	1089.29
722.64	1093.26
722.97	1085.31
723.31	1092.09
723.64	1091.86
723.97	1089.99
724.31	1086.71
724.64	1099.35
724.98	1098.65
725.31	1093.50
725.64	1093.03
725.98	1094.90
726.31	1088.58
726.64	1074.07
726.97	1073.84
727.31	1067.05
727.64	1062.60
727.97	1069.86
728.31	1073.84
728.64	1073.14
728.97	1078.52
729.31	1082.26
729.64	1064.71
729.97	1068.45
730.30	1073.60
730.64	1063.31
730.97	1062.37
731.30	1067.52
731.63	1066.35
731.97	1072.90
732.30	1084.60
732.63	1083.67
732.96	1082.03
733.30	1080.39
733.63	1070.33
733.96	1069.62
734.29	1069.16
734.63	1074.07
734.96	1079.92
735.29	1089.52
735.62	1098.18
735.95	1100.99
736.29	1099.58
736.62	1108.95
736.95	1099.12
737.28	1090.69
737.61	1097.95
737.94	1100.75
738.28	1093.97
738.61	1087.65
738.94	1085.07
739.27	1071.26
739.60	1063.31
739.93	1056.28
740.27	1060.50
740.60	1062.84
740.93	1064.94
741.26	1072.43
741.59	1072.20
741.92	1073.60
742.25	1070.09
742.58	1074.54
742.91	1075.48
743.25	1076.65
743.58	1082.97
743.91	1086.24
744.24	1092.33
744.57	1094.43
744.90	1091.63
745.23	1096.54
745.56	1092.09
745.89	1086.24
746.22	1078.75
746.55	1086.71
746.88	1079.92
747.21	1078.99
747.54	1076.41
747.87	1077.82
748.20	1076.65
748.53	1080.39
748.87	1088.12
749.20	1086.01
749.53	1088.12
749.86	1084.84
750.19	1081.80
750.52	1075.94
750.85	1084.60
751.18	1083.20
751.51	1085.77
751.84	1086.71
752.16	1088.35
752.49	1077.58
752.82	1079.22
753.15	1083.43
753.48	1073.84
753.81	1077.58
754.14	1081.09
754.47	1079.92
754.80	1069.86
755.13	1072.67
755.46	1069.62
755.79	1072.20
756.12	1082.97
756.45	1089.75
756.78	1092.09
757.11	1089.52
757.43	1082.73
757.76	1076.88
758.09	1067.52
758.42	1072.20
758.75	1077.82
759.08	1082.26
759.41	1072.20
759.74	1077.82
760.07	1071.50
760.39	1064.94
760.72	1066.82
761.05	1062.37
761.38	1063.77
761.71	1069.39
762.04	1071.50
762.36	1073.37
762.69	1085.77
763.02	1089.99
763.35	1090.22
763.68	1087.41
764.01	1087.41
764.33	1086.71
764.66	1077.35
764.99	1067.28
765.32	1066.58
765.65	1064.24
765.97	1060.73
766.30	1071.50
766.63	1077.35
766.96	1078.52
767.28	1072.90
767.61	1078.75
767.94	1071.50
768.27	1076.65
768.59	1085.77
768.92	1096.54
769.25	1087.65
769.58	1091.39
769.90	1085.31
770.23	1083.20
770.56	1085.31
770.89	1098.65
771.21	1092.33
771.54	1091.63
771.87	1092.80
772.19	1079.46
772.52	1074.07
772.85	1074.07
773.17	1080.63
773.50	1076.65
773.83	1082.97
774.15	1074.31
774.48	1083.43
774.81	1072.90
775.13	1073.14
775.46	1074.54
775.79	1078.75
776.11	1068.45
776.44	1074.54
776.77	1077.58
777.09	1080.16
777.42	1082.26
777.74	1088.35
778.07	1084.60
778.40	1072.67
778.72	1071.97
779.05	1078.75
779.37	1077.35
779.70	1087.41
780.03	1097.24
780.35	1100.52
780.68	1101.69
781.00	1105.67
781.33	1103.09
781.65	1111.75
781.98	1109.18
782.31	1101.46
782.63	1100.75
782.96	1097.01
783.28	1093.03
783.61	1089.05
783.93	1086.48
784.26	1081.33
784.58	1075.01
784.91	1069.62
785.23	1067.75
785.56	1069.86
785.88	1077.11
786.21	1091.39
786.53	1091.63
786.86	1094.43
787.18	1091.86
787.51	1093.97
787.83	1089.52
788.16	1084.84
788.48	1086.71
788.81	1088.12
789.13	1080.39
789.46	1080.39
789.78	1079.46
790.10	1076.65
790.43	1074.54
790.75	1070.56
791.08	1067.75
791.40	1068.69
791.73	1055.11
792.05	1059.79
792.37	1073.60
792.70	1075.48
793.02	1086.48
793.35	1113.16
793.67	1111.99
793.99	1096.78
794.32	1094.90
794.64	1081.80
794.96	1070.09
795.29	1070.33
795.61	1074.31
795.93	1075.01
796.26	1081.09
796.58	1081.09
796.91	1082.26
797.23	1084.60
797.55	1073.37
797.87	1068.69
798.20	1068.69
798.52	1067.28
798.84	1067.75
799.17	1081.33
799.49	1085.77
799.81	1089.52
800.14	1094.67
800.46	1089.52
800.78	1090.92
801.10	1087.65
801.43	1076.88
801.75	1074.54
802.07	1078.99
802.40	1087.41
802.72	1094.20
803.04	1091.16
803.36	1082.73
803.69	1083.90
804.01	1077.35
804.33	1078.28
804.65	1093.03
804.97	1098.88
805.30	1098.65
805.62	1092.56
805.94	1086.94
806.26	1080.63
806.58	1088.12
806.91	1091.16
807.23	1095.60
807.55	1096.07
807.87	1093.50
808.19	1085.31
808.52	1084.84
808.84	1082.97
809.16	1081.09
809.48	1079.92
809.80	1086.48
810.12	1086.24
810.44	1081.80
810.77	1078.75
811.09	1076.88
811.41	1071.26
811.73	1073.14
812.05	1078.28
812.37	1084.37
812.69	1088.35
813.01	1087.88
813.33	1081.80
813.66	1085.31
813.98	1077.11
814.30	1069.86
814.62	1069.16
814.94	1072.90
815.26	1070.56
815.58	1084.37
815.90	1085.77
816.22	1082.26
816.54	1084.37
816.86	1077.35
817.18	1065.65
817.50	1066.35
817.82	1073.60
818.14	1067.05
818.46	1067.75
818.78	1078.99
819.10	1089.75
819.42	1083.67
819.74	1080.16
820.06	1080.63
820.38	1073.84
820.70	1063.07
821.02	1066.35
821.34	1073.84
821.66	1073.37
821.98	1072.43
822.30	1088.12
822.62	1089.05
822.94	1084.84
823.26	1083.20
823.58	1088.35
823.90	1079.69
824.22	1087.18
824.54	1081.56
824.86	1082.03
825.18	1073.84
825.50	1077.11
825.81	1071.50
826.13	1074.77
826.45	1076.88
826.77	1085.31
827.09	1072.20
827.41	1070.33
827.73	1074.77
828.05	1078.99
828.36	1081.80
828.68	1087.18
829.00	1081.56
829.32	1071.97
829.64	1065.41
829.96	1064.71
830.28	1068.69
830.59	1071.73
830.91	1083.90
831.23	1094.20
831.55	1093.26
831.87	1095.14
832.19	1103.80
832.50	1100.29
832.82	1092.56
833.14	1090.46
833.46	1091.39
833.78	1083.90
834.09	1082.73
834.41	1080.16
834.73	1074.77
835.05	1078.75
835.36	1089.75
835.68	1097.71
836.00	1105.20
836.32	1102.86
836.63	1101.46
836.95	1094.67
837.27	1083.20
837.59	1084.37
837.90	1089.05
838.22	1086.94
838.54	1089.99
838.85	1096.54
839.17	1098.18
839.49	1094.67
839.80	1081.56
840.12	1067.05
840.44	1067.28
840.76	1059.79
841.07	1057.45
841.39	1063.77
841.71	1072.90
842.02	1078.99
842.34	1080.63
842.65	1079.22
842.97	1086.24
843.29	1080.86
843.60	1067.75
843.92	1070.33
844.24	1080.16
844.55	1076.41
844.87	1081.56
845.18	1087.65
845.50	1078.52
845.82	1068.69
846.13	1082.97
846.45	1078.52
846.76	1074.54
847.08	1080.86
847.40	1093.26
847.71	1075.01
848.03	1082.03
848.34	1084.84
848.66	1088.35
848.97	1082.50
849.29	1081.33
849.60	1081.56
849.92	1089.99
850.24	1086.71
850.55	1086.48
850.87	1088.82
851.18	1078.05
851.50	1067.99
851.81	1073.14
852.13	1073.60
852.44	1077.82
852.76	1085.54
853.07	1086.01
853.39	1083.67
853.70	1073.14
854.01	1086.48
854.33	1090.92
854.64	1086.24
854.96	1081.33
855.27	1087.88
855.59	1069.86
855.90	1065.88
856.22	1077.35
856.53	1078.99
856.84	1079.92
857.16	1073.84
857.47	1070.09
857.79	1065.41
858.10	1063.07
858.41	1069.86
858.73	1077.58
859.04	1084.37
859.36	1081.56
859.67	1077.82
859.98	1075.94
860.30	1071.50
860.61	1081.33
860.92	1083.20
861.24	1089.99
861.55	1085.77
861.87	1087.65
862.18	1077.11
862.49	1075.48
862.81	1076.65
863.12	1081.80
863.43	1096.54
863.74	1086.01
864.06	1089.29
864.37	1086.48
864.68	1089.99
865.00	1078.52
865.31	1084.60
865.62	1086.48
865.94	1091.63
866.25	1074.07
866.56	1075.71
866.87	1074.31
867.19	1071.03
867.50	1058.39
867.81	1063.54
868.12	1070.09
868.44	1075.24
868.75	1085.54
869.06	1091.39
869.37	1097.01
869.68	1080.86
870.00	1081.09
870.31	1076.88
870.62	1075.24
870.93	1080.86
871.24	1093.73
871.56	1103.56
871.87	1098.88
872.18	1095.14
872.49	1088.82
872.80	1088.12
873.12	1067.75
873.43	1064.48
873.74	1071.50
874.05	1069.39
874.36	1067.05
874.67	1076.88
874.98	1076.18
875.29	1079.46
875.61	1089.75
875.92	1097.71
876.23	1089.75
876.54	1093.50
876.85	1082.97
877.16	1079.46
877.47	1074.54
877.78	1081.80
878.09	1078.75
878.40	1085.31
878.72	1078.05
879.03	1086.24
879.34	1078.05
879.65	1084.60
879.96	1078.28
880.27	1075.94
880.58	1065.41
880.89	1069.86
881.20	1064.94
881.51	1072.90
881.82	1078.52
882.13	1080.86
882.44	1089.52
882.75	1084.14
883.06	1087.65
883.37	1088.35
883.68	1083.43
883.99	1079.46
884.30	1094.20
884.61	1093.97
884.92	1095.84
885.23	1108.71
885.54	1102.63
885.85	1089.52
886.16	1085.77
886.47	1087.65
886.78	1069.62
887.08	1064.94
887.39	1066.58
887.70	1071.26
888.01	1071.73
888.32	1073.60
888.63	1081.80
888.94	1088.58
889.25	1083.67
889.56	1079.22
889.87	1086.94
890.17	1086.94
890.48	1080.39
890.79	1079.69
891.10	1076.18
891.41	1066.58
891.72	1073.60
892.03	1073.60
892.34	1076.41
892.64	1080.39
892.95	1082.73
893.26	1066.58
893.57	1069.86
893.88	1070.09
894.18	1065.41
894.49	1067.05
894.80	1075.48
895.11	1060.50
895.42	1065.88
895.72	1069.86
896.03	1082.73
896.34	1082.97
896.65	1097.24
896.96	1103.80
897.26	1104.03
897.57	1099.35
897.88	1095.60
898.19	1086.71
898.49	1076.41
898.80	1079.92
899.11	1077.35
899.41	1095.60
899.72	1100.99
900.03	1104.50
900.34	1110.12
900.64	1103.80
900.95	1087.65
901.26	1089.29
901.56	1091.16
901.87	1089.05
902.18	1092.56
902.48	1091.63
902.79	1095.37
903.10	1086.24
903.40	1075.48
903.71	1067.75
904.02	1071.03
904.32	1064.01
904.63	1060.96
904.94	1083.90
905.24	1081.09
905.55	1069.39
905.85	1075.94
906.16	1074.07
906.47	1064.48
906.77	1073.37
907.08	1073.37
907.38	1079.92
907.69	1084.14
908.00	1068.22
908.30	1069.16
908.61	1086.01
908.91	1077.35
909.22	1076.41
909.52	1076.41
909.83	1070.80
910.14	1068.92
910.44	1075.24
910.75	1078.52
911.05	1082.50
911.36	1092.09
911.66	1085.31
911.97	1077.11
912.27	1072.20
912.58	1075.01
912.88	1065.88
913.19	1064.71
913.49	1071.26
913.80	1082.03
914.10	1083.20
914.41	1084.14
914.71	1087.88
915.01	1072.20
915.32	1059.09
915.62	1057.45
915.93	1062.37
916.23	1062.37
916.54	1062.60
916.84	1065.65
917.15	1071.03
917.45	1067.05
917.75	1066.58
918.06	1072.90
918.36	1073.84
918.67	1072.20
918.97	1070.80
919.27	1064.71
919.58	1071.50
919.88	1069.39
920.18	1068.69
920.49	1080.16
920.79	1075.24
921.10	1072.20
921.40	1075.01
921.70	1075.94
922.01	1063.07
922.31	1081.80
922.61	1084.84
922.92	1080.86
923.22	1075.24
923.52	1079.22
923.82	1067.05
924.13	1064.48
924.43	1073.37
924.73	1068.45
925.04	1065.65
925.34	1064.71
925.64	1066.35
925.94	1055.82
926.25	1066.58
926.55	1073.14
926.85	1079.69
927.15	1071.26
927.46	1072.67
927.76	1070.56
928.06	1064.01
928.36	1055.58
928.67	1056.99
928.97	1060.73
929.27	1055.58
929.57	1063.07
929.87	1076.41
930.18	1080.39
930.48	1086.48
930.78	1089.75
931.08	1097.95
931.38	1092.80
931.69	1086.24
931.99	1083.43
932.29	1083.90
932.59	1075.24
932.89	1075.24
933.19	1075.24
933.49	1078.28
933.80	1071.73
934.10	1066.35
934.40	1067.75
934.70	1080.16
935.00	1079.69
935.30	1081.33
935.60	1087.18
935.90	1088.82
936.20	1078.05
936.50	1068.22
936.81	1074.07
937.11	1084.37
937.41	1081.56
937.71	1091.39
938.01	1096.31
938.31	1086.71
938.61	1082.50
938.91	1086.94
939.21	1077.11
939.51	1078.99
939.81	1090.46
940.11	1080.16
940.41	1087.41
940.71	1092.80
941.01	1084.60
941.31	1080.16
941.61	1081.56
941.91	1069.39
942.21	1062.37
942.51	1067.99
942.81	1070.33
943.11	1072.43
943.41	1065.18
943.71	1073.84
944.01	1076.18
944.31	1078.05
944.61	1081.33
944.90	1088.35
945.20	1087.88
945.50	1091.86
945.80	1098.88
946.10	1089.29
946.40	1086.01
946.70	1089.99
947.00	1082.26
947.30	1076.65
947.60	1082.03
947.89	1081.09
948.19	1080.39
948.49	1075.24
948.79	1079.22
949.09	1076.18
949.39	1076.18
949.69	1071.26
949.98	1084.60
950.28	1077.11
950.58	1071.97
950.88	1072.20
951.18	1066.58
951.48	1058.62
951.77	1058.62
952.07	1062.60
952.37	1075.48
952.67	1080.86
952.97	1084.84
953.26	1082.97
953.56	1097.71
953.86	1092.56
954.16	1093.03
954.45	1097.01
954.75	1099.35
955.05	1088.35
955.35	1089.99
955.64	1084.60
955.94	1074.31
956.24	1069.16
956.54	1066.82
956.83	1056.52
957.13	1067.99
957.43	1068.69
957.72	1074.31
958.02	1078.75
958.32	1072.43
958.61	1064.24
958.91	1062.14
959.21	1063.07
959.50	1052.54
959.80	1057.45
960.10	1064.24
960.39	1069.86
960.69	1078.05
960.99	1086.48
961.28	1093.50
961.58	1088.58
961.87	1095.14
962.17	1091.63
962.47	1092.80
962.76	1090.22
963.06	1090.46
963.36	1082.97
963.65	1091.39
963.95	1086.24
964.24	1084.84
964.54	1080.16
964.83	1084.14
965.13	1073.14
965.42	1075.71
965.72	1075.48
966.02	1081.80
966.31	1080.39
966.61	1074.77
966.90	1068.69
967.20	1070.80
967.49	1074.54
967.79	1068.22
968.08	1070.33
968.38	1076.88
968.67	1072.43
968.97	1065.18
969.26	1066.58
969.56	1066.35
969.85	1071.50
970.15	1077.82
970.44	1069.39
970.74	1075.24
971.03	1074.77
971.32	1067.05
971.62	1065.65
971.91	1075.48
972.21	1075.01
972.50	1077.11
972.80	1076.18
973.09	1086.24
973.38	1086.48
973.68	1089.05
973.97	1083.67
974.27	1083.43
974.56	1071.73
974.85	1072.20
975.15	1065.18
975.44	1073.84
975.73	1067.05
976.03	1061.90
976.32	1064.48
976.61	1071.97
976.91	1057.45
977.20	1069.86
977.49	1080.86
977.79	1074.31
978.08	1068.69
978.37	1082.03
978.67	1076.65
978.96	1070.33
979.25	1076.65
979.55	1070.80
979.84	1067.05
980.13	1074.31
980.42	1077.58
980.72	1083.20
981.01	1090.69
981.30	1089.29
981.59	1092.33
981.89	1084.14
982.18	1077.58
982.47	1072.43
982.76	1078.28
983.06	1074.77
983.35	1068.92
983.64	1067.05
983.93	1067.28
984.22	1058.86
984.52	1058.86
984.81	1076.41
985.10	1080.39
985.39	1089.99
985.68	1093.26
985.97	1085.31
986.27	1081.80
986.56	1078.99
986.85	1077.58
987.14	1084.60
987.43	1096.54
987.72	1103.80
988.01	1110.58
988.31	1111.52
988.60	1102.63
988.89	1099.35
989.18	1091.86
989.47	1089.75
989.76	1080.39
990.05	1076.65
990.34	1079.22
990.63	1080.86
990.92	1069.86
991.21	1070.80
991.51	1072.20
991.80	1061.43
992.09	1052.30
992.38	1061.90
992.67	1070.56
992.96	1072.43
993.25	1081.09
993.54	1089.75
993.83	1087.65
994.12	1077.82
994.41	1071.97
994.70	1066.58
994.99	1069.16
995.28	1063.31
995.57	1061.20
995.86	1069.86
996.15	1079.22
996.44	1074.07
996.73	1085.77
997.02	1089.05
997.31	1088.58
997.59	1081.33
997.88	1086.71
998.17	1073.60
998.46	1073.60
998.75	1066.82
999.04	1078.52
999.33	1069.62
999.62	1079.22
999.91	1086.01
1000.20	1090.69
1000.49	1071.03
1000.77	1078.28
1001.06	1086.48
1001.35	1082.50
1001.64	1086.01
1001.93	1091.86
1002.22	1084.14
1002.51	1067.99
1002.79	1059.09
1003.08	1058.86
1003.37	1058.39
1003.66	1074.77
1003.95	1080.86
1004.23	1085.07
1004.52	1082.03
1004.81	1084.37
1005.10	1065.65
1005.39	1059.33
1005.67	1064.71
1005.96	1065.65
1006.25	1069.16
1006.54	1084.60
1006.83	1093.50
1007.11	1093.26
1007.40	1089.99
1007.69	1086.24
1007.97	1071.73
1008.26	1066.82
1008.55	1065.41
1008.84	1064.71
1009.12	1069.39
1009.41	1077.82
1009.70	1074.07
1009.98	1082.50
1010.27	1088.35
1010.56	1087.65
1010.85	1087.65
1011.13	1089.29
1011.42	1080.63
1011.71	1079.46
1011.99	1079.46
1012.28	1081.09
1012.56	1079.22
1012.85	1084.37
1013.14	1084.37
1013.42	1080.39
1013.71	1081.33
1014.00	1082.97
1014.28	1080.39
1014.57	1082.73
1014.85	1081.56
1015.14	1072.20
1015.43	1077.35
1015.71	1073.84
1016.00	1065.41
1016.28	1063.31
1016.57	1070.09
1016.85	1063.77
1017.14	1068.69
1017.43	1077.35
1017.71	1082.73
1018.00	1089.75
1018.28	1097.48
1018.57	1082.03
1018.85	1082.50
1019.14	1075.94
1019.42	1064.01
1019.71	1069.62
1019.99	1081.33
1020.28	1083.90
1020.56	1087.18
1020.85	1088.35
1021.13	1082.97
1021.42	1090.92
1021.70	1082.73
1021.99	1093.73
1022.27	1098.41
1022.55	1126.97
1022.84	1093.03
>>>>>End Processed Spectral Data<<<<<
