SpectraSuite Data File
++++++++++++++++++++++++++++++++++++
Date: Mon Aug 26 10:24:49 PDT 2019
User: corrico
Dark Spectrum Present: No
Reference Spectrum Present: No
Number of Sampled Component Spectra: 1
Spectrometers: USB2+H06089
Integration Time (usec): 10000 (USB2+H06089)
Spectra Averaged: 2 (USB2+H06089)
Boxcar Smoothing: 2 (USB2+H06089)
Correct for Electrical Dark: No (USB2+H06089)
Strobe/Lamp Enabled: No (USB2+H06089)
Correct for Detector Non-linearity: No (USB2+H06089)
Correct for Stray Light: No (USB2+H06089)
Number of Pixels in Processed Spectrum: 2048
>>>>>Begin Processed Spectral Data<<<<<
339.70	1020.47
340.07	1020.47
340.45	986.54
340.82	972.02
341.19	943.70
341.57	922.17
341.94	905.55
342.31	906.02
342.69	893.85
343.06	896.43
343.43	902.28
343.81	906.72
344.18	914.68
344.55	922.17
344.93	933.41
345.30	927.09
345.67	935.75
346.04	933.87
346.42	946.98
346.79	949.56
347.16	963.36
347.54	975.30
347.91	981.15
348.28	991.22
348.65	1001.05
349.03	1016.73
349.40	1024.92
349.77	1032.88
350.14	1036.16
350.52	1047.39
350.89	1045.52
351.26	1045.28
351.63	1051.84
352.01	1053.48
352.38	1056.28
352.75	1055.58
353.12	1066.11
353.50	1073.84
353.87	1081.09
354.24	1078.99
354.61	1092.56
354.98	1090.69
355.36	1086.48
355.73	1083.90
356.10	1077.11
356.47	1075.71
356.84	1081.09
357.22	1077.11
357.59	1071.03
357.96	1081.09
358.33	1083.43
358.70	1071.50
359.08	1075.48
359.45	1082.03
359.82	1088.35
360.19	1085.77
360.56	1090.69
360.94	1091.39
361.31	1088.35
361.68	1078.99
362.05	1071.73
362.42	1074.31
362.79	1078.05
363.16	1086.71
363.54	1083.43
363.91	1084.14
364.28	1075.24
364.65	1069.86
365.02	1070.33
365.39	1070.80
365.76	1085.77
366.14	1097.24
366.51	1107.78
366.88	1092.33
367.25	1090.92
367.62	1081.80
367.99	1082.03
368.36	1071.97
368.73	1084.84
369.10	1085.77
369.48	1079.69
369.85	1075.94
370.22	1066.35
370.59	1058.86
370.96	1072.20
371.33	1071.50
371.70	1071.03
372.07	1082.03
372.44	1078.75
372.81	1075.01
373.18	1086.01
373.55	1084.60
373.93	1082.73
374.30	1089.52
374.67	1091.86
375.04	1078.05
375.41	1082.50
375.78	1088.58
376.15	1084.84
376.52	1075.71
376.89	1087.18
377.26	1085.31
377.63	1080.86
378.00	1084.60
378.37	1090.46
378.74	1088.35
379.11	1086.24
379.48	1100.52
379.85	1104.97
380.22	1102.63
380.59	1101.69
380.96	1105.44
381.33	1098.41
381.70	1088.58
382.07	1091.39
382.44	1100.75
382.81	1105.67
383.18	1107.78
383.55	1107.54
383.92	1099.82
384.29	1082.97
384.66	1072.90
385.03	1068.92
385.40	1075.94
385.77	1073.60
386.14	1086.94
386.51	1090.69
386.88	1093.26
387.25	1099.12
387.62	1118.78
387.99	1121.82
388.36	1119.01
388.73	1116.67
389.10	1111.75
389.46	1106.37
389.83	1100.75
390.20	1114.33
390.57	1116.67
390.94	1129.78
391.31	1122.99
391.68	1123.93
392.05	1119.01
392.42	1119.24
392.79	1105.90
393.16	1109.65
393.53	1118.78
393.89	1119.95
394.26	1126.03
394.63	1125.10
395.00	1131.88
395.37	1128.84
395.74	1127.20
396.11	1128.14
396.48	1134.69
396.84	1128.14
397.21	1127.90
397.58	1122.29
397.95	1119.95
398.32	1115.97
398.69	1121.35
399.06	1111.29
399.42	1116.67
399.79	1121.12
400.16	1124.16
400.53	1131.18
400.90	1138.67
401.27	1151.08
401.64	1152.95
402.00	1152.48
402.37	1141.95
402.74	1152.95
403.11	1163.95
403.48	1171.91
403.84	1192.27
404.21	1205.84
404.58	1200.69
404.95	1195.31
405.32	1198.35
405.68	1199.52
406.05	1214.74
406.42	1241.19
406.79	1269.27
407.16	1282.38
407.52	1303.91
407.89	1308.83
408.26	1324.74
408.63	1337.15
408.99	1358.92
409.36	1382.79
409.73	1424.45
410.10	1452.54
410.47	1470.56
410.83	1506.37
411.20	1528.14
411.57	1562.07
411.94	1606.31
412.30	1660.14
412.67	1694.08
413.04	1744.17
413.40	1794.25
413.77	1841.30
414.14	1893.03
414.51	1971.67
414.87	2040.01
415.24	2104.61
415.61	2187.93
415.97	2284.13
416.34	2364.88
416.71	2461.07
417.08	2571.31
417.44	2672.89
417.81	2763.00
418.18	2880.73
418.54	3025.38
418.91	3160.66
419.28	3298.52
419.64	3471.95
420.01	3648.90
420.38	3799.63
420.74	3981.49
421.11	4182.77
421.48	4374.93
421.84	4572.94
422.21	4830.40
422.58	5077.56
422.94	5332.44
423.31	5584.28
423.68	5883.40
424.04	6152.33
424.41	6428.28
424.77	6722.49
425.14	7047.35
425.51	7361.45
425.87	7747.64
426.24	8125.64
426.61	8569.64
426.97	9077.53
427.34	9518.96
427.70	9988.94
428.07	10493.32
428.44	10941.77
428.80	11391.62
429.17	11955.46
429.53	12482.78
429.90	13103.49
430.27	13674.58
430.63	14248.71
431.00	14937.53
431.36	15669.89
431.73	16251.74
432.09	16964.67
432.46	17686.02
432.83	18277.95
433.19	18834.29
433.56	19551.20
433.92	20216.14
434.29	20860.26
434.65	21573.65
435.02	22220.81
435.38	22906.35
435.75	23469.02
436.11	24092.07
436.48	24552.92
436.84	25113.01
437.21	25509.97
437.57	26020.67
437.94	26480.59
438.30	26871.92
438.67	27074.61
439.03	27242.67
439.40	27370.93
439.76	27290.65
440.13	27248.05
440.49	27263.26
440.86	27067.13
441.22	26827.22
441.59	26498.84
441.95	26155.49
442.32	25660.00
442.68	25233.78
443.05	24671.35
443.41	24097.22
443.78	23457.79
444.14	22874.06
444.51	22281.20
444.87	21843.05
445.24	21427.84
445.60	20994.14
445.96	20481.33
446.33	20025.62
446.69	19409.83
447.06	18869.87
447.42	18320.54
447.79	17810.31
448.15	17369.82
448.51	16916.92
448.88	16460.52
449.24	15987.26
449.61	15638.29
449.97	15199.67
450.33	14807.87
450.70	14384.00
451.06	14049.30
451.43	13597.81
451.79	13246.26
452.15	12913.44
452.52	12623.21
452.88	12342.11
453.24	12074.82
453.61	11808.24
453.97	11532.29
454.34	11235.04
454.70	10943.88
455.06	10691.33
455.43	10344.47
455.79	9954.77
456.15	9657.75
456.52	9328.21
456.88	9046.87
457.24	8765.31
457.61	8575.72
457.97	8335.58
458.33	8084.68
458.70	7796.79
459.06	7539.57
459.42	7326.11
459.79	7057.42
460.15	6851.68
460.51	6641.74
460.88	6434.37
461.24	6195.40
461.60	6033.90
461.96	5875.68
462.33	5699.91
462.69	5571.18
463.05	5436.60
463.42	5282.36
463.78	5119.22
464.14	4996.11
464.50	4862.23
464.87	4731.16
465.23	4620.92
465.59	4508.81
465.95	4394.12
466.32	4294.65
466.68	4214.84
467.04	4126.36
467.40	4043.98
467.77	3966.74
468.13	3890.20
468.49	3798.69
468.85	3734.56
469.22	3669.73
469.58	3593.42
469.94	3533.97
470.30	3479.67
470.66	3400.56
471.03	3340.41
471.39	3291.26
471.75	3237.43
472.11	3162.30
472.47	3112.44
472.84	3032.63
473.20	2974.12
473.56	2917.48
473.92	2869.26
474.28	2814.49
474.65	2783.13
475.01	2744.04
475.37	2685.53
475.73	2631.23
476.09	2601.74
476.45	2566.16
476.81	2526.37
477.18	2481.20
477.54	2453.58
477.90	2406.07
478.26	2360.20
478.62	2315.26
478.98	2294.66
479.34	2277.34
479.71	2249.72
480.07	2217.19
480.43	2207.36
480.79	2172.49
481.15	2150.72
481.51	2120.76
481.87	2101.80
482.23	2071.37
482.59	2058.27
482.96	2016.14
483.32	2014.27
483.68	1993.67
484.04	1966.52
484.40	1938.67
484.76	1918.77
485.12	1880.85
485.48	1863.30
485.84	1851.36
486.20	1837.09
486.56	1816.26
486.92	1813.45
487.28	1808.53
487.64	1790.74
488.00	1770.38
488.37	1759.38
488.73	1747.44
489.09	1720.29
489.45	1693.85
489.81	1665.76
490.17	1653.82
490.53	1624.33
490.89	1606.31
491.25	1597.42
491.61	1595.54
491.97	1579.63
492.33	1564.88
492.69	1547.56
493.05	1528.84
493.41	1510.11
493.77	1486.24
494.13	1480.86
494.49	1469.62
494.85	1460.03
495.21	1447.86
495.57	1453.47
495.93	1430.07
496.29	1420.94
496.64	1412.05
497.00	1408.53
497.36	1393.09
497.72	1385.36
498.08	1381.38
498.44	1378.58
498.80	1370.15
499.16	1365.70
499.52	1358.68
499.88	1350.49
500.24	1333.17
500.60	1324.04
500.96	1308.36
501.32	1304.15
501.68	1300.64
502.03	1296.19
502.39	1294.08
502.75	1294.78
503.11	1294.55
503.47	1288.23
503.83	1285.66
504.19	1272.08
504.55	1267.63
504.91	1263.89
505.26	1253.36
505.62	1251.95
505.98	1259.44
506.34	1250.31
506.70	1245.87
507.06	1247.51
507.42	1240.48
507.78	1227.85
508.13	1222.93
508.49	1215.44
508.85	1204.21
509.21	1207.48
509.57	1200.23
509.93	1207.25
510.28	1209.35
510.64	1206.55
511.00	1191.33
511.36	1184.78
511.72	1170.50
512.07	1163.25
512.43	1173.31
512.79	1172.84
513.15	1173.08
513.51	1175.18
513.86	1168.86
514.22	1151.31
514.58	1152.48
514.94	1163.48
515.30	1146.63
515.65	1148.73
516.01	1158.57
516.37	1159.74
516.73	1152.48
517.08	1170.74
517.44	1160.67
517.80	1163.48
518.16	1176.12
518.51	1174.71
518.87	1179.16
519.23	1182.67
519.59	1169.10
519.94	1158.33
520.30	1153.65
520.66	1145.69
521.01	1154.35
521.37	1150.37
521.73	1146.63
522.09	1144.52
522.44	1140.54
522.80	1129.78
523.16	1126.27
523.51	1120.65
523.87	1124.39
524.23	1132.35
524.58	1126.03
524.94	1144.99
525.30	1141.25
525.65	1133.29
526.01	1132.12
526.37	1133.29
526.72	1130.24
527.08	1131.88
527.44	1139.84
527.79	1126.97
528.15	1130.71
528.51	1117.14
528.86	1116.44
529.22	1112.92
529.58	1118.78
529.93	1116.90
530.29	1113.39
530.65	1110.12
531.00	1110.58
531.36	1107.31
531.71	1112.46
532.07	1127.90
532.43	1136.80
532.78	1133.99
533.14	1128.61
533.49	1127.20
533.85	1129.31
534.21	1125.80
534.56	1131.41
534.92	1136.10
535.27	1129.54
535.63	1122.29
535.98	1117.14
536.34	1112.22
536.69	1095.60
537.05	1092.33
537.41	1094.67
537.76	1103.80
538.12	1099.58
538.47	1113.63
538.83	1116.90
539.18	1110.35
539.54	1112.46
539.89	1105.90
540.25	1104.97
540.60	1107.31
540.96	1113.63
541.31	1109.18
541.67	1119.24
542.02	1111.99
542.38	1110.82
542.73	1095.37
543.09	1088.12
543.44	1090.22
543.80	1092.80
544.15	1099.12
544.51	1105.90
544.86	1112.22
545.22	1113.63
545.57	1110.35
545.93	1114.80
546.28	1119.01
546.64	1112.92
546.99	1101.69
547.35	1116.20
547.70	1102.39
548.05	1096.31
548.41	1096.54
548.76	1108.01
549.12	1103.33
549.47	1106.14
549.83	1111.29
550.18	1119.24
550.53	1107.54
550.89	1110.82
551.24	1114.80
551.60	1115.73
551.95	1101.92
552.30	1109.88
552.66	1105.90
553.01	1102.86
553.37	1100.52
553.72	1107.07
554.07	1107.54
554.43	1110.35
554.78	1106.37
555.13	1111.05
555.49	1107.78
555.84	1110.58
556.19	1106.37
556.55	1116.67
556.90	1108.01
557.26	1106.84
557.61	1096.54
557.96	1105.44
558.32	1098.18
558.67	1102.16
559.02	1107.78
559.37	1108.71
559.73	1093.97
560.08	1087.65
560.43	1082.73
560.79	1085.31
561.14	1082.97
561.49	1086.94
561.85	1096.78
562.20	1095.60
562.55	1094.67
562.90	1106.84
563.26	1102.16
563.61	1096.78
563.96	1093.97
564.32	1088.12
564.67	1088.12
565.02	1091.39
565.37	1082.03
565.73	1086.48
566.08	1096.54
566.43	1087.65
566.78	1086.01
567.14	1101.92
567.49	1095.84
567.84	1098.88
568.19	1100.29
568.54	1101.46
568.90	1093.26
569.25	1105.20
569.60	1095.84
569.95	1098.18
570.31	1103.33
570.66	1108.24
571.01	1107.78
571.36	1112.69
571.71	1114.80
572.06	1115.27
572.42	1115.50
572.77	1105.67
573.12	1100.99
573.47	1093.73
573.82	1087.88
574.18	1093.03
574.53	1100.05
574.88	1096.31
575.23	1099.35
575.58	1103.80
575.93	1092.80
576.28	1093.03
576.64	1098.41
576.99	1099.35
577.34	1090.22
577.69	1095.37
578.04	1091.16
578.39	1092.56
578.74	1086.24
579.09	1105.90
579.44	1098.41
579.80	1100.75
580.15	1090.46
580.50	1097.24
580.85	1088.82
581.20	1095.84
581.55	1099.35
581.90	1093.73
582.25	1087.88
582.60	1082.97
582.95	1086.71
583.30	1079.22
583.65	1084.84
584.00	1084.37
584.35	1084.84
584.71	1067.05
585.06	1060.73
585.41	1070.09
585.76	1069.62
586.11	1059.09
586.46	1071.50
586.81	1074.07
587.16	1063.54
587.51	1069.39
587.86	1080.63
588.21	1083.20
588.56	1088.58
588.91	1090.69
589.26	1082.50
589.61	1077.82
589.96	1077.11
590.31	1076.88
590.66	1087.18
591.01	1097.48
591.36	1095.84
591.71	1090.92
592.06	1094.67
592.41	1093.73
592.76	1091.16
593.10	1099.35
593.45	1098.18
593.80	1100.05
594.15	1099.35
594.50	1098.65
594.85	1098.41
595.20	1095.60
595.55	1093.50
595.90	1094.43
596.25	1091.63
596.60	1092.56
596.95	1100.52
597.30	1090.69
597.64	1122.52
597.99	1132.59
598.34	1131.88
598.69	1123.93
599.04	1133.99
599.39	1099.35
599.74	1102.39
600.09	1100.05
600.44	1106.37
600.78	1105.44
601.13	1107.54
601.48	1092.56
601.83	1089.29
602.18	1093.73
602.53	1089.05
602.88	1078.28
603.22	1084.37
603.57	1075.94
603.92	1079.46
604.27	1087.65
604.62	1094.20
604.97	1101.46
605.31	1114.10
605.66	1106.61
606.01	1103.56
606.36	1107.31
606.71	1099.82
607.05	1093.73
607.40	1088.35
607.75	1083.43
608.10	1079.46
608.44	1077.82
608.79	1085.54
609.14	1092.80
609.49	1095.84
609.84	1104.97
610.18	1105.90
610.53	1103.56
610.88	1100.29
611.23	1097.24
611.57	1087.41
611.92	1089.52
612.27	1098.88
612.62	1102.39
612.96	1100.29
613.31	1099.12
613.66	1103.33
614.00	1094.90
614.35	1092.33
614.70	1096.07
615.05	1105.20
615.39	1099.12
615.74	1102.16
616.09	1100.99
616.43	1104.50
616.78	1094.90
617.13	1096.54
617.47	1090.92
617.82	1077.58
618.17	1074.54
618.51	1070.33
618.86	1062.14
619.21	1069.62
619.55	1080.86
619.90	1077.35
620.25	1083.43
620.59	1095.37
620.94	1087.88
621.29	1097.71
621.63	1116.67
621.98	1118.78
622.32	1108.24
622.67	1106.84
623.02	1101.92
623.36	1084.37
623.71	1084.37
624.05	1083.67
624.40	1081.56
624.75	1071.26
625.09	1070.80
625.44	1067.52
625.78	1058.39
626.13	1060.03
626.48	1067.28
626.82	1072.90
627.17	1073.84
627.51	1092.09
627.86	1096.07
628.20	1098.65
628.55	1101.69
628.89	1101.69
629.24	1093.73
629.58	1090.92
629.93	1097.24
630.28	1097.48
630.62	1097.95
630.97	1094.20
631.31	1102.86
631.66	1093.03
632.00	1083.43
632.35	1084.60
632.69	1087.18
633.04	1079.92
633.38	1076.65
633.73	1074.54
634.07	1077.58
634.42	1085.77
634.76	1092.56
635.11	1103.80
635.45	1110.35
635.79	1112.22
636.14	1105.67
636.48	1101.92
636.83	1091.63
637.17	1092.33
637.52	1085.31
637.86	1084.60
638.21	1078.75
638.55	1084.84
638.89	1078.75
639.24	1081.09
639.58	1081.80
639.93	1080.39
640.27	1089.29
640.61	1092.80
640.96	1091.86
641.30	1092.33
641.65	1100.29
641.99	1082.97
642.33	1085.31
642.68	1089.29
643.02	1089.29
643.37	1082.03
643.71	1086.71
644.05	1084.60
644.40	1071.73
644.74	1075.01
645.08	1075.01
645.43	1079.69
645.77	1080.16
646.11	1091.16
646.46	1087.65
646.80	1089.99
647.14	1088.58
647.49	1090.92
647.83	1086.48
648.17	1093.03
648.52	1100.75
648.86	1107.07
649.20	1104.50
649.55	1102.16
649.89	1098.65
650.23	1076.88
650.57	1065.18
650.92	1064.71
651.26	1063.77
651.60	1065.41
651.95	1078.52
652.29	1075.24
652.63	1072.90
652.97	1076.41
653.32	1066.82
653.66	1073.84
654.00	1082.97
654.34	1091.86
654.69	1094.90
655.03	1100.52
655.37	1090.92
655.71	1090.92
656.05	1083.67
656.40	1075.01
656.74	1066.35
657.08	1082.97
657.42	1082.97
657.76	1087.88
658.11	1094.20
658.45	1107.07
658.79	1092.33
659.13	1086.24
659.47	1088.35
659.82	1094.67
660.16	1099.35
660.50	1097.95
660.84	1107.31
661.18	1093.97
661.52	1097.01
661.87	1083.43
662.21	1087.65
662.55	1082.26
662.89	1084.60
663.23	1080.86
663.57	1086.94
663.91	1084.37
664.25	1077.35
664.60	1077.35
664.94	1067.99
665.28	1072.67
665.62	1074.07
665.96	1081.09
666.30	1084.60
666.64	1085.07
666.98	1078.28
667.32	1063.54
667.66	1066.11
668.01	1075.24
668.35	1091.63
668.69	1097.01
669.03	1114.80
669.37	1111.52
669.71	1108.48
670.05	1093.97
670.39	1082.26
670.73	1072.67
671.07	1071.03
671.41	1054.65
671.75	1053.94
672.09	1063.54
672.43	1064.24
672.77	1060.26
673.11	1078.05
673.45	1081.09
673.79	1075.94
674.13	1081.33
674.47	1091.86
674.81	1091.39
675.15	1090.22
675.49	1100.29
675.83	1104.50
676.17	1114.33
676.51	1108.71
676.85	1097.01
677.19	1090.69
677.53	1090.92
677.87	1076.18
678.21	1075.01
678.55	1092.80
678.89	1087.65
679.23	1087.88
679.57	1088.82
679.90	1089.99
680.24	1086.01
680.58	1091.63
680.92	1096.78
681.26	1100.99
681.60	1105.67
681.94	1104.73
682.28	1099.35
682.62	1087.41
682.96	1078.99
683.29	1077.82
683.63	1076.41
683.97	1076.65
684.31	1078.52
684.65	1084.14
684.99	1080.86
685.33	1081.09
685.67	1082.26
686.00	1087.18
686.34	1086.01
686.68	1086.24
687.02	1083.67
687.36	1094.20
687.70	1091.86
688.03	1095.37
688.37	1096.54
688.71	1093.26
689.05	1085.77
689.39	1082.03
689.72	1081.56
690.06	1082.03
690.40	1083.67
690.74	1088.35
691.08	1083.67
691.41	1076.65
691.75	1078.75
692.09	1083.20
692.43	1077.58
692.76	1076.18
693.10	1075.01
693.44	1073.60
693.78	1076.18
694.11	1068.45
694.45	1074.31
694.79	1078.28
695.13	1078.28
695.46	1081.09
695.80	1085.07
696.14	1090.69
696.48	1086.71
696.81	1086.24
697.15	1081.56
697.49	1086.48
697.82	1078.75
698.16	1085.07
698.50	1079.22
698.83	1084.37
699.17	1091.16
699.51	1107.07
699.84	1112.92
700.18	1117.14
700.52	1107.31
700.85	1097.71
701.19	1085.07
701.53	1076.18
701.86	1068.69
702.20	1074.31
702.54	1069.62
702.87	1071.26
703.21	1072.43
703.55	1070.33
703.88	1067.05
704.22	1071.50
704.55	1063.31
704.89	1062.37
705.23	1062.60
705.56	1057.92
705.90	1067.05
706.23	1078.05
706.57	1088.58
706.91	1093.26
707.24	1106.14
707.58	1102.39
707.91	1095.60
708.25	1083.43
708.58	1085.07
708.92	1081.33
709.26	1078.05
709.59	1080.86
709.93	1076.65
710.26	1077.82
710.60	1069.86
710.93	1068.69
711.27	1066.82
711.60	1071.97
711.94	1073.37
712.27	1075.01
712.61	1076.41
712.94	1077.82
713.28	1078.52
713.61	1071.26
713.95	1064.94
714.28	1062.60
714.62	1070.56
714.95	1074.31
715.29	1080.63
715.62	1096.54
715.96	1102.63
716.29	1096.78
716.63	1104.26
716.96	1101.46
717.29	1101.92
717.63	1100.52
717.96	1101.46
718.30	1102.86
718.63	1103.09
718.97	1098.65
719.30	1101.69
719.63	1099.12
719.97	1081.56
720.30	1079.22
720.64	1078.75
720.97	1071.26
721.30	1080.39
721.64	1079.92
721.97	1086.71
722.31	1077.11
722.64	1072.20
722.97	1060.50
723.31	1066.82
723.64	1063.54
723.97	1073.14
724.31	1086.48
724.64	1078.52
724.98	1071.03
725.31	1060.26
725.64	1062.37
725.98	1054.65
726.31	1067.75
726.64	1067.99
726.97	1077.35
727.31	1067.99
727.64	1061.20
727.97	1052.07
728.31	1058.39
728.64	1051.37
728.97	1060.50
729.31	1067.28
729.64	1064.48
729.97	1064.24
730.30	1071.73
730.64	1066.82
730.97	1071.03
731.30	1084.37
731.63	1085.77
731.97	1093.26
732.30	1094.20
732.63	1089.99
732.96	1087.18
733.30	1083.20
733.63	1072.43
733.96	1077.11
734.29	1079.46
734.63	1078.05
734.96	1084.84
735.29	1091.39
735.62	1084.84
735.95	1083.67
736.29	1079.69
736.62	1079.69
736.95	1083.43
737.28	1083.67
737.61	1082.73
737.94	1088.12
738.28	1074.77
738.61	1071.97
738.94	1075.24
739.27	1072.67
739.60	1061.43
739.93	1071.50
740.27	1074.07
740.60	1082.26
740.93	1079.69
741.26	1088.58
741.59	1088.35
741.92	1080.16
742.25	1067.75
742.58	1070.56
742.91	1072.43
743.25	1062.84
743.58	1060.73
743.91	1060.26
744.24	1069.86
744.57	1066.82
744.90	1065.41
745.23	1073.84
745.56	1078.05
745.89	1082.03
746.22	1078.52
746.55	1084.60
746.88	1075.01
747.21	1071.50
747.54	1059.79
747.87	1057.92
748.20	1061.67
748.53	1065.65
748.87	1068.69
749.20	1073.14
749.53	1086.48
749.86	1082.73
750.19	1093.26
750.52	1097.24
750.85	1088.82
751.18	1078.28
751.51	1084.60
751.84	1081.80
752.16	1082.03
752.49	1083.90
752.82	1090.46
753.15	1081.80
753.48	1073.14
753.81	1071.50
754.14	1074.77
754.47	1075.94
754.80	1088.82
755.13	1100.75
755.46	1096.07
755.79	1098.18
756.12	1098.18
756.45	1086.94
756.78	1074.54
757.11	1068.92
757.43	1064.01
757.76	1058.16
758.09	1068.45
758.42	1079.22
758.75	1078.52
759.08	1073.37
759.41	1078.99
759.74	1080.86
760.07	1073.84
760.39	1088.12
760.72	1098.88
761.05	1104.73
761.38	1093.03
761.71	1096.07
762.04	1088.12
762.36	1088.35
762.69	1072.67
763.02	1073.60
763.35	1074.54
763.68	1081.56
764.01	1092.56
764.33	1098.41
764.66	1100.75
764.99	1091.39
765.32	1084.14
765.65	1071.97
765.97	1084.37
766.30	1078.52
766.63	1080.39
766.96	1086.01
767.28	1086.01
767.61	1077.11
767.94	1078.52
768.27	1074.77
768.59	1075.24
768.92	1080.16
769.25	1076.18
769.58	1079.46
769.90	1079.69
770.23	1068.69
770.56	1057.22
770.89	1056.52
771.21	1059.79
771.54	1058.39
771.87	1065.65
772.19	1079.69
772.52	1080.16
772.85	1078.75
773.17	1089.29
773.50	1089.29
773.83	1071.97
774.15	1071.26
774.48	1078.52
774.81	1070.33
775.13	1074.31
775.46	1087.41
775.79	1096.07
776.11	1087.88
776.44	1100.99
776.77	1091.86
777.09	1094.90
777.42	1088.82
777.74	1087.18
778.07	1084.84
778.40	1092.56
778.72	1084.60
779.05	1095.84
779.37	1103.56
779.70	1094.20
780.03	1092.33
780.35	1091.63
780.68	1084.60
781.00	1076.18
781.33	1083.20
781.65	1086.71
781.98	1090.46
782.31	1089.75
782.63	1090.69
782.96	1096.31
783.28	1087.88
783.61	1082.50
783.93	1081.09
784.26	1083.67
784.58	1073.14
784.91	1072.90
785.23	1073.84
785.56	1079.46
785.88	1078.28
786.21	1080.16
786.53	1080.16
786.86	1072.90
787.18	1056.28
787.51	1057.45
787.83	1060.50
788.16	1061.90
788.48	1071.73
788.81	1085.54
789.13	1081.09
789.46	1089.05
789.78	1083.20
790.10	1078.75
790.43	1075.24
790.75	1088.82
791.08	1081.09
791.40	1083.67
791.73	1089.99
792.05	1086.01
792.37	1071.50
792.70	1075.24
793.02	1080.16
793.35	1070.56
793.67	1080.39
793.99	1092.56
794.32	1089.52
794.64	1092.56
794.96	1091.63
795.29	1088.82
795.61	1075.24
795.93	1072.90
796.26	1083.67
796.58	1093.03
796.91	1087.18
797.23	1083.67
797.55	1084.84
797.87	1065.65
798.20	1069.16
798.52	1065.18
798.84	1080.39
799.17	1088.12
799.49	1087.88
799.81	1080.86
800.14	1089.29
800.46	1089.75
800.78	1081.09
801.10	1083.67
801.43	1079.46
801.75	1074.31
802.07	1065.18
802.40	1067.99
802.72	1074.07
803.04	1085.31
803.36	1099.35
803.69	1102.16
804.01	1095.84
804.33	1080.39
804.65	1067.28
804.97	1048.33
805.30	1056.05
805.62	1064.01
805.94	1084.84
806.26	1086.48
806.58	1094.20
806.91	1088.35
807.23	1082.97
807.55	1067.75
807.87	1076.88
808.19	1077.82
808.52	1078.28
808.84	1075.24
809.16	1074.77
809.48	1060.26
809.80	1057.45
810.12	1047.16
810.44	1044.82
810.77	1049.26
811.09	1064.48
811.41	1060.96
811.73	1071.03
812.05	1081.80
812.37	1081.80
812.69	1079.22
813.01	1085.07
813.33	1087.41
813.66	1075.94
813.98	1075.01
814.30	1071.97
814.62	1065.18
814.94	1065.88
815.26	1068.92
815.58	1069.39
815.90	1072.43
816.22	1073.84
816.54	1078.99
816.86	1080.16
817.18	1086.71
817.50	1091.86
817.82	1095.37
818.14	1084.37
818.46	1089.29
818.78	1088.58
819.10	1078.75
819.42	1078.99
819.74	1066.82
820.06	1064.01
820.38	1060.03
820.70	1062.60
821.02	1064.01
821.34	1074.77
821.66	1072.43
821.98	1075.94
822.30	1071.03
822.62	1068.92
822.94	1070.80
823.26	1075.71
823.58	1077.35
823.90	1078.28
824.22	1083.67
824.54	1084.60
824.86	1081.80
825.18	1075.48
825.50	1081.56
825.81	1080.16
826.13	1080.86
826.45	1078.75
826.77	1081.09
827.09	1081.09
827.41	1082.03
827.73	1091.86
828.05	1093.50
828.36	1097.01
828.68	1094.43
829.00	1085.31
829.32	1064.94
829.64	1063.31
829.96	1059.09
830.28	1067.99
830.59	1074.54
830.91	1074.77
831.23	1073.60
831.55	1070.56
831.87	1061.90
832.19	1058.86
832.50	1053.48
832.82	1057.92
833.14	1057.22
833.46	1055.35
833.78	1058.16
834.09	1075.01
834.41	1076.88
834.73	1075.94
835.05	1072.43
835.36	1076.88
835.68	1071.50
836.00	1076.88
836.32	1093.50
836.63	1098.88
836.95	1091.39
837.27	1097.71
837.59	1090.22
837.90	1081.56
838.22	1087.41
838.54	1084.14
838.85	1079.22
839.17	1081.09
839.49	1076.65
839.80	1072.90
840.12	1070.56
840.44	1063.54
840.76	1060.50
841.07	1062.60
841.39	1062.37
841.71	1075.24
842.02	1082.97
842.34	1090.69
842.65	1091.86
842.97	1098.41
843.29	1092.80
843.60	1095.84
843.92	1080.63
844.24	1075.71
844.55	1065.41
844.87	1063.31
845.18	1061.20
845.50	1081.80
845.82	1085.31
846.13	1091.86
846.45	1092.56
846.76	1095.37
847.08	1082.03
847.40	1074.31
847.71	1073.84
848.03	1066.11
848.34	1063.54
848.66	1067.52
848.97	1078.52
849.29	1075.94
849.60	1088.35
849.92	1092.56
850.24	1091.39
850.55	1089.05
850.87	1079.92
851.18	1077.11
851.50	1074.77
851.81	1071.03
852.13	1073.84
852.44	1082.26
852.76	1087.18
853.07	1078.05
853.39	1085.77
853.70	1084.60
854.01	1087.88
854.33	1082.50
854.64	1089.29
854.96	1083.20
855.27	1088.35
855.59	1090.92
855.90	1091.16
856.22	1093.97
856.53	1090.46
856.84	1088.35
857.16	1086.94
857.47	1085.77
857.79	1085.31
858.10	1082.97
858.41	1080.16
858.73	1074.54
859.04	1070.33
859.36	1070.33
859.67	1075.01
859.98	1066.11
860.30	1066.35
860.61	1070.56
860.92	1069.62
861.24	1065.18
861.55	1070.09
861.87	1068.69
862.18	1063.07
862.49	1051.37
862.81	1067.05
863.12	1071.26
863.43	1073.37
863.74	1080.63
864.06	1090.92
864.37	1078.52
864.68	1084.84
865.00	1079.22
865.31	1075.48
865.62	1080.39
865.94	1085.31
866.25	1074.31
866.56	1079.92
866.87	1084.60
867.19	1072.90
867.50	1055.82
867.81	1061.43
868.12	1055.82
868.44	1053.94
868.75	1061.90
869.06	1073.84
869.37	1075.01
869.68	1078.99
870.00	1080.39
870.31	1085.31
870.62	1081.09
870.93	1076.65
871.24	1081.09
871.56	1083.67
871.87	1072.43
872.18	1074.77
872.49	1066.82
872.80	1061.43
873.12	1051.13
873.43	1059.79
873.74	1074.07
874.05	1078.75
874.36	1083.90
874.67	1091.39
874.98	1091.39
875.29	1081.56
875.61	1086.01
875.92	1080.63
876.23	1087.41
876.54	1082.26
876.85	1087.88
877.16	1085.54
877.47	1087.65
877.78	1087.18
878.09	1098.65
878.40	1092.56
878.72	1097.95
879.03	1098.65
879.34	1089.75
879.65	1080.39
879.96	1084.60
880.27	1083.20
880.58	1088.12
880.89	1087.41
881.20	1089.99
881.51	1090.46
881.82	1086.94
882.13	1084.37
882.44	1081.80
882.75	1078.52
883.06	1079.92
883.37	1073.37
883.68	1068.92
883.99	1071.50
884.30	1072.43
884.61	1058.62
884.92	1060.96
885.23	1062.14
885.54	1059.56
885.85	1065.88
886.16	1074.31
886.47	1075.94
886.78	1072.43
887.08	1070.56
887.39	1066.82
887.70	1072.90
888.01	1077.58
888.32	1083.20
888.63	1087.18
888.94	1083.20
889.25	1070.33
889.56	1061.20
889.87	1060.26
890.17	1064.48
890.48	1065.18
890.79	1063.07
891.10	1071.26
891.41	1069.16
891.72	1064.01
892.03	1081.56
892.34	1090.69
892.64	1096.07
892.95	1089.29
893.26	1096.54
893.57	1081.80
893.88	1084.14
894.18	1080.39
894.49	1088.12
894.80	1089.52
895.11	1078.05
895.42	1066.58
895.72	1074.77
896.03	1081.56
896.34	1078.75
896.65	1085.77
896.96	1094.90
897.26	1090.46
897.57	1085.31
897.88	1085.77
898.19	1079.46
898.49	1080.63
898.80	1071.03
899.11	1066.58
899.41	1067.52
899.72	1083.90
900.03	1088.12
900.34	1089.99
900.64	1092.80
900.95	1086.71
901.26	1076.88
901.56	1072.43
901.87	1063.54
902.18	1069.86
902.48	1074.77
902.79	1079.22
903.10	1074.77
903.40	1085.77
903.71	1071.50
904.02	1066.82
904.32	1063.07
904.63	1067.52
904.94	1069.16
905.24	1083.67
905.55	1087.18
905.85	1086.24
906.16	1080.39
906.47	1079.22
906.77	1075.24
907.08	1063.77
907.38	1064.71
907.69	1064.24
908.00	1057.69
908.30	1054.41
908.61	1066.35
908.91	1063.31
909.22	1069.62
909.52	1071.03
909.83	1071.73
910.14	1064.94
910.44	1077.82
910.75	1077.11
911.05	1091.39
911.36	1096.31
911.66	1102.39
911.97	1101.92
912.27	1098.65
912.58	1086.94
912.88	1083.20
913.19	1076.65
913.49	1067.99
913.80	1071.03
914.10	1059.79
914.41	1045.99
914.71	1054.88
915.01	1049.50
915.32	1047.86
915.62	1061.67
915.93	1076.41
916.23	1065.88
916.54	1071.50
916.84	1072.43
917.15	1059.09
917.45	1065.41
917.75	1072.43
918.06	1067.05
918.36	1061.20
918.67	1079.69
918.97	1073.84
919.27	1082.73
919.58	1091.16
919.88	1083.90
920.18	1081.33
920.49	1067.75
920.79	1065.41
921.10	1060.26
921.40	1072.67
921.70	1075.01
922.01	1089.52
922.31	1083.20
922.61	1081.80
922.92	1086.48
923.22	1077.82
923.52	1070.56
923.82	1069.39
924.13	1074.54
924.43	1064.94
924.73	1067.52
925.04	1067.75
925.34	1069.86
925.64	1062.37
925.94	1059.33
926.25	1060.03
926.55	1065.65
926.85	1061.20
927.15	1060.26
927.46	1069.16
927.76	1066.11
928.06	1062.14
928.36	1061.43
928.67	1059.79
928.97	1067.99
929.27	1071.97
929.57	1086.01
929.87	1087.18
930.18	1108.48
930.48	1101.22
930.78	1103.80
931.08	1094.67
931.38	1098.41
931.69	1080.63
931.99	1080.63
932.29	1075.48
932.59	1071.03
932.89	1074.31
933.19	1078.99
933.49	1073.84
933.80	1075.94
934.10	1084.84
934.40	1083.90
934.70	1084.84
935.00	1088.35
935.30	1088.35
935.60	1079.92
935.90	1075.24
936.20	1073.37
936.50	1068.69
936.81	1074.07
937.11	1080.39
937.41	1088.82
937.71	1090.69
938.01	1099.12
938.31	1089.75
938.61	1081.33
938.91	1076.41
939.21	1071.50
939.51	1061.90
939.81	1068.45
940.11	1077.35
940.41	1081.56
940.71	1089.99
941.01	1108.24
941.31	1105.44
941.61	1109.41
941.91	1098.65
942.21	1100.99
942.51	1092.09
942.81	1088.82
943.11	1086.24
943.41	1092.56
943.71	1084.14
944.01	1076.18
944.31	1080.16
944.61	1067.28
944.90	1064.71
945.20	1070.80
945.50	1070.33
945.80	1070.33
946.10	1076.88
946.40	1088.82
946.70	1082.97
947.00	1091.86
947.30	1099.82
947.60	1100.52
947.89	1093.50
948.19	1097.01
948.49	1095.14
948.79	1089.29
949.09	1087.18
949.39	1079.69
949.69	1078.75
949.98	1072.90
950.28	1075.71
950.58	1072.90
950.88	1076.65
951.18	1074.07
951.48	1072.90
951.77	1069.39
952.07	1076.65
952.37	1076.41
952.67	1075.48
952.97	1074.54
953.26	1075.24
953.56	1078.75
953.86	1071.97
954.16	1069.86
954.45	1080.86
954.75	1076.18
955.05	1071.97
955.35	1071.50
955.64	1077.82
955.94	1073.84
956.24	1074.07
956.54	1069.39
956.83	1075.01
957.13	1087.41
957.43	1085.31
957.72	1085.54
958.02	1086.94
958.32	1095.37
958.61	1078.52
958.91	1079.69
959.21	1084.14
959.50	1088.35
959.80	1084.60
960.10	1086.94
960.39	1088.12
960.69	1075.94
960.99	1068.69
961.28	1064.48
961.58	1065.18
961.87	1061.43
962.17	1072.20
962.47	1073.37
962.76	1075.24
963.06	1081.33
963.36	1073.84
963.65	1069.39
963.95	1064.71
964.24	1072.43
964.54	1064.24
964.83	1071.50
965.13	1082.97
965.42	1091.16
965.72	1078.75
966.02	1080.16
966.31	1084.60
966.61	1070.33
966.90	1060.03
967.20	1063.07
967.49	1065.41
967.79	1058.62
968.08	1062.37
968.38	1072.43
968.67	1073.84
968.97	1079.22
969.26	1093.26
969.56	1095.14
969.85	1096.07
970.15	1086.01
970.44	1079.69
970.74	1072.20
971.03	1079.46
971.32	1071.50
971.62	1077.35
971.91	1077.82
972.21	1078.99
972.50	1071.26
972.80	1074.54
973.09	1077.11
973.38	1077.58
973.68	1087.41
973.97	1086.71
974.27	1085.77
974.56	1076.18
974.85	1076.18
975.15	1057.22
975.44	1055.58
975.73	1051.37
976.03	1060.50
976.32	1060.50
976.61	1068.45
976.91	1064.94
977.20	1072.43
977.49	1076.41
977.79	1078.05
978.08	1076.65
978.37	1082.03
978.67	1080.86
978.96	1081.80
979.25	1078.28
979.55	1080.16
979.84	1080.63
980.13	1081.80
980.42	1079.46
980.72	1080.39
981.01	1072.43
981.30	1080.86
981.59	1082.73
981.89	1092.80
982.18	1106.14
982.47	1116.90
982.76	1103.09
983.06	1104.03
983.35	1089.52
983.64	1080.39
983.93	1078.52
984.22	1086.94
984.52	1081.33
984.81	1085.54
985.10	1085.54
985.39	1085.07
985.68	1080.86
985.97	1086.71
986.27	1082.50
986.56	1076.65
986.85	1079.92
987.14	1080.86
987.43	1088.82
987.72	1086.01
988.01	1083.43
988.31	1068.92
988.60	1068.92
988.89	1052.54
989.18	1051.84
989.47	1056.28
989.76	1061.67
990.05	1049.26
990.34	1054.65
990.63	1059.56
990.92	1051.60
991.21	1052.30
991.51	1064.01
991.80	1058.62
992.09	1063.31
992.38	1076.88
992.67	1080.39
992.96	1083.67
993.25	1080.63
993.54	1078.52
993.83	1067.28
994.12	1067.52
994.41	1069.16
994.70	1082.73
994.99	1082.73
995.28	1078.75
995.57	1077.35
995.86	1075.71
996.15	1067.28
996.44	1067.99
996.73	1076.88
997.02	1075.94
997.31	1071.97
997.59	1073.60
997.88	1079.22
998.17	1075.71
998.46	1085.31
998.75	1080.86
999.04	1094.20
999.33	1082.03
999.62	1084.37
999.91	1081.33
1000.20	1094.20
1000.49	1086.48
1000.77	1100.99
1001.06	1101.69
1001.35	1098.65
1001.64	1089.29
1001.93	1087.65
1002.22	1081.56
1002.51	1088.12
1002.79	1086.01
1003.08	1083.43
1003.37	1079.46
1003.66	1071.03
1003.95	1062.37
1004.23	1061.67
1004.52	1071.97
1004.81	1076.88
1005.10	1080.63
1005.39	1089.99
1005.67	1098.41
1005.96	1093.73
1006.25	1089.05
1006.54	1084.60
1006.83	1077.35
1007.11	1077.35
1007.40	1077.58
1007.69	1078.28
1007.97	1077.58
1008.26	1082.03
1008.55	1074.77
1008.84	1082.03
1009.12	1077.11
1009.41	1086.24
1009.70	1086.01
1009.98	1081.09
1010.27	1071.26
1010.56	1071.03
1010.85	1058.16
1011.13	1052.77
1011.42	1060.03
1011.71	1064.71
1011.99	1073.37
1012.28	1084.84
1012.56	1080.86
1012.85	1089.99
1013.14	1091.16
1013.42	1086.01
1013.71	1092.33
1014.00	1098.65
1014.28	1077.58
1014.57	1076.65
1014.85	1078.52
1015.14	1066.82
1015.43	1066.35
1015.71	1067.75
1016.00	1060.03
1016.28	1061.67
1016.57	1054.88
1016.85	1049.03
1017.14	1058.86
1017.43	1065.18
1017.71	1066.11
1018.00	1070.80
1018.28	1071.73
1018.57	1071.26
1018.85	1064.94
1019.14	1067.52
1019.42	1069.86
1019.71	1077.82
1019.99	1074.07
1020.28	1071.03
1020.56	1072.67
1020.85	1064.24
1021.13	1059.79
1021.42	1059.79
1021.70	1061.20
1021.99	1060.73
1022.27	1063.54
1022.55	1102.39
1022.84	1031.01
>>>>>End Processed Spectral Data<<<<<
