SpectraSuite Data File
++++++++++++++++++++++++++++++++++++
Date: Mon Aug 26 10:24:49 PDT 2019
User: corrico
Dark Spectrum Present: No
Reference Spectrum Present: No
Number of Sampled Component Spectra: 1
Spectrometers: USB2+H06089
Integration Time (usec): 10000 (USB2+H06089)
Spectra Averaged: 2 (USB2+H06089)
Boxcar Smoothing: 2 (USB2+H06089)
Correct for Electrical Dark: No (USB2+H06089)
Strobe/Lamp Enabled: No (USB2+H06089)
Correct for Detector Non-linearity: No (USB2+H06089)
Correct for Stray Light: No (USB2+H06089)
Number of Pixels in Processed Spectrum: 2048
>>>>>Begin Processed Spectral Data<<<<<
339.70	1020.47
340.07	1020.47
340.45	980.22
340.82	960.32
341.19	942.07
341.57	923.34
341.94	904.62
342.31	902.74
342.69	900.64
343.06	895.25
343.43	886.83
343.81	899.94
344.18	911.87
344.55	913.04
344.93	913.28
345.30	918.43
345.67	913.28
346.04	915.38
346.42	922.87
346.79	929.43
347.16	947.21
347.54	965.47
347.91	980.92
348.28	990.51
348.65	1001.05
349.03	1011.11
349.40	1019.07
349.77	1028.43
350.14	1038.96
350.52	1054.41
350.89	1048.09
351.26	1056.99
351.63	1060.03
352.01	1072.43
352.38	1079.92
352.75	1091.16
353.12	1084.60
353.50	1090.22
353.87	1094.20
354.24	1097.48
354.61	1103.80
354.98	1110.82
355.36	1106.14
355.73	1095.84
356.10	1102.16
356.47	1103.09
356.84	1100.29
357.22	1096.54
357.59	1095.60
357.96	1079.92
358.33	1072.90
358.70	1081.80
359.08	1089.05
359.45	1083.67
359.82	1089.05
360.19	1084.14
360.56	1082.97
360.94	1081.09
361.31	1090.92
361.68	1094.20
362.05	1102.63
362.42	1097.95
362.79	1104.73
363.16	1097.01
363.54	1092.09
363.91	1087.88
364.28	1090.92
364.65	1085.54
365.02	1091.63
365.39	1090.22
365.76	1085.31
366.14	1086.01
366.51	1082.26
366.88	1077.58
367.25	1075.71
367.62	1076.41
367.99	1071.50
368.36	1068.69
368.73	1073.14
369.10	1068.69
369.48	1076.41
369.85	1078.75
370.22	1093.50
370.59	1091.63
370.96	1099.82
371.33	1101.22
371.70	1098.88
372.07	1087.18
372.44	1082.03
372.81	1077.58
373.18	1077.35
373.55	1071.26
373.93	1077.82
374.30	1076.88
374.67	1076.88
375.04	1075.94
375.41	1080.63
375.78	1078.05
376.15	1087.18
376.52	1089.52
376.89	1084.84
377.26	1090.22
377.63	1101.92
378.00	1106.14
378.37	1108.24
378.74	1119.71
379.11	1115.27
379.48	1107.31
379.85	1097.95
380.22	1100.29
380.59	1085.07
380.96	1088.12
381.33	1080.16
381.70	1073.14
382.07	1075.48
382.44	1077.11
382.81	1075.24
383.18	1084.60
383.55	1098.18
383.92	1087.88
384.29	1088.58
384.66	1083.43
385.03	1088.35
385.40	1085.31
385.77	1098.65
386.14	1116.90
386.51	1126.03
386.88	1111.75
387.25	1118.78
387.62	1108.48
387.99	1103.56
388.36	1107.54
388.73	1107.54
389.10	1106.37
389.46	1108.71
389.83	1109.41
390.20	1109.18
390.57	1117.14
390.94	1099.12
391.31	1099.35
391.68	1093.26
392.05	1093.26
392.42	1091.86
392.79	1107.07
393.16	1109.18
393.53	1115.27
393.89	1118.07
394.26	1116.90
394.63	1118.78
395.00	1117.61
395.37	1110.35
395.74	1111.75
396.11	1119.24
396.48	1121.12
396.84	1122.29
397.21	1141.25
397.58	1150.84
397.95	1146.63
398.32	1144.52
398.69	1152.01
399.06	1135.16
399.42	1126.97
399.79	1135.16
400.16	1141.48
400.53	1143.82
400.90	1159.27
401.27	1154.12
401.64	1153.42
402.00	1145.46
402.37	1159.97
402.74	1162.54
403.11	1175.65
403.48	1176.35
403.84	1194.84
404.21	1193.44
404.58	1193.21
404.95	1203.74
405.32	1215.44
405.68	1221.53
406.05	1230.89
406.42	1233.93
406.79	1235.10
407.16	1241.42
407.52	1256.17
407.89	1266.46
408.26	1299.00
408.63	1325.45
408.99	1352.36
409.36	1387.24
409.73	1418.83
410.10	1433.81
410.47	1458.15
410.83	1501.69
411.20	1529.31
411.57	1562.07
411.94	1624.33
412.30	1672.08
412.67	1714.44
413.04	1763.83
413.40	1816.26
413.77	1867.05
414.14	1929.54
414.51	1987.35
414.87	2057.80
415.24	2120.29
415.61	2197.29
415.97	2271.49
416.34	2361.83
416.71	2435.09
417.08	2545.57
417.44	2622.80
417.81	2738.66
418.18	2855.22
418.54	3007.59
418.91	3135.85
419.28	3296.64
419.64	3427.01
420.01	3578.68
420.38	3719.11
420.74	3891.84
421.11	4084.47
421.48	4311.03
421.84	4532.68
422.21	4781.25
422.58	5038.71
422.94	5294.29
423.31	5552.92
423.68	5814.36
424.04	6094.05
424.41	6378.43
424.77	6662.80
425.14	6951.63
425.51	7267.36
425.87	7613.29
426.24	7960.86
426.61	8363.90
426.97	8836.46
427.34	9258.69
427.70	9764.25
428.07	10266.53
428.44	10756.87
428.80	11257.27
429.17	11832.81
429.53	12319.64
429.90	12959.31
430.27	13521.51
430.63	14065.22
431.00	14747.95
431.36	15422.96
431.73	15976.26
432.09	16658.53
432.46	17307.56
432.83	17895.97
433.19	18460.04
433.56	19151.67
433.92	19795.08
434.29	20418.13
434.65	21125.91
435.02	21782.20
435.38	22429.12
435.75	22936.78
436.11	23595.88
436.48	24009.22
436.84	24570.71
437.21	24973.98
437.57	25458.71
437.94	25835.07
438.30	26237.17
438.67	26483.40
439.03	26675.79
439.40	26819.03
439.76	26769.64
440.13	26724.47
440.49	26678.36
440.86	26445.71
441.22	26183.57
441.59	25831.79
441.95	25432.03
442.32	24857.19
442.68	24454.62
443.05	23981.60
443.41	23515.36
443.78	22951.06
444.14	22490.44
444.51	21884.48
444.87	21462.24
445.24	21004.67
445.60	20543.35
445.96	20020.94
446.33	19596.60
446.69	18981.28
447.06	18480.64
447.42	17983.97
447.79	17505.33
448.15	17046.36
448.51	16559.76
448.88	16141.04
449.24	15671.76
449.61	15338.00
449.97	14949.70
450.33	14591.13
450.70	14154.62
451.06	13837.25
451.43	13361.42
451.79	12979.67
452.15	12658.55
452.52	12384.94
452.88	12054.70
453.24	11802.62
453.61	11598.76
453.97	11323.98
454.34	11030.24
454.70	10767.63
455.06	10524.69
455.43	10164.71
455.79	9803.10
456.15	9502.81
456.52	9183.56
456.88	8885.14
457.24	8600.06
457.61	8396.44
457.97	8148.58
458.33	7945.18
458.70	7696.62
459.06	7477.54
459.42	7234.13
459.79	6988.14
460.15	6753.15
460.51	6532.67
460.88	6300.96
461.24	6124.25
461.60	5961.34
461.96	5775.97
462.33	5601.60
462.69	5453.68
463.05	5291.48
463.42	5156.43
463.78	5021.85
464.14	4916.06
464.50	4816.35
464.87	4697.46
465.23	4569.90
465.59	4470.19
465.95	4371.89
466.32	4252.99
466.68	4161.24
467.04	4067.62
467.40	3968.14
467.77	3867.97
468.13	3798.92
468.49	3738.30
468.85	3678.85
469.22	3617.06
469.58	3550.36
469.94	3472.18
470.30	3409.46
470.66	3347.20
471.03	3288.92
471.39	3233.22
471.75	3181.49
472.11	3103.32
472.47	3030.99
472.84	2975.76
473.20	2925.67
473.56	2880.50
473.92	2829.47
474.28	2796.71
474.65	2759.96
475.01	2709.17
475.37	2662.83
475.73	2620.23
476.09	2573.65
476.45	2539.95
476.81	2500.39
477.18	2451.24
477.54	2424.56
477.90	2389.69
478.26	2341.47
478.62	2320.64
478.98	2304.73
479.34	2272.89
479.71	2245.98
480.07	2226.55
480.43	2194.25
480.79	2166.63
481.15	2146.51
481.51	2125.67
481.87	2105.78
482.23	2087.06
482.59	2060.84
482.96	2030.41
483.32	2023.63
483.68	1989.92
484.04	1957.39
484.40	1937.03
484.76	1909.88
485.12	1879.22
485.48	1869.15
485.84	1847.15
486.20	1813.92
486.56	1800.57
486.92	1762.89
487.28	1738.32
487.64	1729.19
488.00	1723.10
488.37	1690.33
488.73	1685.19
489.09	1668.33
489.45	1647.97
489.81	1630.42
490.17	1636.27
490.53	1630.18
490.89	1611.93
491.25	1595.78
491.61	1575.65
491.97	1552.48
492.33	1538.43
492.69	1534.22
493.05	1532.82
493.41	1537.03
493.77	1539.60
494.13	1526.50
494.49	1512.92
494.85	1494.67
495.21	1467.75
495.57	1439.90
495.93	1429.60
496.29	1414.39
496.64	1389.11
497.00	1376.70
497.36	1372.26
497.72	1354.47
498.08	1347.68
498.44	1346.74
498.80	1343.47
499.16	1335.51
499.52	1328.96
499.88	1321.47
500.24	1324.28
500.60	1314.68
500.96	1324.04
501.32	1321.93
501.68	1313.04
502.03	1306.02
502.39	1311.40
502.75	1290.81
503.11	1287.76
503.47	1297.59
503.83	1295.72
504.19	1284.02
504.55	1280.74
504.91	1284.49
505.26	1269.74
505.62	1263.19
505.98	1260.38
506.34	1254.06
506.70	1225.74
507.06	1230.42
507.42	1213.33
507.78	1202.57
508.13	1207.48
508.49	1211.23
508.85	1196.72
509.21	1204.44
509.57	1214.27
509.93	1210.53
510.28	1214.04
510.64	1213.57
511.00	1208.18
511.36	1192.27
511.72	1179.40
512.07	1168.86
512.43	1170.03
512.79	1172.14
513.15	1177.29
513.51	1188.76
513.86	1189.93
514.22	1185.01
514.58	1180.10
514.94	1174.01
515.30	1161.84
515.65	1154.12
516.01	1151.54
516.37	1159.27
516.73	1163.01
517.08	1167.23
517.44	1184.55
517.80	1183.14
518.16	1165.35
518.51	1164.18
518.87	1163.48
519.23	1152.48
519.59	1151.78
519.94	1150.61
520.30	1147.80
520.66	1138.44
521.01	1136.10
521.37	1128.84
521.73	1129.78
522.09	1122.52
522.44	1131.65
522.80	1128.14
523.16	1126.27
523.51	1127.44
523.87	1128.37
524.23	1123.22
524.58	1122.29
524.94	1121.12
525.30	1126.27
525.65	1130.48
526.01	1125.80
526.37	1130.01
526.72	1130.71
527.08	1122.05
527.44	1120.65
527.79	1122.29
528.15	1124.16
528.51	1121.58
528.86	1124.16
529.22	1113.39
529.58	1111.29
529.93	1100.75
530.29	1100.75
530.65	1097.48
531.00	1107.31
531.36	1098.18
531.71	1100.99
532.07	1111.52
532.43	1123.93
532.78	1122.29
533.14	1123.22
533.49	1116.44
533.85	1106.61
534.21	1094.67
534.56	1087.88
534.92	1095.84
535.27	1104.97
535.63	1108.71
535.98	1113.39
536.34	1116.20
536.69	1117.14
537.05	1106.84
537.41	1111.29
537.76	1114.33
538.12	1116.20
538.47	1122.29
538.83	1138.20
539.18	1132.59
539.54	1128.84
539.89	1130.71
540.25	1128.61
540.60	1123.93
540.96	1116.44
541.31	1108.01
541.67	1104.73
542.02	1095.14
542.38	1089.52
542.73	1101.22
543.09	1106.84
543.44	1114.56
543.80	1124.86
544.15	1125.33
544.51	1119.01
544.86	1116.44
545.22	1105.67
545.57	1091.63
545.93	1097.01
546.28	1100.29
546.64	1104.73
546.99	1113.86
547.35	1116.44
547.70	1111.52
548.05	1107.78
548.41	1100.75
548.76	1097.95
549.12	1103.80
549.47	1106.61
549.83	1111.05
550.18	1126.03
550.53	1124.16
550.89	1116.67
551.24	1113.86
551.60	1116.90
551.95	1107.54
552.30	1107.78
552.66	1112.69
553.01	1113.86
553.37	1101.69
553.72	1091.86
554.07	1092.56
554.43	1093.73
554.78	1087.65
555.13	1085.31
555.49	1104.50
555.84	1091.63
556.19	1085.07
556.55	1092.80
556.90	1102.63
557.26	1080.86
557.61	1091.86
557.96	1097.95
558.32	1094.20
558.67	1101.22
559.02	1118.07
559.37	1118.31
559.73	1110.82
560.08	1116.90
560.43	1111.75
560.79	1096.07
561.14	1098.41
561.49	1109.41
561.85	1108.24
562.20	1105.44
562.55	1109.41
562.90	1106.61
563.26	1100.29
563.61	1097.95
563.96	1108.48
564.32	1113.16
564.67	1113.63
565.02	1124.63
565.37	1109.65
565.73	1098.41
566.08	1097.48
566.43	1098.18
566.78	1091.16
567.14	1095.84
567.49	1105.90
567.84	1111.75
568.19	1110.82
568.54	1108.48
568.90	1114.33
569.25	1109.65
569.60	1102.63
569.95	1110.82
570.31	1109.41
570.66	1105.67
571.01	1094.20
571.36	1105.90
571.71	1100.29
572.06	1098.18
572.42	1102.39
572.77	1114.80
573.12	1105.67
573.47	1104.97
573.82	1108.48
574.18	1103.09
574.53	1093.73
574.88	1099.12
575.23	1098.88
575.58	1100.52
575.93	1102.39
576.28	1109.18
576.64	1100.29
576.99	1103.56
577.34	1099.58
577.69	1105.44
578.04	1106.14
578.39	1096.07
578.74	1088.12
579.09	1089.52
579.44	1089.29
579.80	1084.37
580.15	1099.35
580.50	1108.01
580.85	1111.99
581.20	1105.20
581.55	1103.80
581.90	1104.50
582.25	1099.12
582.60	1105.67
582.95	1115.27
583.30	1124.63
583.65	1111.52
584.00	1105.67
584.35	1088.35
584.71	1076.65
585.06	1065.41
585.41	1072.43
585.76	1070.56
586.11	1083.67
586.46	1103.09
586.81	1107.31
587.16	1111.99
587.51	1111.75
587.86	1111.75
588.21	1094.90
588.56	1093.97
588.91	1094.90
589.26	1090.69
589.61	1085.77
589.96	1088.82
590.31	1093.26
590.66	1086.01
591.01	1089.29
591.36	1089.05
591.71	1089.52
592.06	1075.48
592.41	1080.63
592.76	1092.09
593.10	1093.26
593.45	1090.46
593.80	1093.97
594.15	1093.97
594.50	1096.78
594.85	1086.24
595.20	1082.73
595.55	1091.86
595.90	1089.99
596.25	1093.73
596.60	1105.67
596.95	1117.61
597.30	1113.39
597.64	1156.93
597.99	1146.39
598.34	1140.07
598.69	1136.33
599.04	1141.95
599.39	1100.99
599.74	1096.78
600.09	1102.39
600.44	1096.78
600.78	1085.31
601.13	1083.43
601.48	1081.09
601.83	1080.16
602.18	1083.43
602.53	1089.75
602.88	1086.71
603.22	1091.16
603.57	1095.14
603.92	1094.67
604.27	1093.50
604.62	1091.86
604.97	1095.60
605.31	1084.84
605.66	1091.86
606.01	1087.65
606.36	1091.86
606.71	1086.24
607.05	1088.58
607.40	1086.01
607.75	1087.18
608.10	1086.71
608.44	1086.94
608.79	1087.41
609.14	1081.56
609.49	1082.26
609.84	1082.97
610.18	1086.01
610.53	1089.05
610.88	1097.24
611.23	1106.14
611.57	1105.20
611.92	1115.27
612.27	1117.14
612.62	1106.61
612.96	1107.07
613.31	1115.73
613.66	1106.37
614.00	1104.97
614.35	1100.29
614.70	1099.58
615.05	1091.63
615.39	1094.43
615.74	1099.58
616.09	1111.52
616.43	1107.07
616.78	1102.86
617.13	1099.82
617.47	1097.48
617.82	1096.54
618.17	1096.78
618.51	1100.75
618.86	1096.07
619.21	1098.65
619.55	1091.16
619.90	1081.09
620.25	1078.52
620.59	1081.56
620.94	1070.80
621.29	1074.31
621.63	1083.67
621.98	1083.20
622.32	1085.77
622.67	1082.03
623.02	1084.37
623.36	1077.82
623.71	1069.16
624.05	1071.03
624.40	1081.56
624.75	1085.07
625.09	1084.14
625.44	1092.80
625.78	1082.26
626.13	1076.88
626.48	1070.80
626.82	1082.26
627.17	1082.50
627.51	1085.54
627.86	1091.16
628.20	1098.65
628.55	1098.18
628.89	1096.54
629.24	1098.41
629.58	1089.52
629.93	1083.67
630.28	1078.75
630.62	1078.99
630.97	1078.05
631.31	1079.22
631.66	1072.43
632.00	1073.37
632.35	1082.26
632.69	1088.35
633.04	1096.54
633.38	1111.29
633.73	1116.90
634.07	1108.71
634.42	1100.52
634.76	1091.86
635.11	1085.77
635.45	1078.52
635.79	1086.48
636.14	1090.69
636.48	1098.41
636.83	1098.18
637.17	1093.73
637.52	1090.69
637.86	1101.46
638.21	1092.33
638.55	1091.86
638.89	1100.05
639.24	1092.09
639.58	1074.77
639.93	1079.92
640.27	1073.14
640.61	1062.60
640.96	1059.33
641.30	1063.31
641.65	1059.09
641.99	1071.26
642.33	1070.33
642.68	1076.65
643.02	1077.58
643.37	1076.65
643.71	1072.43
644.05	1087.41
644.40	1086.24
644.74	1083.90
645.08	1089.05
645.43	1085.54
645.77	1079.92
646.11	1071.97
646.46	1074.07
646.80	1067.99
647.14	1062.60
647.49	1068.22
647.83	1074.31
648.17	1080.16
648.52	1076.88
648.86	1084.60
649.20	1081.56
649.55	1091.63
649.89	1094.90
650.23	1111.52
650.57	1112.22
650.92	1102.63
651.26	1096.31
651.60	1090.92
651.95	1076.88
652.29	1074.31
652.63	1082.03
652.97	1075.24
653.32	1067.52
653.66	1073.84
654.00	1076.88
654.34	1066.58
654.69	1068.22
655.03	1070.09
655.37	1077.58
655.71	1072.43
656.05	1089.52
656.40	1096.07
656.74	1101.92
657.08	1105.20
657.42	1118.07
657.76	1113.16
658.11	1110.82
658.45	1112.92
658.79	1106.84
659.13	1098.41
659.47	1090.69
659.82	1087.41
660.16	1078.52
660.50	1079.22
660.84	1082.03
661.18	1087.65
661.52	1089.99
661.87	1095.60
662.21	1094.43
662.55	1092.33
662.89	1098.41
663.23	1095.37
663.57	1095.14
663.91	1091.16
664.25	1088.12
664.60	1080.86
664.94	1091.86
665.28	1090.69
665.62	1091.39
665.96	1089.99
666.30	1094.67
666.64	1088.12
666.98	1076.88
667.32	1076.65
667.66	1072.43
668.01	1071.50
668.35	1075.24
668.69	1083.67
669.03	1078.28
669.37	1080.86
669.71	1078.52
670.05	1071.03
670.39	1069.62
670.73	1074.77
671.07	1075.94
671.41	1080.16
671.75	1092.33
672.09	1098.41
672.43	1096.54
672.77	1097.24
673.11	1097.71
673.45	1089.75
673.79	1087.18
674.13	1085.31
674.47	1084.37
674.81	1090.69
675.15	1093.50
675.49	1090.22
675.83	1094.43
676.17	1096.31
676.51	1088.12
676.85	1083.43
677.19	1086.71
677.53	1093.26
677.87	1092.80
678.21	1082.97
678.55	1080.86
678.89	1077.35
679.23	1075.24
679.57	1082.26
679.90	1093.03
680.24	1104.73
680.58	1103.56
680.92	1096.54
681.26	1097.01
681.60	1089.52
681.94	1080.16
682.28	1079.22
682.62	1072.90
682.96	1067.99
683.29	1065.88
683.63	1061.20
683.97	1063.31
684.31	1072.67
684.65	1066.58
684.99	1061.67
685.33	1067.05
685.67	1064.48
686.00	1055.11
686.34	1062.60
686.68	1071.73
687.02	1073.60
687.36	1078.75
687.70	1083.20
688.03	1076.18
688.37	1079.46
688.71	1080.86
689.05	1076.41
689.39	1071.97
689.72	1072.90
690.06	1066.58
690.40	1068.22
690.74	1077.82
691.08	1088.12
691.41	1094.67
691.75	1091.16
692.09	1088.35
692.43	1079.69
692.76	1072.43
693.10	1067.99
693.44	1075.48
693.78	1067.52
694.11	1075.24
694.45	1082.73
694.79	1073.14
695.13	1069.86
695.46	1082.26
695.80	1081.56
696.14	1075.01
696.48	1082.73
696.81	1069.62
697.15	1071.03
697.49	1071.03
697.82	1071.73
698.16	1081.56
698.50	1092.09
698.83	1090.22
699.17	1086.71
699.51	1090.69
699.84	1084.37
700.18	1091.86
700.52	1090.46
700.85	1087.41
701.19	1093.26
701.53	1094.90
701.86	1093.26
702.20	1094.43
702.54	1104.03
702.87	1103.09
703.21	1111.29
703.55	1114.33
703.88	1117.84
704.22	1109.65
704.55	1108.95
704.89	1103.33
705.23	1097.48
705.56	1085.31
705.90	1090.22
706.23	1092.09
706.57	1083.43
706.91	1089.52
707.24	1094.20
707.58	1091.86
707.91	1091.86
708.25	1086.94
708.58	1078.52
708.92	1076.65
709.26	1082.97
709.59	1067.05
709.93	1075.48
710.26	1082.97
710.60	1090.46
710.93	1082.73
711.27	1091.86
711.60	1089.52
711.94	1087.18
712.27	1079.22
712.61	1093.03
712.94	1096.78
713.28	1107.54
713.61	1113.39
713.95	1113.63
714.28	1093.03
714.62	1079.92
714.95	1078.75
715.29	1072.90
715.62	1076.18
715.96	1081.56
716.29	1099.12
716.63	1083.20
716.96	1079.46
717.29	1087.18
717.63	1082.50
717.96	1069.16
718.30	1079.69
718.63	1079.46
718.97	1066.82
719.30	1074.07
719.63	1085.77
719.97	1077.82
720.30	1078.28
720.64	1079.69
720.97	1086.94
721.30	1073.60
721.64	1078.05
721.97	1077.35
722.31	1076.65
722.64	1068.69
722.97	1069.39
723.31	1070.56
723.64	1086.24
723.97	1098.88
724.31	1098.41
724.64	1105.20
724.98	1096.31
725.31	1081.09
725.64	1072.90
725.98	1076.41
726.31	1072.20
726.64	1083.43
726.97	1092.33
727.31	1088.82
727.64	1093.03
727.97	1108.48
728.31	1103.56
728.64	1092.56
728.97	1098.65
729.31	1090.22
729.64	1076.18
729.97	1074.07
730.30	1075.94
730.64	1071.50
730.97	1069.16
731.30	1071.73
731.63	1077.58
731.97	1074.31
732.30	1064.24
732.63	1070.33
732.96	1062.84
733.30	1063.77
733.63	1069.62
733.96	1075.94
734.29	1069.86
734.63	1079.46
734.96	1081.33
735.29	1088.12
735.62	1087.65
735.95	1098.88
736.29	1088.35
736.62	1086.01
736.95	1075.71
737.28	1080.86
737.61	1070.09
737.94	1086.01
738.28	1084.14
738.61	1083.67
738.94	1081.56
739.27	1080.16
739.60	1068.45
739.93	1053.71
740.27	1060.50
740.60	1062.14
740.93	1068.45
741.26	1074.54
741.59	1085.07
741.92	1078.52
742.25	1070.80
742.58	1065.18
742.91	1062.37
743.25	1059.33
743.58	1066.35
743.91	1079.69
744.24	1081.56
744.57	1073.37
744.90	1083.90
745.23	1077.82
745.56	1073.14
745.89	1076.65
746.22	1087.88
746.55	1087.41
746.88	1093.73
747.21	1093.73
747.54	1090.69
747.87	1091.63
748.20	1090.46
748.53	1080.63
748.87	1071.73
749.20	1066.35
749.53	1060.96
749.86	1054.88
750.19	1055.11
750.52	1069.62
750.85	1081.80
751.18	1082.03
751.51	1081.33
751.84	1091.39
752.16	1085.31
752.49	1076.41
752.82	1064.01
753.15	1074.31
753.48	1065.18
753.81	1066.35
754.14	1072.43
754.47	1088.35
754.80	1083.43
755.13	1091.39
755.46	1092.33
755.79	1093.03
756.12	1095.14
756.45	1094.67
756.78	1075.71
757.11	1080.86
757.43	1077.11
757.76	1079.92
758.09	1082.26
758.42	1093.97
758.75	1078.99
759.08	1075.71
759.41	1071.73
759.74	1066.11
760.07	1069.86
760.39	1072.90
760.72	1078.75
761.05	1080.86
761.38	1081.56
761.71	1078.05
762.04	1082.26
762.36	1083.67
762.69	1072.43
763.02	1073.84
763.35	1078.75
763.68	1071.26
764.01	1067.05
764.33	1063.31
764.66	1063.31
764.99	1059.56
765.32	1056.99
765.65	1056.75
765.97	1059.09
766.30	1052.30
766.63	1055.82
766.96	1065.41
767.28	1067.99
767.61	1082.03
767.94	1089.29
768.27	1086.71
768.59	1086.01
768.92	1088.58
769.25	1082.50
769.58	1082.26
769.90	1080.63
770.23	1085.77
770.56	1084.14
770.89	1086.94
771.21	1087.65
771.54	1085.54
771.87	1084.14
772.19	1080.63
772.52	1074.77
772.85	1077.58
773.17	1087.41
773.50	1080.16
773.83	1088.35
774.15	1095.60
774.48	1097.48
774.81	1090.46
775.13	1097.71
775.46	1093.26
775.79	1088.58
776.11	1089.52
776.44	1094.43
776.77	1091.39
777.09	1086.01
777.42	1089.29
777.74	1080.16
778.07	1085.54
778.40	1089.52
778.72	1094.67
779.05	1091.16
779.37	1103.56
779.70	1086.48
780.03	1078.05
780.35	1074.77
780.68	1069.16
781.00	1052.54
781.33	1059.56
781.65	1061.67
781.98	1062.14
782.31	1064.01
782.63	1070.33
782.96	1067.75
783.28	1071.50
783.61	1074.31
783.93	1080.63
784.26	1082.73
784.58	1088.82
784.91	1085.31
785.23	1085.07
785.56	1084.60
785.88	1087.18
786.21	1086.01
786.53	1096.07
786.86	1092.56
787.18	1099.82
787.51	1102.63
787.83	1102.16
788.16	1100.75
788.48	1099.82
788.81	1090.92
789.13	1083.67
789.46	1079.92
789.78	1071.73
790.10	1075.94
790.43	1074.31
790.75	1067.52
791.08	1075.48
791.40	1074.31
791.73	1077.11
792.05	1080.16
792.37	1086.94
792.70	1080.63
793.02	1084.37
793.35	1078.52
793.67	1087.88
793.99	1092.80
794.32	1089.75
794.64	1089.05
794.96	1088.82
795.29	1081.09
795.61	1078.05
795.93	1085.31
796.26	1082.50
796.58	1078.99
796.91	1082.03
797.23	1087.41
797.55	1091.39
797.87	1091.16
798.20	1100.52
798.52	1099.58
798.84	1099.58
799.17	1082.97
799.49	1084.14
799.81	1085.54
800.14	1076.65
800.46	1074.31
800.78	1087.18
801.10	1086.01
801.43	1084.14
801.75	1099.82
802.07	1097.01
802.40	1097.01
802.72	1098.41
803.04	1090.92
803.36	1081.33
803.69	1082.73
804.01	1094.67
804.33	1083.90
804.65	1087.65
804.97	1080.16
805.30	1074.54
805.62	1054.41
805.94	1051.13
806.26	1047.62
806.58	1049.03
806.91	1052.30
807.23	1060.26
807.55	1080.39
807.87	1082.73
808.19	1091.16
808.52	1100.99
808.84	1098.41
809.16	1095.60
809.48	1099.82
809.80	1098.18
810.12	1087.18
810.44	1084.14
810.77	1084.37
811.09	1093.73
811.41	1090.46
811.73	1090.46
812.05	1089.52
812.37	1089.52
812.69	1080.86
813.01	1078.52
813.33	1076.18
813.66	1082.50
813.98	1069.62
814.30	1070.09
814.62	1068.69
814.94	1068.45
815.26	1072.67
815.58	1088.82
815.90	1089.52
816.22	1092.56
816.54	1103.33
816.86	1090.46
817.18	1088.12
817.50	1074.77
817.82	1072.43
818.14	1071.73
818.46	1076.65
818.78	1074.07
819.10	1077.58
819.42	1081.09
819.74	1079.69
820.06	1081.56
820.38	1077.35
820.70	1082.50
821.02	1083.67
821.34	1075.71
821.66	1080.39
821.98	1083.90
822.30	1081.09
822.62	1075.94
822.94	1079.22
823.26	1067.05
823.58	1066.35
823.90	1065.41
824.22	1072.20
824.54	1073.14
824.86	1084.37
825.18	1079.69
825.50	1076.65
825.81	1068.92
826.13	1058.62
826.45	1046.92
826.77	1048.33
827.09	1057.45
827.41	1067.05
827.73	1067.99
828.05	1074.54
828.36	1079.69
828.68	1069.86
829.00	1061.90
829.32	1070.80
829.64	1074.31
829.96	1081.09
830.28	1082.73
830.59	1094.90
830.91	1096.31
831.23	1098.88
831.55	1088.12
831.87	1098.18
832.19	1097.95
832.50	1096.07
832.82	1088.35
833.14	1086.24
833.46	1078.28
833.78	1066.11
834.09	1069.16
834.41	1068.92
834.73	1069.62
835.05	1073.60
835.36	1068.45
835.68	1072.90
836.00	1075.94
836.32	1087.88
836.63	1090.46
836.95	1098.18
837.27	1101.22
837.59	1100.99
837.90	1089.29
838.22	1091.39
838.54	1087.41
838.85	1074.54
839.17	1076.88
839.49	1073.37
839.80	1071.50
840.12	1069.86
840.44	1070.56
840.76	1072.20
841.07	1079.92
841.39	1078.05
841.71	1086.48
842.02	1084.37
842.34	1083.43
842.65	1090.22
842.97	1090.69
843.29	1092.09
843.60	1102.63
843.92	1095.60
844.24	1091.86
844.55	1091.39
844.87	1082.97
845.18	1074.07
845.50	1075.24
845.82	1075.01
846.13	1071.26
846.45	1081.33
846.76	1083.20
847.08	1088.12
847.40	1088.82
847.71	1087.65
848.03	1084.14
848.34	1084.84
848.66	1081.80
848.97	1077.82
849.29	1074.77
849.60	1063.77
849.92	1065.41
850.24	1062.60
850.55	1056.99
850.87	1058.39
851.18	1056.28
851.50	1057.69
851.81	1065.18
852.13	1066.82
852.44	1069.86
852.76	1076.18
853.07	1060.26
853.39	1052.54
853.70	1059.56
854.01	1049.96
854.33	1049.73
854.64	1060.50
854.96	1067.75
855.27	1064.01
855.59	1078.99
855.90	1087.88
856.22	1087.65
856.53	1087.41
856.84	1089.05
857.16	1086.71
857.47	1081.56
857.79	1077.58
858.10	1076.65
858.41	1077.58
858.73	1077.11
859.04	1080.16
859.36	1082.50
859.67	1080.86
859.98	1078.99
860.30	1073.60
860.61	1070.56
860.92	1067.99
861.24	1067.28
861.55	1066.82
861.87	1069.86
862.18	1068.22
862.49	1068.45
862.81	1071.03
863.12	1065.65
863.43	1064.94
863.74	1074.07
864.06	1085.31
864.37	1082.73
864.68	1085.31
865.00	1084.60
865.31	1078.75
865.62	1071.26
865.94	1069.39
866.25	1071.50
866.56	1082.50
866.87	1075.48
867.19	1081.09
867.50	1079.92
867.81	1086.94
868.12	1089.05
868.44	1093.73
868.75	1096.31
869.06	1094.67
869.37	1088.12
869.68	1079.22
870.00	1074.54
870.31	1062.84
870.62	1066.58
870.93	1071.26
871.24	1068.22
871.56	1074.54
871.87	1082.73
872.18	1091.39
872.49	1080.63
872.80	1076.88
873.12	1081.56
873.43	1079.92
873.74	1073.84
874.05	1087.41
874.36	1097.24
874.67	1091.16
874.98	1083.43
875.29	1082.03
875.61	1080.39
875.92	1069.62
876.23	1069.39
876.54	1075.71
876.85	1072.90
877.16	1068.92
877.47	1067.28
877.78	1072.90
878.09	1074.54
878.40	1078.99
878.72	1082.03
879.03	1088.35
879.34	1079.92
879.65	1079.22
879.96	1082.26
880.27	1084.37
880.58	1087.18
880.89	1095.37
881.20	1090.46
881.51	1086.71
881.82	1084.60
882.13	1069.62
882.44	1064.24
882.75	1064.48
883.06	1068.92
883.37	1066.11
883.68	1074.07
883.99	1076.88
884.30	1084.14
884.61	1083.43
884.92	1078.75
885.23	1076.41
885.54	1082.97
885.85	1075.71
886.16	1073.37
886.47	1071.03
886.78	1073.84
887.08	1068.45
887.39	1073.60
887.70	1073.84
888.01	1085.31
888.32	1089.75
888.63	1089.99
888.94	1082.97
889.25	1088.35
889.56	1079.22
889.87	1079.22
890.17	1072.67
890.48	1088.12
890.79	1077.11
891.10	1086.01
891.41	1089.75
891.72	1101.69
892.03	1082.03
892.34	1083.20
892.64	1074.77
892.95	1068.45
893.26	1057.45
893.57	1070.09
893.88	1066.11
894.18	1059.79
894.49	1064.24
894.80	1069.86
895.11	1071.73
895.42	1075.24
895.72	1085.31
896.03	1087.65
896.34	1084.84
896.65	1082.73
896.96	1094.67
897.26	1093.50
897.57	1094.43
897.88	1088.82
898.19	1087.18
898.49	1073.60
898.80	1076.18
899.11	1064.48
899.41	1067.05
899.72	1065.18
900.03	1067.99
900.34	1063.54
900.64	1081.56
900.95	1084.37
901.26	1075.24
901.56	1081.80
901.87	1085.07
902.18	1065.65
902.48	1064.94
902.79	1078.75
903.10	1069.16
903.40	1064.94
903.71	1072.90
904.02	1073.14
904.32	1065.18
904.63	1064.94
904.94	1060.03
905.24	1067.52
905.55	1070.56
905.85	1078.05
906.16	1082.73
906.47	1085.77
906.77	1084.84
907.08	1085.54
907.38	1078.75
907.69	1074.07
908.00	1082.97
908.30	1084.14
908.61	1076.41
908.91	1075.24
909.22	1076.65
909.52	1071.73
909.83	1063.54
910.14	1069.16
910.44	1074.31
910.75	1073.84
911.05	1075.71
911.36	1078.28
911.66	1075.24
911.97	1082.73
912.27	1090.22
912.58	1089.75
912.88	1087.88
913.19	1094.43
913.49	1084.37
913.80	1086.94
914.10	1090.46
914.41	1087.18
914.71	1085.07
915.01	1093.73
915.32	1089.52
915.62	1082.73
915.93	1085.31
916.23	1079.46
916.54	1065.18
916.84	1059.79
917.15	1059.56
917.45	1059.56
917.75	1055.35
918.06	1063.31
918.36	1061.67
918.67	1069.86
918.97	1072.67
919.27	1080.39
919.58	1075.01
919.88	1081.09
920.18	1079.46
920.49	1081.33
920.79	1084.37
921.10	1088.58
921.40	1082.03
921.70	1077.58
922.01	1071.97
922.31	1073.84
922.61	1062.84
922.92	1070.09
923.22	1076.41
923.52	1070.09
923.82	1064.94
924.13	1080.16
924.43	1083.43
924.73	1079.46
925.04	1091.16
925.34	1099.82
925.64	1096.54
925.94	1093.73
926.25	1093.50
926.55	1093.03
926.85	1082.26
927.15	1078.52
927.46	1074.07
927.76	1069.16
928.06	1060.03
928.36	1060.03
928.67	1064.71
928.97	1067.52
929.27	1074.07
929.57	1074.31
929.87	1084.14
930.18	1087.65
930.48	1083.20
930.78	1075.48
931.08	1081.09
931.38	1078.75
931.69	1074.77
931.99	1072.67
932.29	1081.56
932.59	1082.97
932.89	1075.94
933.19	1075.01
933.49	1082.03
933.80	1073.60
934.10	1074.77
934.40	1075.71
934.70	1074.31
935.00	1080.39
935.30	1090.46
935.60	1089.52
935.90	1086.71
936.20	1089.05
936.50	1080.86
936.81	1076.41
937.11	1077.11
937.41	1078.99
937.71	1078.75
938.01	1081.80
938.31	1090.92
938.61	1096.31
938.91	1091.86
939.21	1086.71
939.51	1083.20
939.81	1075.71
940.11	1069.86
940.41	1077.11
940.71	1086.71
941.01	1092.56
941.31	1090.46
941.61	1091.86
941.91	1081.09
942.21	1076.18
942.51	1077.11
942.81	1083.20
943.11	1082.50
943.41	1100.75
943.71	1107.31
944.01	1109.18
944.31	1101.92
944.61	1111.05
944.90	1096.78
945.20	1086.01
945.50	1072.20
945.80	1065.88
946.10	1053.01
946.40	1072.67
946.70	1069.39
947.00	1074.54
947.30	1079.92
947.60	1087.88
947.89	1076.18
948.19	1088.35
948.49	1092.56
948.79	1088.82
949.09	1078.99
949.39	1083.20
949.69	1072.67
949.98	1070.33
950.28	1079.69
950.58	1082.97
950.88	1073.84
951.18	1080.63
951.48	1085.77
951.77	1091.16
952.07	1086.71
952.37	1092.09
952.67	1086.71
952.97	1078.52
953.26	1080.86
953.56	1084.60
953.86	1087.65
954.16	1095.60
954.45	1103.56
954.75	1092.09
955.05	1094.43
955.35	1096.31
955.64	1091.16
955.94	1084.37
956.24	1084.60
956.54	1082.50
956.83	1085.77
957.13	1088.58
957.43	1093.50
957.72	1092.80
958.02	1095.60
958.32	1084.60
958.61	1082.03
958.91	1071.97
959.21	1063.54
959.50	1059.56
959.80	1058.62
960.10	1054.65
960.39	1063.31
960.69	1072.90
960.99	1077.11
961.28	1086.01
961.58	1098.41
961.87	1091.39
962.17	1092.33
962.47	1087.18
962.76	1081.09
963.06	1080.16
963.36	1084.14
963.65	1079.92
963.95	1090.46
964.24	1091.63
964.54	1094.43
964.83	1099.35
965.13	1098.88
965.42	1087.88
965.72	1089.29
966.02	1076.18
966.31	1075.48
966.61	1078.05
966.90	1075.01
967.20	1067.52
967.49	1067.99
967.79	1068.92
968.08	1066.82
968.38	1082.50
968.67	1087.88
968.97	1098.65
969.26	1091.16
969.56	1100.75
969.85	1093.26
970.15	1097.95
970.44	1100.99
970.74	1108.24
971.03	1106.37
971.32	1100.29
971.62	1098.18
971.91	1090.22
972.21	1079.69
972.50	1065.88
972.80	1076.88
973.09	1079.69
973.38	1074.07
973.68	1078.28
973.97	1086.94
974.27	1086.01
974.56	1078.05
974.85	1089.05
975.15	1086.71
975.44	1090.46
975.73	1089.05
976.03	1090.69
976.32	1081.09
976.61	1086.48
976.91	1072.90
977.20	1071.73
977.49	1065.18
977.79	1067.75
978.08	1067.99
978.37	1070.09
978.67	1065.65
978.96	1072.43
979.25	1070.33
979.55	1068.92
979.84	1084.14
980.13	1083.90
980.42	1078.99
980.72	1082.50
981.01	1079.92
981.30	1067.28
981.59	1080.63
981.89	1077.35
982.18	1067.99
982.47	1070.80
982.76	1071.50
983.06	1053.48
983.35	1059.79
983.64	1068.45
983.93	1072.43
984.22	1079.22
984.52	1080.86
984.81	1079.22
985.10	1082.26
985.39	1083.43
985.68	1074.07
985.97	1080.16
986.27	1084.37
986.56	1084.84
986.85	1082.03
987.14	1094.90
987.43	1087.88
987.72	1083.90
988.01	1074.54
988.31	1075.48
988.60	1065.18
988.89	1075.71
989.18	1076.41
989.47	1077.35
989.76	1069.86
990.05	1070.33
990.34	1068.45
990.63	1067.52
990.92	1072.20
991.21	1075.71
991.51	1080.16
991.80	1079.92
992.09	1067.99
992.38	1066.11
992.67	1073.37
992.96	1074.77
993.25	1076.18
993.54	1091.16
993.83	1091.39
994.12	1080.86
994.41	1077.11
994.70	1074.07
994.99	1079.92
995.28	1080.63
995.57	1083.20
995.86	1082.03
996.15	1078.75
996.44	1078.75
996.73	1081.33
997.02	1079.46
997.31	1082.73
997.59	1081.56
997.88	1074.31
998.17	1062.60
998.46	1061.67
998.75	1057.92
999.04	1061.67
999.33	1061.43
999.62	1071.73
999.91	1073.14
1000.20	1077.82
1000.49	1072.90
1000.77	1090.22
1001.06	1080.39
1001.35	1086.48
1001.64	1087.65
1001.93	1094.67
1002.22	1085.07
1002.51	1095.37
1002.79	1085.54
1003.08	1079.22
1003.37	1073.37
1003.66	1068.45
1003.95	1068.45
1004.23	1076.41
1004.52	1082.26
1004.81	1084.60
1005.10	1080.16
1005.39	1076.41
1005.67	1078.05
1005.96	1080.86
1006.25	1081.80
1006.54	1082.03
1006.83	1083.90
1007.11	1076.18
1007.40	1070.33
1007.69	1069.16
1007.97	1072.43
1008.26	1068.45
1008.55	1073.60
1008.84	1073.14
1009.12	1075.94
1009.41	1077.82
1009.70	1075.71
1009.98	1075.01
1010.27	1078.75
1010.56	1078.99
1010.85	1073.84
1011.13	1076.88
1011.42	1071.50
1011.71	1065.88
1011.99	1063.77
1012.28	1071.26
1012.56	1073.14
1012.85	1070.09
1013.14	1069.86
1013.42	1065.18
1013.71	1057.22
1014.00	1053.24
1014.28	1064.01
1014.57	1062.84
1014.85	1072.43
1015.14	1074.31
1015.43	1077.35
1015.71	1077.11
1016.00	1079.46
1016.28	1068.45
1016.57	1069.86
1016.85	1071.26
1017.14	1067.52
1017.43	1067.75
1017.71	1080.39
1018.00	1084.60
1018.28	1080.16
1018.57	1079.92
1018.85	1077.11
1019.14	1064.94
1019.42	1057.92
1019.71	1054.41
1019.99	1052.07
1020.28	1061.20
1020.56	1056.52
1020.85	1051.60
1021.13	1057.92
1021.42	1060.26
1021.70	1054.65
1021.99	1067.05
1022.27	1062.37
1022.55	1089.52
1022.84	1018.13
>>>>>End Processed Spectral Data<<<<<
