SpectraSuite Data File
++++++++++++++++++++++++++++++++++++
Date: Mon Aug 26 10:24:49 PDT 2019
User: corrico
Dark Spectrum Present: No
Reference Spectrum Present: No
Number of Sampled Component Spectra: 1
Spectrometers: USB2+H06089
Integration Time (usec): 10000 (USB2+H06089)
Spectra Averaged: 2 (USB2+H06089)
Boxcar Smoothing: 2 (USB2+H06089)
Correct for Electrical Dark: No (USB2+H06089)
Strobe/Lamp Enabled: No (USB2+H06089)
Correct for Detector Non-linearity: No (USB2+H06089)
Correct for Stray Light: No (USB2+H06089)
Number of Pixels in Processed Spectrum: 2048
>>>>>Begin Processed Spectral Data<<<<<
339.70	998.24
340.07	998.24
340.45	977.17
340.82	962.90
341.19	940.19
341.57	922.87
341.94	898.77
342.31	898.53
342.69	891.28
343.06	890.11
343.43	887.30
343.81	899.47
344.18	903.21
344.55	911.64
344.93	928.49
345.30	928.72
345.67	933.41
346.04	928.26
346.42	934.58
346.79	933.41
347.16	946.04
347.54	950.96
347.91	970.39
348.28	982.09
348.65	994.73
349.03	1004.56
349.40	1017.20
349.77	1025.86
350.14	1036.39
350.52	1042.47
350.89	1054.65
351.26	1064.24
351.63	1072.43
352.01	1072.43
352.38	1074.31
352.75	1080.39
353.12	1087.18
353.50	1091.39
353.87	1096.54
354.24	1101.69
354.61	1103.56
354.98	1096.54
355.36	1093.26
355.73	1092.33
356.10	1092.56
356.47	1089.99
356.84	1087.41
357.22	1079.46
357.59	1083.90
357.96	1077.58
358.33	1072.67
358.70	1078.05
359.08	1096.07
359.45	1092.56
359.82	1096.78
360.19	1096.54
360.56	1097.24
360.94	1084.14
361.31	1078.52
361.68	1089.52
362.05	1081.09
362.42	1080.63
362.79	1084.84
363.16	1087.88
363.54	1094.90
363.91	1109.65
364.28	1114.33
364.65	1104.26
365.02	1106.84
365.39	1094.43
365.76	1099.58
366.14	1089.99
366.51	1104.26
366.88	1104.97
367.25	1110.12
367.62	1101.22
367.99	1100.29
368.36	1088.35
368.73	1083.67
369.10	1082.50
369.48	1086.71
369.85	1095.84
370.22	1100.52
370.59	1097.95
370.96	1088.58
371.33	1078.99
371.70	1085.31
372.07	1086.48
372.44	1086.94
372.81	1090.46
373.18	1085.77
373.55	1076.88
373.93	1077.11
374.30	1076.41
374.67	1073.37
375.04	1088.35
375.41	1092.80
375.78	1088.35
376.15	1086.01
376.52	1097.01
376.89	1087.88
377.26	1085.07
377.63	1093.73
378.00	1103.09
378.37	1094.90
378.74	1104.73
379.11	1109.41
379.48	1098.88
379.85	1102.39
380.22	1097.95
380.59	1093.73
380.96	1073.14
381.33	1083.43
381.70	1070.09
382.07	1071.26
382.44	1074.07
382.81	1087.18
383.18	1090.46
383.55	1094.43
383.92	1097.24
384.29	1104.50
384.66	1110.12
385.03	1115.03
385.40	1117.61
385.77	1122.29
386.14	1116.20
386.51	1117.61
386.88	1107.78
387.25	1118.78
387.62	1115.97
387.99	1119.01
388.36	1118.31
388.73	1119.48
389.10	1111.05
389.46	1113.39
389.83	1102.16
390.20	1100.29
390.57	1105.90
390.94	1104.03
391.31	1108.01
391.68	1113.63
392.05	1105.67
392.42	1095.14
392.79	1102.86
393.16	1098.18
393.53	1089.52
393.89	1097.01
394.26	1114.80
394.63	1115.73
395.00	1114.80
395.37	1124.63
395.74	1125.56
396.11	1110.58
396.48	1115.97
396.84	1120.18
397.21	1124.39
397.58	1129.54
397.95	1134.93
398.32	1128.84
398.69	1132.82
399.06	1135.16
399.42	1131.88
399.79	1125.80
400.16	1129.31
400.53	1124.86
400.90	1131.88
401.27	1142.42
401.64	1162.54
402.00	1155.99
402.37	1159.50
402.74	1163.48
403.11	1162.78
403.48	1161.84
403.84	1181.50
404.21	1205.38
404.58	1211.93
404.95	1232.29
405.32	1240.02
405.68	1241.42
406.05	1240.25
406.42	1249.14
406.79	1251.02
407.16	1261.78
407.52	1277.93
407.89	1300.64
408.26	1322.64
408.63	1346.98
408.99	1376.70
409.36	1389.34
409.73	1405.02
410.10	1434.05
410.47	1461.43
410.83	1492.33
411.20	1540.07
411.57	1583.61
411.94	1618.95
412.30	1663.65
412.67	1702.04
413.04	1753.76
413.40	1798.00
413.77	1853.00
414.14	1907.77
414.51	1974.24
414.87	2041.18
415.24	2124.97
415.61	2200.57
415.97	2272.43
416.34	2372.84
416.71	2457.09
417.08	2554.46
417.44	2635.68
417.81	2755.51
418.18	2861.07
418.54	2985.35
418.91	3121.57
419.28	3297.81
419.64	3443.86
420.01	3605.36
420.38	3788.63
420.74	3954.34
421.11	4150.00
421.48	4344.50
421.84	4553.98
422.21	4762.05
422.58	5005.24
422.94	5241.40
423.31	5506.11
423.68	5781.59
424.04	6083.52
424.41	6361.81
424.77	6667.95
425.14	6987.90
425.51	7332.20
425.87	7683.98
426.24	8067.59
426.61	8476.95
426.97	8973.38
427.34	9423.23
427.70	9933.23
428.07	10428.96
428.44	10938.96
428.80	11424.15
429.17	11984.95
429.53	12524.21
429.90	13194.07
430.27	13736.37
430.63	14248.25
431.00	14909.91
431.36	15649.29
431.73	16187.85
432.09	16908.73
432.46	17660.98
432.83	18249.16
433.19	18746.52
433.56	19467.41
433.92	20112.46
434.29	20778.57
434.65	21515.14
435.02	22187.11
435.38	22867.97
435.75	23450.06
436.11	24126.48
436.48	24603.24
436.84	25148.12
437.21	25568.48
437.57	25993.52
437.94	26351.86
438.30	26730.79
438.67	27011.42
439.03	27123.06
439.40	27281.52
439.76	27198.20
440.13	27138.28
440.49	27069.93
440.86	26878.71
441.22	26649.81
441.59	26335.94
441.95	25973.86
442.32	25461.05
442.68	25087.27
443.05	24486.92
443.41	23963.57
443.78	23367.91
444.14	22871.48
444.51	22260.84
444.87	21891.73
445.24	21406.31
445.60	20989.46
445.96	20387.94
446.33	19940.19
446.69	19292.57
447.06	18766.88
447.42	18145.47
447.79	17697.73
448.15	17221.19
448.51	16798.02
448.88	16376.26
449.24	15948.18
449.61	15591.24
449.97	15156.37
450.33	14789.38
450.70	14364.57
451.06	14045.55
451.43	13580.96
451.79	13261.24
452.15	12917.65
452.52	12638.42
452.88	12310.28
453.24	12037.61
453.61	11740.36
453.97	11429.30
454.34	11109.35
454.70	10844.40
455.06	10601.46
455.43	10284.31
455.79	9919.42
456.15	9628.50
456.52	9300.12
456.88	9020.42
457.24	8736.52
457.61	8543.42
457.97	8308.67
458.33	8058.93
458.70	7767.07
459.06	7506.10
459.42	7282.58
459.79	7001.95
460.15	6785.45
460.51	6581.59
460.88	6373.98
461.24	6153.50
461.60	5985.45
461.96	5823.02
462.33	5649.35
462.69	5514.30
463.05	5369.19
463.42	5233.44
463.78	5065.39
464.14	4934.08
464.50	4822.21
464.87	4693.01
465.23	4580.43
465.59	4488.68
465.95	4397.40
466.32	4284.35
466.68	4200.79
467.04	4094.53
467.40	3992.95
467.77	3900.97
468.13	3816.71
468.49	3742.05
468.85	3683.07
469.22	3628.77
469.58	3559.02
469.94	3487.16
470.30	3415.54
470.66	3353.29
471.03	3295.94
471.39	3254.75
471.75	3218.94
472.11	3147.79
472.47	3096.06
472.84	3035.44
473.20	2962.18
473.56	2895.48
473.92	2846.56
474.28	2783.60
474.65	2745.68
475.01	2707.06
475.37	2656.74
475.73	2615.31
476.09	2592.14
476.45	2534.57
476.81	2506.48
477.18	2461.31
477.54	2430.65
477.90	2398.82
478.26	2361.37
478.62	2314.09
478.98	2304.26
479.34	2283.89
479.71	2250.43
480.07	2239.42
480.43	2229.59
480.79	2190.04
481.15	2152.12
481.51	2112.80
481.87	2078.86
482.23	2036.27
482.59	2014.73
482.96	2008.88
483.32	2002.56
483.68	1981.97
484.04	1971.20
484.40	1952.47
484.76	1927.67
485.12	1908.71
485.48	1887.17
485.84	1870.56
486.20	1864.24
486.56	1837.55
486.92	1814.38
487.28	1799.17
487.64	1771.32
488.00	1740.19
488.37	1721.93
488.73	1704.61
489.09	1695.48
489.45	1694.31
489.81	1687.29
490.17	1676.53
490.53	1666.93
490.89	1645.63
491.25	1615.44
491.61	1590.16
491.97	1577.76
492.33	1556.22
492.69	1549.20
493.05	1530.94
493.41	1529.31
493.77	1516.20
494.13	1506.37
494.49	1491.16
494.85	1493.73
495.21	1479.22
495.57	1465.18
495.93	1455.81
496.29	1429.83
496.64	1410.17
497.00	1397.30
497.36	1396.13
497.72	1385.60
498.08	1394.96
498.44	1385.60
498.80	1374.13
499.16	1359.38
499.52	1358.21
499.88	1342.77
500.24	1348.15
500.60	1342.30
500.96	1332.47
501.32	1318.89
501.68	1310.93
502.03	1308.59
502.39	1306.96
502.75	1295.72
503.11	1284.02
503.47	1281.44
503.83	1259.91
504.19	1247.27
504.55	1251.95
504.91	1246.80
505.26	1242.36
505.62	1246.34
505.98	1247.04
506.34	1239.78
506.70	1251.72
507.06	1235.10
507.42	1221.76
507.78	1217.08
508.13	1219.19
508.49	1206.78
508.85	1219.89
509.21	1221.53
509.57	1216.14
509.93	1215.21
510.28	1203.74
510.64	1193.21
511.00	1188.52
511.36	1187.59
511.72	1175.89
512.07	1176.82
512.43	1175.89
512.79	1182.67
513.15	1179.63
513.51	1176.82
513.86	1178.23
514.22	1171.67
514.58	1172.84
514.94	1166.52
515.30	1165.59
515.65	1171.20
516.01	1178.46
516.37	1167.23
516.73	1172.84
517.08	1171.91
517.44	1164.65
517.80	1160.44
518.16	1161.84
518.51	1153.65
518.87	1146.86
519.23	1146.63
519.59	1150.84
519.94	1147.56
520.30	1153.18
520.66	1164.88
521.01	1166.52
521.37	1154.82
521.73	1146.39
522.09	1143.12
522.44	1130.01
522.80	1124.86
523.16	1134.69
523.51	1135.16
523.87	1133.99
524.23	1143.12
524.58	1148.50
524.94	1139.84
525.30	1138.67
525.65	1133.99
526.01	1125.56
526.37	1112.69
526.72	1113.86
527.08	1114.10
527.44	1117.37
527.79	1123.22
528.15	1131.18
528.51	1129.31
528.86	1126.73
529.22	1127.44
529.58	1117.84
529.93	1106.84
530.29	1104.73
530.65	1113.39
531.00	1109.41
531.36	1115.27
531.71	1115.73
532.07	1113.16
532.43	1100.75
532.78	1103.56
533.14	1099.58
533.49	1102.16
533.85	1110.82
534.21	1118.07
534.56	1118.54
534.92	1122.52
535.27	1122.29
535.63	1115.73
535.98	1119.48
536.34	1110.12
536.69	1110.35
537.05	1110.12
537.41	1112.69
537.76	1111.52
538.12	1122.05
538.47	1118.54
538.83	1121.12
539.18	1123.22
539.54	1126.03
539.89	1114.56
540.25	1115.27
540.60	1110.58
540.96	1102.39
541.31	1094.90
541.67	1102.16
542.02	1097.24
542.38	1093.97
542.73	1098.65
543.09	1101.69
543.44	1104.26
543.80	1110.12
544.15	1120.18
544.51	1117.14
544.86	1109.65
545.22	1113.16
545.57	1107.78
545.93	1099.12
546.28	1097.24
546.64	1099.82
546.99	1089.99
547.35	1088.12
547.70	1094.90
548.05	1099.12
548.41	1099.82
548.76	1099.82
549.12	1100.75
549.47	1089.29
549.83	1083.43
550.18	1094.90
550.53	1102.16
550.89	1098.88
551.24	1102.16
551.60	1107.07
551.95	1100.75
552.30	1100.52
552.66	1109.65
553.01	1115.73
553.37	1118.54
553.72	1115.73
554.07	1111.99
554.43	1107.07
554.78	1110.82
555.13	1106.14
555.49	1105.20
555.84	1088.12
556.19	1090.92
556.55	1081.80
556.90	1086.71
557.26	1080.86
557.61	1092.33
557.96	1091.16
558.32	1084.60
558.67	1083.43
559.02	1085.77
559.37	1090.69
559.73	1089.99
560.08	1096.31
560.43	1096.07
560.79	1090.46
561.14	1090.22
561.49	1100.75
561.85	1107.07
562.20	1105.44
562.55	1110.12
562.90	1103.56
563.26	1089.99
563.61	1081.56
563.96	1085.07
564.32	1088.35
564.67	1087.65
565.02	1091.39
565.37	1094.20
565.73	1088.58
566.08	1093.50
566.43	1104.97
566.78	1099.58
567.14	1105.20
567.49	1109.65
567.84	1111.99
568.19	1101.46
568.54	1107.54
568.90	1104.50
569.25	1099.58
569.60	1089.52
569.95	1089.52
570.31	1095.60
570.66	1100.52
571.01	1100.05
571.36	1101.22
571.71	1108.95
572.06	1103.80
572.42	1095.60
572.77	1096.54
573.12	1098.41
573.47	1096.31
573.82	1085.31
574.18	1091.63
574.53	1094.43
574.88	1094.67
575.23	1095.14
575.58	1093.50
575.93	1083.43
576.28	1078.75
576.64	1076.65
576.99	1079.69
577.34	1095.60
577.69	1095.60
578.04	1098.88
578.39	1097.71
578.74	1086.71
579.09	1078.99
579.44	1089.99
579.80	1097.24
580.15	1089.75
580.50	1098.41
580.85	1110.58
581.20	1110.82
581.55	1093.03
581.90	1105.20
582.25	1106.37
582.60	1098.65
582.95	1098.41
583.30	1115.73
583.65	1115.73
584.00	1113.16
584.35	1110.12
584.71	1107.31
585.06	1108.48
585.41	1106.84
585.76	1115.27
586.11	1112.46
586.46	1106.37
586.81	1091.63
587.16	1092.09
587.51	1076.41
587.86	1078.99
588.21	1078.75
588.56	1080.63
588.91	1078.28
589.26	1089.05
589.61	1078.99
589.96	1089.52
590.31	1094.43
590.66	1098.65
591.01	1093.73
591.36	1102.63
591.71	1102.63
592.06	1102.86
592.41	1109.88
592.76	1103.56
593.10	1111.75
593.45	1106.61
593.80	1100.52
594.15	1090.22
594.50	1095.84
594.85	1079.69
595.20	1079.92
595.55	1084.37
595.90	1083.67
596.25	1078.75
596.60	1075.71
596.95	1071.97
597.30	1075.48
597.64	1127.44
597.99	1137.73
598.34	1146.39
598.69	1148.50
599.04	1142.18
599.39	1089.75
599.74	1090.22
600.09	1095.60
600.44	1108.01
600.78	1117.37
601.13	1123.93
601.48	1117.61
601.83	1118.31
602.18	1106.84
602.53	1098.41
602.88	1085.31
603.22	1089.05
603.57	1082.97
603.92	1081.80
604.27	1092.80
604.62	1093.26
604.97	1089.99
605.31	1094.43
605.66	1099.12
606.01	1092.09
606.36	1099.35
606.71	1100.29
607.05	1098.88
607.40	1094.67
607.75	1096.54
608.10	1094.67
608.44	1088.82
608.79	1093.03
609.14	1101.46
609.49	1099.35
609.84	1104.50
610.18	1120.65
610.53	1113.16
610.88	1114.56
611.23	1105.20
611.57	1100.05
611.92	1089.52
612.27	1091.16
612.62	1082.73
612.96	1088.58
613.31	1090.92
613.66	1090.46
614.00	1082.50
614.35	1079.46
614.70	1087.65
615.05	1091.16
615.39	1092.56
615.74	1101.92
616.09	1101.69
616.43	1082.03
616.78	1072.67
617.13	1074.54
617.47	1070.80
617.82	1060.73
618.17	1073.37
618.51	1079.92
618.86	1075.71
619.21	1077.58
619.55	1093.26
619.90	1086.48
620.25	1090.46
620.59	1090.92
620.94	1095.14
621.29	1101.69
621.63	1103.09
621.98	1102.86
622.32	1103.09
622.67	1099.35
623.02	1083.43
623.36	1097.24
623.71	1089.52
624.05	1095.84
624.40	1096.31
624.75	1097.24
625.09	1086.71
625.44	1088.58
625.78	1078.52
626.13	1079.69
626.48	1083.67
626.82	1081.80
627.17	1082.03
627.51	1090.69
627.86	1090.22
628.20	1093.97
628.55	1097.48
628.89	1109.65
629.24	1098.65
629.58	1105.67
629.93	1100.75
630.28	1086.71
630.62	1075.94
630.97	1079.22
631.31	1069.86
631.66	1071.73
632.00	1083.67
632.35	1075.94
632.69	1080.63
633.04	1085.77
633.38	1088.58
633.73	1083.20
634.07	1099.12
634.42	1092.80
634.76	1080.39
635.11	1088.58
635.45	1097.48
635.79	1088.35
636.14	1085.54
636.48	1091.63
636.83	1078.99
637.17	1079.46
637.52	1076.41
637.86	1088.35
638.21	1092.56
638.55	1090.22
638.89	1090.69
639.24	1093.50
639.58	1082.03
639.93	1085.07
640.27	1092.33
640.61	1090.46
640.96	1087.41
641.30	1110.12
641.65	1103.33
641.99	1093.97
642.33	1094.20
642.68	1091.39
643.02	1075.01
643.37	1083.67
643.71	1090.92
644.05	1091.39
644.40	1102.39
644.74	1101.69
645.08	1095.14
645.43	1096.54
645.77	1101.69
646.11	1095.14
646.46	1099.35
646.80	1104.26
647.14	1099.35
647.49	1099.82
647.83	1099.58
648.17	1099.82
648.52	1092.09
648.86	1102.86
649.20	1096.31
649.55	1098.88
649.89	1085.54
650.23	1088.35
650.57	1085.07
650.92	1079.46
651.26	1078.99
651.60	1087.88
651.95	1079.69
652.29	1075.94
652.63	1085.77
652.97	1088.35
653.32	1088.58
653.66	1092.09
654.00	1096.31
654.34	1090.69
654.69	1091.63
655.03	1093.03
655.37	1100.75
655.71	1096.78
656.05	1104.73
656.40	1094.43
656.74	1090.46
657.08	1083.90
657.42	1077.58
657.76	1073.37
658.11	1079.46
658.45	1074.77
658.79	1084.14
659.13	1085.07
659.47	1087.18
659.82	1089.52
660.16	1101.22
660.50	1089.52
660.84	1090.69
661.18	1089.29
661.52	1093.26
661.87	1091.16
662.21	1096.78
662.55	1102.86
662.89	1097.71
663.23	1081.33
663.57	1081.80
663.91	1082.73
664.25	1075.48
664.60	1080.63
664.94	1093.97
665.28	1096.31
665.62	1100.52
665.96	1103.33
666.30	1108.01
666.64	1099.58
666.98	1093.03
667.32	1092.09
667.66	1098.18
668.01	1086.48
668.35	1095.84
668.69	1089.05
669.03	1077.11
669.37	1078.05
669.71	1080.39
670.05	1082.26
670.39	1094.67
670.73	1101.46
671.07	1093.50
671.41	1095.60
671.75	1087.41
672.09	1085.31
672.43	1078.99
672.77	1079.92
673.11	1073.84
673.45	1075.94
673.79	1076.65
674.13	1082.03
674.47	1076.88
674.81	1085.31
675.15	1086.71
675.49	1079.46
675.83	1088.58
676.17	1091.16
676.51	1089.05
676.85	1089.29
677.19	1096.07
677.53	1079.22
677.87	1087.18
678.21	1086.94
678.55	1081.56
678.89	1077.35
679.23	1096.78
679.57	1087.41
679.90	1086.71
680.24	1084.84
680.58	1087.41
680.92	1074.77
681.26	1077.35
681.60	1081.09
681.94	1086.94
682.28	1080.39
682.62	1090.22
682.96	1091.63
683.29	1082.73
683.63	1085.54
683.97	1095.84
684.31	1090.92
684.65	1095.14
684.99	1105.67
685.33	1101.69
685.67	1094.20
686.00	1098.65
686.34	1092.09
686.68	1088.35
687.02	1092.56
687.36	1093.97
687.70	1080.39
688.03	1077.35
688.37	1070.09
688.71	1066.82
689.05	1064.71
689.39	1070.80
689.72	1075.94
690.06	1079.92
690.40	1079.92
690.74	1085.31
691.08	1086.01
691.41	1086.01
691.75	1087.88
692.09	1093.26
692.43	1095.84
692.76	1096.31
693.10	1103.09
693.44	1104.03
693.78	1101.69
694.11	1093.73
694.45	1092.80
694.79	1088.35
695.13	1086.01
695.46	1084.14
695.80	1084.37
696.14	1081.56
696.48	1077.11
696.81	1076.41
697.15	1073.14
697.49	1080.39
697.82	1078.52
698.16	1086.94
698.50	1088.82
698.83	1084.84
699.17	1084.60
699.51	1093.26
699.84	1086.71
700.18	1096.07
700.52	1099.12
700.85	1104.73
701.19	1096.07
701.53	1094.20
701.86	1083.20
702.20	1087.88
702.54	1072.20
702.87	1079.92
703.21	1082.50
703.55	1083.67
703.88	1086.01
704.22	1089.05
704.55	1083.67
704.89	1083.20
705.23	1086.01
705.56	1064.71
705.90	1069.39
706.23	1065.65
706.57	1060.73
706.91	1061.90
707.24	1072.90
707.58	1076.18
707.91	1083.67
708.25	1081.56
708.58	1074.31
708.92	1076.65
709.26	1075.48
709.59	1070.09
709.93	1084.37
710.26	1085.54
710.60	1085.31
710.93	1085.31
711.27	1091.63
711.60	1085.07
711.94	1088.58
712.27	1094.67
712.61	1087.18
712.94	1084.60
713.28	1084.37
713.61	1081.09
713.95	1076.65
714.28	1080.39
714.62	1080.39
714.95	1077.11
715.29	1073.14
715.62	1073.14
715.96	1073.60
716.29	1080.63
716.63	1082.03
716.96	1086.94
717.29	1083.43
717.63	1083.90
717.96	1085.07
718.30	1083.90
718.63	1075.94
718.97	1081.33
719.30	1081.80
719.63	1071.26
719.97	1081.56
720.30	1094.90
720.64	1083.43
720.97	1086.24
721.30	1090.92
721.64	1085.31
721.97	1082.97
722.31	1098.88
722.64	1091.86
722.97	1092.09
723.31	1086.01
723.64	1086.71
723.97	1086.01
724.31	1083.67
724.64	1084.84
724.98	1086.48
725.31	1078.05
725.64	1074.54
725.98	1082.97
726.31	1073.14
726.64	1082.73
726.97	1086.48
727.31	1081.33
727.64	1074.54
727.97	1076.65
728.31	1068.69
728.64	1066.11
728.97	1069.16
729.31	1068.69
729.64	1070.09
729.97	1062.60
730.30	1060.26
730.64	1068.69
730.97	1069.62
731.30	1084.37
731.63	1099.58
731.97	1103.33
732.30	1099.12
732.63	1101.46
732.96	1098.65
733.30	1087.88
733.63	1105.90
733.96	1100.75
734.29	1100.99
734.63	1089.99
734.96	1093.03
735.29	1078.05
735.62	1085.77
735.95	1082.26
736.29	1093.73
736.62	1086.71
736.95	1083.20
737.28	1065.18
737.61	1072.43
737.94	1063.07
738.28	1070.33
738.61	1071.97
738.94	1082.97
739.27	1082.50
739.60	1088.58
739.93	1087.65
740.27	1084.37
740.60	1084.60
740.93	1076.88
741.26	1075.94
741.59	1068.45
741.92	1077.35
742.25	1076.65
742.58	1081.80
742.91	1071.73
743.25	1078.75
743.58	1064.94
743.91	1067.28
744.24	1065.41
744.57	1074.77
744.90	1078.52
745.23	1080.39
745.56	1076.88
745.89	1081.33
746.22	1076.18
746.55	1071.73
746.88	1079.92
747.21	1090.92
747.54	1090.69
747.87	1089.05
748.20	1088.58
748.53	1084.60
748.87	1074.07
749.20	1075.24
749.53	1071.73
749.86	1085.54
750.19	1089.99
750.52	1087.65
750.85	1086.24
751.18	1093.73
751.51	1083.20
751.84	1077.58
752.16	1074.77
752.49	1064.48
752.82	1058.86
753.15	1056.75
753.48	1062.84
753.81	1068.22
754.14	1076.65
754.47	1086.71
754.80	1097.95
755.13	1093.73
755.46	1101.22
755.79	1102.16
756.12	1100.52
756.45	1092.80
756.78	1094.90
757.11	1085.77
757.43	1084.60
757.76	1079.92
758.09	1072.67
758.42	1081.56
758.75	1082.50
759.08	1083.43
759.41	1076.65
759.74	1083.90
760.07	1078.99
760.39	1086.01
760.72	1082.97
761.05	1087.65
761.38	1088.12
761.71	1084.37
762.04	1082.50
762.36	1087.65
762.69	1089.52
763.02	1082.97
763.35	1081.80
763.68	1078.99
764.01	1080.16
764.33	1084.37
764.66	1082.97
764.99	1075.48
765.32	1071.26
765.65	1070.33
765.97	1069.39
766.30	1075.94
766.63	1079.46
766.96	1086.24
767.28	1083.20
767.61	1073.84
767.94	1070.80
768.27	1071.26
768.59	1066.58
768.92	1071.97
769.25	1075.71
769.58	1081.80
769.90	1082.26
770.23	1083.20
770.56	1077.11
770.89	1078.28
771.21	1069.39
771.54	1071.73
771.87	1071.50
772.19	1077.11
772.52	1076.88
772.85	1080.63
773.17	1076.65
773.50	1071.73
773.83	1072.43
774.15	1073.60
774.48	1080.16
774.81	1092.09
775.13	1105.67
775.46	1099.35
775.79	1095.37
776.11	1088.82
776.44	1083.90
776.77	1074.77
777.09	1075.71
777.42	1081.09
777.74	1084.60
778.07	1076.65
778.40	1074.31
778.72	1073.84
779.05	1069.39
779.37	1060.96
779.70	1073.37
780.03	1078.05
780.35	1080.39
780.68	1081.56
781.00	1088.35
781.33	1085.07
781.65	1086.94
781.98	1086.94
782.31	1087.88
782.63	1078.52
782.96	1078.75
783.28	1074.77
783.61	1075.24
783.93	1074.54
784.26	1086.71
784.58	1083.90
784.91	1089.05
785.23	1078.52
785.56	1079.92
785.88	1078.05
786.21	1077.35
786.53	1074.54
786.86	1087.65
787.18	1083.43
787.51	1071.97
787.83	1072.90
788.16	1078.28
788.48	1076.18
788.81	1079.69
789.13	1085.77
789.46	1083.90
789.78	1077.35
790.10	1071.73
790.43	1072.20
790.75	1073.37
791.08	1077.82
791.40	1079.46
791.73	1090.22
792.05	1084.37
792.37	1098.65
792.70	1093.26
793.02	1094.90
793.35	1076.18
793.67	1075.24
793.99	1056.05
794.32	1064.01
794.64	1074.31
794.96	1092.33
795.29	1105.90
795.61	1113.86
795.93	1109.65
796.26	1096.07
796.58	1088.58
796.91	1082.97
797.23	1080.16
797.55	1081.09
797.87	1089.99
798.20	1089.75
798.52	1090.69
798.84	1093.50
799.17	1102.63
799.49	1094.43
799.81	1104.26
800.14	1095.37
800.46	1097.48
800.78	1083.67
801.10	1086.01
801.43	1072.67
801.75	1082.50
802.07	1082.50
802.40	1080.86
802.72	1086.71
803.04	1093.73
803.36	1099.35
803.69	1099.12
804.01	1104.50
804.33	1090.22
804.65	1086.01
804.97	1077.82
805.30	1074.77
805.62	1077.82
805.94	1081.09
806.26	1071.50
806.58	1068.69
806.91	1067.52
807.23	1059.33
807.55	1062.37
807.87	1066.58
808.19	1073.37
808.52	1072.67
808.84	1079.69
809.16	1078.05
809.48	1093.26
809.80	1095.37
810.12	1094.20
810.44	1097.01
810.77	1103.33
811.09	1096.54
811.41	1097.71
811.73	1100.29
812.05	1096.07
812.37	1089.05
812.69	1081.33
813.01	1080.16
813.33	1086.01
813.66	1081.33
813.98	1075.01
814.30	1082.50
814.62	1085.77
814.94	1080.39
815.26	1080.86
815.58	1085.54
815.90	1080.86
816.22	1078.05
816.54	1077.11
816.86	1088.58
817.18	1095.37
817.50	1092.56
817.82	1097.48
818.14	1099.35
818.46	1089.05
818.78	1091.63
819.10	1097.95
819.42	1087.65
819.74	1079.69
820.06	1079.69
820.38	1072.20
820.70	1076.18
821.02	1074.31
821.34	1078.75
821.66	1085.31
821.98	1089.52
822.30	1089.29
822.62	1079.92
822.94	1089.99
823.26	1092.80
823.58	1096.31
823.90	1088.35
824.22	1089.05
824.54	1085.31
824.86	1077.82
825.18	1071.26
825.50	1077.35
825.81	1086.24
826.13	1083.90
826.45	1080.86
826.77	1078.28
827.09	1080.39
827.41	1076.88
827.73	1082.26
828.05	1090.92
828.36	1090.69
828.68	1085.54
829.00	1088.12
829.32	1083.43
829.64	1084.84
829.96	1087.41
830.28	1090.69
830.59	1093.50
830.91	1093.03
831.23	1080.16
831.55	1082.73
831.87	1078.28
832.19	1082.03
832.50	1077.35
832.82	1081.56
833.14	1077.58
833.46	1078.99
833.78	1081.09
834.09	1086.94
834.41	1084.37
834.73	1080.86
835.05	1079.22
835.36	1076.65
835.68	1072.43
836.00	1073.37
836.32	1078.52
836.63	1080.39
836.95	1070.33
837.27	1069.16
837.59	1069.16
837.90	1064.24
838.22	1057.92
838.54	1067.52
838.85	1070.80
839.17	1067.28
839.49	1075.01
839.80	1081.56
840.12	1085.54
840.44	1084.84
840.76	1096.54
841.07	1084.60
841.39	1078.05
841.71	1075.24
842.02	1079.46
842.34	1081.33
842.65	1089.99
842.97	1104.97
843.29	1103.09
843.60	1098.18
843.92	1091.39
844.24	1082.26
844.55	1076.88
844.87	1076.65
845.18	1082.03
845.50	1089.52
845.82	1099.82
846.13	1097.01
846.45	1094.90
846.76	1085.54
847.08	1078.75
847.40	1079.46
847.71	1080.16
848.03	1076.41
848.34	1076.41
848.66	1076.41
848.97	1074.07
849.29	1081.80
849.60	1089.75
849.92	1096.31
850.24	1095.14
850.55	1094.90
850.87	1078.05
851.18	1075.71
851.50	1077.58
851.81	1081.56
852.13	1080.63
852.44	1093.03
852.76	1087.88
853.07	1086.24
853.39	1077.82
853.70	1073.84
854.01	1076.18
854.33	1072.20
854.64	1065.88
854.96	1081.09
855.27	1093.50
855.59	1084.84
855.90	1092.33
856.22	1105.20
856.53	1096.07
856.84	1090.69
857.16	1092.33
857.47	1092.09
857.79	1081.56
858.10	1076.88
858.41	1073.14
858.73	1081.56
859.04	1082.73
859.36	1085.07
859.67	1085.31
859.98	1084.37
860.30	1070.80
860.61	1069.62
860.92	1071.26
861.24	1084.14
861.55	1088.58
861.87	1099.12
862.18	1097.48
862.49	1088.82
862.81	1082.03
863.12	1078.28
863.43	1064.24
863.74	1067.28
864.06	1086.71
864.37	1080.86
864.68	1083.90
865.00	1101.22
865.31	1101.69
865.62	1092.80
865.94	1095.60
866.25	1101.46
866.56	1089.05
866.87	1072.67
867.19	1073.37
867.50	1071.03
867.81	1062.84
868.12	1057.45
868.44	1079.22
868.75	1082.26
869.06	1092.09
869.37	1096.54
869.68	1109.65
870.00	1091.63
870.31	1079.69
870.62	1056.75
870.93	1055.35
871.24	1054.88
871.56	1060.73
871.87	1057.45
872.18	1083.20
872.49	1085.07
872.80	1078.75
873.12	1076.88
873.43	1080.63
873.74	1075.48
874.05	1073.14
874.36	1075.24
874.67	1083.20
874.98	1079.22
875.29	1077.58
875.61	1080.39
875.92	1084.14
876.23	1087.18
876.54	1096.54
876.85	1092.09
877.16	1092.56
877.47	1088.35
877.78	1089.29
878.09	1092.33
878.40	1094.67
878.72	1080.86
879.03	1083.20
879.34	1079.46
879.65	1080.86
879.96	1073.60
880.27	1073.14
880.58	1074.54
880.89	1067.28
881.20	1057.69
881.51	1059.56
881.82	1076.65
882.13	1068.92
882.44	1080.86
882.75	1091.63
883.06	1094.67
883.37	1090.92
883.68	1093.97
883.99	1092.09
884.30	1087.65
884.61	1082.73
884.92	1077.82
885.23	1087.41
885.54	1086.48
885.85	1088.12
886.16	1085.54
886.47	1093.50
886.78	1089.05
887.08	1085.31
887.39	1079.22
887.70	1082.97
888.01	1086.24
888.32	1083.90
888.63	1090.46
888.94	1091.16
889.25	1100.75
889.56	1094.20
889.87	1088.12
890.17	1075.48
890.48	1085.07
890.79	1082.97
891.10	1082.50
891.41	1092.09
891.72	1096.54
892.03	1084.60
892.34	1086.71
892.64	1082.73
892.95	1077.82
893.26	1078.99
893.57	1084.37
893.88	1081.33
894.18	1091.86
894.49	1093.03
894.80	1095.60
895.11	1090.92
895.42	1088.82
895.72	1080.86
896.03	1078.52
896.34	1075.24
896.65	1079.22
896.96	1079.92
897.26	1082.73
897.57	1084.60
897.88	1091.39
898.19	1083.20
898.49	1086.71
898.80	1076.65
899.11	1083.90
899.41	1082.73
899.72	1091.39
900.03	1092.56
900.34	1103.56
900.64	1091.39
900.95	1084.37
901.26	1091.86
901.56	1091.86
901.87	1079.92
902.18	1077.82
902.48	1078.99
902.79	1068.22
903.10	1065.18
903.40	1079.92
903.71	1082.26
904.02	1088.58
904.32	1094.43
904.63	1102.16
904.94	1093.03
905.24	1099.12
905.55	1091.86
905.85	1088.82
906.16	1082.50
906.47	1096.31
906.77	1095.84
907.08	1095.84
907.38	1093.50
907.69	1087.18
908.00	1075.94
908.30	1069.39
908.61	1064.71
908.91	1057.45
909.22	1058.62
909.52	1053.01
909.83	1066.11
910.14	1068.69
910.44	1072.67
910.75	1076.18
911.05	1078.52
911.36	1059.56
911.66	1056.75
911.97	1056.05
912.27	1058.16
912.58	1060.73
912.88	1067.75
913.19	1070.33
913.49	1076.88
913.80	1074.77
914.10	1068.22
914.41	1061.90
914.71	1069.86
915.01	1068.69
915.32	1067.05
915.62	1070.33
915.93	1085.31
916.23	1090.92
916.54	1094.67
916.84	1092.09
917.15	1096.31
917.45	1090.69
917.75	1087.41
918.06	1091.63
918.36	1102.63
918.67	1099.12
918.97	1103.56
919.27	1099.58
919.58	1096.07
919.88	1092.80
920.18	1089.52
920.49	1086.94
920.79	1087.41
921.10	1079.92
921.40	1072.43
921.70	1085.54
922.01	1086.24
922.31	1089.05
922.61	1098.41
922.92	1103.33
923.22	1100.05
923.52	1093.26
923.82	1088.35
924.13	1084.84
924.43	1088.35
924.73	1084.14
925.04	1090.22
925.34	1088.12
925.64	1076.18
925.94	1069.39
926.25	1075.71
926.55	1083.20
926.85	1084.60
927.15	1092.33
927.46	1090.92
927.76	1085.77
928.06	1078.05
928.36	1073.60
928.67	1060.50
928.97	1054.65
929.27	1057.69
929.57	1064.71
929.87	1079.69
930.18	1095.37
930.48	1097.48
930.78	1097.95
931.08	1084.84
931.38	1068.92
931.69	1067.28
931.99	1069.16
932.29	1061.90
932.59	1068.92
932.89	1070.80
933.19	1072.90
933.49	1079.46
933.80	1080.39
934.10	1079.92
934.40	1083.90
934.70	1078.28
935.00	1077.82
935.30	1078.05
935.60	1072.20
935.90	1077.58
936.20	1082.26
936.50	1082.03
936.81	1075.94
937.11	1080.16
937.41	1072.20
937.71	1071.97
938.01	1076.88
938.31	1087.41
938.61	1094.43
938.91	1107.31
939.21	1108.95
939.51	1107.31
939.81	1108.48
940.11	1101.46
940.41	1081.09
940.71	1082.97
941.01	1074.07
941.31	1072.20
941.61	1082.26
941.91	1092.80
942.21	1091.63
942.51	1092.56
942.81	1090.92
943.11	1087.41
943.41	1089.52
943.71	1082.73
944.01	1077.82
944.31	1080.86
944.61	1076.41
944.90	1074.07
945.20	1080.39
945.50	1086.94
945.80	1093.50
946.10	1083.90
946.40	1077.58
946.70	1080.39
947.00	1078.05
947.30	1074.31
947.60	1079.22
947.89	1086.24
948.19	1080.63
948.49	1076.41
948.79	1069.39
949.09	1074.31
949.39	1066.35
949.69	1053.94
949.98	1065.41
950.28	1073.84
950.58	1068.69
950.88	1080.16
951.18	1097.48
951.48	1097.95
951.77	1090.46
952.07	1094.90
952.37	1091.16
952.67	1089.52
952.97	1087.88
953.26	1084.60
953.56	1077.11
953.86	1084.60
954.16	1077.82
954.45	1072.67
954.75	1069.62
955.05	1073.14
955.35	1063.77
955.64	1067.28
955.94	1067.28
956.24	1077.11
956.54	1078.52
956.83	1072.67
957.13	1070.80
957.43	1069.86
957.72	1072.90
958.02	1073.14
958.32	1082.50
958.61	1083.90
958.91	1086.94
959.21	1082.50
959.50	1084.84
959.80	1082.97
960.10	1075.01
960.39	1068.22
960.69	1061.43
960.99	1069.16
961.28	1062.60
961.58	1069.62
961.87	1078.28
962.17	1087.18
962.47	1072.43
962.76	1067.28
963.06	1071.97
963.36	1067.99
963.65	1065.65
963.95	1068.69
964.24	1080.63
964.54	1074.07
964.83	1072.67
965.13	1070.33
965.42	1072.90
965.72	1061.90
966.02	1059.56
966.31	1060.26
966.61	1059.09
966.90	1065.65
967.20	1076.41
967.49	1074.54
967.79	1071.97
968.08	1061.43
968.38	1053.71
968.67	1053.24
968.97	1057.22
969.26	1062.84
969.56	1066.82
969.85	1066.35
970.15	1072.43
970.44	1071.03
970.74	1072.43
971.03	1085.07
971.32	1095.60
971.62	1095.14
971.91	1086.71
972.21	1086.94
972.50	1083.67
972.80	1081.09
973.09	1078.28
973.38	1095.60
973.68	1084.60
973.97	1079.46
974.27	1069.16
974.56	1072.43
974.85	1073.84
975.15	1091.63
975.44	1099.35
975.73	1101.22
976.03	1091.63
976.32	1090.69
976.61	1080.16
976.91	1068.69
977.20	1071.26
977.49	1073.60
977.79	1065.65
978.08	1056.52
978.37	1063.77
978.67	1065.41
978.96	1068.22
979.25	1071.26
979.55	1098.41
979.84	1096.54
980.13	1091.63
980.42	1092.09
980.72	1087.18
981.01	1070.56
981.30	1070.09
981.59	1074.31
981.89	1068.45
982.18	1072.20
982.47	1074.07
982.76	1074.77
983.06	1077.11
983.35	1080.86
983.64	1088.58
983.93	1083.20
984.22	1086.48
984.52	1081.80
984.81	1085.07
985.10	1078.28
985.39	1077.11
985.68	1075.71
985.97	1082.26
986.27	1078.05
986.56	1080.39
986.85	1090.22
987.14	1088.58
987.43	1085.07
987.72	1090.92
988.01	1089.75
988.31	1084.60
988.60	1093.50
988.89	1083.20
989.18	1089.75
989.47	1093.73
989.76	1100.52
990.05	1091.39
990.34	1098.88
990.63	1093.73
990.92	1091.86
991.21	1088.58
991.51	1086.71
991.80	1082.26
992.09	1074.31
992.38	1068.45
992.67	1063.54
992.96	1063.54
993.25	1076.88
993.54	1077.58
993.83	1078.75
994.12	1067.75
994.41	1084.14
994.70	1088.82
994.99	1085.31
995.28	1080.16
995.57	1089.75
995.86	1076.18
996.15	1060.73
996.44	1070.33
996.73	1080.63
997.02	1081.56
997.31	1080.39
997.59	1088.12
997.88	1084.60
998.17	1079.46
998.46	1082.03
998.75	1090.92
999.04	1084.60
999.33	1075.94
999.62	1074.07
999.91	1076.18
1000.20	1079.69
1000.49	1078.75
1000.77	1082.73
1001.06	1085.77
1001.35	1084.84
1001.64	1074.54
1001.93	1079.22
1002.22	1079.92
1002.51	1074.54
1002.79	1076.88
1003.08	1077.11
1003.37	1086.94
1003.66	1091.63
1003.95	1097.01
1004.23	1092.33
1004.52	1091.16
1004.81	1078.52
1005.10	1077.11
1005.39	1078.05
1005.67	1089.75
1005.96	1093.26
1006.25	1099.58
1006.54	1109.18
1006.83	1113.39
1007.11	1101.46
1007.40	1093.50
1007.69	1086.48
1007.97	1067.28
1008.26	1064.01
1008.55	1066.58
1008.84	1068.22
1009.12	1068.69
1009.41	1081.56
1009.70	1084.84
1009.98	1089.29
1010.27	1087.65
1010.56	1096.31
1010.85	1088.35
1011.13	1078.99
1011.42	1071.03
1011.71	1076.88
1011.99	1071.26
1012.28	1072.90
1012.56	1073.37
1012.85	1074.77
1013.14	1083.43
1013.42	1082.73
1013.71	1087.88
1014.00	1100.05
1014.28	1097.24
1014.57	1092.80
1014.85	1083.67
1015.14	1083.20
1015.43	1075.94
1015.71	1079.92
1016.00	1078.75
1016.28	1082.03
1016.57	1070.09
1016.85	1066.35
1017.14	1069.16
1017.43	1070.09
1017.71	1076.65
1018.00	1082.03
1018.28	1082.03
1018.57	1072.90
1018.85	1076.18
1019.14	1076.41
1019.42	1079.22
1019.71	1071.26
1019.99	1080.39
1020.28	1071.97
1020.56	1060.73
1020.85	1063.54
1021.13	1074.77
1021.42	1068.22
1021.70	1061.90
1021.99	1064.24
1022.27	1063.77
1022.55	1048.56
1022.84	1088.35
>>>>>End Processed Spectral Data<<<<<
