SpectraSuite Data File
++++++++++++++++++++++++++++++++++++
Date: Mon Aug 26 10:24:46 PDT 2019
User: corrico
Dark Spectrum Present: No
Reference Spectrum Present: No
Number of Sampled Component Spectra: 1
Spectrometers: USB2+H06089
Integration Time (usec): 10000 (USB2+H06089)
Spectra Averaged: 2 (USB2+H06089)
Boxcar Smoothing: 2 (USB2+H06089)
Correct for Electrical Dark: No (USB2+H06089)
Strobe/Lamp Enabled: No (USB2+H06089)
Correct for Detector Non-linearity: No (USB2+H06089)
Correct for Stray Light: No (USB2+H06089)
Number of Pixels in Processed Spectrum: 2048
>>>>>Begin Processed Spectral Data<<<<<
339.70	1073.14
340.07	1073.14
340.45	1014.39
340.82	986.54
341.19	944.64
341.57	906.96
341.94	899.00
342.31	890.34
342.69	888.23
343.06	893.62
343.43	886.83
343.81	891.51
344.18	897.36
344.55	905.09
344.93	911.87
345.30	925.92
345.67	937.38
346.04	939.02
346.42	941.83
346.79	954.24
347.16	960.79
347.54	968.98
347.91	975.30
348.28	983.73
348.65	995.90
349.03	1019.77
349.40	1023.98
349.77	1050.43
350.14	1062.60
350.52	1067.75
350.89	1071.03
351.26	1075.71
351.63	1075.01
352.01	1073.14
352.38	1072.90
352.75	1071.26
353.12	1083.20
353.50	1089.99
353.87	1093.97
354.24	1099.12
354.61	1100.75
354.98	1100.75
355.36	1096.31
355.73	1100.99
356.10	1103.09
356.47	1119.24
356.84	1112.92
357.22	1111.99
357.59	1118.31
357.96	1117.84
358.33	1093.73
358.70	1099.12
359.08	1099.58
359.45	1094.43
359.82	1097.95
360.19	1108.01
360.56	1109.65
360.94	1115.03
361.31	1112.22
361.68	1106.37
362.05	1107.31
362.42	1103.09
362.79	1095.84
363.16	1092.33
363.54	1087.18
363.91	1086.94
364.28	1082.03
364.65	1084.84
365.02	1092.56
365.39	1092.33
365.76	1092.09
366.14	1087.88
366.51	1085.31
366.88	1089.52
367.25	1097.95
367.62	1100.99
367.99	1104.97
368.36	1109.88
368.73	1099.12
369.10	1098.88
369.48	1102.39
369.85	1104.73
370.22	1101.46
370.59	1102.39
370.96	1105.20
371.33	1095.37
371.70	1087.41
372.07	1097.95
372.44	1103.56
372.81	1108.71
373.18	1104.26
373.55	1115.03
373.93	1112.22
374.30	1109.41
374.67	1098.65
375.04	1105.90
375.41	1098.65
375.78	1085.54
376.15	1074.77
376.52	1072.20
376.89	1070.80
377.26	1071.97
377.63	1087.88
378.00	1099.35
378.37	1098.88
378.74	1099.58
379.11	1103.09
379.48	1100.99
379.85	1100.52
380.22	1109.88
380.59	1109.65
380.96	1105.44
381.33	1094.67
381.70	1093.73
382.07	1092.33
382.44	1088.12
382.81	1096.78
383.18	1107.31
383.55	1104.03
383.92	1106.61
384.29	1120.88
384.66	1121.12
385.03	1115.27
385.40	1116.67
385.77	1118.78
386.14	1110.82
386.51	1115.27
386.88	1122.52
387.25	1125.80
387.62	1128.84
387.99	1130.71
388.36	1126.27
388.73	1127.90
389.10	1130.48
389.46	1122.29
389.83	1121.82
390.20	1130.48
390.57	1132.59
390.94	1130.01
391.31	1129.78
391.68	1141.95
392.05	1138.20
392.42	1137.03
392.79	1144.76
393.16	1147.56
393.53	1141.25
393.89	1139.37
394.26	1135.39
394.63	1128.14
395.00	1123.93
395.37	1115.73
395.74	1119.01
396.11	1125.56
396.48	1136.56
396.84	1138.90
397.21	1151.08
397.58	1150.61
397.95	1144.76
398.32	1141.95
398.69	1151.78
399.06	1148.73
399.42	1157.63
399.79	1168.86
400.16	1180.57
400.53	1183.37
400.90	1194.14
401.27	1203.27
401.64	1215.67
402.00	1213.80
402.37	1224.10
402.74	1238.61
403.11	1243.99
403.48	1247.74
403.84	1257.80
404.21	1264.83
404.58	1272.78
404.95	1288.93
405.32	1304.85
405.68	1335.04
406.05	1358.68
406.42	1386.30
406.79	1413.22
407.16	1445.05
407.52	1467.98
407.89	1502.86
408.26	1530.94
408.63	1572.84
408.99	1606.31
409.36	1650.78
409.73	1702.74
410.10	1760.32
410.47	1791.21
410.83	1857.22
411.20	1906.83
411.57	1955.99
411.94	2021.05
412.30	2099.93
412.67	2186.76
413.04	2280.85
413.40	2379.62
413.77	2469.97
414.14	2586.53
414.51	2692.79
414.87	2820.35
415.24	2968.27
415.61	3133.28
415.97	3285.18
416.34	3463.29
416.71	3661.07
417.08	3855.56
417.44	4026.66
417.81	4249.94
418.18	4458.95
418.54	4692.31
418.91	4956.32
419.28	5254.97
419.64	5554.56
420.01	5879.66
420.38	6219.27
420.74	6533.61
421.11	6936.18
421.48	7341.09
421.84	7745.07
422.21	8153.49
422.58	8648.75
422.94	9125.05
423.31	9643.48
423.68	10192.56
424.04	10790.34
424.41	11421.58
424.77	12042.99
425.14	12687.58
425.51	13384.12
425.87	14144.79
426.24	14873.17
426.61	15735.42
426.97	16727.34
427.34	17606.45
427.70	18562.55
428.07	19499.47
428.44	20414.39
428.80	21355.28
429.17	22490.68
429.53	23605.71
429.90	24915.47
430.27	26106.80
430.63	27269.82
431.00	28612.11
431.36	29966.35
431.73	31202.85
432.09	32587.75
432.46	33983.41
432.83	35184.81
433.19	36367.24
433.56	37814.87
433.92	39150.61
434.29	40469.97
434.65	41817.42
435.02	43042.45
435.38	44081.65
435.75	45028.86
436.11	46202.88
436.48	47132.07
436.84	48052.84
437.21	48967.28
437.57	49839.60
437.94	50530.76
438.30	51246.97
438.67	51819.69
439.03	52112.03
439.40	52422.38
439.76	52248.25
440.13	52009.28
440.49	51850.12
440.86	51460.66
441.22	51002.15
441.59	50530.06
441.95	49984.95
442.32	49083.84
442.68	48352.19
443.05	47413.40
443.41	46520.72
443.78	45466.08
444.14	44538.52
444.51	43290.08
444.87	42366.04
445.24	41164.17
445.60	40090.57
445.96	38929.90
446.33	38005.85
446.69	36842.14
447.06	35952.97
447.42	34887.79
447.79	33821.21
448.15	32897.63
448.51	31955.10
448.88	31101.27
449.24	30225.21
449.61	29532.41
449.97	28756.29
450.33	27953.25
450.70	27055.42
451.06	26456.25
451.43	25745.19
451.79	25141.80
452.15	24649.12
452.52	24140.29
452.88	23502.96
453.24	22949.42
453.61	22397.99
453.97	21808.18
454.34	21098.76
454.70	20526.73
455.06	19940.43
455.43	19209.24
455.79	18362.67
456.15	17802.11
456.52	17101.83
456.88	16527.69
457.24	15977.20
457.61	15614.18
457.97	15118.92
458.33	14650.12
458.70	14108.98
459.06	13561.77
459.42	13076.34
459.79	12592.78
460.15	12222.51
460.51	11807.07
460.88	11437.50
461.24	11034.22
461.60	10681.27
461.96	10314.97
462.33	9969.04
462.69	9633.18
463.05	9314.63
463.42	9049.21
463.78	8759.92
464.14	8517.91
464.50	8300.71
464.87	8069.93
465.23	7804.52
465.59	7594.57
465.95	7394.69
466.32	7207.68
466.68	7032.84
467.04	6847.47
467.40	6665.14
467.77	6488.67
468.13	6318.04
468.49	6154.67
468.85	6039.05
469.22	5912.19
469.58	5762.87
469.94	5645.84
470.30	5513.13
470.66	5364.04
471.03	5242.57
471.39	5150.58
471.75	5023.96
472.11	4902.49
472.47	4828.53
472.84	4737.48
473.20	4629.81
473.56	4546.49
473.92	4462.00
474.28	4361.35
474.65	4271.24
475.01	4187.69
475.37	4098.28
475.73	4014.95
476.09	3944.50
476.45	3850.18
476.81	3761.24
477.18	3678.15
477.54	3596.70
477.90	3518.53
478.26	3455.33
478.62	3397.99
478.98	3346.03
479.34	3299.45
479.71	3246.56
480.07	3170.72
480.43	3143.81
480.79	3086.23
481.15	3043.16
481.51	2988.16
481.87	2958.20
482.23	2886.82
482.59	2825.73
482.96	2782.43
483.32	2744.51
483.68	2719.23
484.04	2689.51
484.40	2675.70
484.76	2643.40
485.12	2609.00
485.48	2558.21
485.84	2515.61
486.20	2465.05
486.56	2423.86
486.92	2380.32
487.28	2362.30
487.64	2331.64
488.00	2300.51
488.37	2264.23
488.73	2234.51
489.09	2197.06
489.45	2170.14
489.81	2157.97
490.17	2129.89
490.53	2097.82
490.89	2061.78
491.25	2027.14
491.61	1992.50
491.97	1967.69
492.33	1947.09
492.69	1945.45
493.05	1938.67
493.41	1909.88
493.77	1896.77
494.13	1881.56
494.49	1847.62
494.85	1827.49
495.21	1790.98
495.57	1761.96
495.93	1742.53
496.29	1717.49
496.64	1693.38
497.00	1695.02
497.36	1669.27
497.72	1649.38
498.08	1635.57
498.44	1620.12
498.80	1611.22
499.16	1607.48
499.52	1590.63
499.88	1577.99
500.24	1557.86
500.60	1530.48
500.96	1509.41
501.32	1496.54
501.68	1480.15
502.03	1472.90
502.39	1467.52
502.75	1457.45
503.11	1455.11
503.47	1442.94
503.83	1434.98
504.19	1423.98
504.55	1419.30
504.91	1404.32
505.26	1400.58
505.62	1391.68
505.98	1383.26
506.34	1372.02
506.70	1362.43
507.06	1349.55
507.42	1336.91
507.78	1326.62
508.13	1325.21
508.49	1320.30
508.85	1323.81
509.21	1314.68
509.57	1317.49
509.93	1312.34
510.28	1306.02
510.64	1284.49
511.00	1276.76
511.36	1268.10
511.72	1256.40
512.07	1254.76
512.43	1255.00
512.79	1262.02
513.15	1264.83
513.51	1270.91
513.86	1262.25
514.22	1267.87
514.58	1263.42
514.94	1255.23
515.30	1244.23
515.65	1243.06
516.01	1238.85
516.37	1230.65
516.73	1230.89
517.08	1230.65
517.44	1231.59
517.80	1229.48
518.16	1236.51
518.51	1239.31
518.87	1246.34
519.23	1231.59
519.59	1238.61
519.94	1228.78
520.30	1220.82
520.66	1205.38
521.01	1202.57
521.37	1186.89
521.73	1182.44
522.09	1183.61
522.44	1178.69
522.80	1189.23
523.16	1180.33
523.51	1173.54
523.87	1164.65
524.23	1157.39
524.58	1148.27
524.94	1154.12
525.30	1168.40
525.65	1161.14
526.01	1172.61
526.37	1186.65
526.72	1191.57
527.08	1179.63
527.44	1182.91
527.79	1172.14
528.15	1159.74
528.51	1153.88
528.86	1151.54
529.22	1150.14
529.58	1145.22
529.93	1142.42
530.29	1132.82
530.65	1136.56
531.00	1126.50
531.36	1136.10
531.71	1125.56
532.07	1123.46
532.43	1119.24
532.78	1117.61
533.14	1115.03
533.49	1125.10
533.85	1132.12
534.21	1132.59
534.56	1134.69
534.92	1136.33
535.27	1133.52
535.63	1136.10
535.98	1135.16
536.34	1129.07
536.69	1131.18
537.05	1134.22
537.41	1127.67
537.76	1123.22
538.12	1126.27
538.47	1121.58
538.83	1114.10
539.18	1119.24
539.54	1125.80
539.89	1130.71
540.25	1131.88
540.60	1146.63
540.96	1143.59
541.31	1137.73
541.67	1143.82
542.02	1142.18
542.38	1141.25
542.73	1142.65
543.09	1154.12
543.44	1152.01
543.80	1143.12
544.15	1141.71
544.51	1145.46
544.86	1127.20
545.22	1124.86
545.57	1136.80
545.93	1128.37
546.28	1130.48
546.64	1136.56
546.99	1131.65
547.35	1123.69
547.70	1126.27
548.05	1118.07
548.41	1113.63
548.76	1122.75
549.12	1126.50
549.47	1132.12
549.83	1130.95
550.18	1134.22
550.53	1133.05
550.89	1132.59
551.24	1122.52
551.60	1131.41
551.95	1124.39
552.30	1107.54
552.66	1104.26
553.01	1114.33
553.37	1101.69
553.72	1106.84
554.07	1110.35
554.43	1118.07
554.78	1121.58
555.13	1125.10
555.49	1125.10
555.84	1139.37
556.19	1136.10
556.55	1123.93
556.90	1127.44
557.26	1133.05
557.61	1128.84
557.96	1121.82
558.32	1109.65
558.67	1102.16
559.02	1101.22
559.37	1094.67
559.73	1091.86
560.08	1107.54
560.43	1105.67
560.79	1104.26
561.14	1109.65
561.49	1119.01
561.85	1119.48
562.20	1126.03
562.55	1125.33
562.90	1126.27
563.26	1123.93
563.61	1104.50
563.96	1091.63
564.32	1093.26
564.67	1090.92
565.02	1092.56
565.37	1105.90
565.73	1108.95
566.08	1101.69
566.43	1098.88
566.78	1093.73
567.14	1093.03
567.49	1111.52
567.84	1124.39
568.19	1128.14
568.54	1133.76
568.90	1133.05
569.25	1120.41
569.60	1113.16
569.95	1114.80
570.31	1105.90
570.66	1107.31
571.01	1111.52
571.36	1106.37
571.71	1104.50
572.06	1115.97
572.42	1115.97
572.77	1107.54
573.12	1120.41
573.47	1121.82
573.82	1122.05
574.18	1121.35
574.53	1126.97
574.88	1120.88
575.23	1121.82
575.58	1107.31
575.93	1105.67
576.28	1110.82
576.64	1104.26
576.99	1097.48
577.34	1101.46
577.69	1103.56
578.04	1098.41
578.39	1096.54
578.74	1090.92
579.09	1093.50
579.44	1091.86
579.80	1092.33
580.15	1101.46
580.50	1108.95
580.85	1113.63
581.20	1114.56
581.55	1119.48
581.90	1111.75
582.25	1110.12
582.60	1106.37
582.95	1101.69
583.30	1104.97
583.65	1122.52
584.00	1129.31
584.35	1129.07
584.71	1139.37
585.06	1127.20
585.41	1107.07
585.76	1103.09
586.11	1106.61
586.46	1100.99
586.81	1105.44
587.16	1108.95
587.51	1099.58
587.86	1087.18
588.21	1091.86
588.56	1096.31
588.91	1097.48
589.26	1109.65
589.61	1118.07
589.96	1116.67
590.31	1117.84
590.66	1112.46
591.01	1104.03
591.36	1115.27
591.71	1110.58
592.06	1099.58
592.41	1105.67
592.76	1107.78
593.10	1097.71
593.45	1100.05
593.80	1109.18
594.15	1115.27
594.50	1122.29
594.85	1123.93
595.20	1130.48
595.55	1130.24
595.90	1128.37
596.25	1128.61
596.60	1123.93
596.95	1109.88
597.30	1109.65
597.64	1141.25
597.99	1137.03
598.34	1142.18
598.69	1151.31
599.04	1138.90
599.39	1098.41
599.74	1091.86
600.09	1090.46
600.44	1093.73
600.78	1103.56
601.13	1106.61
601.48	1106.14
601.83	1110.58
602.18	1105.67
602.53	1101.69
602.88	1098.88
603.22	1111.52
603.57	1101.46
603.92	1097.24
604.27	1097.95
604.62	1105.90
604.97	1101.92
605.31	1097.71
605.66	1097.48
606.01	1095.37
606.36	1084.60
606.71	1080.16
607.05	1087.41
607.40	1089.05
607.75	1096.31
608.10	1105.20
608.44	1103.80
608.79	1101.46
609.14	1099.35
609.49	1092.80
609.84	1095.60
610.18	1099.12
610.53	1098.88
610.88	1101.92
611.23	1105.90
611.57	1115.97
611.92	1121.12
612.27	1134.22
612.62	1133.52
612.96	1133.29
613.31	1103.33
613.66	1088.58
614.00	1075.48
614.35	1063.31
614.70	1076.18
615.05	1096.07
615.39	1106.84
615.74	1113.86
616.09	1127.20
616.43	1116.67
616.78	1110.82
617.13	1109.65
617.47	1106.84
617.82	1099.35
618.17	1103.80
618.51	1103.80
618.86	1101.46
619.21	1102.16
619.55	1109.41
619.90	1106.61
620.25	1106.14
620.59	1115.97
620.94	1114.80
621.29	1109.18
621.63	1103.33
621.98	1102.86
622.32	1089.52
622.67	1088.35
623.02	1091.86
623.36	1095.37
623.71	1088.82
624.05	1095.37
624.40	1092.80
624.75	1090.92
625.09	1086.48
625.44	1099.58
625.78	1095.14
626.13	1087.18
626.48	1092.56
626.82	1095.14
627.17	1093.97
627.51	1099.35
627.86	1109.18
628.20	1110.35
628.55	1098.18
628.89	1090.69
629.24	1091.86
629.58	1093.97
629.93	1096.31
630.28	1114.33
630.62	1119.48
630.97	1110.82
631.31	1105.67
631.66	1106.14
632.00	1109.18
632.35	1110.82
632.69	1109.88
633.04	1110.35
633.38	1106.84
633.73	1102.86
634.07	1095.60
634.42	1103.80
634.76	1107.31
635.11	1098.88
635.45	1078.99
635.79	1086.48
636.14	1081.33
636.48	1088.35
636.83	1093.73
637.17	1101.46
637.52	1097.01
637.86	1100.29
638.21	1089.52
638.55	1088.58
638.89	1085.54
639.24	1077.11
639.58	1065.18
639.93	1071.26
640.27	1074.31
640.61	1071.03
640.96	1078.28
641.30	1092.56
641.65	1091.16
641.99	1091.39
642.33	1103.56
642.68	1105.90
643.02	1100.05
643.37	1103.80
643.71	1105.20
644.05	1105.44
644.40	1107.78
644.74	1099.58
645.08	1099.35
645.43	1092.56
645.77	1081.33
646.11	1080.39
646.46	1084.14
646.80	1082.50
647.14	1080.86
647.49	1079.69
647.83	1076.41
648.17	1078.28
648.52	1068.69
648.86	1077.11
649.20	1086.01
649.55	1085.77
649.89	1094.20
650.23	1103.56
650.57	1105.44
650.92	1103.09
651.26	1104.73
651.60	1108.71
651.95	1109.41
652.29	1110.12
652.63	1111.52
652.97	1114.33
653.32	1115.27
653.66	1115.73
654.00	1115.03
654.34	1121.58
654.69	1114.80
655.03	1105.67
655.37	1104.50
655.71	1097.95
656.05	1098.41
656.40	1107.31
656.74	1112.69
657.08	1099.82
657.42	1107.54
657.76	1100.99
658.11	1103.80
658.45	1102.16
658.79	1108.71
659.13	1093.73
659.47	1094.90
659.82	1086.48
660.16	1082.03
660.50	1073.14
660.84	1068.22
661.18	1066.82
661.52	1061.43
661.87	1065.88
662.21	1075.94
662.55	1092.56
662.89	1097.24
663.23	1107.07
663.57	1105.90
663.91	1115.03
664.25	1107.07
664.60	1101.69
664.94	1097.01
665.28	1100.52
665.62	1085.31
665.96	1086.71
666.30	1095.84
666.64	1096.78
666.98	1091.39
667.32	1107.78
667.66	1106.61
668.01	1096.54
668.35	1097.95
668.69	1097.48
669.03	1083.43
669.37	1083.43
669.71	1089.29
670.05	1084.60
670.39	1078.99
670.73	1080.39
671.07	1073.14
671.41	1067.75
671.75	1071.50
672.09	1080.16
672.43	1086.01
672.77	1091.16
673.11	1088.35
673.45	1088.82
673.79	1083.67
674.13	1086.71
674.47	1093.73
674.81	1104.73
675.15	1103.80
675.49	1103.80
675.83	1089.52
676.17	1088.12
676.51	1078.75
676.85	1078.28
677.19	1075.01
677.53	1078.75
677.87	1076.18
678.21	1071.73
678.55	1072.67
678.89	1088.35
679.23	1095.14
679.57	1090.69
679.90	1096.54
680.24	1103.09
680.58	1093.97
680.92	1091.39
681.26	1098.18
681.60	1096.54
681.94	1100.29
682.28	1110.58
682.62	1110.82
682.96	1099.12
683.29	1098.88
683.63	1082.03
683.97	1069.62
684.31	1080.39
684.65	1089.75
684.99	1096.78
685.33	1101.69
685.67	1096.31
686.00	1086.48
686.34	1084.60
686.68	1088.58
687.02	1086.94
687.36	1076.65
687.70	1071.50
688.03	1077.35
688.37	1065.88
688.71	1063.31
689.05	1073.14
689.39	1078.05
689.72	1071.03
690.06	1076.18
690.40	1085.54
690.74	1089.29
691.08	1092.56
691.41	1089.75
691.75	1085.07
692.09	1075.24
692.43	1079.22
692.76	1071.26
693.10	1083.20
693.44	1084.60
693.78	1090.69
694.11	1084.60
694.45	1086.01
694.79	1088.82
695.13	1097.95
695.46	1091.16
695.80	1095.37
696.14	1096.78
696.48	1085.07
696.81	1076.88
697.15	1077.11
697.49	1080.86
697.82	1076.18
698.16	1085.07
698.50	1088.12
698.83	1096.31
699.17	1091.86
699.51	1091.63
699.84	1076.65
700.18	1074.54
700.52	1082.03
700.85	1086.94
701.19	1089.99
701.53	1102.39
701.86	1107.78
702.20	1098.65
702.54	1094.67
702.87	1097.24
703.21	1090.46
703.55	1093.50
703.88	1095.84
704.22	1098.18
704.55	1097.24
704.89	1094.67
705.23	1086.24
705.56	1074.54
705.90	1075.94
706.23	1075.24
706.57	1077.35
706.91	1086.01
707.24	1091.63
707.58	1088.58
707.91	1082.97
708.25	1082.03
708.58	1068.69
708.92	1069.62
709.26	1073.84
709.59	1071.73
709.93	1076.65
710.26	1070.80
710.60	1073.37
710.93	1068.92
711.27	1073.14
711.60	1074.54
711.94	1080.39
712.27	1080.39
712.61	1078.28
712.94	1092.80
713.28	1097.95
713.61	1093.50
713.95	1091.39
714.28	1096.31
714.62	1084.60
714.95	1077.82
715.29	1075.71
715.62	1071.50
715.96	1062.84
716.29	1062.84
716.63	1055.11
716.96	1070.09
717.29	1067.99
717.63	1072.90
717.96	1076.18
718.30	1080.86
718.63	1073.60
718.97	1086.01
719.30	1082.73
719.63	1080.86
719.97	1085.54
720.30	1083.43
720.64	1067.99
720.97	1057.92
721.30	1062.84
721.64	1056.99
721.97	1056.05
722.31	1063.07
722.64	1078.52
722.97	1070.80
723.31	1076.88
723.64	1080.39
723.97	1081.09
724.31	1083.43
724.64	1092.80
724.98	1089.52
725.31	1093.03
725.64	1084.14
725.98	1079.22
726.31	1063.54
726.64	1062.14
726.97	1057.22
727.31	1063.54
727.64	1061.90
727.97	1077.82
728.31	1080.63
728.64	1081.80
728.97	1082.97
729.31	1089.29
729.64	1077.35
729.97	1075.48
730.30	1071.50
730.64	1081.56
730.97	1077.35
731.30	1087.18
731.63	1085.77
731.97	1094.43
732.30	1095.37
732.63	1098.65
732.96	1092.56
733.30	1089.99
733.63	1087.88
733.96	1085.77
734.29	1074.77
734.63	1083.90
734.96	1085.54
735.29	1089.99
735.62	1083.90
735.95	1088.35
736.29	1081.80
736.62	1083.67
736.95	1075.94
737.28	1073.37
737.61	1080.39
737.94	1076.65
738.28	1075.71
738.61	1082.26
738.94	1081.80
739.27	1079.22
739.60	1079.69
739.93	1079.22
740.27	1083.43
740.60	1078.75
740.93	1073.37
741.26	1086.24
741.59	1086.71
741.92	1084.84
742.25	1086.01
742.58	1083.20
742.91	1065.41
743.25	1066.11
743.58	1055.11
743.91	1063.54
744.24	1060.26
744.57	1069.62
744.90	1077.35
745.23	1082.73
745.56	1075.24
745.89	1087.41
746.22	1092.56
746.55	1081.56
746.88	1081.80
747.21	1094.67
747.54	1094.67
747.87	1088.82
748.20	1099.58
748.53	1102.63
748.87	1093.73
749.20	1087.41
749.53	1092.80
749.86	1086.24
750.19	1082.97
750.52	1085.07
750.85	1099.12
751.18	1089.99
751.51	1101.22
751.84	1092.33
752.16	1086.94
752.49	1070.56
752.82	1061.90
753.15	1037.09
753.48	1045.05
753.81	1042.47
754.14	1053.94
754.47	1062.37
754.80	1080.63
755.13	1084.60
755.46	1089.52
755.79	1089.29
756.12	1088.12
756.45	1079.46
756.78	1073.37
757.11	1074.07
757.43	1065.65
757.76	1067.28
758.09	1075.01
758.42	1078.28
758.75	1083.67
759.08	1089.29
759.41	1085.31
759.74	1097.71
760.07	1103.80
760.39	1104.50
760.72	1095.60
761.05	1093.73
761.38	1077.35
761.71	1071.03
762.04	1063.31
762.36	1064.01
762.69	1067.99
763.02	1078.28
763.35	1079.92
763.68	1077.58
764.01	1079.22
764.33	1086.48
764.66	1071.26
764.99	1062.84
765.32	1056.28
765.65	1067.28
765.97	1069.16
766.30	1069.16
766.63	1074.31
766.96	1091.86
767.28	1079.92
767.61	1078.52
767.94	1072.90
768.27	1074.77
768.59	1061.90
768.92	1071.26
769.25	1077.35
769.58	1090.92
769.90	1094.67
770.23	1098.41
770.56	1093.03
770.89	1087.65
771.21	1086.71
771.54	1073.60
771.87	1077.82
772.19	1070.56
772.52	1062.14
772.85	1059.56
773.17	1064.71
773.50	1065.88
773.83	1075.48
774.15	1081.09
774.48	1074.07
774.81	1081.33
775.13	1077.35
775.46	1080.86
775.79	1075.24
776.11	1089.52
776.44	1098.88
776.77	1100.05
777.09	1102.86
777.42	1102.86
777.74	1097.24
778.07	1081.33
778.40	1081.09
778.72	1067.75
779.05	1060.50
779.37	1060.03
779.70	1065.65
780.03	1060.73
780.35	1061.67
780.68	1079.69
781.00	1082.03
781.33	1073.14
781.65	1078.75
781.98	1082.50
782.31	1072.20
782.63	1067.99
782.96	1076.41
783.28	1077.11
783.61	1082.50
783.93	1084.84
784.26	1093.03
784.58	1100.29
784.91	1091.39
785.23	1090.92
785.56	1090.22
785.88	1083.20
786.21	1076.65
786.53	1079.69
786.86	1084.60
787.18	1086.71
787.51	1085.54
787.83	1080.63
788.16	1079.92
788.48	1081.33
788.81	1075.48
789.13	1070.80
789.46	1074.31
789.78	1071.50
790.10	1065.65
790.43	1076.88
790.75	1084.37
791.08	1075.48
791.40	1084.84
791.73	1084.37
792.05	1089.99
792.37	1091.16
792.70	1100.29
793.02	1103.33
793.35	1086.71
793.67	1072.90
793.99	1068.45
794.32	1077.82
794.64	1079.46
794.96	1102.16
795.29	1100.05
795.61	1093.73
795.93	1086.24
796.26	1080.86
796.58	1068.45
796.91	1070.09
797.23	1082.73
797.55	1073.60
797.87	1066.58
798.20	1068.69
798.52	1077.35
798.84	1072.20
799.17	1072.90
799.49	1078.28
799.81	1081.56
800.14	1083.43
800.46	1075.94
800.78	1081.09
801.10	1091.16
801.43	1082.73
801.75	1076.18
802.07	1091.16
802.40	1092.09
802.72	1083.43
803.04	1092.33
803.36	1089.99
803.69	1087.41
804.01	1086.48
804.33	1092.56
804.65	1085.31
804.97	1090.69
805.30	1084.37
805.62	1080.39
805.94	1076.41
806.26	1076.41
806.58	1078.28
806.91	1083.20
807.23	1087.18
807.55	1091.39
807.87	1103.56
808.19	1100.05
808.52	1110.12
808.84	1123.46
809.16	1121.12
809.48	1103.09
809.80	1096.78
810.12	1076.65
810.44	1062.37
810.77	1060.96
811.09	1066.35
811.41	1081.09
811.73	1098.18
812.05	1098.18
812.37	1100.05
812.69	1106.84
813.01	1093.03
813.33	1086.94
813.66	1086.24
813.98	1079.22
814.30	1071.03
814.62	1075.01
814.94	1081.33
815.26	1086.94
815.58	1096.07
815.90	1103.56
816.22	1104.73
816.54	1097.01
816.86	1082.73
817.18	1072.43
817.50	1065.88
817.82	1071.97
818.14	1074.31
818.46	1084.60
818.78	1093.50
819.10	1093.03
819.42	1081.56
819.74	1077.58
820.06	1070.09
820.38	1070.33
820.70	1076.18
821.02	1078.75
821.34	1080.39
821.66	1086.01
821.98	1080.63
822.30	1079.22
822.62	1078.75
822.94	1070.56
823.26	1069.16
823.58	1072.90
823.90	1063.77
824.22	1061.90
824.54	1074.54
824.86	1072.43
825.18	1060.03
825.50	1072.90
825.81	1078.75
826.13	1067.52
826.45	1079.46
826.77	1089.05
827.09	1090.22
827.41	1084.60
827.73	1089.75
828.05	1076.18
828.36	1068.45
828.68	1075.48
829.00	1080.63
829.32	1076.65
829.64	1083.67
829.96	1089.05
830.28	1077.58
830.59	1075.01
830.91	1075.48
831.23	1075.48
831.55	1071.97
831.87	1068.92
832.19	1067.75
832.50	1073.60
832.82	1076.65
833.14	1069.39
833.46	1068.22
833.78	1074.31
834.09	1071.26
834.41	1057.22
834.73	1070.09
835.05	1069.86
835.36	1069.62
835.68	1062.14
836.00	1083.67
836.32	1079.22
836.63	1085.31
836.95	1083.90
837.27	1095.14
837.59	1075.48
837.90	1080.39
838.22	1081.33
838.54	1079.92
838.85	1087.18
839.17	1104.50
839.49	1110.12
839.80	1113.63
840.12	1113.39
840.44	1097.71
840.76	1095.60
841.07	1086.94
841.39	1083.67
841.71	1086.48
842.02	1094.43
842.34	1085.54
842.65	1085.07
842.97	1084.60
843.29	1079.92
843.60	1073.60
843.92	1075.48
844.24	1066.58
844.55	1057.22
844.87	1054.41
845.18	1056.52
845.50	1063.77
845.82	1078.05
846.13	1087.18
846.45	1094.67
846.76	1095.84
847.08	1099.12
847.40	1093.26
847.71	1085.31
848.03	1083.43
848.34	1079.22
848.66	1067.99
848.97	1065.65
849.29	1070.56
849.60	1073.37
849.92	1078.52
850.24	1087.41
850.55	1094.43
850.87	1094.67
851.18	1091.16
851.50	1084.37
851.81	1073.14
852.13	1081.56
852.44	1078.05
852.76	1077.58
853.07	1082.97
853.39	1081.09
853.70	1078.28
854.01	1089.05
854.33	1081.56
854.64	1092.09
854.96	1094.20
855.27	1088.58
855.59	1077.58
855.90	1089.05
856.22	1086.94
856.53	1079.22
856.84	1074.31
857.16	1080.63
857.47	1076.18
857.79	1067.52
858.10	1085.31
858.41	1082.97
858.73	1078.28
859.04	1072.90
859.36	1080.16
859.67	1087.18
859.98	1101.92
860.30	1110.82
860.61	1114.10
860.92	1112.22
861.24	1102.39
861.55	1086.01
861.87	1086.01
862.18	1083.20
862.49	1074.54
862.81	1073.60
863.12	1081.56
863.43	1082.50
863.74	1090.46
864.06	1097.24
864.37	1097.01
864.68	1097.01
865.00	1094.67
865.31	1082.73
865.62	1077.58
865.94	1074.54
866.25	1071.26
866.56	1069.86
866.87	1079.22
867.19	1080.16
867.50	1079.69
867.81	1085.77
868.12	1082.73
868.44	1084.14
868.75	1084.84
869.06	1093.26
869.37	1101.92
869.68	1096.54
870.00	1095.14
870.31	1099.35
870.62	1091.39
870.93	1071.97
871.24	1076.41
871.56	1077.11
871.87	1067.05
872.18	1072.20
872.49	1073.14
872.80	1074.31
873.12	1066.82
873.43	1068.69
873.74	1060.73
874.05	1064.24
874.36	1058.62
874.67	1050.43
874.98	1047.62
875.29	1046.69
875.61	1050.43
875.92	1054.65
876.23	1071.03
876.54	1081.33
876.85	1083.67
877.16	1085.07
877.47	1080.16
877.78	1074.07
878.09	1075.01
878.40	1075.24
878.72	1065.88
879.03	1075.01
879.34	1076.65
879.65	1084.37
879.96	1088.12
880.27	1093.50
880.58	1099.35
880.89	1100.52
881.20	1086.24
881.51	1083.90
881.82	1081.09
882.13	1074.54
882.44	1072.67
882.75	1077.82
883.06	1073.14
883.37	1082.50
883.68	1074.31
883.99	1080.63
884.30	1080.86
884.61	1085.07
884.92	1088.82
885.23	1097.24
885.54	1090.22
885.85	1097.95
886.16	1100.05
886.47	1093.03
886.78	1098.41
887.08	1109.88
887.39	1102.39
887.70	1105.20
888.01	1109.41
888.32	1101.22
888.63	1085.07
888.94	1083.90
889.25	1086.01
889.56	1071.50
889.87	1072.20
890.17	1075.24
890.48	1079.22
890.79	1073.84
891.10	1075.71
891.41	1073.84
891.72	1083.20
892.03	1078.05
892.34	1076.18
892.64	1073.37
892.95	1082.50
893.26	1078.05
893.57	1086.01
893.88	1090.92
894.18	1105.44
894.49	1103.33
894.80	1103.56
895.11	1097.95
895.42	1098.41
895.72	1089.29
896.03	1083.20
896.34	1079.92
896.65	1077.35
896.96	1076.41
897.26	1078.05
897.57	1079.69
897.88	1079.46
898.19	1085.54
898.49	1093.03
898.80	1092.56
899.11	1099.58
899.41	1105.67
899.72	1100.75
900.03	1079.22
900.34	1089.05
900.64	1088.12
900.95	1080.39
901.26	1072.67
901.56	1087.88
901.87	1084.37
902.18	1079.69
902.48	1087.65
902.79	1092.09
903.10	1090.69
903.40	1088.58
903.71	1079.22
904.02	1080.86
904.32	1083.67
904.63	1075.24
904.94	1071.73
905.24	1081.33
905.55	1080.16
905.85	1079.22
906.16	1077.11
906.47	1085.07
906.77	1093.50
907.08	1093.73
907.38	1089.75
907.69	1097.01
908.00	1088.35
908.30	1078.28
908.61	1071.26
908.91	1069.39
909.22	1065.41
909.52	1063.54
909.83	1059.09
910.14	1060.96
910.44	1073.60
910.75	1076.41
911.05	1075.24
911.36	1076.41
911.66	1082.03
911.97	1074.31
912.27	1075.48
912.58	1069.16
912.88	1074.54
913.19	1080.63
913.49	1081.80
913.80	1080.86
914.10	1101.46
914.41	1102.39
914.71	1093.03
915.01	1088.35
915.32	1098.18
915.62	1086.24
915.93	1087.65
916.23	1086.48
916.54	1085.07
916.84	1084.60
917.15	1084.37
917.45	1066.35
917.75	1064.01
918.06	1068.22
918.36	1062.60
918.67	1065.18
918.97	1076.18
919.27	1075.71
919.58	1076.65
919.88	1061.43
920.18	1065.41
920.49	1074.31
920.79	1075.48
921.10	1075.71
921.40	1084.84
921.70	1086.01
922.01	1081.09
922.31	1081.56
922.61	1087.41
922.92	1097.95
923.22	1097.48
923.52	1090.92
923.82	1093.97
924.13	1094.43
924.43	1098.18
924.73	1096.31
925.04	1100.05
925.34	1093.50
925.64	1086.48
925.94	1082.26
926.25	1083.90
926.55	1085.77
926.85	1083.90
927.15	1084.37
927.46	1072.67
927.76	1074.31
928.06	1075.71
928.36	1082.26
928.67	1084.84
928.97	1085.77
929.27	1080.86
929.57	1071.03
929.87	1078.52
930.18	1072.90
930.48	1070.80
930.78	1070.09
931.08	1076.41
931.38	1067.28
931.69	1077.82
931.99	1084.14
932.29	1084.14
932.59	1086.48
932.89	1093.73
933.19	1086.01
933.49	1087.65
933.80	1085.31
934.10	1081.09
934.40	1073.84
934.70	1075.48
935.00	1071.03
935.30	1072.20
935.60	1066.11
935.90	1064.01
936.20	1065.18
936.50	1064.94
936.81	1066.35
937.11	1065.88
937.41	1061.90
937.71	1065.65
938.01	1063.77
938.31	1058.86
938.61	1064.48
938.91	1072.20
939.21	1059.09
939.51	1066.35
939.81	1069.62
940.11	1078.75
940.41	1073.37
940.71	1080.63
941.01	1076.88
941.31	1088.12
941.61	1082.97
941.91	1076.65
942.21	1078.75
942.51	1081.09
942.81	1074.77
943.11	1084.37
943.41	1095.60
943.71	1096.78
944.01	1085.77
944.31	1082.50
944.61	1070.33
944.90	1063.07
945.20	1058.16
945.50	1062.37
945.80	1055.58
946.10	1060.50
946.40	1071.97
946.70	1078.99
947.00	1075.71
947.30	1080.86
947.60	1074.54
947.89	1064.48
948.19	1059.33
948.49	1068.22
948.79	1064.24
949.09	1059.56
949.39	1061.90
949.69	1064.48
949.98	1063.77
950.28	1067.99
950.58	1077.11
950.88	1079.92
951.18	1077.11
951.48	1066.11
951.77	1069.16
952.07	1070.09
952.37	1067.75
952.67	1071.97
952.97	1082.97
953.26	1084.60
953.56	1082.03
953.86	1090.46
954.16	1091.39
954.45	1090.69
954.75	1082.73
955.05	1080.63
955.35	1071.97
955.64	1069.39
955.94	1062.60
956.24	1063.31
956.54	1062.84
956.83	1073.37
957.13	1073.60
957.43	1080.39
957.72	1079.69
958.02	1087.88
958.32	1076.18
958.61	1078.99
958.91	1074.31
959.21	1082.26
959.50	1083.67
959.80	1088.82
960.10	1082.73
960.39	1092.56
960.69	1092.33
960.99	1076.88
961.28	1072.20
961.58	1071.26
961.87	1066.58
962.17	1064.48
962.47	1069.39
962.76	1069.39
963.06	1072.90
963.36	1069.86
963.65	1067.52
963.95	1061.67
964.24	1071.03
964.54	1075.24
964.83	1081.56
965.13	1081.56
965.42	1095.84
965.72	1089.75
966.02	1089.05
966.31	1079.92
966.61	1084.37
966.90	1082.50
967.20	1088.12
967.49	1085.07
967.79	1093.50
968.08	1087.88
968.38	1076.88
968.67	1074.07
968.97	1079.69
969.26	1080.39
969.56	1089.29
969.85	1100.29
970.15	1104.50
970.44	1106.14
970.74	1107.31
971.03	1099.58
971.32	1103.09
971.62	1103.56
971.91	1097.48
972.21	1085.31
972.50	1086.01
972.80	1084.84
973.09	1076.18
973.38	1062.60
973.68	1075.71
973.97	1073.60
974.27	1064.94
974.56	1070.80
974.85	1077.11
975.15	1070.33
975.44	1072.90
975.73	1073.14
976.03	1069.16
976.32	1063.54
976.61	1053.01
976.91	1050.20
977.20	1053.24
977.49	1045.28
977.79	1049.26
978.08	1059.33
978.37	1070.56
978.67	1069.62
978.96	1077.82
979.25	1082.50
979.55	1087.41
979.84	1066.58
980.13	1069.62
980.42	1068.92
980.72	1066.58
981.01	1061.90
981.30	1081.56
981.59	1080.39
981.89	1078.52
982.18	1086.01
982.47	1092.80
982.76	1091.39
983.06	1092.80
983.35	1096.31
983.64	1093.26
983.93	1096.31
984.22	1090.69
984.52	1083.90
984.81	1082.03
985.10	1082.50
985.39	1072.20
985.68	1067.75
985.97	1077.82
986.27	1078.99
986.56	1070.09
986.85	1068.22
987.14	1068.92
987.43	1069.39
987.72	1071.73
988.01	1073.37
988.31	1075.48
988.60	1086.71
988.89	1075.94
989.18	1071.73
989.47	1078.28
989.76	1083.90
990.05	1079.69
990.34	1084.14
990.63	1082.50
990.92	1075.01
991.21	1069.86
991.51	1062.60
991.80	1062.84
992.09	1065.41
992.38	1064.48
992.67	1067.52
992.96	1072.67
993.25	1080.16
993.54	1097.95
993.83	1110.12
994.12	1104.26
994.41	1095.14
994.70	1089.52
994.99	1066.11
995.28	1061.90
995.57	1067.99
995.86	1077.11
996.15	1085.31
996.44	1088.82
996.73	1081.56
997.02	1084.14
997.31	1080.63
997.59	1070.33
997.88	1064.48
998.17	1076.41
998.46	1069.39
998.75	1072.20
999.04	1073.84
999.33	1082.03
999.62	1081.80
999.91	1082.73
1000.20	1081.56
1000.49	1078.75
1000.77	1070.33
1001.06	1071.97
1001.35	1075.24
1001.64	1080.39
1001.93	1082.26
1002.22	1092.33
1002.51	1087.88
1002.79	1084.84
1003.08	1074.31
1003.37	1076.41
1003.66	1075.01
1003.95	1074.54
1004.23	1080.16
1004.52	1086.01
1004.81	1073.84
1005.10	1074.54
1005.39	1076.41
1005.67	1076.18
1005.96	1079.46
1006.25	1091.16
1006.54	1093.50
1006.83	1078.28
1007.11	1070.33
1007.40	1064.48
1007.69	1064.48
1007.97	1071.73
1008.26	1075.01
1008.55	1078.28
1008.84	1080.16
1009.12	1083.43
1009.41	1075.71
1009.70	1084.14
1009.98	1091.39
1010.27	1088.35
1010.56	1089.75
1010.85	1084.37
1011.13	1082.73
1011.42	1077.82
1011.71	1076.18
1011.99	1060.26
1012.28	1059.33
1012.56	1058.86
1012.85	1059.33
1013.14	1064.71
1013.42	1073.14
1013.71	1076.88
1014.00	1072.90
1014.28	1064.94
1014.57	1066.35
1014.85	1066.58
1015.14	1068.45
1015.43	1070.56
1015.71	1074.07
1016.00	1078.99
1016.28	1079.92
1016.57	1075.24
1016.85	1079.22
1017.14	1085.07
1017.43	1087.88
1017.71	1098.41
1018.00	1108.01
1018.28	1109.41
1018.57	1107.31
1018.85	1098.18
1019.14	1079.92
1019.42	1072.90
1019.71	1071.97
1019.99	1076.41
1020.28	1078.52
1020.56	1078.99
1020.85	1083.20
1021.13	1081.80
1021.42	1069.39
1021.70	1069.62
1021.99	1085.54
1022.27	1086.71
1022.55	1122.29
1022.84	1103.56
>>>>>End Processed Spectral Data<<<<<
