SpectraSuite Data File
++++++++++++++++++++++++++++++++++++
Date: Mon Aug 26 10:24:46 PDT 2019
User: corrico
Dark Spectrum Present: No
Reference Spectrum Present: No
Number of Sampled Component Spectra: 1
Spectrometers: USB2+H06089
Integration Time (usec): 10000 (USB2+H06089)
Spectra Averaged: 2 (USB2+H06089)
Boxcar Smoothing: 2 (USB2+H06089)
Correct for Electrical Dark: No (USB2+H06089)
Strobe/Lamp Enabled: No (USB2+H06089)
Correct for Detector Non-linearity: No (USB2+H06089)
Correct for Stray Light: No (USB2+H06089)
Number of Pixels in Processed Spectrum: 2048
>>>>>Begin Processed Spectral Data<<<<<
339.70	1059.09
340.07	1059.09
340.45	1011.11
340.82	979.05
341.19	945.81
341.57	918.89
341.94	910.94
342.31	907.89
342.69	911.87
343.06	913.28
343.43	903.91
343.81	893.85
344.18	888.94
344.55	889.87
344.93	887.30
345.30	898.30
345.67	914.45
346.04	927.32
346.42	938.32
346.79	947.45
347.16	955.41
347.54	959.85
347.91	968.98
348.28	972.02
348.65	986.54
349.03	997.77
349.40	1014.86
349.77	1020.94
350.14	1037.56
350.52	1045.05
350.89	1050.67
351.26	1057.22
351.63	1064.24
352.01	1068.45
352.38	1084.84
352.75	1103.80
353.12	1104.50
353.50	1109.88
353.87	1106.84
354.24	1097.24
354.61	1084.37
354.98	1087.18
355.36	1085.77
355.73	1080.86
356.10	1088.82
356.47	1094.67
356.84	1103.80
357.22	1107.07
357.59	1112.69
357.96	1114.56
358.33	1112.22
358.70	1104.26
359.08	1101.69
359.45	1100.29
359.82	1106.14
360.19	1097.01
360.56	1097.48
360.94	1097.24
361.31	1105.67
361.68	1095.60
362.05	1099.82
362.42	1097.01
362.79	1098.88
363.16	1095.37
363.54	1086.94
363.91	1097.95
364.28	1106.14
364.65	1103.09
365.02	1105.67
365.39	1116.44
365.76	1111.99
366.14	1104.26
366.51	1111.05
366.88	1112.69
367.25	1102.16
367.62	1099.58
367.99	1101.22
368.36	1107.07
368.73	1101.92
369.10	1113.39
369.48	1121.35
369.85	1123.46
370.22	1115.50
370.59	1107.54
370.96	1103.80
371.33	1089.05
371.70	1085.54
372.07	1086.71
372.44	1096.78
372.81	1097.24
373.18	1092.80
373.55	1092.09
373.93	1089.52
374.30	1093.26
374.67	1090.22
375.04	1103.80
375.41	1111.52
375.78	1110.12
376.15	1104.03
376.52	1102.16
376.89	1100.52
377.26	1100.75
377.63	1097.24
378.00	1096.31
378.37	1096.78
378.74	1098.41
379.11	1092.56
379.48	1088.58
379.85	1084.14
380.22	1086.48
380.59	1083.67
380.96	1092.56
381.33	1098.88
381.70	1100.52
382.07	1100.75
382.44	1102.39
382.81	1095.14
383.18	1092.09
383.55	1098.65
383.92	1098.18
384.29	1100.75
384.66	1103.56
385.03	1110.12
385.40	1108.95
385.77	1105.90
386.14	1110.12
386.51	1108.71
386.88	1111.52
387.25	1122.05
387.62	1122.05
387.99	1123.22
388.36	1117.14
388.73	1112.46
389.10	1109.18
389.46	1116.44
389.83	1103.56
390.20	1117.37
390.57	1121.58
390.94	1124.39
391.31	1135.86
391.68	1143.35
392.05	1143.59
392.42	1141.48
392.79	1137.27
393.16	1129.54
393.53	1120.65
393.89	1119.95
394.26	1126.73
394.63	1133.99
395.00	1136.33
395.37	1153.18
395.74	1152.48
396.11	1148.97
396.48	1144.76
396.84	1141.25
397.21	1142.42
397.58	1152.48
397.95	1158.57
398.32	1163.71
398.69	1162.54
399.06	1168.16
399.42	1165.12
399.79	1170.50
400.16	1177.76
400.53	1191.10
400.90	1198.35
401.27	1208.18
401.64	1210.76
402.00	1216.61
402.37	1226.67
402.74	1241.19
403.11	1257.80
403.48	1271.61
403.84	1279.34
404.21	1296.42
404.58	1293.38
404.95	1300.87
405.32	1316.79
405.68	1331.53
406.05	1342.30
406.42	1367.34
406.79	1387.24
407.16	1413.68
407.52	1443.41
407.89	1490.22
408.26	1533.52
408.63	1566.75
408.99	1613.57
409.36	1650.31
409.73	1683.55
410.10	1717.72
410.47	1777.40
410.83	1834.51
411.20	1913.39
411.57	1974.71
411.94	2046.10
412.30	2116.78
412.67	2183.95
413.04	2252.77
413.40	2345.22
413.77	2445.16
414.14	2566.40
414.51	2705.19
414.87	2840.94
415.24	2991.91
415.61	3151.53
415.97	3302.73
416.34	3453.69
416.71	3638.60
417.08	3827.01
417.44	4005.12
417.81	4211.56
418.18	4427.59
418.54	4656.03
418.91	4893.59
419.28	5189.20
419.64	5479.43
420.01	5826.76
420.38	6170.82
420.74	6525.41
421.11	6938.75
421.48	7344.37
421.84	7728.21
422.21	8148.81
422.58	8628.15
422.94	9073.55
423.31	9583.56
423.68	10148.09
424.04	10796.42
424.41	11368.22
424.77	12019.82
425.14	12679.85
425.51	13354.16
425.87	14036.66
426.24	14807.40
426.61	15602.95
426.97	16562.57
427.34	17426.46
427.70	18399.65
428.07	19378.70
428.44	20358.45
428.80	21304.02
429.17	22464.46
429.53	23526.36
429.90	24772.70
430.27	25958.88
430.63	27164.96
431.00	28490.87
431.36	30040.54
431.73	31327.37
432.09	32695.41
432.46	33972.41
432.83	35171.00
433.19	36133.42
433.56	37441.55
433.92	38828.55
434.29	40263.07
434.65	41611.21
435.02	42895.70
435.38	44084.46
435.75	44926.82
436.11	46031.78
436.48	46984.62
436.84	47972.32
437.21	48876.71
437.57	49753.00
437.94	50454.93
438.30	51175.11
438.67	51681.60
439.03	51978.38
439.40	52304.89
439.76	52154.86
440.13	51856.68
440.49	51710.86
440.86	51334.50
441.22	50938.01
441.59	50460.08
441.95	49983.78
442.32	49188.70
442.68	48423.34
443.05	47524.34
443.41	46650.62
443.78	45566.49
444.14	44577.38
444.51	43344.15
444.87	42416.12
445.24	41218.00
445.60	40091.27
445.96	38862.02
446.33	37983.62
446.69	36761.62
447.06	35848.11
447.42	34852.92
447.79	33738.59
448.15	32763.29
448.51	31808.35
448.88	31008.82
449.24	30108.65
449.61	29552.77
449.97	28805.21
450.33	28059.51
450.70	27146.24
451.06	26598.78
451.43	25760.64
451.79	25178.31
452.15	24618.69
452.52	24016.71
452.88	23362.29
453.24	22881.31
453.61	22256.86
453.97	21603.38
454.34	20998.35
454.70	20467.28
455.06	19822.70
455.43	19131.07
455.79	18436.63
456.15	17825.99
456.52	17092.46
456.88	16582.46
457.24	15986.09
457.61	15553.09
457.97	15114.71
458.33	14615.71
458.70	14050.24
459.06	13517.06
459.42	13058.08
459.79	12557.21
460.15	12121.87
460.51	11683.95
460.88	11284.42
461.24	10851.43
461.60	10502.69
461.96	10211.29
462.33	9935.34
462.69	9685.14
463.05	9375.95
463.42	9102.34
463.78	8813.05
464.14	8547.40
464.50	8311.24
464.87	8109.96
465.23	7846.88
465.59	7625.70
465.95	7407.56
466.32	7175.15
466.68	6947.65
467.04	6753.15
467.40	6579.48
467.77	6423.83
468.13	6269.12
468.49	6128.22
468.85	6009.09
469.22	5883.64
469.58	5742.97
469.94	5618.46
470.30	5478.49
470.66	5347.19
471.03	5220.80
471.39	5122.50
471.75	5016.47
472.11	4923.55
472.47	4837.89
472.84	4729.52
473.20	4621.86
473.56	4539.94
473.92	4442.10
474.28	4346.37
474.65	4258.37
475.01	4169.20
475.37	4069.26
475.73	3992.72
476.09	3917.35
476.45	3847.84
476.81	3769.90
477.18	3679.79
477.54	3598.57
477.90	3524.85
478.26	3448.78
478.62	3375.75
478.98	3327.77
479.34	3295.71
479.71	3245.85
480.07	3215.19
480.43	3179.62
480.79	3129.53
481.15	3056.04
481.51	2988.16
481.87	2926.14
482.23	2866.69
482.59	2820.81
482.96	2777.28
483.32	2752.24
483.68	2710.11
484.04	2681.08
484.40	2642.00
484.76	2617.66
485.12	2573.89
485.48	2551.42
485.84	2523.33
486.20	2494.78
486.56	2458.97
486.92	2438.14
487.28	2392.50
487.64	2338.20
488.00	2308.24
488.37	2276.41
488.73	2235.68
489.09	2199.87
489.45	2184.89
489.81	2160.78
490.17	2132.46
490.53	2116.55
490.89	2083.08
491.25	2045.86
491.61	2018.48
491.97	1985.24
492.33	1961.37
492.69	1954.35
493.05	1938.20
493.41	1907.77
493.77	1883.43
494.13	1865.41
494.49	1835.92
494.85	1827.49
495.21	1803.15
495.57	1778.57
495.93	1736.68
496.29	1724.51
496.64	1682.61
497.00	1675.12
497.36	1670.21
497.72	1654.52
498.08	1633.69
498.44	1633.23
498.80	1602.33
499.16	1574.71
499.52	1561.84
499.88	1538.67
500.24	1520.65
500.60	1522.52
500.96	1517.84
501.32	1508.48
501.68	1503.56
502.03	1500.52
502.39	1483.90
502.75	1469.15
503.11	1453.47
503.47	1445.05
503.83	1427.73
504.19	1423.98
504.55	1423.05
504.91	1423.75
505.26	1415.32
505.62	1409.70
505.98	1382.32
506.34	1364.77
506.70	1349.55
507.06	1340.42
507.42	1322.17
507.78	1327.79
508.13	1326.15
508.49	1322.40
508.85	1321.93
509.21	1324.04
509.57	1305.32
509.93	1287.06
510.28	1282.61
510.64	1264.59
511.00	1260.14
511.36	1266.23
511.72	1268.57
512.07	1260.38
512.43	1275.59
512.79	1263.66
513.15	1264.83
513.51	1255.23
513.86	1258.74
514.22	1244.70
514.58	1252.42
514.94	1232.29
515.30	1232.29
515.65	1224.10
516.01	1223.40
516.37	1219.65
516.73	1222.46
517.08	1218.48
517.44	1220.12
517.80	1207.48
518.16	1199.76
518.51	1199.52
518.87	1206.31
519.23	1201.63
519.59	1201.63
519.94	1197.18
520.30	1182.67
520.66	1169.10
521.01	1165.82
521.37	1171.20
521.73	1177.29
522.09	1191.57
522.44	1196.95
522.80	1179.86
523.16	1177.06
523.51	1170.27
523.87	1168.16
524.23	1175.42
524.58	1190.63
524.94	1192.03
525.30	1189.93
525.65	1183.37
526.01	1173.78
526.37	1169.80
526.72	1157.86
527.08	1159.97
527.44	1155.05
527.79	1156.93
528.15	1153.18
528.51	1149.67
528.86	1142.42
529.22	1150.14
529.58	1146.63
529.93	1147.56
530.29	1155.29
530.65	1162.08
531.00	1152.48
531.36	1145.69
531.71	1145.93
532.07	1151.08
532.43	1139.37
532.78	1152.25
533.14	1148.97
533.49	1150.37
533.85	1151.08
534.21	1158.57
534.56	1167.93
534.92	1169.80
535.27	1160.20
535.63	1154.35
535.98	1150.61
536.34	1137.97
536.69	1145.22
537.05	1156.46
537.41	1152.48
537.76	1141.48
538.12	1148.73
538.47	1144.52
538.83	1142.18
539.18	1146.63
539.54	1152.71
539.89	1142.42
540.25	1137.27
540.60	1123.69
540.96	1119.01
541.31	1130.24
541.67	1120.65
542.02	1122.52
542.38	1138.20
542.73	1143.12
543.09	1140.07
543.44	1146.39
543.80	1146.39
544.15	1133.99
544.51	1131.88
544.86	1124.16
545.22	1131.18
545.57	1134.69
545.93	1143.12
546.28	1137.50
546.64	1131.41
546.99	1126.73
547.35	1113.63
547.70	1108.48
548.05	1112.22
548.41	1120.41
548.76	1117.84
549.12	1124.39
549.47	1115.27
549.83	1108.95
550.18	1115.97
550.53	1107.54
550.89	1117.84
551.24	1115.97
551.60	1123.46
551.95	1126.03
552.30	1130.24
552.66	1129.54
553.01	1143.12
553.37	1140.78
553.72	1130.01
554.07	1127.20
554.43	1117.37
554.78	1118.31
555.13	1110.35
555.49	1118.31
555.84	1122.75
556.19	1130.71
556.55	1126.97
556.90	1131.41
557.26	1123.69
557.61	1122.99
557.96	1121.58
558.32	1113.63
558.67	1106.61
559.02	1109.18
559.37	1111.05
559.73	1105.67
560.08	1118.54
560.43	1117.61
560.79	1116.44
561.14	1121.35
561.49	1132.59
561.85	1130.24
562.20	1132.82
562.55	1131.41
562.90	1130.24
563.26	1124.16
563.61	1119.24
563.96	1124.63
564.32	1124.39
564.67	1112.22
565.02	1104.73
565.37	1110.82
565.73	1117.61
566.08	1114.10
566.43	1128.37
566.78	1131.18
567.14	1121.82
567.49	1112.22
567.84	1111.75
568.19	1108.24
568.54	1104.26
568.90	1101.92
569.25	1097.95
569.60	1104.73
569.95	1101.46
570.31	1112.92
570.66	1126.73
571.01	1132.35
571.36	1124.16
571.71	1126.27
572.06	1120.18
572.42	1110.82
572.77	1112.69
573.12	1115.50
573.47	1111.99
573.82	1108.48
574.18	1108.71
574.53	1102.63
574.88	1101.46
575.23	1101.22
575.58	1100.05
575.93	1101.46
576.28	1105.44
576.64	1112.22
576.99	1110.35
577.34	1108.71
577.69	1112.22
578.04	1107.54
578.39	1101.69
578.74	1098.88
579.09	1115.27
579.44	1120.18
579.80	1123.93
580.15	1127.20
580.50	1132.59
580.85	1125.10
581.20	1108.95
581.55	1103.09
581.90	1109.65
582.25	1110.12
582.60	1108.48
582.95	1111.99
583.30	1116.20
583.65	1118.07
584.00	1127.20
584.35	1124.16
584.71	1127.67
585.06	1138.20
585.41	1129.54
585.76	1121.12
586.11	1118.54
586.46	1108.01
586.81	1088.35
587.16	1085.07
587.51	1082.03
587.86	1087.18
588.21	1089.52
588.56	1105.20
588.91	1110.12
589.26	1113.39
589.61	1109.41
589.96	1117.61
590.31	1111.75
590.66	1112.69
591.01	1115.97
591.36	1120.41
591.71	1119.48
592.06	1120.41
592.41	1110.35
592.76	1101.22
593.10	1096.54
593.45	1090.69
593.80	1091.39
594.15	1097.71
594.50	1111.99
594.85	1112.22
595.20	1119.95
595.55	1110.12
595.90	1105.44
596.25	1098.18
596.60	1108.71
596.95	1109.65
597.30	1114.56
597.64	1156.46
597.99	1153.65
598.34	1150.84
598.69	1145.22
599.04	1146.86
599.39	1108.01
599.74	1109.41
600.09	1097.24
600.44	1096.78
600.78	1097.01
601.13	1093.26
601.48	1087.18
601.83	1088.12
602.18	1092.33
602.53	1092.56
602.88	1093.26
603.22	1099.82
603.57	1100.99
603.92	1096.07
604.27	1093.26
604.62	1086.48
604.97	1080.16
605.31	1084.60
605.66	1093.26
606.01	1095.84
606.36	1097.48
606.71	1092.80
607.05	1097.24
607.40	1094.67
607.75	1086.24
608.10	1090.46
608.44	1093.73
608.79	1083.67
609.14	1084.14
609.49	1097.48
609.84	1099.58
610.18	1108.71
610.53	1117.61
610.88	1111.05
611.23	1112.92
611.57	1120.65
611.92	1115.50
612.27	1107.07
612.62	1109.88
612.96	1114.10
613.31	1107.31
613.66	1097.01
614.00	1104.03
614.35	1108.95
614.70	1092.56
615.05	1094.43
615.39	1092.56
615.74	1085.54
616.09	1083.67
616.43	1082.97
616.78	1080.86
617.13	1096.07
617.47	1097.24
617.82	1098.41
618.17	1100.99
618.51	1095.60
618.86	1102.39
619.21	1108.95
619.55	1101.92
619.90	1102.16
620.25	1103.56
620.59	1102.39
620.94	1099.12
621.29	1100.05
621.63	1098.65
621.98	1105.20
622.32	1103.33
622.67	1106.14
623.02	1107.54
623.36	1106.37
623.71	1097.24
624.05	1083.67
624.40	1075.01
624.75	1061.43
625.09	1067.28
625.44	1071.50
625.78	1072.43
626.13	1072.20
626.48	1083.67
626.82	1081.33
627.17	1084.14
627.51	1084.60
627.86	1089.99
628.20	1098.65
628.55	1114.33
628.89	1105.44
629.24	1108.48
629.58	1118.78
629.93	1117.37
630.28	1095.37
630.62	1105.44
630.97	1107.31
631.31	1093.26
631.66	1083.67
632.00	1084.14
632.35	1081.33
632.69	1079.22
633.04	1070.09
633.38	1061.43
633.73	1064.94
634.07	1064.48
634.42	1070.56
634.76	1086.94
635.11	1103.33
635.45	1097.01
635.79	1096.07
636.14	1100.99
636.48	1093.97
636.83	1085.54
637.17	1104.03
637.52	1103.33
637.86	1095.84
638.21	1087.18
638.55	1093.26
638.89	1088.12
639.24	1092.56
639.58	1096.78
639.93	1102.63
640.27	1095.37
640.61	1086.24
640.96	1080.63
641.30	1089.29
641.65	1091.39
641.99	1094.20
642.33	1101.46
642.68	1104.50
643.02	1086.71
643.37	1089.05
643.71	1096.07
644.05	1096.78
644.40	1100.52
644.74	1103.80
645.08	1117.14
645.43	1118.78
645.77	1109.65
646.11	1109.41
646.46	1109.65
646.80	1093.26
647.14	1082.97
647.49	1103.09
647.83	1100.99
648.17	1099.58
648.52	1097.48
648.86	1108.24
649.20	1098.65
649.55	1093.26
649.89	1095.14
650.23	1099.82
650.57	1097.24
650.92	1088.12
651.26	1091.86
651.60	1086.48
651.95	1084.84
652.29	1075.71
652.63	1082.26
652.97	1079.22
653.32	1084.14
653.66	1089.52
654.00	1098.41
654.34	1091.86
654.69	1100.52
655.03	1109.18
655.37	1113.86
655.71	1112.22
656.05	1113.39
656.40	1108.48
656.74	1094.90
657.08	1080.86
657.42	1082.26
657.76	1093.03
658.11	1092.33
658.45	1098.41
658.79	1110.82
659.13	1108.24
659.47	1097.01
659.82	1096.07
660.16	1095.14
660.50	1090.92
660.84	1086.94
661.18	1095.14
661.52	1092.80
661.87	1096.07
662.21	1092.09
662.55	1080.86
662.89	1077.82
663.23	1088.35
663.57	1083.43
663.91	1079.22
664.25	1102.39
664.60	1102.16
664.94	1099.58
665.28	1091.86
665.62	1099.12
665.96	1087.65
666.30	1090.46
666.64	1086.71
666.98	1101.22
667.32	1100.05
667.66	1109.41
668.01	1103.33
668.35	1108.95
668.69	1101.69
669.03	1106.14
669.37	1103.56
669.71	1102.16
670.05	1092.09
670.39	1085.77
670.73	1076.65
671.07	1074.07
671.41	1067.28
671.75	1068.92
672.09	1078.75
672.43	1086.94
672.77	1089.75
673.11	1096.31
673.45	1101.46
673.79	1094.43
674.13	1096.31
674.47	1084.60
674.81	1096.54
675.15	1101.92
675.49	1109.41
675.83	1105.20
676.17	1108.95
676.51	1108.01
676.85	1093.03
677.19	1095.84
677.53	1085.07
677.87	1088.58
678.21	1080.63
678.55	1082.26
678.89	1076.65
679.23	1087.65
679.57	1082.97
679.90	1085.77
680.24	1083.43
680.58	1081.09
680.92	1082.50
681.26	1087.88
681.60	1091.16
681.94	1100.99
682.28	1100.29
682.62	1093.73
682.96	1097.95
683.29	1090.22
683.63	1082.97
683.97	1091.39
684.31	1090.92
684.65	1082.50
684.99	1087.88
685.33	1090.92
685.67	1089.99
686.00	1100.52
686.34	1106.14
686.68	1101.46
687.02	1098.88
687.36	1101.92
687.70	1097.01
688.03	1088.82
688.37	1096.78
688.71	1097.24
689.05	1083.20
689.39	1086.48
689.72	1100.99
690.06	1097.24
690.40	1106.84
690.74	1121.12
691.08	1119.48
691.41	1105.90
691.75	1105.44
692.09	1099.35
692.43	1078.05
692.76	1076.88
693.10	1084.60
693.44	1083.43
693.78	1085.31
694.11	1100.05
694.45	1105.44
694.79	1097.01
695.13	1092.09
695.46	1088.82
695.80	1085.54
696.14	1083.43
696.48	1076.88
696.81	1077.35
697.15	1071.97
697.49	1071.03
697.82	1058.86
698.16	1067.75
698.50	1072.20
698.83	1077.35
699.17	1072.20
699.51	1075.24
699.84	1072.20
700.18	1073.84
700.52	1068.22
700.85	1068.22
701.19	1069.62
701.53	1071.03
701.86	1075.01
702.20	1083.43
702.54	1092.09
702.87	1084.37
703.21	1088.58
703.55	1082.26
703.88	1081.33
704.22	1079.46
704.55	1083.43
704.89	1078.75
705.23	1079.69
705.56	1078.75
705.90	1078.52
706.23	1085.07
706.57	1081.09
706.91	1079.69
707.24	1083.43
707.58	1084.14
707.91	1091.16
708.25	1100.99
708.58	1111.29
708.92	1107.78
709.26	1105.67
709.59	1089.29
709.93	1076.65
710.26	1067.99
710.60	1069.62
710.93	1074.07
711.27	1082.97
711.60	1100.05
711.94	1087.88
712.27	1083.20
712.61	1081.80
712.94	1081.33
713.28	1083.20
713.61	1094.43
713.95	1096.31
714.28	1086.24
714.62	1083.67
714.95	1071.03
715.29	1064.01
715.62	1062.37
715.96	1076.65
716.29	1085.07
716.63	1084.37
716.96	1090.69
717.29	1098.41
717.63	1092.80
717.96	1097.24
718.30	1104.73
718.63	1103.33
718.97	1103.09
719.30	1100.75
719.63	1087.41
719.97	1081.80
720.30	1083.43
720.64	1081.56
720.97	1081.09
721.30	1084.84
721.64	1082.03
721.97	1081.80
722.31	1074.31
722.64	1075.01
722.97	1065.65
723.31	1075.48
723.64	1074.31
723.97	1079.92
724.31	1079.92
724.64	1082.26
724.98	1087.41
725.31	1086.48
725.64	1086.94
725.98	1089.52
726.31	1096.31
726.64	1082.26
726.97	1075.01
727.31	1078.05
727.64	1076.18
727.97	1081.56
728.31	1080.39
728.64	1084.14
728.97	1075.71
729.31	1087.65
729.64	1082.73
729.97	1093.50
730.30	1097.01
730.64	1095.60
730.97	1087.41
731.30	1076.41
731.63	1075.48
731.97	1070.33
732.30	1072.20
732.63	1062.60
732.96	1066.35
733.30	1075.48
733.63	1085.54
733.96	1089.29
734.29	1101.46
734.63	1100.75
734.96	1096.31
735.29	1092.56
735.62	1091.16
735.95	1084.37
736.29	1094.20
736.62	1084.84
736.95	1082.26
737.28	1082.73
737.61	1090.92
737.94	1086.71
738.28	1084.60
738.61	1088.35
738.94	1089.75
739.27	1082.73
739.60	1078.05
739.93	1081.33
740.27	1082.26
740.60	1086.24
740.93	1082.26
741.26	1080.63
741.59	1077.35
741.92	1081.80
742.25	1085.07
742.58	1092.33
742.91	1099.82
743.25	1102.16
743.58	1099.35
743.91	1097.71
744.24	1102.86
744.57	1104.97
744.90	1111.05
745.23	1117.61
745.56	1111.75
745.89	1104.03
746.22	1100.05
746.55	1101.22
746.88	1084.60
747.21	1078.75
747.54	1072.20
747.87	1068.45
748.20	1051.37
748.53	1056.99
748.87	1057.92
749.20	1073.37
749.53	1077.11
749.86	1086.94
750.19	1089.29
750.52	1093.03
750.85	1088.58
751.18	1083.67
751.51	1077.58
751.84	1080.16
752.16	1081.09
752.49	1071.97
752.82	1074.07
753.15	1080.86
753.48	1080.39
753.81	1092.56
754.14	1097.48
754.47	1107.31
754.80	1107.07
755.13	1110.35
755.46	1097.24
755.79	1099.12
756.12	1095.37
756.45	1095.14
756.78	1092.09
757.11	1092.80
757.43	1090.46
757.76	1091.63
758.09	1096.07
758.42	1087.41
758.75	1091.39
759.08	1090.92
759.41	1081.56
759.74	1082.50
760.07	1080.86
760.39	1077.82
760.72	1077.82
761.05	1073.60
761.38	1071.03
761.71	1070.56
762.04	1070.80
762.36	1072.90
762.69	1078.05
763.02	1073.60
763.35	1071.26
763.68	1072.67
764.01	1072.43
764.33	1077.82
764.66	1071.97
764.99	1076.88
765.32	1067.28
765.65	1066.58
765.97	1063.77
766.30	1071.03
766.63	1075.01
766.96	1078.28
767.28	1081.33
767.61	1085.54
767.94	1086.94
768.27	1088.82
768.59	1086.94
768.92	1072.43
769.25	1067.75
769.58	1073.14
769.90	1067.05
770.23	1063.07
770.56	1066.58
770.89	1063.31
771.21	1054.41
771.54	1051.13
771.87	1065.65
772.19	1074.77
772.52	1084.84
772.85	1084.84
773.17	1091.86
773.50	1075.24
773.83	1070.09
774.15	1065.18
774.48	1064.94
774.81	1076.41
775.13	1085.77
775.46	1088.12
775.79	1092.09
776.11	1098.18
776.44	1089.29
776.77	1093.73
777.09	1094.67
777.42	1092.80
777.74	1095.60
778.07	1099.12
778.40	1100.05
778.72	1096.54
779.05	1098.18
779.37	1089.75
779.70	1075.94
780.03	1070.80
780.35	1078.28
780.68	1073.37
781.00	1082.97
781.33	1089.05
781.65	1097.24
781.98	1090.46
782.31	1087.88
782.63	1081.33
782.96	1086.48
783.28	1073.84
783.61	1079.69
783.93	1078.28
784.26	1077.58
784.58	1068.22
784.91	1064.94
785.23	1062.84
785.56	1067.52
785.88	1067.75
786.21	1072.90
786.53	1093.26
786.86	1086.24
787.18	1074.54
787.51	1072.67
787.83	1076.41
788.16	1062.37
788.48	1059.79
788.81	1073.37
789.13	1068.45
789.46	1059.33
789.78	1067.52
790.10	1070.33
790.43	1069.86
790.75	1080.16
791.08	1085.77
791.40	1078.75
791.73	1101.92
792.05	1101.46
792.37	1088.12
792.70	1090.69
793.02	1087.65
793.35	1069.86
793.67	1064.94
793.99	1075.71
794.32	1073.84
794.64	1081.33
794.96	1082.50
795.29	1078.05
795.61	1074.07
795.93	1075.24
796.26	1068.69
796.58	1067.99
796.91	1075.71
797.23	1082.26
797.55	1080.39
797.87	1085.31
798.20	1089.29
798.52	1093.03
798.84	1085.07
799.17	1085.31
799.49	1089.05
799.81	1085.54
800.14	1088.35
800.46	1093.26
800.78	1093.03
801.10	1081.33
801.43	1084.14
801.75	1074.54
802.07	1067.99
802.40	1067.28
802.72	1071.73
803.04	1071.97
803.36	1075.01
803.69	1075.01
804.01	1063.77
804.33	1061.67
804.65	1053.24
804.97	1048.56
805.30	1044.35
805.62	1055.82
805.94	1056.99
806.26	1068.45
806.58	1071.73
806.91	1081.33
807.23	1080.39
807.55	1078.99
807.87	1071.50
808.19	1070.09
808.52	1071.26
808.84	1079.22
809.16	1080.16
809.48	1094.43
809.80	1105.90
810.12	1096.78
810.44	1086.01
810.77	1089.29
811.09	1067.75
811.41	1062.84
811.73	1077.11
812.05	1073.37
812.37	1071.97
812.69	1081.09
813.01	1073.37
813.33	1065.41
813.66	1082.97
813.98	1083.67
814.30	1082.97
814.62	1089.29
814.94	1092.09
815.26	1082.97
815.58	1091.16
815.90	1097.01
816.22	1102.39
816.54	1094.43
816.86	1089.75
817.18	1076.41
817.50	1067.75
817.82	1055.35
818.14	1062.84
818.46	1070.09
818.78	1073.14
819.10	1071.73
819.42	1082.97
819.74	1091.16
820.06	1082.73
820.38	1089.99
820.70	1096.07
821.02	1080.16
821.34	1071.26
821.66	1082.73
821.98	1084.84
822.30	1081.09
822.62	1089.29
822.94	1104.03
823.26	1103.56
823.58	1097.95
823.90	1103.56
824.22	1099.12
824.54	1082.50
824.86	1085.54
825.18	1081.56
825.50	1075.01
825.81	1085.77
826.13	1089.99
826.45	1078.05
826.77	1080.39
827.09	1086.24
827.41	1089.29
827.73	1093.03
828.05	1104.50
828.36	1107.31
828.68	1103.80
829.00	1107.07
829.32	1105.90
829.64	1093.03
829.96	1093.97
830.28	1091.63
830.59	1086.71
830.91	1086.48
831.23	1091.63
831.55	1079.92
831.87	1084.37
832.19	1075.94
832.50	1061.43
832.82	1057.45
833.14	1058.16
833.46	1053.01
833.78	1064.24
834.09	1081.33
834.41	1090.46
834.73	1101.46
835.05	1104.73
835.36	1094.90
835.68	1089.05
836.00	1079.69
836.32	1078.99
836.63	1078.28
836.95	1085.77
837.27	1084.84
837.59	1090.46
837.90	1087.18
838.22	1081.80
838.54	1083.67
838.85	1085.77
839.17	1084.37
839.49	1091.86
839.80	1100.05
840.12	1094.43
840.44	1093.26
840.76	1097.71
841.07	1089.52
841.39	1082.50
841.71	1084.37
842.02	1089.52
842.34	1079.22
842.65	1074.31
842.97	1085.07
843.29	1084.37
843.60	1082.97
843.92	1085.07
844.24	1087.88
844.55	1079.22
844.87	1071.26
845.18	1064.71
845.50	1075.48
845.82	1075.94
846.13	1077.35
846.45	1077.58
846.76	1076.41
847.08	1074.77
847.40	1080.39
847.71	1074.54
848.03	1084.14
848.34	1085.07
848.66	1083.90
848.97	1076.41
849.29	1081.56
849.60	1078.99
849.92	1077.35
850.24	1071.03
850.55	1082.03
850.87	1089.52
851.18	1078.28
851.50	1077.35
851.81	1081.09
852.13	1074.77
852.44	1070.80
852.76	1082.03
853.07	1079.69
853.39	1075.48
853.70	1070.56
854.01	1065.18
854.33	1072.43
854.64	1081.09
854.96	1079.46
855.27	1080.16
855.59	1081.56
855.90	1073.14
856.22	1072.67
856.53	1077.35
856.84	1083.20
857.16	1082.26
857.47	1080.63
857.79	1078.99
858.10	1073.60
858.41	1068.92
858.73	1075.24
859.04	1079.22
859.36	1080.86
859.67	1091.63
859.98	1099.58
860.30	1099.82
860.61	1093.50
860.92	1095.60
861.24	1088.12
861.55	1086.94
861.87	1081.56
862.18	1079.69
862.49	1067.99
862.81	1069.16
863.12	1064.01
863.43	1059.79
863.74	1070.56
864.06	1079.69
864.37	1081.33
864.68	1075.71
865.00	1077.11
865.31	1078.28
865.62	1073.84
865.94	1074.31
866.25	1085.07
866.56	1091.16
866.87	1087.88
867.19	1089.52
867.50	1087.18
867.81	1078.75
868.12	1077.82
868.44	1083.20
868.75	1073.37
869.06	1070.80
869.37	1076.18
869.68	1082.26
870.00	1074.54
870.31	1085.07
870.62	1089.29
870.93	1083.67
871.24	1078.05
871.56	1081.80
871.87	1087.65
872.18	1087.88
872.49	1095.84
872.80	1088.12
873.12	1076.41
873.43	1070.56
873.74	1074.77
874.05	1071.03
874.36	1073.84
874.67	1074.54
874.98	1073.60
875.29	1067.52
875.61	1068.69
875.92	1071.73
876.23	1079.69
876.54	1078.28
876.85	1082.97
877.16	1085.07
877.47	1083.67
877.78	1079.92
878.09	1084.60
878.40	1088.35
878.72	1095.60
879.03	1092.56
879.34	1100.99
879.65	1102.39
879.96	1094.67
880.27	1085.31
880.58	1093.50
880.89	1081.80
881.20	1082.73
881.51	1078.75
881.82	1079.92
882.13	1072.20
882.44	1075.24
882.75	1062.84
883.06	1070.80
883.37	1061.90
883.68	1070.80
883.99	1071.73
884.30	1082.73
884.61	1073.37
884.92	1072.90
885.23	1061.90
885.54	1058.39
885.85	1055.82
886.16	1059.33
886.47	1066.35
886.78	1065.41
887.08	1065.88
887.39	1068.45
887.70	1076.18
888.01	1074.07
888.32	1085.54
888.63	1086.48
888.94	1073.84
889.25	1068.69
889.56	1073.37
889.87	1068.92
890.17	1068.22
890.48	1084.14
890.79	1083.90
891.10	1088.82
891.41	1090.69
891.72	1097.71
892.03	1097.95
892.34	1100.52
892.64	1093.73
892.95	1087.65
893.26	1084.37
893.57	1076.41
893.88	1076.41
894.18	1075.94
894.49	1087.18
894.80	1093.03
895.11	1089.75
895.42	1085.77
895.72	1081.80
896.03	1070.09
896.34	1058.62
896.65	1067.05
896.96	1077.35
897.26	1070.56
897.57	1067.52
897.88	1069.39
898.19	1060.50
898.49	1056.05
898.80	1071.03
899.11	1081.80
899.41	1080.16
899.72	1090.22
900.03	1094.20
900.34	1090.92
900.64	1098.88
900.95	1106.61
901.26	1104.73
901.56	1092.80
901.87	1083.90
902.18	1082.26
902.48	1081.09
902.79	1074.07
903.10	1078.75
903.40	1086.94
903.71	1087.18
904.02	1091.86
904.32	1093.50
904.63	1082.97
904.94	1086.01
905.24	1083.20
905.55	1075.01
905.85	1077.58
906.16	1091.86
906.47	1098.41
906.77	1097.24
907.08	1096.54
907.38	1097.24
907.69	1091.16
908.00	1088.35
908.30	1079.22
908.61	1083.20
908.91	1084.14
909.22	1089.05
909.52	1078.75
909.83	1084.37
910.14	1081.56
910.44	1077.35
910.75	1064.24
911.05	1064.48
911.36	1057.92
911.66	1057.69
911.97	1060.50
912.27	1067.75
912.58	1071.50
912.88	1075.01
913.19	1074.07
913.49	1075.24
913.80	1071.97
914.10	1076.88
914.41	1075.24
914.71	1075.94
915.01	1081.09
915.32	1090.69
915.62	1082.73
915.93	1082.26
916.23	1084.84
916.54	1078.05
916.84	1077.58
917.15	1084.37
917.45	1090.69
917.75	1089.29
918.06	1089.05
918.36	1088.12
918.67	1088.12
918.97	1079.22
919.27	1081.33
919.58	1076.41
919.88	1072.90
920.18	1064.94
920.49	1066.82
920.79	1066.58
921.10	1071.97
921.40	1067.28
921.70	1074.07
922.01	1075.71
922.31	1075.71
922.61	1077.58
922.92	1080.63
923.22	1078.75
923.52	1085.77
923.82	1082.73
924.13	1082.03
924.43	1082.97
924.73	1075.71
925.04	1073.60
925.34	1077.82
925.64	1082.73
925.94	1098.18
926.25	1106.14
926.55	1100.75
926.85	1097.24
927.15	1088.12
927.46	1069.62
927.76	1069.39
928.06	1071.50
928.36	1071.97
928.67	1073.60
928.97	1069.62
929.27	1075.71
929.57	1082.26
929.87	1097.01
930.18	1105.20
930.48	1119.95
930.78	1110.58
931.08	1102.63
931.38	1087.18
931.69	1083.67
931.99	1084.14
932.29	1085.31
932.59	1093.26
932.89	1088.58
933.19	1085.77
933.49	1076.65
933.80	1075.94
934.10	1073.84
934.40	1087.41
934.70	1086.24
935.00	1086.48
935.30	1086.48
935.60	1087.88
935.90	1089.29
936.20	1081.80
936.50	1075.48
936.81	1075.24
937.11	1074.31
937.41	1064.01
937.71	1074.31
938.01	1082.03
938.31	1083.20
938.61	1085.07
938.91	1084.84
939.21	1087.65
939.51	1089.29
939.81	1097.48
940.11	1091.39
940.41	1096.07
940.71	1093.50
941.01	1089.52
941.31	1079.92
941.61	1080.39
941.91	1084.60
942.21	1077.35
942.51	1082.50
942.81	1082.26
943.11	1086.48
943.41	1078.28
943.71	1071.50
944.01	1068.92
944.31	1064.71
944.61	1056.75
944.90	1054.88
945.20	1067.05
945.50	1069.39
945.80	1067.05
946.10	1076.65
946.40	1081.56
946.70	1086.71
947.00	1091.39
947.30	1102.86
947.60	1090.92
947.89	1089.29
948.19	1075.48
948.49	1069.86
948.79	1064.48
949.09	1072.20
949.39	1071.73
949.69	1073.60
949.98	1081.09
950.28	1082.73
950.58	1075.94
950.88	1080.63
951.18	1082.73
951.48	1081.09
951.77	1076.41
952.07	1078.99
952.37	1075.24
952.67	1081.56
952.97	1082.73
953.26	1088.35
953.56	1080.63
953.86	1076.65
954.16	1071.50
954.45	1067.99
954.75	1065.65
955.05	1077.35
955.35	1072.43
955.64	1071.73
955.94	1069.39
956.24	1068.45
956.54	1064.71
956.83	1071.50
957.13	1083.43
957.43	1078.75
957.72	1082.03
958.02	1086.48
958.32	1084.60
958.61	1081.80
958.91	1085.31
959.21	1086.48
959.50	1088.82
959.80	1085.77
960.10	1078.99
960.39	1068.92
960.69	1071.73
960.99	1071.50
961.28	1079.22
961.58	1086.94
961.87	1093.03
962.17	1085.31
962.47	1079.22
962.76	1077.82
963.06	1069.39
963.36	1062.37
963.65	1062.60
963.95	1063.07
964.24	1066.82
964.54	1071.50
964.83	1079.22
965.13	1082.97
965.42	1080.86
965.72	1082.03
966.02	1082.50
966.31	1086.24
966.61	1080.63
966.90	1080.16
967.20	1074.31
967.49	1071.97
967.79	1072.20
968.08	1077.35
968.38	1077.35
968.67	1086.24
968.97	1092.56
969.26	1089.75
969.56	1090.22
969.85	1094.90
970.15	1083.43
970.44	1075.71
970.74	1080.39
971.03	1078.05
971.32	1076.65
971.62	1078.52
971.91	1077.35
972.21	1074.77
972.50	1077.58
972.80	1084.60
973.09	1096.54
973.38	1091.39
973.68	1093.97
973.97	1087.18
974.27	1084.14
974.56	1072.43
974.85	1073.14
975.15	1069.39
975.44	1079.69
975.73	1082.03
976.03	1091.86
976.32	1097.01
976.61	1097.95
976.91	1092.80
977.20	1089.05
977.49	1072.90
977.79	1078.75
978.08	1081.33
978.37	1078.99
978.67	1071.26
978.96	1075.94
979.25	1064.94
979.55	1052.77
979.84	1057.22
980.13	1057.69
980.42	1057.92
980.72	1070.56
981.01	1065.88
981.30	1057.69
981.59	1053.71
981.89	1056.05
982.18	1051.13
982.47	1076.41
982.76	1082.73
983.06	1090.46
983.35	1094.67
983.64	1095.60
983.93	1083.43
984.22	1070.80
984.52	1073.14
984.81	1066.11
985.10	1066.11
985.39	1063.77
985.68	1070.80
985.97	1065.65
986.27	1078.99
986.56	1075.94
986.85	1083.43
987.14	1095.60
987.43	1114.56
987.72	1099.12
988.01	1081.80
988.31	1076.41
988.60	1073.60
988.89	1052.54
989.18	1061.43
989.47	1087.88
989.76	1086.48
990.05	1088.12
990.34	1098.41
990.63	1085.54
990.92	1065.18
991.21	1068.22
991.51	1057.92
991.80	1048.56
992.09	1050.43
992.38	1056.52
992.67	1055.11
992.96	1059.09
993.25	1062.14
993.54	1069.62
993.83	1080.63
994.12	1074.54
994.41	1074.77
994.70	1075.94
994.99	1078.52
995.28	1069.39
995.57	1078.28
995.86	1077.82
996.15	1084.14
996.44	1077.82
996.73	1088.35
997.02	1078.99
997.31	1082.26
997.59	1078.52
997.88	1088.35
998.17	1084.60
998.46	1098.88
998.75	1100.52
999.04	1094.20
999.33	1083.90
999.62	1077.82
999.91	1066.58
1000.20	1058.16
1000.49	1064.71
1000.77	1071.50
1001.06	1078.99
1001.35	1086.01
1001.64	1093.03
1001.93	1089.29
1002.22	1093.03
1002.51	1092.80
1002.79	1096.31
1003.08	1095.60
1003.37	1098.18
1003.66	1089.29
1003.95	1083.20
1004.23	1082.03
1004.52	1081.09
1004.81	1080.16
1005.10	1075.24
1005.39	1074.31
1005.67	1070.33
1005.96	1053.94
1006.25	1054.18
1006.54	1051.60
1006.83	1056.28
1007.11	1053.01
1007.40	1064.71
1007.69	1059.56
1007.97	1066.58
1008.26	1066.82
1008.55	1078.05
1008.84	1088.58
1009.12	1100.99
1009.41	1106.84
1009.70	1100.75
1009.98	1096.31
1010.27	1089.99
1010.56	1080.39
1010.85	1089.29
1011.13	1096.07
1011.42	1091.86
1011.71	1089.29
1011.99	1092.33
1012.28	1088.12
1012.56	1080.63
1012.85	1073.14
1013.14	1075.01
1013.42	1070.33
1013.71	1078.52
1014.00	1083.43
1014.28	1090.92
1014.57	1087.18
1014.85	1084.14
1015.14	1077.58
1015.43	1080.16
1015.71	1073.37
1016.00	1082.50
1016.28	1089.05
1016.57	1080.39
1016.85	1075.94
1017.14	1081.33
1017.43	1078.52
1017.71	1080.16
1018.00	1078.99
1018.28	1079.46
1018.57	1090.92
1018.85	1098.88
1019.14	1098.88
1019.42	1109.88
1019.71	1108.95
1019.99	1093.50
1020.28	1083.67
1020.56	1075.48
1020.85	1058.62
1021.13	1059.09
1021.42	1065.65
1021.70	1070.80
1021.99	1069.16
1022.27	1071.97
1022.55	1035.69
1022.84	1061.43
>>>>>End Processed Spectral Data<<<<<
