SpectraSuite Data File
++++++++++++++++++++++++++++++++++++
Date: Mon Aug 26 10:24:49 PDT 2019
User: corrico
Dark Spectrum Present: No
Reference Spectrum Present: No
Number of Sampled Component Spectra: 1
Spectrometers: USB2+H06089
Integration Time (usec): 10000 (USB2+H06089)
Spectra Averaged: 2 (USB2+H06089)
Boxcar Smoothing: 2 (USB2+H06089)
Correct for Electrical Dark: No (USB2+H06089)
Strobe/Lamp Enabled: No (USB2+H06089)
Correct for Detector Non-linearity: No (USB2+H06089)
Correct for Stray Light: No (USB2+H06089)
Number of Pixels in Processed Spectrum: 2048
>>>>>Begin Processed Spectral Data<<<<<
339.70	1022.81
340.07	1022.81
340.45	994.96
340.82	975.54
341.19	957.98
341.57	940.19
341.94	924.28
342.31	928.96
342.69	926.85
343.06	918.43
343.43	910.94
343.81	907.43
344.18	892.21
344.55	891.74
344.93	887.53
345.30	902.04
345.67	914.92
346.04	940.90
346.42	957.28
346.79	974.60
347.16	971.09
347.54	974.13
347.91	979.51
348.28	970.39
348.65	994.26
349.03	1013.22
349.40	1027.03
349.77	1030.30
350.14	1053.24
350.52	1046.69
350.89	1050.43
351.26	1051.37
351.63	1067.99
352.01	1065.41
352.38	1074.07
352.75	1077.11
353.12	1081.33
353.50	1069.62
353.87	1074.07
354.24	1066.11
354.61	1067.75
354.98	1073.60
355.36	1072.43
355.73	1071.73
356.10	1073.37
356.47	1074.31
356.84	1070.80
357.22	1080.86
357.59	1093.26
357.96	1102.16
358.33	1098.41
358.70	1100.29
359.08	1095.60
359.45	1080.86
359.82	1078.05
360.19	1082.97
360.56	1092.80
360.94	1091.86
361.31	1093.73
361.68	1090.92
362.05	1089.29
362.42	1077.58
362.79	1084.60
363.16	1084.60
363.54	1088.12
363.91	1082.26
364.28	1083.20
364.65	1088.35
365.02	1095.60
365.39	1092.56
365.76	1102.63
366.14	1103.33
366.51	1090.92
366.88	1087.18
367.25	1089.52
367.62	1077.35
367.99	1080.16
368.36	1079.46
368.73	1073.60
369.10	1066.11
369.48	1074.54
369.85	1060.50
370.22	1066.82
370.59	1075.94
370.96	1084.84
371.33	1076.18
371.70	1082.97
372.07	1084.60
372.44	1077.58
372.81	1072.67
373.18	1086.94
373.55	1090.69
373.93	1093.97
374.30	1105.20
374.67	1108.71
375.04	1101.46
375.41	1098.18
375.78	1092.80
376.15	1088.82
376.52	1077.35
376.89	1069.62
377.26	1075.48
377.63	1072.20
378.00	1065.65
378.37	1075.48
378.74	1084.84
379.11	1084.60
379.48	1095.37
379.85	1103.80
380.22	1105.67
380.59	1108.24
380.96	1106.14
381.33	1100.29
381.70	1092.80
382.07	1103.56
382.44	1098.65
382.81	1097.95
383.18	1107.78
383.55	1108.71
383.92	1094.20
384.29	1102.39
384.66	1104.03
385.03	1098.65
385.40	1108.24
385.77	1111.75
386.14	1104.73
386.51	1103.09
386.88	1095.60
387.25	1087.18
387.62	1092.09
387.99	1089.29
388.36	1092.33
388.73	1094.43
389.10	1103.33
389.46	1105.90
389.83	1119.95
390.20	1119.48
390.57	1119.48
390.94	1115.73
391.31	1114.09
391.68	1108.95
392.05	1106.14
392.42	1107.07
392.79	1111.75
393.16	1110.35
393.53	1107.54
393.89	1125.80
394.26	1129.07
394.63	1119.48
395.00	1115.27
395.37	1130.71
395.74	1117.84
396.11	1118.07
396.48	1122.05
396.84	1128.61
397.21	1113.39
397.58	1120.88
397.95	1118.78
398.32	1119.95
398.69	1118.78
399.06	1121.82
399.42	1109.88
399.79	1118.78
400.16	1120.88
400.53	1127.44
400.90	1137.73
401.27	1142.18
401.64	1149.67
402.00	1165.59
402.37	1172.84
402.74	1177.29
403.11	1194.61
403.48	1195.78
403.84	1198.59
404.21	1207.01
404.58	1210.53
404.95	1215.44
405.32	1224.80
405.68	1232.53
406.05	1237.44
406.42	1249.61
406.79	1268.10
407.16	1269.04
407.52	1279.80
407.89	1300.64
408.26	1322.17
408.63	1339.72
408.99	1377.41
409.36	1401.75
409.73	1415.79
410.10	1432.41
410.47	1450.90
410.83	1469.62
411.20	1509.41
411.57	1554.12
411.94	1599.99
412.30	1642.12
412.67	1689.40
413.04	1728.95
413.40	1778.34
413.77	1828.19
414.14	1886.24
414.51	1952.24
414.87	2025.97
415.24	2108.12
415.61	2187.23
415.97	2274.53
416.34	2359.73
416.71	2460.14
417.08	2548.84
417.44	2653.47
417.81	2773.07
418.18	2895.71
418.54	3027.01
418.91	3157.38
419.28	3312.56
419.64	3458.84
420.01	3635.32
420.38	3778.56
420.74	3963.00
421.11	4150.94
421.48	4361.12
421.84	4546.02
422.21	4771.42
422.58	5013.43
422.94	5267.38
423.31	5537.01
423.68	5826.30
424.04	6133.14
424.41	6430.39
424.77	6706.57
425.14	7007.33
425.51	7316.51
425.87	7678.60
426.24	8012.82
426.61	8432.72
426.97	8909.48
427.34	9364.72
427.70	9845.93
428.07	10384.96
428.44	10907.36
428.80	11388.58
429.17	11949.37
429.53	12476.46
429.90	13103.72
430.27	13640.41
430.63	14207.75
431.00	14845.55
431.36	15590.78
431.73	16185.51
432.09	16877.84
432.46	17607.15
432.83	18229.26
433.19	18728.73
433.56	19389.00
433.92	20030.07
434.29	20618.48
434.65	21321.34
435.02	21986.06
435.38	22629.70
435.75	23169.20
436.11	23821.50
436.48	24269.48
436.84	24765.91
437.21	25208.97
437.57	25714.30
437.94	26131.38
438.30	26568.36
438.67	26846.41
439.03	26984.04
439.40	27100.36
439.76	26974.44
440.13	26868.88
440.49	26811.30
440.86	26646.53
441.22	26392.11
441.59	26101.19
441.95	25694.64
442.32	25177.38
442.68	24708.80
443.05	24215.88
443.41	23723.20
443.78	23204.77
444.14	22734.79
444.51	22168.62
444.87	21733.98
445.24	21229.83
445.60	20761.02
445.96	20158.57
446.33	19683.91
446.69	19057.34
447.06	18569.11
447.42	18014.40
447.79	17550.27
448.15	17131.32
448.51	16649.17
448.88	16227.17
449.24	15775.91
449.61	15450.34
449.97	15044.26
450.33	14698.10
450.70	14264.63
451.06	13919.63
451.43	13450.82
451.79	13104.19
452.15	12746.56
452.52	12447.20
452.88	12197.70
453.24	11945.63
453.61	11661.25
453.97	11407.54
454.34	11093.20
454.70	10808.83
455.06	10560.97
455.43	10225.57
455.79	9840.78
456.15	9569.98
456.52	9215.86
456.88	8955.83
457.24	8689.00
457.61	8497.31
457.97	8257.18
458.33	8041.85
458.70	7741.79
459.06	7469.59
459.42	7245.83
459.79	6990.24
460.15	6778.19
460.51	6586.50
460.88	6392.71
461.24	6202.19
461.60	6020.79
461.96	5829.34
462.33	5636.95
462.69	5468.66
463.05	5292.19
463.42	5125.54
463.78	4983.94
464.14	4866.44
464.50	4773.29
464.87	4668.20
465.23	4587.45
465.59	4500.62
465.95	4403.95
466.32	4293.24
466.68	4207.58
467.04	4103.66
467.40	3996.46
467.77	3921.80
468.13	3860.71
468.49	3768.03
468.85	3712.79
469.22	3661.30
469.58	3575.40
469.94	3505.42
470.30	3447.14
470.66	3367.56
471.03	3303.20
471.39	3260.13
471.75	3193.90
472.11	3131.64
472.47	3072.89
472.84	3029.59
473.20	2965.69
473.56	2922.39
473.92	2866.92
474.28	2828.30
474.65	2750.36
475.01	2711.51
475.37	2643.64
475.73	2625.85
476.09	2587.46
476.45	2548.14
476.81	2501.80
477.18	2475.58
477.54	2425.03
477.90	2392.26
478.26	2363.94
478.62	2342.41
478.98	2316.90
479.34	2295.36
479.71	2254.87
480.07	2241.06
480.43	2208.53
480.79	2174.59
481.15	2146.97
481.51	2124.97
481.87	2099.69
482.23	2064.82
482.59	2052.18
482.96	2023.63
483.32	1998.12
483.68	1963.94
484.04	1952.24
484.40	1936.09
484.76	1919.01
485.12	1904.96
485.48	1882.73
485.84	1860.26
486.20	1832.17
486.56	1804.55
486.92	1786.53
487.28	1787.94
487.64	1781.15
488.00	1760.55
488.37	1759.85
488.73	1750.02
489.09	1719.12
489.45	1704.38
489.81	1693.38
490.17	1673.95
490.53	1657.80
490.89	1636.27
491.25	1613.10
491.61	1592.97
491.97	1567.92
492.33	1549.20
492.69	1543.58
493.05	1535.86
493.41	1525.33
493.77	1505.67
494.13	1492.09
494.49	1493.26
494.85	1480.86
495.21	1465.88
495.57	1472.43
495.93	1456.75
496.29	1436.15
496.64	1423.98
497.00	1414.62
497.36	1391.21
497.72	1375.53
498.08	1367.81
498.44	1355.17
498.80	1348.62
499.16	1351.66
499.52	1357.98
499.88	1343.00
500.24	1347.21
500.60	1344.64
500.96	1329.89
501.32	1328.96
501.68	1328.96
502.03	1309.53
502.39	1301.34
502.75	1294.78
503.11	1274.66
503.47	1266.93
503.83	1271.38
504.19	1259.68
504.55	1265.76
504.91	1257.80
505.26	1256.87
505.62	1247.97
505.98	1252.42
506.34	1232.99
506.70	1247.51
507.06	1240.72
507.42	1229.72
507.78	1220.12
508.13	1207.01
508.49	1188.76
508.85	1189.93
509.21	1185.01
509.57	1190.16
509.93	1204.44
510.28	1210.76
510.64	1207.25
511.00	1209.59
511.36	1203.97
511.72	1207.01
512.07	1207.72
512.43	1206.78
512.79	1199.29
513.15	1191.80
513.51	1188.29
513.86	1180.10
514.22	1174.48
514.58	1189.46
514.94	1188.29
515.30	1186.65
515.65	1183.37
516.01	1179.16
516.37	1158.80
516.73	1166.52
517.08	1149.44
517.44	1146.86
517.80	1148.50
518.16	1154.35
518.51	1151.78
518.87	1164.88
519.23	1165.12
519.59	1154.59
519.94	1154.12
520.30	1146.86
520.66	1146.63
521.01	1142.88
521.37	1147.33
521.73	1152.01
522.09	1149.67
522.44	1143.82
522.80	1154.12
523.16	1153.18
523.51	1143.12
523.87	1144.76
524.23	1152.95
524.58	1149.20
524.94	1141.48
525.30	1137.27
525.65	1134.69
526.01	1117.14
526.37	1106.61
526.72	1116.67
527.08	1119.48
527.44	1114.56
527.79	1122.75
528.15	1130.24
528.51	1124.63
528.86	1121.82
529.22	1122.99
529.58	1111.29
529.93	1109.88
530.29	1110.82
530.65	1116.90
531.00	1116.20
531.36	1135.86
531.71	1133.52
532.07	1132.59
532.43	1133.05
532.78	1132.35
533.14	1119.95
533.49	1116.67
533.85	1117.14
534.21	1111.29
534.56	1118.54
534.92	1115.27
535.27	1113.16
535.63	1116.20
535.98	1106.37
536.34	1101.46
536.69	1107.78
537.05	1109.88
537.41	1109.41
537.76	1124.16
538.12	1119.48
538.47	1105.67
538.83	1100.75
539.18	1095.84
539.54	1094.43
539.89	1092.33
540.25	1094.43
540.60	1105.20
540.96	1104.03
541.31	1094.20
541.67	1097.01
542.02	1096.07
542.38	1090.46
542.73	1095.14
543.09	1097.24
543.44	1105.44
543.80	1119.01
544.15	1118.54
544.51	1104.26
544.86	1114.56
545.22	1106.37
545.57	1099.35
545.93	1106.14
546.28	1116.20
546.64	1102.63
546.99	1106.14
547.35	1107.54
547.70	1102.86
548.05	1104.50
548.41	1113.39
548.76	1107.78
549.12	1108.24
549.47	1103.33
549.83	1100.29
550.18	1104.97
550.53	1102.63
550.89	1098.88
551.24	1094.43
551.60	1099.35
551.95	1096.54
552.30	1100.29
552.66	1109.65
553.01	1113.16
553.37	1104.97
553.72	1099.58
554.07	1100.52
554.43	1087.65
554.78	1081.33
555.13	1086.24
555.49	1093.97
555.84	1090.46
556.19	1092.33
556.55	1105.20
556.90	1098.88
557.26	1083.90
557.61	1083.67
557.96	1083.67
558.32	1078.28
558.67	1090.92
559.02	1088.35
559.37	1090.92
559.73	1091.86
560.08	1093.73
560.43	1095.84
560.79	1106.37
561.14	1114.33
561.49	1117.37
561.85	1100.52
562.20	1082.03
562.55	1086.94
562.90	1080.16
563.26	1078.99
563.61	1093.97
563.96	1102.39
564.32	1098.41
564.67	1093.26
565.02	1090.92
565.37	1088.12
565.73	1078.28
566.08	1081.33
566.43	1084.84
566.78	1088.35
567.14	1093.26
567.49	1098.88
567.84	1108.01
568.19	1112.92
568.54	1113.16
568.90	1106.37
569.25	1101.22
569.60	1087.41
569.95	1077.11
570.31	1076.41
570.66	1091.63
571.01	1100.75
571.36	1099.35
571.71	1103.80
572.06	1099.82
572.42	1087.18
572.77	1090.92
573.12	1093.97
573.47	1082.26
573.82	1091.39
574.18	1093.73
574.53	1092.56
574.88	1093.50
575.23	1107.78
575.58	1103.09
575.93	1112.22
576.28	1118.07
576.64	1108.48
576.99	1107.31
577.34	1100.52
577.69	1090.22
578.04	1080.16
578.39	1086.71
578.74	1080.63
579.09	1082.97
579.44	1084.14
579.80	1088.12
580.15	1087.65
580.50	1091.39
580.85	1095.37
581.20	1092.56
581.55	1095.14
581.90	1092.56
582.25	1099.82
582.60	1090.92
582.95	1095.60
583.30	1091.39
583.65	1101.92
584.00	1097.01
584.35	1100.05
584.71	1098.41
585.06	1105.44
585.41	1094.43
585.76	1095.37
586.11	1109.41
586.46	1119.71
586.81	1121.35
587.16	1127.67
587.51	1125.33
587.86	1114.56
588.21	1089.75
588.56	1082.26
588.91	1078.28
589.26	1072.43
589.61	1076.88
589.96	1089.99
590.31	1090.69
590.66	1091.39
591.01	1107.07
591.36	1100.75
591.71	1091.86
592.06	1089.75
592.41	1090.69
592.76	1084.37
593.10	1086.01
593.45	1092.80
593.80	1093.73
594.15	1090.69
594.50	1097.24
594.85	1097.01
595.20	1096.31
595.55	1088.12
595.90	1091.86
596.25	1086.48
596.60	1089.29
596.95	1091.86
597.30	1098.65
597.64	1148.97
597.99	1148.50
598.34	1139.14
598.69	1143.82
599.04	1135.39
599.39	1086.71
599.74	1078.52
600.09	1084.60
600.44	1088.58
600.78	1092.09
601.13	1098.88
601.48	1097.71
601.83	1100.75
602.18	1094.20
602.53	1101.92
602.88	1090.22
603.22	1100.99
603.57	1103.09
603.92	1101.69
604.27	1099.35
604.62	1116.44
604.97	1107.07
605.31	1109.65
605.66	1105.90
606.01	1107.54
606.36	1091.39
606.71	1090.46
607.05	1080.16
607.40	1081.80
607.75	1088.35
608.10	1087.41
608.44	1097.01
608.79	1098.18
609.14	1096.31
609.49	1090.69
609.84	1103.56
610.18	1110.82
610.53	1115.03
610.88	1115.50
611.23	1113.86
611.57	1103.09
611.92	1088.82
612.27	1093.03
612.62	1094.43
612.96	1095.37
613.31	1094.43
613.66	1094.90
614.00	1090.22
614.35	1091.86
614.70	1101.22
615.05	1104.50
615.39	1107.78
615.74	1109.41
616.09	1102.39
616.43	1084.60
616.78	1075.94
617.13	1077.11
617.47	1079.92
617.82	1073.14
618.17	1079.92
618.51	1092.80
618.86	1080.39
619.21	1068.45
619.55	1077.82
619.90	1085.07
620.25	1084.84
620.59	1102.16
620.94	1109.65
621.29	1110.12
621.63	1113.39
621.98	1095.84
622.32	1079.69
622.67	1079.92
623.02	1093.73
623.36	1081.09
623.71	1092.33
624.05	1102.16
624.40	1104.26
624.75	1087.65
625.09	1083.20
625.44	1079.46
625.78	1078.75
626.13	1086.94
626.48	1089.75
626.82	1100.99
627.17	1105.44
627.51	1105.44
627.86	1099.58
628.20	1095.84
628.55	1092.33
628.89	1090.92
629.24	1091.63
629.58	1092.56
629.93	1097.01
630.28	1093.26
630.62	1095.60
630.97	1088.58
631.31	1082.73
631.66	1079.46
632.00	1069.16
632.35	1057.92
632.69	1063.54
633.04	1062.37
633.38	1067.52
633.73	1066.82
634.07	1071.26
634.42	1074.31
634.76	1074.77
635.11	1080.16
635.45	1100.99
635.79	1105.20
636.14	1096.07
636.48	1090.92
636.83	1088.58
637.17	1078.28
637.52	1078.52
637.86	1081.33
638.21	1090.69
638.55	1093.97
638.89	1104.03
639.24	1105.44
639.58	1112.22
639.93	1108.24
640.27	1105.20
640.61	1099.82
640.96	1097.24
641.30	1098.41
641.65	1092.09
641.99	1091.63
642.33	1092.80
642.68	1083.90
643.02	1083.43
643.37	1083.90
643.71	1082.03
644.05	1079.22
644.40	1089.75
644.74	1094.67
645.08	1098.41
645.43	1096.07
645.77	1104.97
646.11	1103.33
646.46	1094.90
646.80	1097.24
647.14	1100.52
647.49	1089.99
647.83	1084.37
648.17	1084.14
648.52	1073.84
648.86	1069.39
649.20	1078.99
649.55	1078.75
649.89	1075.01
650.23	1078.28
650.57	1077.58
650.92	1066.82
651.26	1077.11
651.60	1075.71
651.95	1079.22
652.29	1075.24
652.63	1076.88
652.97	1077.35
653.32	1079.69
653.66	1087.88
654.00	1096.78
654.34	1095.60
654.69	1093.26
655.03	1101.92
655.37	1095.14
655.71	1093.97
656.05	1097.95
656.40	1093.73
656.74	1086.71
657.08	1087.65
657.42	1079.22
657.76	1080.63
658.11	1087.65
658.45	1084.14
658.79	1083.20
659.13	1094.43
659.47	1093.73
659.82	1082.73
660.16	1074.31
660.50	1074.77
660.84	1058.86
661.18	1048.56
661.52	1059.09
661.87	1074.07
662.21	1072.20
662.55	1087.41
662.89	1093.73
663.23	1081.56
663.57	1079.92
663.91	1073.60
664.25	1062.60
664.60	1056.05
664.94	1070.80
665.28	1073.14
665.62	1083.67
665.96	1087.41
666.30	1097.01
666.64	1089.29
666.98	1078.52
667.32	1072.90
667.66	1074.07
668.01	1071.73
668.35	1065.41
668.69	1075.71
669.03	1073.14
669.37	1078.28
669.71	1075.01
670.05	1075.94
670.39	1075.48
670.73	1077.82
671.07	1078.99
671.41	1078.99
671.75	1089.75
672.09	1083.20
672.43	1081.33
672.77	1078.75
673.11	1078.75
673.45	1075.94
673.79	1080.39
674.13	1088.82
674.47	1093.26
674.81	1090.22
675.15	1086.48
675.49	1088.82
675.83	1092.56
676.17	1091.63
676.51	1098.18
676.85	1099.58
677.19	1093.97
677.53	1095.60
677.87	1096.31
678.21	1097.48
678.55	1111.29
678.89	1123.46
679.23	1131.88
679.57	1138.67
679.90	1132.59
680.24	1118.54
680.58	1094.90
680.92	1083.67
681.26	1074.54
681.60	1077.35
681.94	1077.82
682.28	1094.90
682.62	1084.37
682.96	1076.18
683.29	1071.03
683.63	1068.92
683.97	1062.60
684.31	1067.28
684.65	1073.14
684.99	1075.71
685.33	1067.75
685.67	1068.69
686.00	1065.88
686.34	1061.43
686.68	1060.26
687.02	1068.69
687.36	1078.75
687.70	1085.31
688.03	1087.18
688.37	1093.03
688.71	1094.90
689.05	1094.67
689.39	1090.92
689.72	1098.41
690.06	1093.03
690.40	1088.58
690.74	1068.22
691.08	1064.71
691.41	1058.86
691.75	1062.60
692.09	1064.71
692.43	1078.99
692.76	1080.16
693.10	1081.56
693.44	1073.37
693.78	1080.86
694.11	1079.22
694.45	1085.07
694.79	1083.67
695.13	1092.33
695.46	1091.86
695.80	1082.97
696.14	1076.41
696.48	1075.94
696.81	1071.97
697.15	1065.65
697.49	1074.31
697.82	1075.71
698.16	1077.35
698.50	1072.20
698.83	1069.62
699.17	1062.60
699.51	1071.50
699.84	1075.24
700.18	1067.28
700.52	1076.88
700.85	1088.58
701.19	1079.92
701.53	1078.52
701.86	1089.05
702.20	1092.80
702.54	1084.37
702.87	1077.35
703.21	1080.16
703.55	1090.69
703.88	1088.12
704.22	1088.35
704.55	1094.20
704.89	1087.88
705.23	1082.97
705.56	1078.05
705.90	1079.92
706.23	1084.60
706.57	1085.31
706.91	1084.14
707.24	1080.39
707.58	1079.46
707.91	1072.43
708.25	1063.54
708.58	1064.48
708.92	1066.35
709.26	1075.48
709.59	1084.14
709.93	1087.65
710.26	1093.50
710.60	1087.18
710.93	1077.11
711.27	1066.82
711.60	1064.71
711.94	1060.96
712.27	1074.77
712.61	1080.39
712.94	1100.05
713.28	1105.67
713.61	1108.01
713.95	1095.37
714.28	1094.43
714.62	1092.80
714.95	1104.97
715.29	1112.92
715.62	1121.12
715.96	1119.95
716.29	1111.05
716.63	1104.03
716.96	1088.58
717.29	1086.71
717.63	1087.18
717.96	1080.63
718.30	1076.65
718.63	1077.82
718.97	1077.58
719.30	1069.86
719.63	1064.48
719.97	1059.56
720.30	1062.60
720.64	1058.62
720.97	1058.62
721.30	1064.24
721.64	1069.62
721.97	1062.84
722.31	1064.24
722.64	1063.07
722.97	1073.37
723.31	1068.92
723.64	1066.58
723.97	1057.92
724.31	1060.26
724.64	1052.07
724.98	1048.33
725.31	1058.16
725.64	1071.26
725.98	1075.48
726.31	1077.11
726.64	1084.84
726.97	1076.88
727.31	1077.82
727.64	1079.69
727.97	1090.69
728.31	1087.18
728.64	1095.60
728.97	1096.07
729.31	1093.50
729.64	1086.01
729.97	1090.46
730.30	1082.97
730.64	1085.77
730.97	1094.90
731.30	1095.14
731.63	1086.48
731.97	1093.50
732.30	1085.07
732.63	1079.92
732.96	1084.14
733.30	1089.99
733.63	1082.73
733.96	1089.75
734.29	1080.86
734.63	1076.88
734.96	1075.71
735.29	1081.33
735.62	1072.90
735.95	1090.69
736.29	1079.92
736.62	1082.03
736.95	1088.12
737.28	1091.16
737.61	1076.41
737.94	1082.26
738.28	1085.77
738.61	1088.12
738.94	1078.52
739.27	1073.14
739.60	1079.46
739.93	1072.20
740.27	1055.82
740.60	1056.75
740.93	1071.97
741.26	1076.18
741.59	1080.63
741.92	1094.20
742.25	1096.31
742.58	1085.31
742.91	1064.24
743.25	1061.43
743.58	1055.11
743.91	1058.86
744.24	1061.67
744.57	1073.84
744.90	1081.33
745.23	1084.37
745.56	1082.26
745.89	1076.65
746.22	1070.80
746.55	1065.41
746.88	1059.79
747.21	1058.86
747.54	1057.92
747.87	1066.35
748.20	1066.35
748.53	1070.56
748.87	1075.48
749.20	1078.52
749.53	1070.09
749.86	1067.75
750.19	1066.11
750.52	1063.31
750.85	1069.16
751.18	1060.73
751.51	1070.33
751.84	1071.97
752.16	1075.24
752.49	1075.48
752.82	1086.71
753.15	1084.37
753.48	1075.94
753.81	1079.92
754.14	1093.03
754.47	1088.35
754.80	1079.69
755.13	1084.60
755.46	1081.09
755.79	1063.77
756.12	1067.05
756.45	1074.54
756.78	1078.28
757.11	1073.14
757.43	1068.69
757.76	1073.84
758.09	1069.16
758.42	1071.97
758.75	1077.58
759.08	1081.33
759.41	1081.09
759.74	1085.54
760.07	1084.37
760.39	1087.18
760.72	1092.56
761.05	1087.65
761.38	1090.69
761.71	1099.35
762.04	1096.31
762.36	1102.63
762.69	1106.37
763.02	1096.07
763.35	1082.97
763.68	1078.05
764.01	1075.48
764.33	1073.60
764.66	1082.26
764.99	1083.43
765.32	1087.65
765.65	1078.75
765.97	1089.99
766.30	1094.20
766.63	1102.63
766.96	1102.39
767.28	1108.48
767.61	1104.97
767.94	1090.92
768.27	1089.75
768.59	1091.86
768.92	1086.94
769.25	1088.35
769.58	1089.52
769.90	1083.67
770.23	1076.65
770.56	1086.94
770.89	1079.46
771.21	1079.46
771.54	1077.82
771.87	1075.71
772.19	1066.58
772.52	1062.60
772.85	1067.05
773.17	1070.09
773.50	1073.60
773.83	1075.48
774.15	1074.54
774.48	1077.35
774.81	1078.75
775.13	1084.84
775.46	1086.94
775.79	1096.54
776.11	1094.90
776.44	1094.20
776.77	1093.50
777.09	1091.63
777.42	1088.12
777.74	1088.35
778.07	1086.01
778.40	1074.54
778.72	1075.71
779.05	1076.41
779.37	1069.86
779.70	1070.33
780.03	1077.35
780.35	1082.26
780.68	1082.03
781.00	1083.67
781.33	1070.33
781.65	1074.31
781.98	1066.58
782.31	1065.41
782.63	1064.71
782.96	1079.69
783.28	1078.05
783.61	1082.03
783.93	1090.92
784.26	1101.22
784.58	1094.90
784.91	1082.73
785.23	1074.31
785.56	1067.75
785.88	1067.05
786.21	1067.52
786.53	1082.73
786.86	1098.65
787.18	1087.65
787.51	1087.88
787.83	1095.37
788.16	1087.88
788.48	1080.63
788.81	1092.56
789.13	1098.41
789.46	1094.43
789.78	1097.71
790.10	1099.12
790.43	1100.05
790.75	1090.69
791.08	1087.88
791.40	1088.58
791.73	1086.94
792.05	1087.88
792.37	1079.92
792.70	1086.94
793.02	1086.71
793.35	1084.60
793.67	1076.18
793.99	1085.77
794.32	1086.71
794.64	1086.94
794.96	1091.39
795.29	1091.39
795.61	1083.67
795.93	1082.50
796.26	1076.88
796.58	1078.28
796.91	1077.35
797.23	1084.14
797.55	1079.92
797.87	1089.05
798.20	1078.99
798.52	1084.37
798.84	1084.84
799.17	1087.88
799.49	1082.50
799.81	1088.12
800.14	1071.73
800.46	1060.03
800.78	1064.94
801.10	1070.80
801.43	1056.75
801.75	1062.37
802.07	1072.43
802.40	1065.18
802.72	1057.22
803.04	1067.99
803.36	1074.07
803.69	1078.99
804.01	1077.58
804.33	1081.80
804.65	1083.43
804.97	1093.73
805.30	1085.54
805.62	1084.37
805.94	1089.29
806.26	1086.24
806.58	1076.41
806.91	1087.88
807.23	1086.48
807.55	1086.01
807.87	1096.07
808.19	1111.75
808.52	1104.73
808.84	1106.14
809.16	1103.09
809.48	1092.56
809.80	1084.60
810.12	1079.46
810.44	1086.48
810.77	1094.67
811.09	1093.73
811.41	1083.43
811.73	1080.16
812.05	1078.28
812.37	1068.69
812.69	1073.84
813.01	1077.35
813.33	1080.63
813.66	1077.11
813.98	1080.39
814.30	1079.46
814.62	1078.75
814.94	1087.65
815.26	1088.35
815.58	1089.52
815.90	1080.63
816.22	1084.14
816.54	1077.82
816.86	1072.67
817.18	1075.48
817.50	1071.73
817.82	1079.92
818.14	1069.39
818.46	1073.37
818.78	1065.41
819.10	1073.37
819.42	1061.20
819.74	1067.28
820.06	1071.73
820.38	1075.01
820.70	1084.60
821.02	1090.69
821.34	1088.58
821.66	1077.82
821.98	1073.37
822.30	1068.69
822.62	1069.62
822.94	1073.14
823.26	1075.71
823.58	1078.28
823.90	1070.80
824.22	1068.69
824.54	1075.01
824.86	1077.35
825.18	1067.28
825.50	1074.77
825.81	1076.88
826.13	1071.50
826.45	1073.60
826.77	1076.65
827.09	1068.92
827.41	1069.86
827.73	1070.09
828.05	1067.52
828.36	1076.18
828.68	1073.84
829.00	1071.73
829.32	1072.20
829.64	1082.03
829.96	1074.07
830.28	1071.97
830.59	1069.39
830.91	1064.94
831.23	1054.41
831.55	1057.92
831.87	1070.09
832.19	1068.45
832.50	1071.50
832.82	1067.05
833.14	1070.56
833.46	1074.07
833.78	1077.82
834.09	1069.86
834.41	1082.03
834.73	1089.99
835.05	1082.26
835.36	1079.22
835.68	1083.67
836.00	1074.77
836.32	1063.77
836.63	1062.37
836.95	1067.28
837.27	1063.07
837.59	1057.45
837.90	1054.88
838.22	1056.99
838.54	1046.22
838.85	1054.41
839.17	1063.07
839.49	1064.94
839.80	1067.28
840.12	1070.56
840.44	1060.96
840.76	1064.71
841.07	1064.01
841.39	1054.65
841.71	1052.30
842.02	1059.09
842.34	1060.96
842.65	1063.07
842.97	1070.80
843.29	1079.69
843.60	1078.05
843.92	1074.77
844.24	1076.41
844.55	1082.03
844.87	1074.54
845.18	1075.71
845.50	1072.90
845.82	1069.39
846.13	1068.22
846.45	1065.88
846.76	1069.86
847.08	1065.65
847.40	1063.77
847.71	1058.86
848.03	1053.71
848.34	1049.50
848.66	1063.54
848.97	1067.05
849.29	1061.90
849.60	1072.90
849.92	1082.03
850.24	1068.22
850.55	1061.20
850.87	1069.86
851.18	1066.58
851.50	1059.79
851.81	1056.05
852.13	1064.24
852.44	1059.79
852.76	1069.39
853.07	1062.14
853.39	1071.97
853.70	1076.88
854.01	1081.33
854.33	1071.73
854.64	1078.99
854.96	1083.20
855.27	1076.41
855.59	1084.60
855.90	1086.71
856.22	1083.90
856.53	1082.26
856.84	1078.99
857.16	1077.82
857.47	1080.16
857.79	1089.75
858.10	1085.31
858.41	1086.01
858.73	1073.60
859.04	1070.56
859.36	1067.05
859.67	1070.80
859.98	1079.46
860.30	1079.69
860.61	1085.31
860.92	1073.14
861.24	1072.20
861.55	1063.54
861.87	1076.88
862.18	1066.82
862.49	1085.31
862.81	1091.16
863.12	1094.43
863.43	1082.03
863.74	1086.48
864.06	1077.58
864.37	1069.86
864.68	1068.45
865.00	1075.94
865.31	1074.31
865.62	1075.01
865.94	1069.86
866.25	1072.43
866.56	1074.77
866.87	1081.56
867.19	1083.43
867.50	1087.18
867.81	1082.50
868.12	1075.94
868.44	1067.52
868.75	1068.69
869.06	1058.16
869.37	1054.41
869.68	1067.52
870.00	1069.86
870.31	1075.48
870.62	1085.07
870.93	1096.78
871.24	1080.86
871.56	1079.46
871.87	1079.92
872.18	1080.16
872.49	1066.11
872.80	1070.09
873.12	1075.01
873.43	1070.33
873.74	1069.62
874.05	1072.20
874.36	1069.16
874.67	1070.56
874.98	1070.56
875.29	1060.96
875.61	1067.99
875.92	1072.67
876.23	1066.58
876.54	1068.45
876.85	1078.28
877.16	1077.11
877.47	1072.43
877.78	1074.07
878.09	1071.97
878.40	1073.84
878.72	1073.84
879.03	1072.67
879.34	1066.35
879.65	1064.24
879.96	1066.11
880.27	1073.60
880.58	1079.22
880.89	1087.88
881.20	1076.88
881.51	1084.14
881.82	1076.41
882.13	1069.86
882.44	1066.58
882.75	1071.73
883.06	1066.58
883.37	1065.88
883.68	1068.92
883.99	1071.26
884.30	1081.09
884.61	1074.31
884.92	1071.26
885.23	1068.45
885.54	1060.26
885.85	1053.71
886.16	1063.07
886.47	1070.56
886.78	1077.58
887.08	1089.75
887.39	1089.29
887.70	1089.29
888.01	1089.05
888.32	1084.14
888.63	1083.67
888.94	1078.99
889.25	1070.56
889.56	1066.11
889.87	1071.26
890.17	1070.33
890.48	1072.67
890.79	1071.26
891.10	1078.05
891.41	1070.80
891.72	1065.18
892.03	1069.39
892.34	1075.48
892.64	1077.11
892.95	1089.52
893.26	1100.29
893.57	1099.82
893.88	1096.31
894.18	1091.63
894.49	1094.43
894.80	1094.43
895.11	1088.35
895.42	1088.35
895.72	1089.99
896.03	1081.56
896.34	1082.73
896.65	1081.09
896.96	1081.56
897.26	1070.09
897.57	1075.94
897.88	1062.37
898.19	1071.73
898.49	1072.90
898.80	1079.22
899.11	1076.41
899.41	1080.86
899.72	1078.52
900.03	1091.16
900.34	1102.16
900.64	1097.01
900.95	1086.71
901.26	1096.31
901.56	1087.18
901.87	1073.84
902.18	1076.41
902.48	1085.54
902.79	1085.07
903.10	1075.94
903.40	1073.14
903.71	1065.88
904.02	1064.71
904.32	1052.77
904.63	1055.82
904.94	1059.09
905.24	1066.11
905.55	1066.35
905.85	1076.18
906.16	1085.54
906.47	1083.20
906.77	1090.69
907.08	1090.69
907.38	1079.69
907.69	1074.07
908.00	1080.39
908.30	1067.75
908.61	1070.09
908.91	1070.56
909.22	1068.45
909.52	1074.31
909.83	1074.07
910.14	1070.09
910.44	1076.18
910.75	1073.14
911.05	1066.58
911.36	1062.60
911.66	1068.22
911.97	1071.26
912.27	1078.28
912.58	1084.60
912.88	1093.03
913.19	1104.97
913.49	1090.46
913.80	1088.12
914.10	1083.20
914.41	1076.18
914.71	1060.50
915.01	1070.80
915.32	1062.84
915.62	1070.09
915.93	1077.58
916.23	1084.84
916.54	1084.14
916.84	1090.69
917.15	1082.97
917.45	1081.56
917.75	1082.73
918.06	1087.41
918.36	1086.71
918.67	1088.82
918.97	1080.39
919.27	1075.94
919.58	1070.56
919.88	1079.69
920.18	1080.63
920.49	1088.58
920.79	1084.60
921.10	1078.28
921.40	1077.11
921.70	1072.20
922.01	1085.07
922.31	1087.41
922.61	1097.71
922.92	1091.63
923.22	1097.24
923.52	1082.26
923.82	1081.33
924.13	1077.82
924.43	1070.56
924.73	1064.71
925.04	1065.65
925.34	1072.20
925.64	1075.71
925.94	1077.11
926.25	1072.90
926.55	1080.86
926.85	1081.09
927.15	1085.07
927.46	1092.33
927.76	1088.58
928.06	1084.60
928.36	1086.01
928.67	1074.54
928.97	1074.31
929.27	1089.05
929.57	1090.92
929.87	1077.11
930.18	1085.07
930.48	1090.69
930.78	1082.97
931.08	1080.39
931.38	1091.39
931.69	1094.20
931.99	1089.05
932.29	1089.52
932.59	1089.05
932.89	1087.88
933.19	1077.35
933.49	1073.14
933.80	1076.88
934.10	1084.60
934.40	1078.28
934.70	1089.99
935.00	1089.05
935.30	1084.84
935.60	1069.16
935.90	1072.20
936.20	1064.71
936.50	1071.50
936.81	1074.07
937.11	1069.39
937.41	1065.65
937.71	1065.41
938.01	1056.52
938.31	1052.30
938.61	1059.33
938.91	1060.26
939.21	1065.65
939.51	1069.62
939.81	1077.11
940.11	1075.48
940.41	1077.82
940.71	1071.97
941.01	1066.58
941.31	1051.13
941.61	1062.37
941.91	1073.14
942.21	1064.71
942.51	1064.24
942.81	1074.77
943.11	1070.80
943.41	1064.71
943.71	1072.20
944.01	1078.99
944.31	1082.97
944.61	1081.09
944.90	1083.90
945.20	1083.20
945.50	1079.69
945.80	1081.56
946.10	1081.56
946.40	1079.69
946.70	1089.99
947.00	1099.58
947.30	1092.09
947.60	1088.82
947.89	1082.73
948.19	1072.43
948.49	1073.14
948.79	1078.05
949.09	1076.65
949.39	1087.88
949.69	1092.33
949.98	1082.73
950.28	1081.33
950.58	1092.80
950.88	1094.67
951.18	1088.58
951.48	1087.41
951.77	1096.31
952.07	1095.84
952.37	1085.31
952.67	1097.01
952.97	1102.86
953.26	1098.65
953.56	1095.84
953.86	1094.67
954.16	1091.39
954.45	1086.01
954.75	1074.31
955.05	1072.67
955.35	1073.14
955.64	1074.07
955.94	1083.43
956.24	1092.56
956.54	1087.88
956.83	1087.41
957.13	1077.35
957.43	1069.86
957.72	1068.69
958.02	1073.60
958.32	1077.35
958.61	1085.77
958.91	1084.14
959.21	1085.31
959.50	1084.84
959.80	1080.16
960.10	1069.62
960.39	1071.73
960.69	1065.41
960.99	1059.56
961.28	1056.52
961.58	1068.22
961.87	1064.94
962.17	1066.82
962.47	1070.80
962.76	1073.14
963.06	1069.86
963.36	1077.58
963.65	1082.03
963.95	1073.37
964.24	1069.39
964.54	1067.52
964.83	1066.11
965.13	1070.09
965.42	1077.11
965.72	1079.69
966.02	1082.03
966.31	1092.09
966.61	1086.94
966.90	1090.46
967.20	1090.92
967.49	1099.35
967.79	1088.82
968.08	1098.65
968.38	1094.20
968.67	1104.26
968.97	1090.22
969.26	1098.88
969.56	1085.07
969.85	1095.84
970.15	1086.24
970.44	1084.60
970.74	1074.54
971.03	1083.43
971.32	1070.33
971.62	1069.39
971.91	1076.41
972.21	1079.92
972.50	1072.67
972.80	1068.92
973.09	1068.45
973.38	1064.94
973.68	1072.43
973.97	1076.41
974.27	1082.26
974.56	1084.37
974.85	1083.67
975.15	1075.24
975.44	1067.75
975.73	1075.24
976.03	1069.39
976.32	1056.99
976.61	1044.82
976.91	1046.92
977.20	1038.26
977.49	1047.86
977.79	1064.01
978.08	1068.92
978.37	1077.35
978.67	1082.73
978.96	1081.56
979.25	1092.33
979.55	1101.92
979.84	1088.82
980.13	1080.63
980.42	1076.41
980.72	1063.07
981.01	1059.56
981.30	1064.24
981.59	1075.94
981.89	1077.82
982.18	1078.75
982.47	1082.50
982.76	1084.84
983.06	1076.88
983.35	1066.35
983.64	1058.86
983.93	1053.94
984.22	1043.88
984.52	1040.84
984.81	1034.52
985.10	1049.03
985.39	1048.33
985.68	1057.92
985.97	1069.86
986.27	1087.18
986.56	1084.14
986.85	1088.35
987.14	1087.18
987.43	1077.11
987.72	1074.31
988.01	1065.65
988.31	1061.20
988.60	1062.37
988.89	1064.94
989.18	1064.48
989.47	1067.28
989.76	1071.50
990.05	1077.58
990.34	1081.33
990.63	1083.20
990.92	1082.26
991.21	1070.09
991.51	1069.39
991.80	1067.52
992.09	1072.20
992.38	1075.24
992.67	1085.77
992.96	1084.60
993.25	1089.29
993.54	1086.01
993.83	1089.75
994.12	1091.39
994.41	1082.03
994.70	1069.62
994.99	1062.84
995.28	1056.28
995.57	1055.35
995.86	1065.88
996.15	1075.71
996.44	1084.14
996.73	1083.90
997.02	1086.01
997.31	1080.63
997.59	1076.41
997.88	1078.28
998.17	1078.52
998.46	1077.11
998.75	1074.54
999.04	1070.80
999.33	1069.86
999.62	1064.71
999.91	1067.28
1000.20	1074.54
1000.49	1082.03
1000.77	1083.20
1001.06	1102.86
1001.35	1098.65
1001.64	1081.56
1001.93	1082.50
1002.22	1070.33
1002.51	1056.52
1002.79	1053.48
1003.08	1073.84
1003.37	1071.03
1003.66	1075.71
1003.95	1077.82
1004.23	1081.33
1004.52	1073.14
1004.81	1075.24
1005.10	1072.67
1005.39	1073.37
1005.67	1074.77
1005.96	1074.77
1006.25	1070.56
1006.54	1074.54
1006.83	1081.09
1007.11	1085.54
1007.40	1087.41
1007.69	1081.09
1007.97	1081.09
1008.26	1075.48
1008.55	1061.90
1008.84	1059.33
1009.12	1064.71
1009.41	1066.35
1009.70	1065.41
1009.98	1063.07
1010.27	1065.41
1010.56	1068.92
1010.85	1076.41
1011.13	1072.43
1011.42	1088.82
1011.71	1091.16
1011.99	1083.67
1012.28	1075.48
1012.56	1089.52
1012.85	1082.26
1013.14	1080.63
1013.42	1092.33
1013.71	1082.03
1014.00	1079.92
1014.28	1086.94
1014.57	1091.39
1014.85	1082.26
1015.14	1102.16
1015.43	1089.52
1015.71	1080.86
1016.00	1075.94
1016.28	1071.03
1016.57	1060.96
1016.85	1070.09
1017.14	1066.82
1017.43	1060.03
1017.71	1074.07
1018.00	1081.56
1018.28	1079.22
1018.57	1082.03
1018.85	1085.07
1019.14	1081.09
1019.42	1080.63
1019.71	1080.86
1019.99	1075.48
1020.28	1075.71
1020.56	1080.86
1020.85	1079.22
1021.13	1072.90
1021.42	1078.52
1021.70	1084.37
1021.99	1074.31
1022.27	1072.20
1022.55	1059.09
1022.84	1082.50
>>>>>End Processed Spectral Data<<<<<
