SpectraSuite Data File
++++++++++++++++++++++++++++++++++++
Date: Mon Aug 26 10:24:48 PDT 2019
User: corrico
Dark Spectrum Present: No
Reference Spectrum Present: No
Number of Sampled Component Spectra: 1
Spectrometers: USB2+H06089
Integration Time (usec): 10000 (USB2+H06089)
Spectra Averaged: 2 (USB2+H06089)
Boxcar Smoothing: 2 (USB2+H06089)
Correct for Electrical Dark: No (USB2+H06089)
Strobe/Lamp Enabled: No (USB2+H06089)
Correct for Detector Non-linearity: No (USB2+H06089)
Correct for Stray Light: No (USB2+H06089)
Number of Pixels in Processed Spectrum: 2048
>>>>>Begin Processed Spectral Data<<<<<
339.70	1009.94
340.07	1009.94
340.45	984.90
340.82	972.26
341.19	948.39
341.57	935.28
341.94	921.00
342.31	910.00
342.69	899.70
343.06	889.17
343.43	878.40
343.81	879.34
344.18	884.02
344.55	893.62
344.93	910.94
345.30	930.60
345.67	936.45
346.04	946.98
346.42	949.09
346.79	953.07
347.16	950.26
347.54	960.09
347.91	963.83
348.28	976.00
348.65	994.03
349.03	997.77
349.40	1012.52
349.77	1027.50
350.14	1036.39
350.52	1035.69
350.89	1047.16
351.26	1050.67
351.63	1050.90
352.01	1051.60
352.38	1056.75
352.75	1060.26
353.12	1068.45
353.50	1083.90
353.87	1088.35
354.24	1085.54
354.61	1090.69
354.98	1095.37
355.36	1093.50
355.73	1091.86
356.10	1107.31
356.47	1110.82
356.84	1103.56
357.22	1104.73
357.59	1103.56
357.96	1096.31
358.33	1103.09
358.70	1108.48
359.08	1100.99
359.45	1110.35
359.82	1110.58
360.19	1097.24
360.56	1090.46
360.94	1083.20
361.31	1072.90
361.68	1070.33
362.05	1071.73
362.42	1060.73
362.79	1060.50
363.16	1064.94
363.54	1069.16
363.91	1069.39
364.28	1085.54
364.65	1088.82
365.02	1089.99
365.39	1092.80
365.76	1096.78
366.14	1090.46
366.51	1094.90
366.88	1083.90
367.25	1085.77
367.62	1081.09
367.99	1090.69
368.36	1089.75
368.73	1102.16
369.10	1093.97
369.48	1094.43
369.85	1087.88
370.22	1080.16
370.59	1071.26
370.96	1075.94
371.33	1075.71
371.70	1081.09
372.07	1083.43
372.44	1095.60
372.81	1096.54
373.18	1098.65
373.55	1093.26
373.93	1094.20
374.30	1087.18
374.67	1086.01
375.04	1088.12
375.41	1093.50
375.78	1093.97
376.15	1096.07
376.52	1088.12
376.89	1079.69
377.26	1069.62
377.63	1079.92
378.00	1078.05
378.37	1078.99
378.74	1089.52
379.11	1095.84
379.48	1093.97
379.85	1096.31
380.22	1106.61
380.59	1093.50
380.96	1084.14
381.33	1079.46
381.70	1077.58
382.07	1072.67
382.44	1093.73
382.81	1095.84
383.18	1095.60
383.55	1101.92
383.92	1106.14
384.29	1090.46
384.66	1106.84
385.03	1115.97
385.40	1111.75
385.77	1106.14
386.14	1096.54
386.51	1086.24
386.88	1080.39
387.25	1082.50
387.62	1083.90
387.99	1103.09
388.36	1108.01
388.73	1111.29
389.10	1114.09
389.46	1112.69
389.83	1112.46
390.20	1105.67
390.57	1109.41
390.94	1101.46
391.31	1108.24
391.68	1095.37
392.05	1103.09
392.42	1094.90
392.79	1098.88
393.16	1097.71
393.53	1111.29
393.89	1111.75
394.26	1109.88
394.63	1115.73
395.00	1118.78
395.37	1115.27
395.74	1112.69
396.11	1115.27
396.48	1110.58
396.84	1113.16
397.21	1113.16
397.58	1117.37
397.95	1115.50
398.32	1116.20
398.69	1108.01
399.06	1110.35
399.42	1105.67
399.79	1110.82
400.16	1118.07
400.53	1129.07
400.90	1144.52
401.27	1156.69
401.64	1162.08
402.00	1159.03
402.37	1161.84
402.74	1157.63
403.11	1150.84
403.48	1163.48
403.84	1177.06
404.21	1180.10
404.58	1177.76
404.95	1194.38
405.32	1196.25
405.68	1199.52
406.05	1213.80
406.42	1249.85
406.79	1264.36
407.16	1288.00
407.52	1314.68
407.89	1329.66
408.26	1335.04
408.63	1360.32
408.99	1372.02
409.36	1382.09
409.73	1411.34
410.10	1438.49
410.47	1465.88
410.83	1492.79
411.20	1538.67
411.57	1570.73
411.94	1610.99
412.30	1662.48
412.67	1717.25
413.04	1752.36
413.40	1808.06
413.77	1867.51
414.14	1917.37
414.51	1968.16
414.87	2059.20
415.24	2127.55
415.61	2201.98
415.97	2270.09
416.34	2378.45
416.71	2459.43
417.08	2561.01
417.44	2658.85
417.81	2787.81
418.18	2900.63
418.54	3029.12
418.91	3169.09
419.28	3331.52
419.64	3493.25
420.01	3637.19
420.38	3818.58
420.74	3998.10
421.11	4203.13
421.48	4390.14
421.84	4627.01
422.21	4845.85
422.58	5114.07
422.94	5353.04
423.31	5606.29
423.68	5876.15
424.04	6166.84
424.41	6443.49
424.77	6713.59
425.14	7024.65
425.51	7349.05
425.87	7718.85
426.24	8101.76
426.61	8542.25
426.97	9038.68
427.34	9462.55
427.70	9927.62
428.07	10424.98
428.44	10948.79
428.80	11446.86
429.17	12059.61
429.53	12571.95
429.90	13187.51
430.27	13724.90
430.63	14249.65
431.00	14876.68
431.36	15636.89
431.73	16244.25
432.09	16912.01
432.46	17642.72
432.83	18283.56
433.19	18867.99
433.56	19496.19
433.92	20180.33
434.29	20785.13
434.65	21459.67
435.02	22036.14
435.38	22752.58
435.75	23302.14
436.11	24023.02
436.48	24524.84
436.84	25103.42
437.21	25526.58
437.57	26024.42
437.94	26371.75
438.30	26792.35
438.67	27043.95
439.03	27217.62
439.40	27358.05
439.76	27292.75
440.13	27197.26
440.49	27108.79
440.86	26873.56
441.22	26610.95
441.59	26233.43
441.95	25835.07
442.32	25362.28
442.68	24968.37
443.05	24451.34
443.41	23989.79
443.78	23422.21
444.14	22917.36
444.51	22299.92
444.87	21869.03
445.24	21445.16
445.60	20989.69
445.96	20434.98
446.33	19966.41
446.69	19309.19
447.06	18742.31
447.42	18213.35
447.79	17715.28
448.15	17249.51
448.51	16820.96
448.88	16403.41
449.24	15948.88
449.61	15628.46
449.97	15263.57
450.33	14857.25
450.70	14401.55
451.06	14061.94
451.43	13574.40
451.79	13180.73
452.15	12885.59
452.52	12591.38
452.88	12285.47
453.24	12040.65
453.61	11785.30
453.97	11484.54
454.34	11186.36
454.70	10931.94
455.06	10656.23
455.43	10329.02
455.79	9949.85
456.15	9667.11
456.52	9298.95
456.88	9012.93
457.24	8743.07
457.61	8542.49
457.97	8303.52
458.33	8071.10
458.70	7801.94
459.06	7523.65
459.42	7286.32
459.79	7036.59
460.15	6819.62
460.51	6617.86
460.88	6422.66
461.24	6232.38
461.60	6069.95
461.96	5882.94
462.33	5731.97
462.69	5596.22
463.05	5420.91
463.42	5259.89
463.78	5112.20
464.14	4962.40
464.50	4816.12
464.87	4712.20
465.23	4584.41
465.59	4493.36
465.95	4396.93
466.32	4307.76
466.68	4210.86
467.04	4121.45
467.40	4038.36
467.77	3956.68
468.13	3885.06
468.49	3829.82
468.85	3781.84
469.22	3712.32
469.58	3625.49
469.94	3552.00
470.30	3459.31
470.66	3371.31
471.03	3311.86
471.39	3271.83
471.75	3199.51
472.11	3144.74
472.47	3105.66
472.84	3036.85
473.20	2981.14
473.56	2940.42
473.92	2891.50
474.28	2837.90
474.65	2805.37
475.01	2737.49
475.37	2684.13
475.73	2644.57
476.09	2598.23
476.45	2550.72
476.81	2521.46
477.18	2496.42
477.54	2466.46
477.90	2442.35
478.26	2398.82
478.62	2366.98
478.98	2333.75
479.34	2285.07
479.71	2266.57
480.07	2245.98
480.43	2213.44
480.79	2179.51
481.15	2166.17
481.51	2109.52
481.87	2073.01
482.23	2041.18
482.59	2020.35
482.96	1981.03
483.32	1981.26
483.68	1965.82
484.04	1961.13
484.40	1943.58
484.76	1931.88
485.12	1909.17
485.48	1898.41
485.84	1890.68
486.20	1874.30
486.56	1861.66
486.92	1821.87
487.28	1797.30
487.64	1753.76
488.00	1729.89
488.37	1710.00
488.73	1717.25
489.09	1697.59
489.45	1707.65
489.81	1693.38
490.17	1672.31
490.53	1651.95
490.89	1637.44
491.25	1599.29
491.61	1593.20
491.97	1583.84
492.33	1569.80
492.69	1558.56
493.05	1549.20
493.41	1538.43
493.77	1521.11
494.13	1504.26
494.49	1484.84
494.85	1472.43
495.21	1453.94
495.57	1442.71
495.93	1433.81
496.29	1429.37
496.64	1423.51
497.00	1415.09
497.36	1410.41
497.72	1398.94
498.08	1394.02
498.44	1392.62
498.80	1380.68
499.16	1376.94
499.52	1371.09
499.88	1367.11
500.24	1361.72
500.60	1344.40
500.96	1330.83
501.32	1327.32
501.68	1306.96
502.03	1306.49
502.39	1305.08
502.75	1289.17
503.11	1285.19
503.47	1285.89
503.83	1268.57
504.19	1265.76
504.55	1259.68
504.91	1248.21
505.26	1241.42
505.62	1244.23
505.98	1239.31
506.34	1247.27
506.70	1244.46
507.06	1245.40
507.42	1223.16
507.78	1221.76
508.13	1207.01
508.49	1207.48
508.85	1198.59
509.21	1201.63
509.57	1195.31
509.93	1199.76
510.28	1192.74
510.64	1194.61
511.00	1191.57
511.36	1192.50
511.72	1193.44
512.07	1187.82
512.43	1174.95
512.79	1164.88
513.15	1151.78
513.51	1150.84
513.86	1143.59
514.22	1144.52
514.58	1153.88
514.94	1165.35
515.30	1163.25
515.65	1170.50
516.01	1172.61
516.37	1167.93
516.73	1160.91
517.08	1151.08
517.44	1148.97
517.80	1143.12
518.16	1141.95
518.51	1144.05
518.87	1145.93
519.23	1144.76
519.59	1145.93
519.94	1148.03
520.30	1152.25
520.66	1156.69
521.01	1153.88
521.37	1146.16
521.73	1142.88
522.09	1141.95
522.44	1147.10
522.80	1147.10
523.16	1157.39
523.51	1155.52
523.87	1152.25
524.23	1149.91
524.58	1148.73
524.94	1143.59
525.30	1146.86
525.65	1146.86
526.01	1136.33
526.37	1139.37
526.72	1145.93
527.08	1149.67
527.44	1141.48
527.79	1138.44
528.15	1136.80
528.51	1124.39
528.86	1111.05
529.22	1112.46
529.58	1118.07
529.93	1119.24
530.29	1128.61
530.65	1131.65
531.00	1127.90
531.36	1135.63
531.71	1138.20
532.07	1137.97
532.43	1143.12
532.78	1143.12
533.14	1134.69
533.49	1133.76
533.85	1134.93
534.21	1126.03
534.56	1133.76
534.92	1121.12
535.27	1115.03
535.63	1099.12
535.98	1098.18
536.34	1092.56
536.69	1101.92
537.05	1102.63
537.41	1111.29
537.76	1119.95
538.12	1107.54
538.47	1103.56
538.83	1100.75
539.18	1098.88
539.54	1087.88
539.89	1098.18
540.25	1105.20
540.60	1106.37
540.96	1108.24
541.31	1112.92
541.67	1107.07
542.02	1104.97
542.38	1102.63
542.73	1111.05
543.09	1110.12
543.44	1117.14
543.80	1117.84
544.15	1125.56
544.51	1120.65
544.86	1122.29
545.22	1124.86
545.57	1119.24
545.93	1115.27
546.28	1111.99
546.64	1112.92
546.99	1102.63
547.35	1100.75
547.70	1098.88
548.05	1104.50
548.41	1097.95
548.76	1100.29
549.12	1108.24
549.47	1103.33
549.83	1100.29
550.18	1103.56
550.53	1103.56
550.89	1095.84
551.24	1101.69
551.60	1101.92
551.95	1117.61
552.30	1113.86
552.66	1107.07
553.01	1101.22
553.37	1097.01
553.72	1085.77
554.07	1090.69
554.43	1104.73
554.78	1106.61
555.13	1104.50
555.49	1098.41
555.84	1096.54
556.19	1093.73
556.55	1093.73
556.90	1101.22
557.26	1106.84
557.61	1106.37
557.96	1098.88
558.32	1097.95
558.67	1087.65
559.02	1088.35
559.37	1093.50
559.73	1100.52
560.08	1102.86
560.43	1107.07
560.79	1103.09
561.14	1094.20
561.49	1091.39
561.85	1093.03
562.20	1093.73
562.55	1100.29
562.90	1111.05
563.26	1110.12
563.61	1112.46
563.96	1113.16
564.32	1101.69
564.67	1102.86
565.02	1109.18
565.37	1099.12
565.73	1094.20
566.08	1102.39
566.43	1100.05
566.78	1097.24
567.14	1105.20
567.49	1106.84
567.84	1102.16
568.19	1105.44
568.54	1105.67
568.90	1097.71
569.25	1100.29
569.60	1098.65
569.95	1086.48
570.31	1083.90
570.66	1092.80
571.01	1089.52
571.36	1097.24
571.71	1105.90
572.06	1113.39
572.42	1103.56
572.77	1107.07
573.12	1105.44
573.47	1097.01
573.82	1089.52
574.18	1101.46
574.53	1103.33
574.88	1101.46
575.23	1101.22
575.58	1100.29
575.93	1098.88
576.28	1097.95
576.64	1092.33
576.99	1099.12
577.34	1096.07
577.69	1089.52
578.04	1084.14
578.39	1084.14
578.74	1085.54
579.09	1091.63
579.44	1086.24
579.80	1096.31
580.15	1088.58
580.50	1082.26
580.85	1080.39
581.20	1091.63
581.55	1089.52
581.90	1097.71
582.25	1105.20
582.60	1107.07
582.95	1105.44
583.30	1098.18
583.65	1093.97
584.00	1090.69
584.35	1079.92
584.71	1080.39
585.06	1088.82
585.41	1108.01
585.76	1104.26
586.11	1109.18
586.46	1100.99
586.81	1093.97
587.16	1087.18
587.51	1083.20
587.86	1090.46
588.21	1099.82
588.56	1102.86
588.91	1103.33
589.26	1110.12
589.61	1101.46
589.96	1084.14
590.31	1081.33
590.66	1073.60
591.01	1076.18
591.36	1089.29
591.71	1102.63
592.06	1105.44
592.41	1105.44
592.76	1100.75
593.10	1093.03
593.45	1098.18
593.80	1095.37
594.15	1097.24
594.50	1092.09
594.85	1093.97
595.20	1085.77
595.55	1090.92
595.90	1097.01
596.25	1111.75
596.60	1104.73
596.95	1112.69
597.30	1114.80
597.64	1157.16
597.99	1154.59
598.34	1161.37
598.69	1158.10
599.04	1143.59
599.39	1105.67
599.74	1102.63
600.09	1097.71
600.44	1090.46
600.78	1094.20
601.13	1082.97
601.48	1076.41
601.83	1084.37
602.18	1086.01
602.53	1085.77
602.88	1084.60
603.22	1100.29
603.57	1104.26
603.92	1097.48
604.27	1107.07
604.62	1116.44
604.97	1102.63
605.31	1091.63
605.66	1097.01
606.01	1089.75
606.36	1068.92
606.71	1073.37
607.05	1075.71
607.40	1086.71
607.75	1095.14
608.10	1110.82
608.44	1108.48
608.79	1097.24
609.14	1095.37
609.49	1088.12
609.84	1089.52
610.18	1087.88
610.53	1094.90
610.88	1086.71
611.23	1093.26
611.57	1090.46
611.92	1085.77
612.27	1079.69
612.62	1084.60
612.96	1070.56
613.31	1071.97
613.66	1084.84
614.00	1090.22
614.35	1082.73
614.70	1092.33
615.05	1091.86
615.39	1086.48
615.74	1088.82
616.09	1098.88
616.43	1094.90
616.78	1090.69
617.13	1083.67
617.47	1088.82
617.82	1082.50
618.17	1084.14
618.51	1080.63
618.86	1088.82
619.21	1086.71
619.55	1090.46
619.90	1092.09
620.25	1097.01
620.59	1088.82
620.94	1090.22
621.29	1086.01
621.63	1079.22
621.98	1080.86
622.32	1085.77
622.67	1087.65
623.02	1086.71
623.36	1094.43
623.71	1101.92
624.05	1119.71
624.40	1112.69
624.75	1115.73
625.09	1116.44
625.44	1099.82
625.78	1076.18
626.13	1074.54
626.48	1069.16
626.82	1073.14
627.17	1082.03
627.51	1086.94
627.86	1095.37
628.20	1097.95
628.55	1078.75
628.89	1073.84
629.24	1071.26
629.58	1070.80
629.93	1071.03
630.28	1079.22
630.62	1083.67
630.97	1091.16
631.31	1087.88
631.66	1086.94
632.00	1090.46
632.35	1091.63
632.69	1087.41
633.04	1092.56
633.38	1105.44
633.73	1105.20
634.07	1109.18
634.42	1113.86
634.76	1103.80
635.11	1091.86
635.45	1095.14
635.79	1083.67
636.14	1076.88
636.48	1082.03
636.83	1087.65
637.17	1085.77
637.52	1091.63
637.86	1104.26
638.21	1103.80
638.55	1096.78
638.89	1093.26
639.24	1100.05
639.58	1092.56
639.93	1089.05
640.27	1088.82
640.61	1084.14
640.96	1067.75
641.30	1065.65
641.65	1075.71
641.99	1082.73
642.33	1093.97
642.68	1105.90
643.02	1107.31
643.37	1094.20
643.71	1088.35
644.05	1086.71
644.40	1084.14
644.74	1077.58
645.08	1088.12
645.43	1100.05
645.77	1106.61
646.11	1097.95
646.46	1100.99
646.80	1095.14
647.14	1089.29
647.49	1082.03
647.83	1097.48
648.17	1094.43
648.52	1095.37
648.86	1090.22
649.20	1093.97
649.55	1081.56
649.89	1087.65
650.23	1087.18
650.57	1090.92
650.92	1079.22
651.26	1090.46
651.60	1080.63
651.95	1081.56
652.29	1077.11
652.63	1083.20
652.97	1070.80
653.32	1076.41
653.66	1077.82
654.00	1078.75
654.34	1067.75
654.69	1067.52
655.03	1071.73
655.37	1077.35
655.71	1080.39
656.05	1084.14
656.40	1093.26
656.74	1085.31
657.08	1076.88
657.42	1081.56
657.76	1089.75
658.11	1096.07
658.45	1102.86
658.79	1111.05
659.13	1102.63
659.47	1103.56
659.82	1092.33
660.16	1093.97
660.50	1087.88
660.84	1088.35
661.18	1075.94
661.52	1080.63
661.87	1079.92
662.21	1074.31
662.55	1076.18
662.89	1087.41
663.23	1094.43
663.57	1092.09
663.91	1087.88
664.25	1092.56
664.60	1090.69
664.94	1076.41
665.28	1080.63
665.62	1098.65
665.96	1092.56
666.30	1095.37
666.64	1094.43
666.98	1092.80
667.32	1081.09
667.66	1082.50
668.01	1078.05
668.35	1074.77
668.69	1071.03
669.03	1071.97
669.37	1082.97
669.71	1087.88
670.05	1097.24
670.39	1098.18
670.73	1092.80
671.07	1085.54
671.41	1082.50
671.75	1085.31
672.09	1091.39
672.43	1099.12
672.77	1093.50
673.11	1091.39
673.45	1085.77
673.79	1075.94
674.13	1075.48
674.47	1083.67
674.81	1083.67
675.15	1084.84
675.49	1087.88
675.83	1085.31
676.17	1076.65
676.51	1075.71
676.85	1071.73
677.19	1076.88
677.53	1077.58
677.87	1085.31
678.21	1082.73
678.55	1093.50
678.89	1092.56
679.23	1085.77
679.57	1067.28
679.90	1071.50
680.24	1063.31
680.58	1057.45
680.92	1061.90
681.26	1085.54
681.60	1089.52
681.94	1087.65
682.28	1093.97
682.62	1092.56
682.96	1086.01
683.29	1086.24
683.63	1092.09
683.97	1089.52
684.31	1090.22
684.65	1083.90
684.99	1076.65
685.33	1069.86
685.67	1064.24
686.00	1065.18
686.34	1062.60
686.68	1068.45
687.02	1074.54
687.36	1080.39
687.70	1088.82
688.03	1084.60
688.37	1092.09
688.71	1092.56
689.05	1089.52
689.39	1086.01
689.72	1097.01
690.06	1088.12
690.40	1084.14
690.74	1089.29
691.08	1093.97
691.41	1086.71
691.75	1081.80
692.09	1082.03
692.43	1082.97
692.76	1077.11
693.10	1086.01
693.44	1093.26
693.78	1101.46
694.11	1099.82
694.45	1093.73
694.79	1091.16
695.13	1085.31
695.46	1068.22
695.80	1076.88
696.14	1081.56
696.48	1085.77
696.81	1091.86
697.15	1105.20
697.49	1102.39
697.82	1108.01
698.16	1108.01
698.50	1106.84
698.83	1104.26
699.17	1099.58
699.51	1093.73
699.84	1086.48
700.18	1082.50
700.52	1085.77
700.85	1076.41
701.19	1077.11
701.53	1087.18
701.86	1092.33
702.20	1094.67
702.54	1093.26
702.87	1090.92
703.21	1080.63
703.55	1084.14
703.88	1081.56
704.22	1088.35
704.55	1089.75
704.89	1090.22
705.23	1089.05
705.56	1085.07
705.90	1085.07
706.23	1084.84
706.57	1088.82
706.91	1086.01
707.24	1092.80
707.58	1093.73
707.91	1090.46
708.25	1081.09
708.58	1079.46
708.92	1073.14
709.26	1071.03
709.59	1070.09
709.93	1077.35
710.26	1072.43
710.60	1072.90
710.93	1079.46
711.27	1086.24
711.60	1084.84
711.94	1090.46
712.27	1087.41
712.61	1082.73
712.94	1081.80
713.28	1078.28
713.61	1078.99
713.95	1083.20
714.28	1087.88
714.62	1086.71
714.95	1099.82
715.29	1099.12
715.62	1102.63
715.96	1091.86
716.29	1086.24
716.63	1075.71
716.96	1068.22
717.29	1053.71
717.63	1056.75
717.96	1057.92
718.30	1057.22
718.63	1062.84
718.97	1062.37
719.30	1058.86
719.63	1064.94
719.97	1066.11
720.30	1063.07
720.64	1077.82
720.97	1088.58
721.30	1094.20
721.64	1089.52
721.97	1095.60
722.31	1080.63
722.64	1070.56
722.97	1067.75
723.31	1065.88
723.64	1050.90
723.97	1064.01
724.31	1078.05
724.64	1080.39
724.98	1083.90
725.31	1098.18
725.64	1097.95
725.98	1086.94
726.31	1082.26
726.64	1085.54
726.97	1090.69
727.31	1092.09
727.64	1097.48
727.97	1096.07
728.31	1098.88
728.64	1085.31
728.97	1083.20
729.31	1084.37
729.64	1085.54
729.97	1086.48
730.30	1088.82
730.64	1087.88
730.97	1079.92
731.30	1084.14
731.63	1082.97
731.97	1088.35
732.30	1088.12
732.63	1082.73
732.96	1072.90
733.30	1071.03
733.63	1077.58
733.96	1074.07
734.29	1083.43
734.63	1084.37
734.96	1088.58
735.29	1082.97
735.62	1091.16
735.95	1089.52
736.29	1095.14
736.62	1096.07
736.95	1091.63
737.28	1090.69
737.61	1094.20
737.94	1089.29
738.28	1082.97
738.61	1081.56
738.94	1073.84
739.27	1069.16
739.60	1074.77
739.93	1067.28
740.27	1064.48
740.60	1068.22
740.93	1076.88
741.26	1075.94
741.59	1078.75
741.92	1080.63
742.25	1078.28
742.58	1072.20
742.91	1068.45
743.25	1082.73
743.58	1085.31
743.91	1091.63
744.24	1099.58
744.57	1099.58
744.90	1098.65
745.23	1105.44
745.56	1100.52
745.89	1105.20
746.22	1111.05
746.55	1106.61
746.88	1095.60
747.21	1096.78
747.54	1075.71
747.87	1069.62
748.20	1069.39
748.53	1078.28
748.87	1070.33
749.20	1086.01
749.53	1092.33
749.86	1094.43
750.19	1095.84
750.52	1104.97
750.85	1100.99
751.18	1092.56
751.51	1084.37
751.84	1077.11
752.16	1076.18
752.49	1072.67
752.82	1074.77
753.15	1077.11
753.48	1075.48
753.81	1072.20
754.14	1077.82
754.47	1075.01
754.80	1076.88
755.13	1077.82
755.46	1088.35
755.79	1089.99
756.12	1096.54
756.45	1089.52
756.78	1089.75
757.11	1083.20
757.43	1070.33
757.76	1083.67
758.09	1094.43
758.42	1094.20
758.75	1091.39
759.08	1097.95
759.41	1090.46
759.74	1091.86
760.07	1094.90
760.39	1095.37
760.72	1095.84
761.05	1089.75
761.38	1080.63
761.71	1080.39
762.04	1084.14
762.36	1081.80
762.69	1083.90
763.02	1081.33
763.35	1079.46
763.68	1077.82
764.01	1073.60
764.33	1072.67
764.66	1082.26
764.99	1084.14
765.32	1078.99
765.65	1078.52
765.97	1076.41
766.30	1075.01
766.63	1067.99
766.96	1064.24
767.28	1062.37
767.61	1064.94
767.94	1063.54
768.27	1071.50
768.59	1070.09
768.92	1075.94
769.25	1064.48
769.58	1064.01
769.90	1065.41
770.23	1075.48
770.56	1071.26
770.89	1084.37
771.21	1087.65
771.54	1081.56
771.87	1076.41
772.19	1079.69
772.52	1071.03
772.85	1065.41
773.17	1066.35
773.50	1070.09
773.83	1072.67
774.15	1080.86
774.48	1078.75
774.81	1075.01
775.13	1072.90
775.46	1074.07
775.79	1075.24
776.11	1076.88
776.44	1077.58
776.77	1085.77
777.09	1075.94
777.42	1075.94
777.74	1074.77
778.07	1085.54
778.40	1079.92
778.72	1087.41
779.05	1078.99
779.37	1084.14
779.70	1082.03
780.03	1082.03
780.35	1077.82
780.68	1083.67
781.00	1083.67
781.33	1080.86
781.65	1071.73
781.98	1073.84
782.31	1072.67
782.63	1067.28
782.96	1062.14
783.28	1074.54
783.61	1077.82
783.93	1066.82
784.26	1071.03
784.58	1076.65
784.91	1071.03
785.23	1065.18
785.56	1066.35
785.88	1067.99
786.21	1062.84
786.53	1066.35
786.86	1064.71
787.18	1074.77
787.51	1066.82
787.83	1069.86
788.16	1063.54
788.48	1074.07
788.81	1071.73
789.13	1075.01
789.46	1080.39
789.78	1089.75
790.10	1088.58
790.43	1091.86
790.75	1087.41
791.08	1089.75
791.40	1086.01
791.73	1090.46
792.05	1086.71
792.37	1096.54
792.70	1088.82
793.02	1094.20
793.35	1078.52
793.67	1075.01
793.99	1071.97
794.32	1079.22
794.64	1068.69
794.96	1072.67
795.29	1074.31
795.61	1069.16
795.93	1063.54
796.26	1071.26
796.58	1076.41
796.91	1071.03
797.23	1073.60
797.55	1075.24
797.87	1075.24
798.20	1076.41
798.52	1089.29
798.84	1096.07
799.17	1093.73
799.49	1086.24
799.81	1079.92
800.14	1082.03
800.46	1082.03
800.78	1083.67
801.10	1086.01
801.43	1089.75
801.75	1077.82
802.07	1073.37
802.40	1069.39
802.72	1077.82
803.04	1080.39
803.36	1088.82
803.69	1091.16
804.01	1093.50
804.33	1091.16
804.65	1103.33
804.97	1097.24
805.30	1091.86
805.62	1102.16
805.94	1096.54
806.26	1079.22
806.58	1083.20
806.91	1091.16
807.23	1080.16
807.55	1076.18
807.87	1085.54
808.19	1086.94
808.52	1082.26
808.84	1089.05
809.16	1085.77
809.48	1079.92
809.80	1074.07
810.12	1075.24
810.44	1074.07
810.77	1084.14
811.09	1083.20
811.41	1078.75
811.73	1072.43
812.05	1064.94
812.37	1063.54
812.69	1065.65
813.01	1071.97
813.33	1081.33
813.66	1088.35
813.98	1090.22
814.30	1089.75
814.62	1096.07
814.94	1092.33
815.26	1082.03
815.58	1081.33
815.90	1080.16
816.22	1066.11
816.54	1069.86
816.86	1083.90
817.18	1076.65
817.50	1069.86
817.82	1078.52
818.14	1078.52
818.46	1069.86
818.78	1080.86
819.10	1081.56
819.42	1076.41
819.74	1067.52
820.06	1069.16
820.38	1067.75
820.70	1079.92
821.02	1094.20
821.34	1097.48
821.66	1090.92
821.98	1076.18
822.30	1066.35
822.62	1056.99
822.94	1055.35
823.26	1060.73
823.58	1066.11
823.90	1068.69
824.22	1066.58
824.54	1078.99
824.86	1075.94
825.18	1078.75
825.50	1080.86
825.81	1090.22
826.13	1087.41
826.45	1089.52
826.77	1100.29
827.09	1104.97
827.41	1101.22
827.73	1090.69
828.05	1091.16
828.36	1085.77
828.68	1078.52
829.00	1073.37
829.32	1079.22
829.64	1068.45
829.96	1062.84
830.28	1060.03
830.59	1061.90
830.91	1065.88
831.23	1083.43
831.55	1077.58
831.87	1086.48
832.19	1081.56
832.50	1078.52
832.82	1076.88
833.14	1094.43
833.46	1094.67
833.78	1103.80
834.09	1116.44
834.41	1122.99
834.73	1111.99
835.05	1109.65
835.36	1102.86
835.68	1085.77
836.00	1071.26
836.32	1078.75
836.63	1070.80
836.95	1070.80
837.27	1068.69
837.59	1077.35
837.90	1072.20
838.22	1077.82
838.54	1076.41
838.85	1082.50
839.17	1074.77
839.49	1067.28
839.80	1061.90
840.12	1052.07
840.44	1054.88
840.76	1054.41
841.07	1066.35
841.39	1071.97
841.71	1083.20
842.02	1083.67
842.34	1081.56
842.65	1075.48
842.97	1085.31
843.29	1090.69
843.60	1089.99
843.92	1092.09
844.24	1087.18
844.55	1071.50
844.87	1057.69
845.18	1052.54
845.50	1053.48
845.82	1063.31
846.13	1072.67
846.45	1089.29
846.76	1088.58
847.08	1094.67
847.40	1098.65
847.71	1105.67
848.03	1095.84
848.34	1100.99
848.66	1092.56
848.97	1078.75
849.29	1063.31
849.60	1072.90
849.92	1075.24
850.24	1078.75
850.55	1089.99
850.87	1089.75
851.18	1076.88
851.50	1073.37
851.81	1066.58
852.13	1059.56
852.44	1072.20
852.76	1087.88
853.07	1089.05
853.39	1100.29
853.70	1100.05
854.01	1089.05
854.33	1080.39
854.64	1079.22
854.96	1085.54
855.27	1083.67
855.59	1081.80
855.90	1076.18
856.22	1071.50
856.53	1053.71
856.84	1066.11
857.16	1074.77
857.47	1069.62
857.79	1072.90
858.10	1082.03
858.41	1078.52
858.73	1067.05
859.04	1070.80
859.36	1074.77
859.67	1068.45
859.98	1063.31
860.30	1069.86
860.61	1079.69
860.92	1084.14
861.24	1088.58
861.55	1091.39
861.87	1089.75
862.18	1083.20
862.49	1062.37
862.81	1063.77
863.12	1059.33
863.43	1062.84
863.74	1069.62
864.06	1078.52
864.37	1079.22
864.68	1085.07
865.00	1076.88
865.31	1077.11
865.62	1077.82
865.94	1076.88
866.25	1071.73
866.56	1084.37
866.87	1078.75
867.19	1080.16
867.50	1072.90
867.81	1067.75
868.12	1054.41
868.44	1063.31
868.75	1063.54
869.06	1069.39
869.37	1086.94
869.68	1107.54
870.00	1091.16
870.31	1092.33
870.62	1094.43
870.93	1075.71
871.24	1064.94
871.56	1068.22
871.87	1071.50
872.18	1072.43
872.49	1086.71
872.80	1094.20
873.12	1097.48
873.43	1087.41
873.74	1085.54
874.05	1086.94
874.36	1084.14
874.67	1089.99
874.98	1097.95
875.29	1099.82
875.61	1085.31
875.92	1089.29
876.23	1088.12
876.54	1083.67
876.85	1081.09
877.16	1088.58
877.47	1087.88
877.78	1087.18
878.09	1091.86
878.40	1088.12
878.72	1088.58
879.03	1081.33
879.34	1078.99
879.65	1077.58
879.96	1085.07
880.27	1089.52
880.58	1095.14
880.89	1092.09
881.20	1094.20
881.51	1088.35
881.82	1091.86
882.13	1087.18
882.44	1089.99
882.75	1086.48
883.06	1089.99
883.37	1076.18
883.68	1069.62
883.99	1075.94
884.30	1078.52
884.61	1073.14
884.92	1075.48
885.23	1092.33
885.54	1089.29
885.85	1083.67
886.16	1091.86
886.47	1088.12
886.78	1079.92
887.08	1078.99
887.39	1093.97
887.70	1093.73
888.01	1110.35
888.32	1106.14
888.63	1103.33
888.94	1087.88
889.25	1088.82
889.56	1081.33
889.87	1078.75
890.17	1084.37
890.48	1079.46
890.79	1081.09
891.10	1078.52
891.41	1084.84
891.72	1083.20
892.03	1096.31
892.34	1079.46
892.64	1081.56
892.95	1087.88
893.26	1084.84
893.57	1076.41
893.88	1086.01
894.18	1079.22
894.49	1065.88
894.80	1061.67
895.11	1066.35
895.42	1063.77
895.72	1072.67
896.03	1067.28
896.34	1078.28
896.65	1090.92
896.96	1093.03
897.26	1083.43
897.57	1093.26
897.88	1082.50
898.19	1070.56
898.49	1067.75
898.80	1073.84
899.11	1076.18
899.41	1082.50
899.72	1081.09
900.03	1090.46
900.34	1088.58
900.64	1078.52
900.95	1074.54
901.26	1072.43
901.56	1070.80
901.87	1065.41
902.18	1072.43
902.48	1085.31
902.79	1083.20
903.10	1083.43
903.40	1084.14
903.71	1082.50
904.02	1069.39
904.32	1073.60
904.63	1069.16
904.94	1071.73
905.24	1064.24
905.55	1071.03
905.85	1076.18
906.16	1077.58
906.47	1085.07
906.77	1087.65
907.08	1088.58
907.38	1076.18
907.69	1071.73
908.00	1063.31
908.30	1068.69
908.61	1068.45
908.91	1069.62
909.22	1070.56
909.52	1073.60
909.83	1078.52
910.14	1079.22
910.44	1085.31
910.75	1085.77
911.05	1082.73
911.36	1077.82
911.66	1068.45
911.97	1064.48
912.27	1068.92
912.58	1076.18
912.88	1071.97
913.19	1075.24
913.49	1075.48
913.80	1078.28
914.10	1072.43
914.41	1075.48
914.71	1084.84
915.01	1091.39
915.32	1097.95
915.62	1105.44
915.93	1106.37
916.23	1095.60
916.54	1092.56
916.84	1076.18
917.15	1073.14
917.45	1073.14
917.75	1078.75
918.06	1081.56
918.36	1088.58
918.67	1095.84
918.97	1095.37
919.27	1089.99
919.58	1085.07
919.88	1078.75
920.18	1073.60
920.49	1083.43
920.79	1079.69
921.10	1084.14
921.40	1087.18
921.70	1087.65
922.01	1078.99
922.31	1071.26
922.61	1078.05
922.92	1082.97
923.22	1073.37
923.52	1075.48
923.82	1089.99
924.13	1083.90
924.43	1071.97
924.73	1076.65
925.04	1072.90
925.34	1069.86
925.64	1066.58
925.94	1074.54
926.25	1083.20
926.55	1087.18
926.85	1085.31
927.15	1091.86
927.46	1094.90
927.76	1096.54
928.06	1099.58
928.36	1101.22
928.67	1092.80
928.97	1093.50
929.27	1084.37
929.57	1085.31
929.87	1084.14
930.18	1082.73
930.48	1078.75
930.78	1085.31
931.08	1088.35
931.38	1095.84
931.69	1098.18
931.99	1098.41
932.29	1089.05
932.59	1077.82
932.89	1070.56
933.19	1070.56
933.49	1071.03
933.80	1081.09
934.10	1090.92
934.40	1088.35
934.70	1083.90
935.00	1082.73
935.30	1076.18
935.60	1056.75
935.90	1066.58
936.20	1070.56
936.50	1070.80
936.81	1067.52
937.11	1071.26
937.41	1072.43
937.71	1076.41
938.01	1069.86
938.31	1076.18
938.61	1077.35
938.91	1070.33
939.21	1069.86
939.51	1084.37
939.81	1089.52
940.11	1096.07
940.41	1101.69
940.71	1089.29
941.01	1076.41
941.31	1064.48
941.61	1067.75
941.91	1065.18
942.21	1071.97
942.51	1075.94
942.81	1074.77
943.11	1079.92
943.41	1081.33
943.71	1091.16
944.01	1100.29
944.31	1107.31
944.61	1098.41
944.90	1091.16
945.20	1090.92
945.50	1085.07
945.80	1075.71
946.10	1077.58
946.40	1082.50
946.70	1079.92
947.00	1071.97
947.30	1076.18
947.60	1060.26
947.89	1057.92
948.19	1041.07
948.49	1042.47
948.79	1039.90
949.09	1049.73
949.39	1054.18
949.69	1076.41
949.98	1086.48
950.28	1086.71
950.58	1084.14
950.88	1067.52
951.18	1049.96
951.48	1046.92
951.77	1056.05
952.07	1069.16
952.37	1076.41
952.67	1079.69
952.97	1069.62
953.26	1063.54
953.56	1060.26
953.86	1072.20
954.16	1076.18
954.45	1093.73
954.75	1101.92
955.05	1096.31
955.35	1089.99
955.64	1093.73
955.94	1088.58
956.24	1086.01
956.54	1089.29
956.83	1094.67
957.13	1093.73
957.43	1082.26
957.72	1090.69
958.02	1089.99
958.32	1084.60
958.61	1087.65
958.91	1094.90
959.21	1079.22
959.50	1086.48
959.80	1089.52
960.10	1084.14
960.39	1081.09
960.69	1079.92
960.99	1074.07
961.28	1072.67
961.58	1078.75
961.87	1085.31
962.17	1085.54
962.47	1086.48
962.76	1081.56
963.06	1075.94
963.36	1076.18
963.65	1072.43
963.95	1072.67
964.24	1084.60
964.54	1085.31
964.83	1087.65
965.13	1091.16
965.42	1087.18
965.72	1081.09
966.02	1081.56
966.31	1079.92
966.61	1077.82
966.90	1081.80
967.20	1081.80
967.49	1085.31
967.79	1083.67
968.08	1095.14
968.38	1100.29
968.67	1098.41
968.97	1102.39
969.26	1107.54
969.56	1095.60
969.85	1091.39
970.15	1091.39
970.44	1077.35
970.74	1073.84
971.03	1081.56
971.32	1076.65
971.62	1089.29
971.91	1098.18
972.21	1100.29
972.50	1096.54
972.80	1095.84
973.09	1089.05
973.38	1084.37
973.68	1085.54
973.97	1089.52
974.27	1091.39
974.56	1091.86
974.85	1095.60
975.15	1092.80
975.44	1081.33
975.73	1078.52
976.03	1072.43
976.32	1073.60
976.61	1065.65
976.91	1072.67
977.20	1070.09
977.49	1067.28
977.79	1056.99
978.08	1064.48
978.37	1057.92
978.67	1063.77
978.96	1070.56
979.25	1081.33
979.55	1078.75
979.84	1079.22
980.13	1074.77
980.42	1072.20
980.72	1061.67
981.01	1060.73
981.30	1061.43
981.59	1066.35
981.89	1054.18
982.18	1063.07
982.47	1060.73
982.76	1061.20
983.06	1064.24
983.35	1084.84
983.64	1075.01
983.93	1076.41
984.22	1077.82
984.52	1076.88
984.81	1073.14
985.10	1075.94
985.39	1081.09
985.68	1086.01
985.97	1079.92
986.27	1059.79
986.56	1074.77
986.85	1068.69
987.14	1069.16
987.43	1072.43
987.72	1100.05
988.01	1081.80
988.31	1082.50
988.60	1079.46
988.89	1082.26
989.18	1073.84
989.47	1081.56
989.76	1081.80
990.05	1083.67
990.34	1082.26
990.63	1074.77
990.92	1073.60
991.21	1080.39
991.51	1080.16
991.80	1082.73
992.09	1083.90
992.38	1090.46
992.67	1086.24
992.96	1093.50
993.25	1097.24
993.54	1103.33
993.83	1098.65
994.12	1102.39
994.41	1100.52
994.70	1092.09
994.99	1087.88
995.28	1083.20
995.57	1072.43
995.86	1070.33
996.15	1072.90
996.44	1065.41
996.73	1067.75
997.02	1069.62
997.31	1071.50
997.59	1068.22
997.88	1071.50
998.17	1078.28
998.46	1089.05
998.75	1087.65
999.04	1095.37
999.33	1101.92
999.62	1102.16
999.91	1105.90
1000.20	1097.71
1000.49	1084.37
1000.77	1086.48
1001.06	1074.77
1001.35	1063.54
1001.64	1066.11
1001.93	1068.92
1002.22	1064.01
1002.51	1079.22
1002.79	1085.31
1003.08	1097.95
1003.37	1099.58
1003.66	1104.97
1003.95	1100.05
1004.23	1097.48
1004.52	1085.31
1004.81	1091.39
1005.10	1093.73
1005.39	1083.67
1005.67	1078.28
1005.96	1089.29
1006.25	1088.82
1006.54	1083.43
1006.83	1098.65
1007.11	1097.24
1007.40	1094.67
1007.69	1093.97
1007.97	1085.77
1008.26	1077.82
1008.55	1084.84
1008.84	1075.48
1009.12	1062.14
1009.41	1066.82
1009.70	1073.84
1009.98	1067.52
1010.27	1074.54
1010.56	1091.16
1010.85	1095.84
1011.13	1086.71
1011.42	1089.75
1011.71	1082.73
1011.99	1082.50
1012.28	1064.48
1012.56	1064.48
1012.85	1071.97
1013.14	1074.54
1013.42	1070.80
1013.71	1082.26
1014.00	1080.63
1014.28	1072.20
1014.57	1072.67
1014.85	1081.33
1015.14	1082.26
1015.43	1086.48
1015.71	1090.92
1016.00	1096.31
1016.28	1089.29
1016.57	1085.54
1016.85	1077.11
1017.14	1076.88
1017.43	1068.69
1017.71	1070.56
1018.00	1077.35
1018.28	1093.50
1018.57	1089.75
1018.85	1091.39
1019.14	1091.39
1019.42	1097.01
1019.71	1092.33
1019.99	1096.31
1020.28	1105.67
1020.56	1104.97
1020.85	1095.14
1021.13	1091.39
1021.42	1080.39
1021.70	1075.24
1021.99	1066.35
1022.27	1070.09
1022.55	1055.58
1022.84	1080.16
>>>>>End Processed Spectral Data<<<<<
