SpectraSuite Data File
++++++++++++++++++++++++++++++++++++
Date: Mon Aug 26 10:24:50 PDT 2019
User: corrico
Dark Spectrum Present: No
Reference Spectrum Present: No
Number of Sampled Component Spectra: 1
Spectrometers: USB2+H06089
Integration Time (usec): 10000 (USB2+H06089)
Spectra Averaged: 2 (USB2+H06089)
Boxcar Smoothing: 2 (USB2+H06089)
Correct for Electrical Dark: No (USB2+H06089)
Strobe/Lamp Enabled: No (USB2+H06089)
Correct for Detector Non-linearity: No (USB2+H06089)
Correct for Stray Light: No (USB2+H06089)
Number of Pixels in Processed Spectrum: 2048
>>>>>Begin Processed Spectral Data<<<<<
339.70	1029.84
340.07	1029.84
340.45	983.96
340.82	960.79
341.19	935.98
341.57	907.66
341.94	902.74
342.31	887.53
342.69	888.70
343.06	885.89
343.43	884.25
343.81	881.45
344.18	894.08
344.55	881.68
344.93	889.40
345.30	896.66
345.67	913.51
346.04	925.21
346.42	943.47
346.79	947.21
347.16	957.28
347.54	955.41
347.91	967.34
348.28	978.11
348.65	985.37
349.03	984.66
349.40	1003.62
349.77	1007.13
350.14	1016.26
350.52	1030.54
350.89	1050.20
351.26	1057.22
351.63	1057.22
352.01	1072.20
352.38	1072.20
352.75	1075.71
353.12	1073.84
353.50	1076.41
353.87	1067.05
354.24	1067.05
354.61	1062.84
354.98	1067.05
355.36	1075.01
355.73	1079.92
356.10	1077.35
356.47	1090.22
356.84	1079.46
357.22	1076.65
357.59	1081.80
357.96	1102.39
358.33	1089.75
358.70	1098.88
359.08	1104.03
359.45	1086.48
359.82	1072.90
360.19	1070.80
360.56	1072.67
360.94	1080.63
361.31	1092.33
361.68	1093.50
362.05	1098.65
362.42	1091.86
362.79	1086.48
363.16	1082.73
363.54	1093.50
363.91	1095.60
364.28	1092.80
364.65	1095.14
365.02	1093.26
365.39	1079.69
365.76	1071.73
366.14	1072.90
366.51	1067.99
366.88	1067.99
367.25	1074.54
367.62	1085.54
367.99	1093.73
368.36	1089.99
368.73	1093.50
369.10	1088.35
369.48	1090.46
369.85	1091.39
370.22	1097.48
370.59	1093.50
370.96	1094.67
371.33	1089.75
371.70	1092.80
372.07	1086.48
372.44	1089.29
372.81	1090.69
373.18	1096.07
373.55	1097.01
373.93	1103.80
374.30	1111.05
374.67	1113.16
375.04	1101.22
375.41	1092.33
375.78	1077.58
376.15	1078.52
376.52	1078.05
376.89	1090.92
377.26	1098.65
377.63	1113.39
378.00	1112.92
378.37	1118.07
378.74	1109.41
379.11	1109.18
379.48	1111.29
379.85	1100.75
380.22	1095.60
380.59	1093.50
380.96	1089.52
381.33	1085.54
381.70	1092.09
382.07	1095.60
382.44	1098.65
382.81	1088.58
383.18	1091.16
383.55	1089.99
383.92	1085.77
384.29	1094.43
384.66	1112.92
385.03	1106.61
385.40	1102.16
385.77	1099.12
386.14	1092.80
386.51	1081.80
386.88	1091.63
387.25	1095.60
387.62	1098.41
387.99	1104.03
388.36	1100.75
388.73	1097.24
389.10	1104.97
389.46	1109.41
389.83	1110.82
390.20	1114.80
390.57	1117.84
390.94	1109.18
391.31	1111.29
391.68	1107.78
392.05	1105.67
392.42	1091.86
392.79	1093.26
393.16	1086.48
393.53	1086.01
393.89	1096.31
394.26	1106.14
394.63	1110.58
395.00	1111.29
395.37	1110.58
395.74	1105.67
396.11	1104.26
396.48	1108.01
396.84	1120.65
397.21	1118.78
397.58	1122.29
397.95	1123.93
398.32	1114.56
398.69	1105.90
399.06	1111.05
399.42	1114.33
399.79	1127.67
400.16	1136.56
400.53	1136.80
400.90	1142.42
401.27	1150.14
401.64	1146.63
402.00	1154.35
402.37	1157.86
402.74	1170.50
403.11	1172.61
403.48	1164.88
403.84	1175.89
404.21	1181.50
404.58	1181.03
404.95	1188.06
405.32	1205.61
405.68	1212.40
406.05	1240.95
406.42	1255.93
406.79	1280.27
407.16	1292.21
407.52	1308.13
407.89	1316.32
408.26	1337.15
408.63	1344.87
408.99	1367.11
409.36	1384.89
409.73	1409.24
410.10	1431.94
410.47	1462.83
410.83	1504.96
411.20	1553.65
411.57	1593.67
411.94	1636.03
412.30	1671.38
412.67	1711.87
413.04	1745.57
413.40	1799.17
413.77	1853.00
414.14	1914.32
414.51	1975.18
414.87	2047.73
415.24	2128.72
415.61	2207.83
415.97	2283.66
416.34	2371.66
416.71	2467.39
417.08	2559.84
417.44	2647.85
417.81	2765.11
418.18	2888.22
418.54	3008.52
418.91	3153.40
419.28	3321.22
419.64	3483.19
420.01	3649.60
420.38	3816.71
420.74	3983.36
421.11	4183.24
421.48	4387.57
421.84	4594.24
422.21	4824.55
422.58	5066.32
422.94	5310.91
423.31	5569.54
423.68	5854.62
424.04	6154.44
424.41	6436.47
424.77	6724.36
425.14	7009.90
425.51	7310.43
425.87	7656.13
426.24	8019.14
426.61	8441.84
426.97	8965.89
427.34	9434.93
427.70	9932.30
428.07	10425.92
428.44	10953.94
428.80	11445.22
429.17	12005.78
429.53	12535.44
429.90	13176.75
430.27	13695.18
430.63	14227.41
431.00	14883.23
431.36	15599.20
431.73	16210.55
432.09	16894.22
432.46	17582.34
432.83	18202.58
433.19	18738.56
433.56	19410.53
433.92	20113.16
434.29	20780.21
434.65	21476.76
435.02	22168.38
435.38	22802.20
435.75	23316.42
436.11	23971.06
436.48	24400.55
436.84	24943.09
437.21	25407.45
437.57	25888.90
437.94	26263.85
438.30	26720.49
438.67	26965.55
439.03	27183.68
439.40	27355.95
439.76	27289.48
440.13	27212.47
440.49	27169.64
440.86	26918.97
441.22	26674.38
441.59	26427.69
441.95	26039.86
442.32	25457.54
442.68	25052.39
443.05	24512.66
443.41	23969.89
443.78	23388.51
444.14	22973.76
444.51	22352.35
444.87	21912.33
445.24	21448.44
445.60	21052.88
445.96	20448.09
446.33	19974.83
446.69	19331.42
447.06	18795.67
447.42	18170.98
447.79	17739.39
448.15	17321.60
448.51	16891.88
448.88	16460.05
449.24	16051.39
449.61	15677.61
449.97	15254.21
450.33	14886.51
450.70	14416.53
451.06	14056.56
451.43	13565.51
451.79	13192.90
452.15	12827.77
452.52	12552.76
452.88	12266.75
453.24	12034.10
453.61	11765.17
453.97	11460.90
454.34	11157.10
454.70	10872.49
455.06	10624.63
455.43	10307.95
455.79	9993.85
456.15	9706.44
456.52	9363.78
456.88	9072.38
457.24	8796.44
457.61	8588.60
457.97	8336.52
458.33	8104.57
458.70	7821.84
459.06	7560.87
459.42	7308.56
459.79	7047.35
460.15	6846.77
460.51	6607.57
460.88	6417.75
461.24	6211.31
461.60	6040.69
461.96	5842.21
462.33	5683.29
462.69	5495.81
463.05	5338.53
463.42	5206.05
463.78	5078.96
464.14	4943.68
464.50	4860.12
464.87	4751.99
465.23	4639.64
465.59	4523.32
465.95	4421.74
466.32	4296.76
466.68	4191.20
467.04	4078.38
467.40	3984.29
467.77	3914.08
468.13	3822.33
468.49	3780.90
468.85	3716.54
469.22	3646.32
469.58	3582.19
469.94	3541.93
470.30	3461.18
470.66	3397.52
471.03	3340.65
471.39	3281.90
471.75	3205.36
472.11	3130.00
472.47	3078.04
472.84	3030.99
473.20	2973.42
473.56	2931.05
473.92	2884.01
474.28	2829.01
474.65	2774.24
475.01	2723.92
475.37	2686.47
475.73	2652.53
476.09	2597.76
476.45	2570.61
476.81	2541.12
477.18	2488.46
477.54	2443.75
477.90	2428.07
478.26	2371.66
478.62	2334.68
478.98	2292.55
479.34	2261.43
479.71	2236.15
480.07	2213.91
480.43	2168.97
480.79	2163.12
481.15	2144.87
481.51	2112.80
481.87	2109.06
482.23	2097.35
482.59	2065.52
482.96	2030.65
483.32	2013.33
483.68	1982.90
484.04	1968.86
484.40	1947.56
484.76	1933.28
485.12	1909.41
485.48	1882.73
485.84	1865.64
486.20	1846.45
486.56	1820.00
486.92	1813.45
487.28	1794.49
487.64	1757.04
488.00	1733.63
488.37	1708.12
488.73	1674.19
489.09	1667.40
489.45	1651.01
489.81	1648.44
490.17	1645.40
490.53	1628.78
490.89	1601.86
491.25	1606.54
491.61	1577.29
491.97	1569.56
492.33	1562.31
492.69	1559.03
493.05	1533.52
493.41	1534.69
493.77	1516.20
494.13	1508.48
494.49	1488.35
494.85	1483.20
495.21	1449.26
495.57	1440.60
495.93	1432.41
496.29	1434.51
496.64	1428.66
497.00	1441.07
497.36	1425.85
497.72	1408.77
498.08	1388.64
498.44	1377.64
498.80	1362.66
499.16	1351.19
499.52	1333.87
499.88	1318.42
500.24	1295.02
500.60	1291.74
500.96	1293.15
501.32	1299.23
501.68	1305.78
502.03	1312.10
502.39	1289.87
502.75	1275.59
503.11	1262.02
503.47	1245.87
503.83	1243.99
504.19	1254.06
504.55	1266.46
504.91	1263.42
505.26	1266.46
505.62	1259.91
505.98	1255.46
506.34	1243.06
506.70	1248.91
507.06	1243.29
507.42	1244.70
507.78	1239.31
508.13	1232.06
508.49	1226.44
508.85	1223.87
509.21	1214.04
509.57	1200.69
509.93	1192.74
510.28	1177.29
510.64	1171.44
511.00	1163.95
511.36	1167.46
511.72	1166.52
512.07	1176.35
512.43	1176.82
512.79	1177.76
513.15	1188.06
513.51	1193.21
513.86	1185.95
514.22	1181.50
514.58	1178.93
514.94	1168.63
515.30	1155.52
515.65	1152.25
516.01	1152.95
516.37	1155.29
516.73	1155.99
517.08	1160.44
517.44	1168.63
517.80	1174.01
518.16	1166.52
518.51	1171.44
518.87	1170.27
519.23	1163.95
519.59	1153.88
519.94	1141.95
520.30	1126.50
520.66	1131.41
521.01	1132.82
521.37	1137.97
521.73	1154.35
522.09	1157.63
522.44	1141.25
522.80	1137.97
523.16	1127.44
523.51	1122.05
523.87	1119.71
524.23	1133.29
524.58	1139.61
524.94	1138.90
525.30	1145.22
525.65	1143.12
526.01	1130.24
526.37	1120.88
526.72	1129.31
527.08	1118.54
527.44	1113.16
527.79	1120.65
528.15	1114.80
528.51	1121.58
528.86	1122.75
529.22	1134.46
529.58	1127.20
529.93	1129.54
530.29	1120.65
530.65	1116.90
531.00	1108.95
531.36	1116.44
531.71	1119.24
532.07	1112.69
532.43	1116.44
532.78	1117.84
533.14	1106.14
533.49	1094.90
533.85	1099.35
534.21	1099.35
534.56	1099.35
534.92	1112.46
535.27	1116.90
535.63	1115.03
535.98	1108.95
536.34	1110.82
536.69	1108.95
537.05	1109.18
537.41	1115.73
537.76	1118.78
538.12	1105.67
538.47	1103.09
538.83	1109.41
539.18	1101.22
539.54	1108.01
539.89	1119.24
540.25	1120.41
540.60	1116.67
540.96	1116.67
541.31	1111.05
541.67	1119.71
542.02	1120.41
542.38	1123.22
542.73	1123.69
543.09	1122.05
543.44	1114.10
543.80	1104.97
544.15	1097.71
544.51	1097.95
544.86	1100.05
545.22	1109.18
545.57	1118.31
545.93	1127.20
546.28	1127.90
546.64	1122.29
546.99	1107.31
547.35	1105.20
547.70	1103.80
548.05	1106.14
548.41	1108.24
548.76	1103.09
549.12	1109.88
549.47	1106.37
549.83	1107.78
550.18	1108.95
550.53	1125.10
550.89	1117.37
551.24	1127.90
551.60	1121.35
551.95	1119.71
552.30	1111.29
552.66	1118.07
553.01	1108.48
553.37	1102.63
553.72	1110.12
554.07	1114.09
554.43	1111.75
554.78	1109.18
555.13	1109.88
555.49	1099.82
555.84	1098.18
556.19	1090.92
556.55	1083.67
556.90	1092.33
557.26	1098.18
557.61	1093.73
557.96	1096.31
558.32	1100.99
558.67	1094.90
559.02	1088.58
559.37	1087.41
559.73	1081.09
560.08	1082.26
560.43	1091.16
560.79	1090.46
561.14	1089.05
561.49	1100.75
561.85	1103.33
562.20	1098.88
562.55	1108.48
562.90	1110.58
563.26	1108.24
563.61	1104.73
563.96	1106.14
564.32	1091.16
564.67	1084.37
565.02	1085.31
565.37	1088.82
565.73	1085.77
566.08	1090.69
566.43	1106.14
566.78	1099.12
567.14	1095.60
567.49	1093.03
567.84	1096.31
568.19	1093.03
568.54	1099.58
568.90	1101.22
569.25	1105.20
569.60	1109.18
569.95	1108.71
570.31	1108.24
570.66	1105.67
571.01	1099.35
571.36	1101.22
571.71	1092.56
572.06	1080.16
572.42	1075.24
572.77	1076.41
573.12	1069.39
573.47	1079.22
573.82	1085.77
574.18	1088.35
574.53	1090.22
574.88	1099.35
575.23	1095.60
575.58	1093.97
575.93	1092.56
576.28	1097.48
576.64	1089.52
576.99	1093.26
577.34	1095.37
577.69	1100.75
578.04	1101.22
578.39	1100.05
578.74	1099.12
579.09	1092.33
579.44	1091.39
579.80	1093.73
580.15	1105.67
580.50	1095.37
580.85	1109.65
581.20	1106.61
581.55	1088.12
581.90	1077.82
582.25	1087.65
582.60	1076.18
582.95	1071.50
583.30	1086.94
583.65	1087.18
584.00	1084.60
584.35	1084.84
584.71	1102.16
585.06	1094.90
585.41	1094.20
585.76	1106.61
586.11	1121.35
586.46	1120.88
586.81	1123.46
587.16	1128.61
587.51	1116.90
587.86	1105.90
588.21	1100.99
588.56	1097.71
588.91	1095.60
589.26	1096.54
589.61	1085.31
589.96	1086.71
590.31	1091.86
590.66	1090.69
591.01	1097.71
591.36	1104.50
591.71	1104.03
592.06	1108.71
592.41	1108.01
592.76	1098.18
593.10	1108.01
593.45	1095.37
593.80	1090.69
594.15	1088.82
594.50	1081.33
594.85	1072.90
595.20	1088.12
595.55	1087.88
595.90	1083.20
596.25	1088.35
596.60	1092.56
596.95	1091.86
597.30	1089.52
597.64	1154.35
597.99	1167.46
598.34	1166.29
598.69	1161.84
599.04	1162.78
599.39	1107.31
599.74	1099.58
600.09	1094.67
600.44	1101.92
600.78	1101.22
601.13	1105.44
601.48	1100.52
601.83	1113.63
602.18	1102.86
602.53	1100.75
602.88	1102.63
603.22	1107.31
603.57	1098.41
603.92	1104.03
604.27	1106.84
604.62	1091.63
604.97	1086.24
605.31	1089.05
605.66	1089.99
606.01	1094.67
606.36	1104.26
606.71	1113.39
607.05	1105.20
607.40	1104.03
607.75	1097.95
608.10	1084.37
608.44	1074.07
608.79	1080.63
609.14	1077.82
609.49	1075.94
609.84	1091.63
610.18	1092.56
610.53	1089.75
610.88	1098.65
611.23	1106.37
611.57	1115.03
611.92	1118.54
612.27	1118.54
612.62	1111.99
612.96	1117.61
613.31	1102.63
613.66	1098.65
614.00	1100.52
614.35	1091.86
614.70	1081.56
615.05	1086.01
615.39	1086.01
615.74	1081.33
616.09	1090.22
616.43	1079.92
616.78	1077.82
617.13	1082.73
617.47	1087.18
617.82	1083.67
618.17	1095.84
618.51	1097.48
618.86	1092.09
619.21	1084.37
619.55	1084.60
619.90	1082.50
620.25	1082.73
620.59	1079.46
620.94	1092.56
621.29	1087.65
621.63	1090.92
621.98	1091.63
622.32	1099.35
622.67	1082.50
623.02	1084.14
623.36	1082.03
623.71	1075.24
624.05	1069.16
624.40	1067.52
624.75	1074.31
625.09	1071.73
625.44	1072.90
625.78	1075.24
626.13	1081.80
626.48	1071.26
626.82	1076.65
627.17	1082.73
627.51	1087.65
627.86	1089.05
628.20	1092.56
628.55	1076.65
628.89	1071.03
629.24	1068.69
629.58	1068.69
629.93	1076.18
630.28	1100.29
630.62	1108.01
630.97	1113.63
631.31	1119.95
631.66	1126.50
632.00	1115.73
632.35	1111.05
632.69	1100.29
633.04	1107.54
633.38	1101.22
633.73	1094.20
634.07	1091.63
634.42	1094.67
634.76	1092.80
635.11	1089.05
635.45	1105.20
635.79	1103.80
636.14	1105.44
636.48	1109.18
636.83	1102.86
637.17	1094.20
637.52	1094.90
637.86	1093.73
638.21	1077.11
638.55	1088.58
638.89	1086.48
639.24	1085.07
639.58	1092.09
639.93	1104.97
640.27	1100.52
640.61	1107.31
640.96	1114.33
641.30	1111.75
641.65	1107.07
641.99	1112.69
642.33	1097.95
642.68	1093.97
643.02	1085.31
643.37	1084.14
643.71	1077.35
644.05	1089.99
644.40	1098.88
644.74	1107.07
645.08	1106.37
645.43	1111.29
645.77	1108.24
646.11	1096.54
646.46	1095.60
646.80	1094.90
647.14	1083.67
647.49	1085.31
647.83	1081.33
648.17	1074.07
648.52	1083.43
648.86	1084.14
649.20	1069.16
649.55	1082.03
649.89	1083.67
650.23	1073.84
650.57	1085.54
650.92	1097.95
651.26	1098.41
651.60	1103.09
651.95	1107.78
652.29	1097.01
652.63	1090.92
652.97	1089.05
653.32	1083.90
653.66	1077.35
654.00	1087.65
654.34	1096.78
654.69	1090.69
655.03	1088.82
655.37	1091.16
655.71	1079.92
656.05	1074.54
656.40	1080.86
656.74	1083.67
657.08	1084.84
657.42	1082.50
657.76	1083.43
658.11	1078.99
658.45	1078.52
658.79	1081.56
659.13	1090.46
659.47	1095.60
659.82	1097.48
660.16	1098.41
660.50	1088.12
660.84	1081.09
661.18	1075.01
661.52	1064.48
661.87	1065.65
662.21	1066.58
662.55	1078.99
662.89	1081.33
663.23	1091.16
663.57	1087.41
663.91	1093.03
664.25	1080.39
664.60	1084.84
664.94	1066.11
665.28	1070.09
665.62	1076.88
665.96	1076.41
666.30	1062.84
666.64	1080.39
666.98	1079.46
667.32	1068.92
667.66	1073.60
668.01	1083.90
668.35	1090.92
668.69	1094.67
669.03	1099.82
669.37	1100.05
669.71	1089.52
670.05	1083.43
670.39	1086.24
670.73	1085.31
671.07	1078.52
671.41	1092.56
671.75	1087.41
672.09	1085.77
672.43	1083.90
672.77	1093.97
673.11	1086.71
673.45	1092.80
673.79	1092.56
674.13	1097.01
674.47	1094.20
674.81	1102.63
675.15	1100.99
675.49	1101.69
675.83	1090.69
676.17	1096.07
676.51	1082.73
676.85	1076.18
677.19	1064.01
677.53	1067.28
677.87	1060.50
678.21	1067.99
678.55	1075.48
678.89	1083.20
679.23	1079.22
679.57	1079.22
679.90	1086.71
680.24	1086.71
680.58	1082.50
680.92	1086.48
681.26	1081.56
681.60	1065.88
681.94	1056.28
682.28	1065.18
682.62	1062.37
682.96	1068.69
683.29	1078.99
683.63	1088.58
683.97	1083.90
684.31	1094.67
684.65	1092.33
684.99	1086.48
685.33	1088.12
685.67	1090.46
686.00	1086.01
686.34	1089.05
686.68	1092.33
687.02	1092.09
687.36	1091.16
687.70	1092.56
688.03	1086.48
688.37	1080.16
688.71	1074.07
689.05	1079.92
689.39	1087.88
689.72	1102.86
690.06	1115.73
690.40	1116.44
690.74	1108.95
691.08	1100.52
691.41	1088.12
691.75	1083.67
692.09	1092.33
692.43	1100.99
692.76	1094.67
693.10	1088.58
693.44	1082.26
693.78	1071.50
694.11	1062.14
694.45	1064.48
694.79	1071.03
695.13	1075.48
695.46	1075.48
695.80	1077.11
696.14	1079.46
696.48	1081.09
696.81	1077.82
697.15	1083.67
697.49	1084.84
697.82	1085.77
698.16	1082.97
698.50	1078.52
698.83	1084.37
699.17	1088.12
699.51	1085.77
699.84	1089.29
700.18	1093.50
700.52	1086.48
700.85	1075.48
701.19	1072.67
701.53	1068.22
701.86	1069.16
702.20	1064.48
702.54	1067.05
702.87	1075.71
703.21	1080.63
703.55	1090.92
703.88	1101.46
704.22	1102.63
704.55	1100.29
704.89	1101.92
705.23	1085.77
705.56	1077.58
705.90	1079.46
706.23	1081.33
706.57	1084.60
706.91	1094.67
707.24	1104.50
707.58	1111.52
707.91	1105.67
708.25	1110.35
708.58	1101.46
708.92	1087.65
709.26	1077.82
709.59	1074.31
709.93	1060.03
710.26	1062.14
710.60	1069.62
710.93	1070.33
711.27	1075.24
711.60	1078.05
711.94	1074.31
712.27	1076.41
712.61	1083.90
712.94	1089.29
713.28	1086.01
713.61	1086.24
713.95	1076.65
714.28	1067.99
714.62	1062.60
714.95	1062.60
715.29	1082.03
715.62	1088.12
715.96	1093.97
716.29	1099.35
716.63	1104.03
716.96	1089.05
717.29	1094.67
717.63	1097.24
717.96	1087.18
718.30	1075.01
718.63	1078.28
718.97	1072.20
719.30	1056.75
719.63	1066.82
719.97	1070.33
720.30	1063.07
720.64	1063.07
720.97	1077.11
721.30	1067.75
721.64	1079.92
721.97	1086.24
722.31	1082.73
722.64	1070.09
722.97	1072.67
723.31	1064.94
723.64	1060.26
723.97	1064.71
724.31	1066.35
724.64	1065.41
724.98	1073.84
725.31	1082.26
725.64	1078.28
725.98	1087.65
726.31	1096.07
726.64	1093.26
726.97	1096.78
727.31	1102.86
727.64	1105.44
727.97	1097.95
728.31	1096.78
728.64	1075.94
728.97	1070.56
729.31	1063.07
729.64	1071.97
729.97	1073.37
730.30	1085.77
730.64	1084.60
730.97	1087.88
731.30	1080.86
731.63	1069.86
731.97	1066.82
732.30	1060.96
732.63	1062.84
732.96	1062.84
733.30	1064.24
733.63	1063.07
733.96	1055.82
734.29	1057.45
734.63	1056.75
734.96	1067.99
735.29	1066.58
735.62	1074.31
735.95	1070.56
736.29	1074.07
736.62	1073.37
736.95	1078.52
737.28	1079.22
737.61	1072.90
737.94	1069.39
738.28	1067.75
738.61	1064.71
738.94	1066.11
739.27	1071.26
739.60	1065.65
739.93	1064.01
740.27	1058.62
740.60	1067.99
740.93	1063.07
741.26	1070.33
741.59	1071.26
741.92	1085.54
742.25	1086.01
742.58	1083.90
742.91	1092.56
743.25	1084.14
743.58	1072.67
743.91	1066.11
744.24	1070.09
744.57	1058.16
744.90	1068.22
745.23	1077.11
745.56	1079.22
745.89	1091.16
746.22	1096.78
746.55	1104.03
746.88	1109.88
747.21	1114.10
747.54	1108.95
747.87	1108.24
748.20	1096.54
748.53	1090.46
748.87	1082.50
749.20	1086.24
749.53	1087.41
749.86	1094.67
750.19	1086.48
750.52	1095.60
750.85	1086.24
751.18	1083.90
751.51	1078.28
751.84	1087.65
752.16	1085.54
752.49	1100.52
752.82	1100.05
753.15	1100.29
753.48	1090.92
753.81	1083.20
754.14	1066.35
754.47	1064.24
754.80	1066.11
755.13	1064.71
755.46	1075.48
755.79	1073.14
756.12	1077.35
756.45	1078.52
756.78	1083.67
757.11	1081.09
757.43	1085.54
757.76	1081.09
758.09	1085.77
758.42	1090.46
758.75	1081.56
759.08	1080.86
759.41	1084.14
759.74	1081.09
760.07	1079.46
760.39	1078.28
760.72	1073.14
761.05	1073.37
761.38	1075.01
761.71	1075.48
762.04	1085.07
762.36	1099.12
762.69	1111.29
763.02	1100.05
763.35	1097.71
763.68	1097.24
764.01	1088.35
764.33	1084.37
764.66	1089.75
764.99	1094.90
765.32	1096.31
765.65	1093.26
765.97	1083.20
766.30	1080.16
766.63	1069.62
766.96	1063.07
767.28	1066.11
767.61	1072.90
767.94	1074.31
768.27	1082.73
768.59	1083.67
768.92	1088.12
769.25	1087.18
769.58	1086.01
769.90	1097.01
770.23	1099.35
770.56	1103.80
770.89	1085.31
771.21	1089.05
771.54	1076.41
771.87	1080.16
772.19	1081.56
772.52	1104.26
772.85	1102.39
773.17	1100.05
773.50	1092.33
773.83	1089.99
774.15	1075.71
774.48	1075.71
774.81	1078.05
775.13	1073.37
775.46	1063.31
775.79	1068.45
776.11	1064.01
776.44	1067.52
776.77	1078.52
777.09	1072.43
777.42	1072.20
777.74	1078.28
778.07	1077.11
778.40	1077.58
778.72	1087.41
779.05	1081.56
779.37	1079.22
779.70	1072.90
780.03	1064.48
780.35	1055.58
780.68	1065.65
781.00	1069.86
781.33	1081.80
781.65	1086.71
781.98	1093.03
782.31	1078.75
782.63	1080.86
782.96	1067.99
783.28	1061.67
783.61	1071.26
783.93	1084.37
784.26	1080.86
784.58	1081.09
784.91	1082.50
785.23	1074.31
785.56	1068.22
785.88	1064.01
786.21	1065.88
786.53	1081.33
786.86	1088.82
787.18	1095.60
787.51	1085.54
787.83	1092.56
788.16	1085.31
788.48	1078.99
788.81	1072.20
789.13	1081.80
789.46	1074.07
789.78	1068.69
790.10	1072.90
790.43	1078.28
790.75	1083.43
791.08	1088.12
791.40	1086.01
791.73	1093.50
792.05	1097.01
792.37	1095.60
792.70	1091.86
793.02	1096.54
793.35	1092.09
793.67	1092.33
793.99	1093.97
794.32	1100.05
794.64	1099.12
794.96	1089.52
795.29	1083.90
795.61	1086.48
795.93	1084.84
796.26	1086.01
796.58	1079.69
796.91	1070.09
797.23	1067.52
797.55	1065.18
797.87	1074.07
798.20	1080.86
798.52	1084.60
798.84	1087.65
799.17	1090.69
799.49	1072.67
799.81	1079.22
800.14	1080.63
800.46	1081.80
800.78	1082.97
801.10	1090.69
801.43	1078.28
801.75	1080.86
802.07	1073.37
802.40	1069.86
802.72	1075.71
803.04	1084.84
803.36	1086.01
803.69	1089.52
804.01	1089.05
804.33	1080.63
804.65	1085.77
804.97	1091.39
805.30	1087.88
805.62	1093.26
805.94	1094.90
806.26	1089.99
806.58	1080.39
806.91	1087.18
807.23	1070.80
807.55	1070.56
807.87	1071.97
808.19	1076.41
808.52	1073.84
808.84	1079.46
809.16	1079.46
809.48	1075.94
809.80	1067.52
810.12	1069.86
810.44	1076.18
810.77	1073.60
811.09	1071.50
811.41	1088.12
811.73	1081.33
812.05	1084.14
812.37	1088.58
812.69	1089.99
813.01	1072.90
813.33	1077.11
813.66	1071.26
813.98	1068.45
814.30	1072.67
814.62	1079.22
814.94	1070.09
815.26	1074.31
815.58	1077.35
815.90	1081.80
816.22	1080.63
816.54	1085.31
816.86	1084.14
817.18	1078.52
817.50	1073.14
817.82	1067.28
818.14	1060.26
818.46	1059.09
818.78	1062.37
819.10	1063.07
819.42	1077.58
819.74	1081.56
820.06	1095.84
820.38	1101.22
820.70	1102.39
821.02	1102.63
821.34	1111.05
821.66	1093.03
821.98	1085.31
822.30	1080.16
822.62	1082.73
822.94	1085.31
823.26	1089.29
823.58	1096.07
823.90	1102.16
824.22	1092.33
824.54	1088.12
824.86	1087.18
825.18	1081.09
825.50	1083.67
825.81	1081.33
826.13	1082.73
826.45	1089.99
826.77	1094.20
827.09	1087.65
827.41	1081.56
827.73	1076.65
828.05	1071.97
828.36	1073.60
828.68	1082.97
829.00	1081.09
829.32	1081.33
829.64	1081.56
829.96	1082.97
830.28	1084.37
830.59	1098.41
830.91	1105.44
831.23	1094.90
831.55	1091.39
831.87	1079.69
832.19	1075.24
832.50	1068.22
832.82	1080.16
833.14	1089.75
833.46	1094.20
833.78	1087.41
834.09	1083.90
834.41	1081.56
834.73	1066.82
835.05	1059.79
835.36	1068.22
835.68	1076.65
836.00	1074.54
836.32	1079.46
836.63	1081.56
836.95	1075.71
837.27	1071.50
837.59	1064.94
837.90	1065.41
838.22	1060.50
838.54	1060.96
838.85	1062.14
839.17	1062.14
839.49	1056.28
839.80	1067.75
840.12	1067.52
840.44	1061.67
840.76	1070.09
841.07	1078.99
841.39	1081.33
841.71	1090.69
842.02	1095.14
842.34	1098.65
842.65	1096.78
842.97	1086.24
843.29	1088.12
843.60	1092.09
843.92	1082.26
844.24	1078.05
844.55	1079.92
844.87	1074.31
845.18	1079.46
845.50	1087.65
845.82	1086.71
846.13	1081.09
846.45	1084.14
846.76	1081.80
847.08	1085.31
847.40	1091.39
847.71	1096.07
848.03	1096.07
848.34	1085.54
848.66	1077.58
848.97	1069.16
849.29	1071.50
849.60	1075.71
849.92	1079.92
850.24	1089.52
850.55	1086.24
850.87	1098.65
851.18	1085.54
851.50	1080.86
851.81	1065.88
852.13	1081.33
852.44	1070.09
852.76	1069.16
853.07	1072.43
853.39	1086.48
853.70	1085.07
854.01	1078.28
854.33	1086.48
854.64	1090.92
854.96	1089.75
855.27	1093.26
855.59	1103.80
855.90	1103.80
856.22	1112.92
856.53	1109.88
856.84	1095.60
857.16	1083.67
857.47	1085.77
857.79	1073.84
858.10	1067.52
858.41	1070.56
858.73	1077.82
859.04	1078.75
859.36	1074.77
859.67	1081.80
859.98	1081.33
860.30	1073.84
860.61	1075.24
860.92	1073.60
861.24	1071.26
861.55	1078.28
861.87	1083.90
862.18	1081.33
862.49	1082.03
862.81	1084.60
863.12	1081.80
863.43	1076.18
863.74	1063.77
864.06	1056.52
864.37	1056.75
864.68	1054.88
865.00	1061.43
865.31	1076.88
865.62	1091.63
865.94	1099.58
866.25	1091.16
866.56	1089.99
866.87	1081.80
867.19	1078.75
867.50	1066.82
867.81	1068.69
868.12	1067.52
868.44	1064.71
868.75	1072.43
869.06	1066.11
869.37	1074.77
869.68	1079.92
870.00	1091.39
870.31	1085.77
870.62	1086.48
870.93	1086.48
871.24	1078.75
871.56	1063.77
871.87	1063.31
872.18	1069.16
872.49	1066.11
872.80	1069.86
873.12	1073.37
873.43	1071.50
873.74	1066.58
874.05	1059.79
874.36	1058.62
874.67	1063.54
874.98	1069.16
875.29	1072.20
875.61	1084.84
875.92	1092.80
876.23	1093.26
876.54	1087.41
876.85	1095.84
877.16	1092.80
877.47	1078.05
877.78	1071.50
878.09	1064.24
878.40	1053.01
878.72	1049.03
879.03	1055.58
879.34	1061.20
879.65	1065.41
879.96	1074.31
880.27	1084.37
880.58	1086.48
880.89	1091.16
881.20	1091.86
881.51	1091.86
881.82	1087.18
882.13	1086.94
882.44	1077.82
882.75	1087.41
883.06	1087.41
883.37	1072.43
883.68	1070.80
883.99	1074.54
884.30	1072.20
884.61	1071.97
884.92	1081.09
885.23	1083.90
885.54	1078.05
885.85	1070.56
886.16	1073.84
886.47	1072.90
886.78	1067.52
887.08	1068.69
887.39	1075.71
887.70	1070.33
888.01	1076.65
888.32	1084.37
888.63	1089.29
888.94	1081.33
889.25	1079.46
889.56	1079.69
889.87	1079.46
890.17	1083.20
890.48	1089.99
890.79	1080.39
891.10	1075.71
891.41	1073.14
891.72	1071.26
892.03	1072.20
892.34	1078.75
892.64	1076.65
892.95	1082.26
893.26	1086.01
893.57	1079.92
893.88	1089.29
894.18	1095.84
894.49	1093.97
894.80	1092.33
895.11	1091.16
895.42	1080.63
895.72	1071.73
896.03	1071.26
896.34	1076.41
896.65	1071.50
896.96	1078.52
897.26	1085.54
897.57	1082.73
897.88	1073.60
898.19	1082.03
898.49	1073.84
898.80	1081.56
899.11	1085.54
899.41	1073.14
899.72	1074.07
900.03	1081.56
900.34	1074.54
900.64	1064.24
900.95	1071.97
901.26	1058.62
901.56	1053.01
901.87	1047.86
902.18	1067.75
902.48	1080.16
902.79	1091.63
903.10	1106.14
903.40	1111.29
903.71	1104.97
904.02	1095.60
904.32	1092.09
904.63	1072.43
904.94	1079.46
905.24	1079.22
905.55	1086.24
905.85	1088.82
906.16	1102.86
906.47	1096.54
906.77	1084.14
907.08	1078.99
907.38	1074.77
907.69	1072.67
908.00	1067.99
908.30	1070.80
908.61	1072.43
908.91	1076.41
909.22	1071.73
909.52	1080.86
909.83	1079.22
910.14	1079.92
910.44	1085.54
910.75	1080.86
911.05	1072.90
911.36	1072.67
911.66	1068.92
911.97	1056.99
912.27	1054.18
912.58	1056.28
912.88	1063.07
913.19	1069.39
913.49	1077.35
913.80	1090.92
914.10	1091.16
914.41	1096.78
914.71	1093.73
915.01	1098.41
915.32	1097.95
915.62	1101.69
915.93	1102.39
916.23	1105.90
916.54	1103.33
916.84	1090.69
917.15	1085.07
917.45	1075.94
917.75	1072.43
918.06	1078.75
918.36	1085.54
918.67	1093.73
918.97	1102.16
919.27	1098.41
919.58	1087.18
919.88	1087.18
920.18	1081.09
920.49	1077.58
920.79	1077.58
921.10	1088.58
921.40	1095.37
921.70	1096.54
922.01	1085.07
922.31	1087.65
922.61	1070.33
922.92	1066.11
923.22	1067.05
923.52	1076.18
923.82	1075.01
924.13	1083.43
924.43	1068.45
924.73	1067.05
925.04	1062.60
925.34	1058.39
925.64	1064.24
925.94	1079.92
926.25	1080.39
926.55	1079.92
926.85	1086.24
927.15	1080.86
927.46	1082.26
927.76	1082.50
928.06	1091.16
928.36	1096.54
928.67	1090.92
928.97	1078.28
929.27	1078.52
929.57	1073.84
929.87	1064.24
930.18	1064.24
930.48	1073.14
930.78	1067.05
931.08	1068.45
931.38	1062.14
931.69	1065.41
931.99	1067.05
932.29	1075.48
932.59	1073.60
932.89	1080.39
933.19	1087.88
933.49	1088.12
933.80	1090.46
934.10	1087.88
934.40	1083.43
934.70	1075.24
935.00	1059.56
935.30	1041.77
935.60	1034.28
935.90	1039.90
936.20	1043.41
936.50	1054.41
936.81	1067.75
937.11	1074.54
937.41	1078.52
937.71	1084.84
938.01	1092.80
938.31	1086.01
938.61	1088.35
938.91	1087.65
939.21	1089.99
939.51	1083.20
939.81	1084.60
940.11	1079.69
940.41	1081.09
940.71	1077.35
941.01	1082.26
941.31	1092.56
941.61	1097.24
941.91	1102.39
942.21	1099.82
942.51	1093.97
942.81	1084.84
943.11	1084.84
943.41	1078.05
943.71	1085.07
944.01	1084.37
944.31	1087.18
944.61	1083.67
944.90	1089.99
945.20	1074.07
945.50	1080.63
945.80	1075.01
946.10	1080.86
946.40	1066.11
946.70	1064.01
947.00	1066.35
947.30	1070.33
947.60	1060.96
947.89	1058.16
948.19	1070.09
948.49	1071.03
948.79	1069.86
949.09	1068.45
949.39	1086.48
949.69	1086.24
949.98	1088.35
950.28	1092.56
950.58	1108.24
950.88	1094.67
951.18	1092.09
951.48	1079.69
951.77	1078.99
952.07	1078.05
952.37	1088.82
952.67	1092.80
952.97	1101.92
953.26	1097.95
953.56	1087.41
953.86	1084.37
954.16	1081.56
954.45	1068.92
954.75	1075.01
955.05	1091.86
955.35	1079.69
955.64	1080.86
955.94	1088.58
956.24	1081.56
956.54	1073.84
956.83	1082.26
957.13	1082.97
957.43	1084.60
957.72	1082.03
958.02	1073.14
958.32	1076.18
958.61	1071.73
958.91	1071.73
959.21	1082.50
959.50	1090.46
959.80	1085.31
960.10	1084.37
960.39	1081.09
960.69	1075.48
960.99	1072.90
961.28	1083.90
961.58	1082.73
961.87	1084.37
962.17	1086.24
962.47	1082.26
962.76	1066.82
963.06	1072.67
963.36	1077.11
963.65	1069.16
963.95	1065.18
964.24	1068.22
964.54	1067.52
964.83	1064.48
965.13	1068.22
965.42	1079.69
965.72	1071.26
966.02	1062.60
966.31	1065.88
966.61	1075.01
966.90	1068.45
967.20	1080.86
967.49	1082.03
967.79	1070.80
968.08	1056.28
968.38	1062.37
968.67	1064.01
968.97	1066.58
969.26	1066.82
969.56	1078.05
969.85	1081.09
970.15	1075.94
970.44	1079.69
970.74	1081.80
971.03	1074.07
971.32	1066.82
971.62	1067.75
971.91	1062.14
972.21	1058.39
972.50	1068.69
972.80	1067.28
973.09	1061.20
973.38	1059.33
973.68	1069.86
973.97	1071.26
974.27	1070.56
974.56	1088.35
974.85	1088.82
975.15	1085.07
975.44	1079.22
975.73	1085.54
976.03	1084.60
976.32	1092.33
976.61	1093.73
976.91	1091.86
977.20	1092.80
977.49	1090.22
977.79	1090.69
978.08	1084.60
978.37	1088.82
978.67	1078.75
978.96	1068.92
979.25	1064.94
979.55	1069.62
979.84	1075.71
980.13	1081.09
980.42	1091.39
980.72	1096.07
981.01	1098.41
981.30	1085.07
981.59	1094.43
981.89	1082.50
982.18	1090.92
982.47	1091.86
982.76	1088.12
983.06	1072.43
983.35	1072.43
983.64	1058.62
983.93	1058.39
984.22	1070.33
984.52	1074.77
984.81	1078.99
985.10	1090.22
985.39	1084.37
985.68	1078.28
985.97	1077.82
986.27	1081.56
986.56	1077.82
986.85	1079.92
987.14	1075.71
987.43	1075.01
987.72	1072.43
988.01	1069.62
988.31	1065.41
988.60	1072.90
988.89	1078.05
989.18	1076.41
989.47	1078.05
989.76	1083.20
990.05	1086.94
990.34	1086.24
990.63	1087.18
990.92	1085.77
991.21	1089.52
991.51	1089.05
991.80	1088.82
992.09	1082.26
992.38	1078.28
992.67	1073.84
992.96	1069.86
993.25	1062.60
993.54	1063.07
993.83	1060.50
994.12	1070.33
994.41	1065.41
994.70	1072.20
994.99	1070.80
995.28	1074.54
995.57	1074.77
995.86	1092.33
996.15	1085.54
996.44	1090.69
996.73	1092.56
997.02	1078.99
997.31	1063.07
997.59	1071.73
997.88	1071.03
998.17	1071.73
998.46	1076.88
998.75	1071.73
999.04	1069.62
999.33	1073.84
999.62	1074.77
999.91	1076.65
1000.20	1087.88
1000.49	1084.14
1000.77	1089.99
1001.06	1091.16
1001.35	1089.52
1001.64	1089.05
1001.93	1092.09
1002.22	1094.67
1002.51	1091.63
1002.79	1093.26
1003.08	1098.18
1003.37	1103.09
1003.66	1098.88
1003.95	1094.43
1004.23	1093.26
1004.52	1077.58
1004.81	1083.90
1005.10	1082.03
1005.39	1089.29
1005.67	1088.35
1005.96	1098.88
1006.25	1078.75
1006.54	1079.69
1006.83	1072.43
1007.11	1073.60
1007.40	1076.41
1007.69	1086.01
1007.97	1084.84
1008.26	1096.78
1008.55	1094.43
1008.84	1090.92
1009.12	1094.20
1009.41	1084.60
1009.70	1073.14
1009.98	1075.71
1010.27	1058.62
1010.56	1049.73
1010.85	1066.82
1011.13	1071.73
1011.42	1070.09
1011.71	1086.48
1011.99	1091.63
1012.28	1081.80
1012.56	1082.50
1012.85	1082.03
1013.14	1085.31
1013.42	1088.12
1013.71	1095.60
1014.00	1088.12
1014.28	1094.43
1014.57	1091.63
1014.85	1087.88
1015.14	1078.99
1015.43	1081.33
1015.71	1080.16
1016.00	1081.33
1016.28	1069.16
1016.57	1063.54
1016.85	1071.97
1017.14	1061.90
1017.43	1056.75
1017.71	1064.71
1018.00	1068.22
1018.28	1066.82
1018.57	1070.80
1018.85	1075.71
1019.14	1080.16
1019.42	1087.18
1019.71	1081.80
1019.99	1076.65
1020.28	1074.07
1020.56	1076.65
1020.85	1076.41
1021.13	1080.63
1021.42	1094.43
1021.70	1091.16
1021.99	1089.99
1022.27	1075.24
1022.55	1083.67
1022.84	1019.30
>>>>>End Processed Spectral Data<<<<<
