SpectraSuite Data File
++++++++++++++++++++++++++++++++++++
Date: Mon Aug 26 10:24:48 PDT 2019
User: corrico
Dark Spectrum Present: No
Reference Spectrum Present: No
Number of Sampled Component Spectra: 1
Spectrometers: USB2+H06089
Integration Time (usec): 10000 (USB2+H06089)
Spectra Averaged: 2 (USB2+H06089)
Boxcar Smoothing: 2 (USB2+H06089)
Correct for Electrical Dark: No (USB2+H06089)
Strobe/Lamp Enabled: No (USB2+H06089)
Correct for Detector Non-linearity: No (USB2+H06089)
Correct for Stray Light: No (USB2+H06089)
Number of Pixels in Processed Spectrum: 2048
>>>>>Begin Processed Spectral Data<<<<<
339.70	1059.09
340.07	1059.09
340.45	1007.13
340.82	974.60
341.19	943.00
341.57	908.60
341.94	892.45
342.31	886.59
342.69	888.23
343.06	890.34
343.43	887.53
343.81	898.06
344.18	896.43
344.55	895.96
344.93	895.72
345.30	910.23
345.67	920.06
346.04	939.26
346.42	951.19
346.79	949.79
347.16	958.45
347.54	962.90
347.91	968.98
348.28	971.79
348.65	998.71
349.03	1010.88
349.40	1016.73
349.77	1023.52
350.14	1045.05
350.52	1055.11
350.89	1057.45
351.26	1073.37
351.63	1081.33
352.01	1070.56
352.38	1070.09
352.75	1072.90
353.12	1074.31
353.50	1078.28
353.87	1096.31
354.24	1098.41
354.61	1100.29
354.98	1091.86
355.36	1100.99
355.73	1104.50
356.10	1096.31
356.47	1094.90
356.84	1099.35
357.22	1090.46
357.59	1081.09
357.96	1089.75
358.33	1093.97
358.70	1095.14
359.08	1088.12
359.45	1092.56
359.82	1091.39
360.19	1089.75
360.56	1088.12
360.94	1095.14
361.31	1088.58
361.68	1081.09
362.05	1081.09
362.42	1085.07
362.79	1085.07
363.16	1079.92
363.54	1086.01
363.91	1086.48
364.28	1088.82
364.65	1079.69
365.02	1088.58
365.39	1089.75
365.76	1085.31
366.14	1085.77
366.51	1093.03
366.88	1091.63
367.25	1093.50
367.62	1096.54
367.99	1085.77
368.36	1086.48
368.73	1081.09
369.10	1075.94
369.48	1074.54
369.85	1074.07
370.22	1066.82
370.59	1065.65
370.96	1061.90
371.33	1065.65
371.70	1070.56
372.07	1081.56
372.44	1084.37
372.81	1092.56
373.18	1099.12
373.55	1097.71
373.93	1086.94
374.30	1084.37
374.67	1093.26
375.04	1085.31
375.41	1087.18
375.78	1097.24
376.15	1104.97
376.52	1086.01
376.89	1090.69
377.26	1099.35
377.63	1099.58
378.00	1098.88
378.37	1113.16
378.74	1105.90
379.11	1094.43
379.48	1092.56
379.85	1105.90
380.22	1108.48
380.59	1107.78
380.96	1112.69
381.33	1115.73
381.70	1100.29
382.07	1090.69
382.44	1089.99
382.81	1095.84
383.18	1098.18
383.55	1098.18
383.92	1111.29
384.29	1122.29
384.66	1120.41
385.03	1116.20
385.40	1118.78
385.77	1108.95
386.14	1103.56
386.51	1102.63
386.88	1106.61
387.25	1108.48
387.62	1115.27
387.99	1122.05
388.36	1112.92
388.73	1111.52
389.10	1122.05
389.46	1117.37
389.83	1112.46
390.20	1116.20
390.57	1113.16
390.94	1109.18
391.31	1116.67
391.68	1107.07
392.05	1113.16
392.42	1109.88
392.79	1105.67
393.16	1104.26
393.53	1110.82
393.89	1107.31
394.26	1114.10
394.63	1118.54
395.00	1114.80
395.37	1115.97
395.74	1124.16
396.11	1129.07
396.48	1130.71
396.84	1137.97
397.21	1147.10
397.58	1153.65
397.95	1142.88
398.32	1140.54
398.69	1139.84
399.06	1135.63
399.42	1133.29
399.79	1140.31
400.16	1147.80
400.53	1152.25
400.90	1160.20
401.27	1157.39
401.64	1160.67
402.00	1155.05
402.37	1162.31
402.74	1163.25
403.11	1171.67
403.48	1180.10
403.84	1199.06
404.21	1198.35
404.58	1205.84
404.95	1212.16
405.32	1229.25
405.68	1234.40
406.05	1238.85
406.42	1252.19
406.79	1270.68
407.16	1279.34
407.52	1288.93
407.89	1321.70
408.26	1339.96
408.63	1355.40
408.99	1380.45
409.36	1397.53
409.73	1410.64
410.10	1441.54
410.47	1474.07
410.83	1507.30
411.20	1552.95
411.57	1592.73
411.94	1631.35
412.30	1679.33
412.67	1736.91
413.04	1792.38
413.40	1840.36
413.77	1902.15
414.14	1959.96
414.51	2014.73
414.87	2084.25
415.24	2150.95
415.61	2234.04
415.97	2300.51
416.34	2376.35
416.71	2473.71
417.08	2595.65
417.44	2680.38
417.81	2820.58
418.18	2967.57
418.54	3098.40
418.91	3229.24
419.28	3394.01
419.64	3528.36
420.01	3661.77
420.38	3833.56
420.74	4021.04
421.11	4218.35
421.48	4451.23
421.84	4684.35
422.21	4903.19
422.58	5177.97
422.94	5463.75
423.31	5709.74
423.68	6008.62
424.04	6318.04
424.41	6575.27
424.77	6859.17
425.14	7188.49
425.51	7503.06
425.87	7874.03
426.24	8268.18
426.61	8708.90
426.97	9191.52
427.34	9644.18
427.70	10116.03
428.07	10592.33
428.44	11095.31
428.80	11605.55
429.17	12174.30
429.53	12743.05
429.90	13415.95
430.27	13992.19
430.63	14567.26
431.00	15243.44
431.36	16010.20
431.73	16615.46
432.09	17293.28
432.46	18017.68
432.83	18654.54
433.19	19192.39
433.56	19893.62
433.92	20643.99
434.29	21256.04
434.65	21978.33
435.02	22611.92
435.38	23293.48
435.75	23781.95
436.11	24485.98
436.48	24940.75
436.84	25500.37
437.21	25982.29
437.57	26417.63
437.94	26764.49
438.30	27186.96
438.67	27463.14
439.03	27576.43
439.40	27771.39
439.76	27702.35
440.13	27626.28
440.49	27591.64
440.86	27309.37
441.22	27066.42
441.59	26755.13
441.95	26381.82
442.32	25842.56
442.68	25452.16
443.05	24876.85
443.41	24366.85
443.78	23752.22
444.14	23183.71
444.51	22580.08
444.87	22099.81
445.24	21611.10
445.60	21196.83
445.96	20661.08
446.33	20183.61
446.69	19622.12
447.06	19060.39
447.42	18450.44
447.79	17924.52
448.15	17491.53
448.51	16982.22
448.88	16563.97
449.24	16106.16
449.61	15806.11
449.97	15398.38
450.33	15027.64
450.70	14610.79
451.06	14270.01
451.43	13784.59
451.79	13393.48
452.15	13057.61
452.52	12743.28
452.88	12411.86
453.24	12117.66
453.61	11817.13
453.97	11532.99
454.34	11219.83
454.70	10998.18
455.06	10747.97
455.43	10458.92
455.79	10114.39
456.15	9833.99
456.52	9455.06
456.88	9194.09
457.24	8915.57
457.61	8710.77
457.97	8465.25
458.33	8241.49
458.70	7965.08
459.06	7698.49
459.42	7451.10
459.79	7167.42
460.15	6946.01
460.51	6716.40
460.88	6511.84
461.24	6277.78
461.60	6116.76
461.96	5933.02
462.33	5764.74
462.69	5607.92
463.05	5455.09
463.42	5333.85
463.78	5184.29
464.14	5037.30
464.50	4909.27
464.87	4814.48
465.23	4679.67
465.59	4573.87
465.95	4470.19
466.32	4377.27
466.68	4273.58
467.04	4165.69
467.40	4087.98
467.77	4008.17
468.13	3914.31
468.49	3833.80
468.85	3785.82
469.22	3710.45
469.58	3650.53
469.94	3585.23
470.30	3496.06
470.66	3400.56
471.03	3335.50
471.39	3270.90
471.75	3212.85
472.11	3170.26
472.47	3133.28
472.84	3076.63
473.20	3008.06
473.56	2951.42
473.92	2902.73
474.28	2858.96
474.65	2804.66
475.01	2753.87
475.37	2716.19
475.73	2673.83
476.09	2619.29
476.45	2590.04
476.81	2571.78
477.18	2535.03
477.54	2496.65
477.90	2471.14
478.26	2424.09
478.62	2384.07
478.98	2349.20
479.34	2316.66
479.71	2282.49
480.07	2259.79
480.43	2238.02
480.79	2209.23
481.15	2179.04
481.51	2152.82
481.87	2124.97
482.23	2106.01
482.59	2083.78
482.96	2061.31
483.32	2052.65
483.68	2031.82
484.04	1994.37
484.40	1970.50
484.76	1950.84
485.12	1917.13
485.48	1891.62
485.84	1887.17
486.20	1866.11
486.56	1842.00
486.92	1828.66
487.28	1823.98
487.64	1790.28
488.00	1768.51
488.37	1743.47
488.73	1725.21
489.09	1703.44
489.45	1700.87
489.81	1698.76
490.17	1707.19
490.53	1678.87
490.89	1663.89
491.25	1636.27
491.61	1617.08
491.97	1587.12
492.33	1573.07
492.69	1550.60
493.05	1542.18
493.41	1520.18
493.77	1499.11
494.13	1492.56
494.49	1479.92
494.85	1466.35
495.21	1455.35
495.57	1458.15
495.93	1448.32
496.29	1441.77
496.64	1428.90
497.00	1413.92
497.36	1399.64
497.72	1397.07
498.08	1399.64
498.44	1388.87
498.80	1387.00
499.16	1376.47
499.52	1357.04
499.88	1332.70
500.24	1320.53
500.60	1321.93
500.96	1326.85
501.32	1326.15
501.68	1328.49
502.03	1321.23
502.39	1314.21
502.75	1289.87
503.11	1289.17
503.47	1287.06
503.83	1288.70
504.19	1274.19
504.55	1273.95
504.91	1265.76
505.26	1255.23
505.62	1252.65
505.98	1260.14
506.34	1263.42
506.70	1253.59
507.06	1239.55
507.42	1236.27
507.78	1215.44
508.13	1205.38
508.49	1207.01
508.85	1216.14
509.21	1206.78
509.57	1209.59
509.93	1212.40
510.28	1207.01
510.64	1198.12
511.00	1207.25
511.36	1201.63
511.72	1198.35
512.07	1194.38
512.43	1193.21
512.79	1186.18
513.15	1186.89
513.51	1185.48
513.86	1188.76
514.22	1186.18
514.58	1174.71
514.94	1174.95
515.30	1179.86
515.65	1176.82
516.01	1178.46
516.37	1185.25
516.73	1179.16
517.08	1166.76
517.44	1161.84
517.80	1159.50
518.16	1161.14
518.51	1160.20
518.87	1159.03
519.23	1162.08
519.59	1147.56
519.94	1141.48
520.30	1135.39
520.66	1128.84
521.01	1119.95
521.37	1138.44
521.73	1132.12
522.09	1136.56
522.44	1146.39
522.80	1147.56
523.16	1144.52
523.51	1146.86
523.87	1146.63
524.23	1132.59
524.58	1124.63
524.94	1119.48
525.30	1118.07
525.65	1121.12
526.01	1124.63
526.37	1136.56
526.72	1135.16
527.08	1134.46
527.44	1128.61
527.79	1133.05
528.15	1120.18
528.51	1120.65
528.86	1127.67
529.22	1122.52
529.58	1124.39
529.93	1130.95
530.29	1127.20
530.65	1114.80
531.00	1111.52
531.36	1109.18
531.71	1115.27
532.07	1112.69
532.43	1126.97
532.78	1138.44
533.14	1133.52
533.49	1130.71
533.85	1138.90
534.21	1122.99
534.56	1119.48
534.92	1116.20
535.27	1117.61
535.63	1110.35
535.98	1123.22
536.34	1126.73
536.69	1131.88
537.05	1119.95
537.41	1115.03
537.76	1106.14
538.12	1111.99
538.47	1102.39
538.83	1109.41
539.18	1123.69
539.54	1125.80
539.89	1108.48
540.25	1116.20
540.60	1112.22
540.96	1101.22
541.31	1095.84
541.67	1096.54
542.02	1100.05
542.38	1110.12
542.73	1110.12
543.09	1112.69
543.44	1112.69
543.80	1102.63
544.15	1097.48
544.51	1101.92
544.86	1107.07
545.22	1112.92
545.57	1126.50
545.93	1123.69
546.28	1122.29
546.64	1127.44
546.99	1128.37
547.35	1122.99
547.70	1121.12
548.05	1112.92
548.41	1105.20
548.76	1105.90
549.12	1104.97
549.47	1111.99
549.83	1115.97
550.18	1116.44
550.53	1111.05
550.89	1105.67
551.24	1099.12
551.60	1097.71
551.95	1097.48
552.30	1105.44
552.66	1108.71
553.01	1110.82
553.37	1117.61
553.72	1115.27
554.07	1108.48
554.43	1111.52
554.78	1109.18
555.13	1105.67
555.49	1102.86
555.84	1116.67
556.19	1111.99
556.55	1118.54
556.90	1113.63
557.26	1115.73
557.61	1099.82
557.96	1098.88
558.32	1093.03
558.67	1094.67
559.02	1093.97
559.37	1094.20
559.73	1103.56
560.08	1101.46
560.43	1099.82
560.79	1104.50
561.14	1107.31
561.49	1113.16
561.85	1120.41
562.20	1126.73
562.55	1112.92
562.90	1113.86
563.26	1102.39
563.61	1100.75
563.96	1103.56
564.32	1114.56
564.67	1110.58
565.02	1106.84
565.37	1094.67
565.73	1089.29
566.08	1080.63
566.43	1083.20
566.78	1090.22
567.14	1096.78
567.49	1090.22
567.84	1101.22
568.19	1099.35
568.54	1082.26
568.90	1087.88
569.25	1094.43
569.60	1082.97
569.95	1087.88
570.31	1099.12
570.66	1095.60
571.01	1099.58
571.36	1106.84
571.71	1104.73
572.06	1105.90
572.42	1105.44
572.77	1103.33
573.12	1103.56
573.47	1100.29
573.82	1100.29
574.18	1094.43
574.53	1090.69
574.88	1093.26
575.23	1099.35
575.58	1102.86
575.93	1103.56
576.28	1101.22
576.64	1106.14
576.99	1099.35
577.34	1083.43
577.69	1086.71
578.04	1083.90
578.39	1078.75
578.74	1078.75
579.09	1087.41
579.44	1086.01
579.80	1086.24
580.15	1083.90
580.50	1084.84
580.85	1077.58
581.20	1084.84
581.55	1085.31
581.90	1092.33
582.25	1096.07
582.60	1105.67
582.95	1098.18
583.30	1106.61
583.65	1097.01
584.00	1090.92
584.35	1082.26
584.71	1089.05
585.06	1091.16
585.41	1088.12
585.76	1097.01
586.11	1101.69
586.46	1091.16
586.81	1088.82
587.16	1093.50
587.51	1085.77
587.86	1088.82
588.21	1093.50
588.56	1086.01
588.91	1086.01
589.26	1090.22
589.61	1097.95
589.96	1107.31
590.31	1117.61
590.66	1119.95
591.01	1121.35
591.36	1115.03
591.71	1109.18
592.06	1108.48
592.41	1104.26
592.76	1103.09
593.10	1101.22
593.45	1093.73
593.80	1090.22
594.15	1089.29
594.50	1093.50
594.85	1093.97
595.20	1098.88
595.55	1096.07
595.90	1097.01
596.25	1082.97
596.60	1087.65
596.95	1090.46
597.30	1086.48
597.64	1129.78
597.99	1134.69
598.34	1132.35
598.69	1130.24
599.04	1131.18
599.39	1088.35
599.74	1089.75
600.09	1087.88
600.44	1086.24
600.78	1092.80
601.13	1091.63
601.48	1095.37
601.83	1094.43
602.18	1089.75
602.53	1083.20
602.88	1086.01
603.22	1082.50
603.57	1083.43
603.92	1085.54
604.27	1084.84
604.62	1082.03
604.97	1078.99
605.31	1078.05
605.66	1079.92
606.01	1085.07
606.36	1085.54
606.71	1088.12
607.05	1098.18
607.40	1093.97
607.75	1089.05
608.10	1093.73
608.44	1095.37
608.79	1091.86
609.14	1099.82
609.49	1108.01
609.84	1106.37
610.18	1110.12
610.53	1105.44
610.88	1104.26
611.23	1100.75
611.57	1098.65
611.92	1090.46
612.27	1093.03
612.62	1097.24
612.96	1104.26
613.31	1108.71
613.66	1119.71
614.00	1110.82
614.35	1101.92
614.70	1090.46
615.05	1082.50
615.39	1070.80
615.74	1065.88
616.09	1072.90
616.43	1081.56
616.78	1092.09
617.13	1093.97
617.47	1099.35
617.82	1096.07
618.17	1087.88
618.51	1087.18
618.86	1092.33
619.21	1094.90
619.55	1099.35
619.90	1099.35
620.25	1099.35
620.59	1088.35
620.94	1087.18
621.29	1080.63
621.63	1076.88
621.98	1073.84
622.32	1079.22
622.67	1083.90
623.02	1085.54
623.36	1091.16
623.71	1083.67
624.05	1085.77
624.40	1074.54
624.75	1073.14
625.09	1076.88
625.44	1079.22
625.78	1078.75
626.13	1087.18
626.48	1079.92
626.82	1080.86
627.17	1082.26
627.51	1078.99
627.86	1080.39
628.20	1085.54
628.55	1084.60
628.89	1084.84
629.24	1089.99
629.58	1092.80
629.93	1102.39
630.28	1110.35
630.62	1111.29
630.97	1101.22
631.31	1099.58
631.66	1098.18
632.00	1084.60
632.35	1084.84
632.69	1090.22
633.04	1084.84
633.38	1075.48
633.73	1071.73
634.07	1075.94
634.42	1081.80
634.76	1080.39
635.11	1090.22
635.45	1097.71
635.79	1100.29
636.14	1100.05
636.48	1097.48
636.83	1090.69
637.17	1081.56
637.52	1077.11
637.86	1078.52
638.21	1083.43
638.55	1084.37
638.89	1082.26
639.24	1082.03
639.58	1081.09
639.93	1071.97
640.27	1065.88
640.61	1077.82
640.96	1074.31
641.30	1064.94
641.65	1070.80
641.99	1074.31
642.33	1073.84
642.68	1073.84
643.02	1078.52
643.37	1086.01
643.71	1100.75
644.05	1099.35
644.40	1093.03
644.74	1091.86
645.08	1085.77
645.43	1083.67
645.77	1084.60
646.11	1097.24
646.46	1094.20
646.80	1096.78
647.14	1086.01
647.49	1082.03
647.83	1062.60
648.17	1060.73
648.52	1057.22
648.86	1066.82
649.20	1069.16
649.55	1068.22
649.89	1075.01
650.23	1084.84
650.57	1071.97
650.92	1073.60
651.26	1087.65
651.60	1082.50
651.95	1080.86
652.29	1083.90
652.63	1079.46
652.97	1079.92
653.32	1081.09
653.66	1076.41
654.00	1075.71
654.34	1079.46
654.69	1079.22
655.03	1086.94
655.37	1090.22
655.71	1092.80
656.05	1089.99
656.40	1083.67
656.74	1069.62
657.08	1064.01
657.42	1069.16
657.76	1066.35
658.11	1071.97
658.45	1080.16
658.79	1083.43
659.13	1071.03
659.47	1076.88
659.82	1074.77
660.16	1085.31
660.50	1087.18
660.84	1096.07
661.18	1097.01
661.52	1104.97
661.87	1098.65
662.21	1107.54
662.55	1109.65
662.89	1117.84
663.23	1111.75
663.57	1113.63
663.91	1097.95
664.25	1094.90
664.60	1085.77
664.94	1091.16
665.28	1084.14
665.62	1097.71
665.96	1093.26
666.30	1093.73
666.64	1089.52
666.98	1084.60
667.32	1070.33
667.66	1076.65
668.01	1079.92
668.35	1076.41
668.69	1092.80
669.03	1091.63
669.37	1085.31
669.71	1093.26
670.05	1104.26
670.39	1095.37
670.73	1101.46
671.07	1105.67
671.41	1088.58
671.75	1079.46
672.09	1081.33
672.43	1081.56
672.77	1082.03
673.11	1089.99
673.45	1088.82
673.79	1084.37
674.13	1083.67
674.47	1081.33
674.81	1078.05
675.15	1074.31
675.49	1078.99
675.83	1081.33
676.17	1073.37
676.51	1067.52
676.85	1066.82
677.19	1064.48
677.53	1056.99
677.87	1067.52
678.21	1078.52
678.55	1077.58
678.89	1086.48
679.23	1090.92
679.57	1088.12
679.90	1084.37
680.24	1095.84
680.58	1079.22
680.92	1072.43
681.26	1074.31
681.60	1080.39
681.94	1067.99
682.28	1074.07
682.62	1076.88
682.96	1076.18
683.29	1065.18
683.63	1073.14
683.97	1070.80
684.31	1078.52
684.65	1081.80
684.99	1082.73
685.33	1081.33
685.67	1084.60
686.00	1080.16
686.34	1076.88
686.68	1082.26
687.02	1083.43
687.36	1081.56
687.70	1086.94
688.03	1094.43
688.37	1089.29
688.71	1093.50
689.05	1097.48
689.39	1088.58
689.72	1084.60
690.06	1086.71
690.40	1087.41
690.74	1101.92
691.08	1111.99
691.41	1106.84
691.75	1113.63
692.09	1101.69
692.43	1089.75
692.76	1090.92
693.10	1093.73
693.44	1085.77
693.78	1098.65
694.11	1097.71
694.45	1092.56
694.79	1097.95
695.13	1094.90
695.46	1088.12
695.80	1095.37
696.14	1104.26
696.48	1094.20
696.81	1095.14
697.15	1097.71
697.49	1086.71
697.82	1071.73
698.16	1068.69
698.50	1073.14
698.83	1073.60
699.17	1069.62
699.51	1080.16
699.84	1074.31
700.18	1066.35
700.52	1067.75
700.85	1075.24
701.19	1075.24
701.53	1099.12
701.86	1111.29
702.20	1108.24
702.54	1106.84
702.87	1100.29
703.21	1081.56
703.55	1079.69
703.88	1078.52
704.22	1080.39
704.55	1075.48
704.89	1080.63
705.23	1078.75
705.56	1072.20
705.90	1067.28
706.23	1074.07
706.57	1074.77
706.91	1076.41
707.24	1089.05
707.58	1086.71
707.91	1083.20
708.25	1082.03
708.58	1077.58
708.92	1072.90
709.26	1070.33
709.59	1077.82
709.93	1089.05
710.26	1094.67
710.60	1083.67
710.93	1084.60
711.27	1073.84
711.60	1068.69
711.94	1058.62
712.27	1061.20
712.61	1067.28
712.94	1068.45
713.28	1060.26
713.61	1065.41
713.95	1075.48
714.28	1069.86
714.62	1077.82
714.95	1075.48
715.29	1079.22
715.62	1087.41
715.96	1102.39
716.29	1095.84
716.63	1100.99
716.96	1097.24
717.29	1082.03
717.63	1066.58
717.96	1065.41
718.30	1069.86
718.63	1064.24
718.97	1062.60
719.30	1064.48
719.63	1067.75
719.97	1070.09
720.30	1077.11
720.64	1078.75
720.97	1083.43
721.30	1087.88
721.64	1082.73
721.97	1079.22
722.31	1081.80
722.64	1076.65
722.97	1077.58
723.31	1073.37
723.64	1078.52
723.97	1075.48
724.31	1076.65
724.64	1068.92
724.98	1068.69
725.31	1064.71
725.64	1071.26
725.98	1073.84
726.31	1067.75
726.64	1071.73
726.97	1075.24
727.31	1067.99
727.64	1068.92
727.97	1077.35
728.31	1080.86
728.64	1078.75
728.97	1079.22
729.31	1076.41
729.64	1074.31
729.97	1076.65
730.30	1078.52
730.64	1082.50
730.97	1084.14
731.30	1093.73
731.63	1087.41
731.97	1085.54
732.30	1086.94
732.63	1092.80
732.96	1077.11
733.30	1067.99
733.63	1067.05
733.96	1069.39
734.29	1060.50
734.63	1072.43
734.96	1079.69
735.29	1078.05
735.62	1071.03
735.95	1067.05
736.29	1067.28
736.62	1075.24
736.95	1083.90
737.28	1081.56
737.61	1086.48
737.94	1077.35
738.28	1068.69
738.61	1062.37
738.94	1067.28
739.27	1064.71
739.60	1075.71
739.93	1082.03
740.27	1082.03
740.60	1076.88
740.93	1079.69
741.26	1069.62
741.59	1061.43
741.92	1059.09
742.25	1064.48
742.58	1060.73
742.91	1063.07
743.25	1074.31
743.58	1083.20
743.91	1078.28
744.24	1079.69
744.57	1077.11
744.90	1067.75
745.23	1065.65
745.56	1072.20
745.89	1075.94
746.22	1083.20
746.55	1082.03
746.88	1077.11
747.21	1068.69
747.54	1072.90
747.87	1061.20
748.20	1053.24
748.53	1052.07
748.87	1058.16
749.20	1054.65
749.53	1067.99
749.86	1075.01
750.19	1067.05
750.52	1066.11
750.85	1075.94
751.18	1076.41
751.51	1074.07
751.84	1076.65
752.16	1077.82
752.49	1066.35
752.82	1065.65
753.15	1065.65
753.48	1071.26
753.81	1080.16
754.14	1082.97
754.47	1077.11
754.80	1083.20
755.13	1087.18
755.46	1081.33
755.79	1080.63
756.12	1081.33
756.45	1080.63
756.78	1078.75
757.11	1074.31
757.43	1073.60
757.76	1073.14
758.09	1076.41
758.42	1080.86
758.75	1080.39
759.08	1074.54
759.41	1082.97
759.74	1078.28
760.07	1082.26
760.39	1089.29
760.72	1100.99
761.05	1092.09
761.38	1095.37
761.71	1091.86
762.04	1086.01
762.36	1074.07
762.69	1075.24
763.02	1075.01
763.35	1066.58
763.68	1070.33
764.01	1078.05
764.33	1079.22
764.66	1077.11
764.99	1079.69
765.32	1082.26
765.65	1078.99
765.97	1075.24
766.30	1081.09
766.63	1081.33
766.96	1079.92
767.28	1080.63
767.61	1078.52
767.94	1069.39
768.27	1067.99
768.59	1066.35
768.92	1066.35
769.25	1075.48
769.58	1082.03
769.90	1083.90
770.23	1080.39
770.56	1077.35
770.89	1076.41
771.21	1078.05
771.54	1074.07
771.87	1078.52
772.19	1084.60
772.52	1086.48
772.85	1083.67
773.17	1087.88
773.50	1092.56
773.83	1097.48
774.15	1094.90
774.48	1099.35
774.81	1090.69
775.13	1084.60
775.46	1075.94
775.79	1079.22
776.11	1069.39
776.44	1084.84
776.77	1082.26
777.09	1081.33
777.42	1061.90
777.74	1065.41
778.07	1054.18
778.40	1064.24
778.72	1067.52
779.05	1081.09
779.37	1082.03
779.70	1084.84
780.03	1075.24
780.35	1078.52
780.68	1082.97
781.00	1090.69
781.33	1095.37
781.65	1090.69
781.98	1082.03
782.31	1085.77
782.63	1071.03
782.96	1066.58
783.28	1072.43
783.61	1072.20
783.93	1071.97
784.26	1074.77
784.58	1073.84
784.91	1078.05
785.23	1088.58
785.56	1077.58
785.88	1077.82
786.21	1080.16
786.53	1083.20
786.86	1078.05
787.18	1081.80
787.51	1083.90
787.83	1080.63
788.16	1075.01
788.48	1085.31
788.81	1071.73
789.13	1081.09
789.46	1089.05
789.78	1097.71
790.10	1098.88
790.43	1118.31
790.75	1111.52
791.08	1104.50
791.40	1089.75
791.73	1091.16
792.05	1084.60
792.37	1090.22
792.70	1087.88
793.02	1095.14
793.35	1071.26
793.67	1068.92
793.99	1058.86
794.32	1067.75
794.64	1065.18
794.96	1082.03
795.29	1090.46
795.61	1100.05
795.93	1092.56
796.26	1085.07
796.58	1079.46
796.91	1069.86
797.23	1058.39
797.55	1061.67
797.87	1067.75
798.20	1065.41
798.52	1066.82
798.84	1075.01
799.17	1068.22
799.49	1065.88
799.81	1071.03
800.14	1069.86
800.46	1070.33
800.78	1074.07
801.10	1072.90
801.43	1071.26
801.75	1079.22
802.07	1073.14
802.40	1071.97
802.72	1086.71
803.04	1087.65
803.36	1079.69
803.69	1095.37
804.01	1105.20
804.33	1093.03
804.65	1094.43
804.97	1095.37
805.30	1082.97
805.62	1078.28
805.94	1071.26
806.26	1064.71
806.58	1069.39
806.91	1060.96
807.23	1062.14
807.55	1073.37
807.87	1069.62
808.19	1070.33
808.52	1070.80
808.84	1062.84
809.16	1062.84
809.48	1064.01
809.80	1065.41
810.12	1077.82
810.44	1083.43
810.77	1075.94
811.09	1079.69
811.41	1074.54
811.73	1074.31
812.05	1076.88
812.37	1075.48
812.69	1084.14
813.01	1074.07
813.33	1069.62
813.66	1057.45
813.98	1070.80
814.30	1068.92
814.62	1077.58
814.94	1082.73
815.26	1091.86
815.58	1087.41
815.90	1075.94
816.22	1082.50
816.54	1074.31
816.86	1071.50
817.18	1061.67
817.50	1068.92
817.82	1067.75
818.14	1061.20
818.46	1061.43
818.78	1071.97
819.10	1071.26
819.42	1068.45
819.74	1084.84
820.06	1084.37
820.38	1093.03
820.70	1105.44
821.02	1102.63
821.34	1098.88
821.66	1092.56
821.98	1083.43
822.30	1060.96
822.62	1061.67
822.94	1057.45
823.26	1063.54
823.58	1057.69
823.90	1075.48
824.22	1077.11
824.54	1082.50
824.86	1084.37
825.18	1085.54
825.50	1072.20
825.81	1073.84
826.13	1075.01
826.45	1074.54
826.77	1079.69
827.09	1087.41
827.41	1084.37
827.73	1080.86
828.05	1087.41
828.36	1081.09
828.68	1079.22
829.00	1080.63
829.32	1080.39
829.64	1077.35
829.96	1079.46
830.28	1085.77
830.59	1087.41
830.91	1089.29
831.23	1092.33
831.55	1084.14
831.87	1084.37
832.19	1086.71
832.50	1084.60
832.82	1076.88
833.14	1089.05
833.46	1085.77
833.78	1083.20
834.09	1079.46
834.41	1088.12
834.73	1084.37
835.05	1076.41
835.36	1078.28
835.68	1085.31
836.00	1076.41
836.32	1082.26
836.63	1088.12
836.95	1086.48
837.27	1088.58
837.59	1095.84
837.90	1089.29
838.22	1089.29
838.54	1089.75
838.85	1087.41
839.17	1089.05
839.49	1095.37
839.80	1101.22
840.12	1101.22
840.44	1100.75
840.76	1095.84
841.07	1098.65
841.39	1081.09
841.71	1087.18
842.02	1072.20
842.34	1072.20
842.65	1063.77
842.97	1080.16
843.29	1072.43
843.60	1082.97
843.92	1078.28
844.24	1079.46
844.55	1072.67
844.87	1073.14
845.18	1080.16
845.50	1090.46
845.82	1089.05
846.13	1087.18
846.45	1088.58
846.76	1088.12
847.08	1078.28
847.40	1074.77
847.71	1078.99
848.03	1073.60
848.34	1064.94
848.66	1064.71
848.97	1069.62
849.29	1070.56
849.60	1075.48
849.92	1077.35
850.24	1086.24
850.55	1094.90
850.87	1093.50
851.18	1089.29
851.50	1084.84
851.81	1089.99
852.13	1078.75
852.44	1078.05
852.76	1079.46
853.07	1076.41
853.39	1063.77
853.70	1064.24
854.01	1066.35
854.33	1063.31
854.64	1077.11
854.96	1080.39
855.27	1080.86
855.59	1080.86
855.90	1093.50
856.22	1095.84
856.53	1099.82
856.84	1097.71
857.16	1096.07
857.47	1099.12
857.79	1090.69
858.10	1091.16
858.41	1108.48
858.73	1113.86
859.04	1107.31
859.36	1116.67
859.67	1114.33
859.98	1105.20
860.30	1100.75
860.61	1097.95
860.92	1092.80
861.24	1091.63
861.55	1085.77
861.87	1092.56
862.18	1091.63
862.49	1085.31
862.81	1086.48
863.12	1087.65
863.43	1071.73
863.74	1080.86
864.06	1086.24
864.37	1085.07
864.68	1082.73
865.00	1094.43
865.31	1081.33
865.62	1081.56
865.94	1083.67
866.25	1081.09
866.56	1070.56
866.87	1067.75
867.19	1064.94
867.50	1066.35
867.81	1067.75
868.12	1063.77
868.44	1067.99
868.75	1070.09
869.06	1066.11
869.37	1071.73
869.68	1079.22
870.00	1086.94
870.31	1089.99
870.62	1091.63
870.93	1088.58
871.24	1100.52
871.56	1102.16
871.87	1093.73
872.18	1094.90
872.49	1111.52
872.80	1105.67
873.12	1094.43
873.43	1098.18
873.74	1097.71
874.05	1086.48
874.36	1084.60
874.67	1084.14
874.98	1091.63
875.29	1083.67
875.61	1082.73
875.92	1076.18
876.23	1096.54
876.54	1085.77
876.85	1086.48
877.16	1092.09
877.47	1097.24
877.78	1086.01
878.09	1081.56
878.40	1087.65
878.72	1078.52
879.03	1078.05
879.34	1071.97
879.65	1080.16
879.96	1078.28
880.27	1069.86
880.58	1064.71
880.89	1064.48
881.20	1062.14
881.51	1060.96
881.82	1074.07
882.13	1081.80
882.44	1071.73
882.75	1076.88
883.06	1084.60
883.37	1068.45
883.68	1066.58
883.99	1085.07
884.30	1085.07
884.61	1074.31
884.92	1093.50
885.23	1089.52
885.54	1081.80
885.85	1075.94
886.16	1087.65
886.47	1078.28
886.78	1075.94
887.08	1073.60
887.39	1079.92
887.70	1075.71
888.01	1079.22
888.32	1076.88
888.63	1078.28
888.94	1078.52
889.25	1075.94
889.56	1071.97
889.87	1083.67
890.17	1087.88
890.48	1080.16
890.79	1073.37
891.10	1083.43
891.41	1068.92
891.72	1067.28
892.03	1077.35
892.34	1082.03
892.64	1072.67
892.95	1079.46
893.26	1080.39
893.57	1072.90
893.88	1071.50
894.18	1078.28
894.49	1080.86
894.80	1084.14
895.11	1081.33
895.42	1082.73
895.72	1086.48
896.03	1093.26
896.34	1095.84
896.65	1100.05
896.96	1102.39
897.26	1095.60
897.57	1098.41
897.88	1094.43
898.19	1092.09
898.49	1083.90
898.80	1083.20
899.11	1076.88
899.41	1070.80
899.72	1068.22
900.03	1076.18
900.34	1066.82
900.64	1065.65
900.95	1066.82
901.26	1073.14
901.56	1071.26
901.87	1085.07
902.18	1084.37
902.48	1079.69
902.79	1076.41
903.10	1071.50
903.40	1056.75
903.71	1058.16
904.02	1062.14
904.32	1068.45
904.63	1074.77
904.94	1086.94
905.24	1085.07
905.55	1089.29
905.85	1083.90
906.16	1091.39
906.47	1096.54
906.77	1094.90
907.08	1091.86
907.38	1094.90
907.69	1087.18
908.00	1077.82
908.30	1083.90
908.61	1088.12
908.91	1081.09
909.22	1080.63
909.52	1084.37
909.83	1083.20
910.14	1079.46
910.44	1081.09
910.75	1085.77
911.05	1084.14
911.36	1086.48
911.66	1089.75
911.97	1093.73
912.27	1093.26
912.58	1088.35
912.88	1085.77
913.19	1077.35
913.49	1075.24
913.80	1069.62
914.10	1077.58
914.41	1071.50
914.71	1083.20
915.01	1083.67
915.32	1088.58
915.62	1086.24
915.93	1091.63
916.23	1085.77
916.54	1082.73
916.84	1077.35
917.15	1079.69
917.45	1078.05
917.75	1074.77
918.06	1082.03
918.36	1084.84
918.67	1081.09
918.97	1084.84
919.27	1081.56
919.58	1065.88
919.88	1068.69
920.18	1070.33
920.49	1065.41
920.79	1074.31
921.10	1083.20
921.40	1087.88
921.70	1090.92
922.01	1093.97
922.31	1081.80
922.61	1085.54
922.92	1071.97
923.22	1067.28
923.52	1058.62
923.82	1068.69
924.13	1071.73
924.43	1082.73
924.73	1079.69
925.04	1083.20
925.34	1071.73
925.64	1062.60
925.94	1055.35
926.25	1060.50
926.55	1056.05
926.85	1063.77
927.15	1067.52
927.46	1068.45
927.76	1067.99
928.06	1080.39
928.36	1087.41
928.67	1094.43
928.97	1099.82
929.27	1099.82
929.57	1101.69
929.87	1098.65
930.18	1099.58
930.48	1088.12
930.78	1092.09
931.08	1083.43
931.38	1079.22
931.69	1070.33
931.99	1066.11
932.29	1065.18
932.59	1057.92
932.89	1064.01
933.19	1067.75
933.49	1080.16
933.80	1078.52
934.10	1086.71
934.40	1082.97
934.70	1082.03
935.00	1074.31
935.30	1080.39
935.60	1077.82
935.90	1077.35
936.20	1071.73
936.50	1087.88
936.81	1083.90
937.11	1075.94
937.41	1074.31
937.71	1078.05
938.01	1059.09
938.31	1049.03
938.61	1062.60
938.91	1064.71
939.21	1067.05
939.51	1061.43
939.81	1067.99
940.11	1065.65
940.41	1060.26
940.71	1057.22
941.01	1064.71
941.31	1070.33
941.61	1073.60
941.91	1075.48
942.21	1076.18
942.51	1087.65
942.81	1075.24
943.11	1071.26
943.41	1078.99
943.71	1076.41
944.01	1071.97
944.31	1072.43
944.61	1078.75
944.90	1078.75
945.20	1085.07
945.50	1082.97
945.80	1091.63
946.10	1080.63
946.40	1075.71
946.70	1072.20
947.00	1071.03
947.30	1069.39
947.60	1068.45
947.89	1064.71
948.19	1068.92
948.49	1061.90
948.79	1058.16
949.09	1063.07
949.39	1068.45
949.69	1067.52
949.98	1074.54
950.28	1072.43
950.58	1072.20
950.88	1069.86
951.18	1070.33
951.48	1070.80
951.77	1083.43
952.07	1085.77
952.37	1077.58
952.67	1072.20
952.97	1087.88
953.26	1080.16
953.56	1081.33
953.86	1089.75
954.16	1090.92
954.45	1060.96
954.75	1059.33
955.05	1059.33
955.35	1061.20
955.64	1063.31
955.94	1069.86
956.24	1066.82
956.54	1071.26
956.83	1071.26
957.13	1072.43
957.43	1083.43
957.72	1087.41
958.02	1079.69
958.32	1077.82
958.61	1072.90
958.91	1070.33
959.21	1071.73
959.50	1078.52
959.80	1073.60
960.10	1081.56
960.39	1077.58
960.69	1070.56
960.99	1064.24
961.28	1076.41
961.58	1077.35
961.87	1084.60
962.17	1083.90
962.47	1088.12
962.76	1078.05
963.06	1076.65
963.36	1077.35
963.65	1077.11
963.95	1077.35
964.24	1086.71
964.54	1082.26
964.83	1095.37
965.13	1102.39
965.42	1096.78
965.72	1094.20
966.02	1092.80
966.31	1079.92
966.61	1084.37
966.90	1088.82
967.20	1081.56
967.49	1080.16
967.79	1077.58
968.08	1068.92
968.38	1066.58
968.67	1075.48
968.97	1077.82
969.26	1075.94
969.56	1078.52
969.85	1079.22
970.15	1082.50
970.44	1087.88
970.74	1089.29
971.03	1088.58
971.32	1088.35
971.62	1081.33
971.91	1072.20
972.21	1074.07
972.50	1074.54
972.80	1073.37
973.09	1067.28
973.38	1080.63
973.68	1083.43
973.97	1089.29
974.27	1087.18
974.56	1093.03
974.85	1091.39
975.15	1091.16
975.44	1092.09
975.73	1095.37
976.03	1100.05
976.32	1084.60
976.61	1086.71
976.91	1082.03
977.20	1083.90
977.49	1067.52
977.79	1077.11
978.08	1074.07
978.37	1067.52
978.67	1069.86
978.96	1079.46
979.25	1081.09
979.55	1079.92
979.84	1093.26
980.13	1087.41
980.42	1093.26
980.72	1091.63
981.01	1090.22
981.30	1081.80
981.59	1077.35
981.89	1073.84
982.18	1079.69
982.47	1077.82
982.76	1078.28
983.06	1083.67
983.35	1084.84
983.64	1070.80
983.93	1075.24
984.22	1075.24
984.52	1074.77
984.81	1064.71
985.10	1067.99
985.39	1065.41
985.68	1076.18
985.97	1079.22
986.27	1082.97
986.56	1082.03
986.85	1086.24
987.14	1074.31
987.43	1076.18
987.72	1084.37
988.01	1089.75
988.31	1089.05
988.60	1082.73
988.89	1069.86
989.18	1072.43
989.47	1069.16
989.76	1063.07
990.05	1068.22
990.34	1081.80
990.63	1083.90
990.92	1089.05
991.21	1091.39
991.51	1103.09
991.80	1099.58
992.09	1095.60
992.38	1094.67
992.67	1086.48
992.96	1083.20
993.25	1080.86
993.54	1077.35
993.83	1083.43
994.12	1095.14
994.41	1095.37
994.70	1101.69
994.99	1095.84
995.28	1082.97
995.57	1072.90
995.86	1073.37
996.15	1061.90
996.44	1058.86
996.73	1061.43
997.02	1062.14
997.31	1049.96
997.59	1059.33
997.88	1064.71
998.17	1067.75
998.46	1072.67
998.75	1080.63
999.04	1083.43
999.33	1079.46
999.62	1079.92
999.91	1075.48
1000.20	1065.41
1000.49	1066.82
1000.77	1073.60
1001.06	1080.63
1001.35	1081.56
1001.64	1091.16
1001.93	1094.67
1002.22	1101.22
1002.51	1093.03
1002.79	1094.43
1003.08	1088.82
1003.37	1075.71
1003.66	1069.62
1003.95	1070.33
1004.23	1073.60
1004.52	1069.86
1004.81	1070.80
1005.10	1064.48
1005.39	1075.01
1005.67	1077.82
1005.96	1082.50
1006.25	1076.18
1006.54	1087.88
1006.83	1080.16
1007.11	1083.20
1007.40	1085.54
1007.69	1098.18
1007.97	1107.07
1008.26	1107.54
1008.55	1106.61
1008.84	1114.33
1009.12	1108.95
1009.41	1099.12
1009.70	1102.39
1009.98	1092.09
1010.27	1086.01
1010.56	1086.48
1010.85	1088.82
1011.13	1084.14
1011.42	1085.07
1011.71	1084.84
1011.99	1081.09
1012.28	1081.80
1012.56	1073.60
1012.85	1079.22
1013.14	1075.94
1013.42	1078.05
1013.71	1070.80
1014.00	1069.16
1014.28	1072.20
1014.57	1076.41
1014.85	1075.48
1015.14	1074.07
1015.43	1080.86
1015.71	1073.14
1016.00	1068.92
1016.28	1062.14
1016.57	1069.39
1016.85	1072.67
1017.14	1082.73
1017.43	1083.67
1017.71	1097.95
1018.00	1091.16
1018.28	1085.07
1018.57	1078.28
1018.85	1081.56
1019.14	1079.22
1019.42	1078.75
1019.71	1077.58
1019.99	1085.54
1020.28	1087.65
1020.56	1087.18
1020.85	1083.90
1021.13	1079.69
1021.42	1075.24
1021.70	1072.90
1021.99	1074.31
1022.27	1087.65
1022.55	1094.20
1022.84	1119.95
>>>>>End Processed Spectral Data<<<<<
