SpectraSuite Data File
++++++++++++++++++++++++++++++++++++
Date: Mon Aug 26 10:24:54 PDT 2019
User: corrico
Dark Spectrum Present: No
Reference Spectrum Present: No
Number of Sampled Component Spectra: 1
Spectrometers: USB2+H06089
Integration Time (usec): 10000 (USB2+H06089)
Spectra Averaged: 2 (USB2+H06089)
Boxcar Smoothing: 2 (USB2+H06089)
Correct for Electrical Dark: No (USB2+H06089)
Strobe/Lamp Enabled: No (USB2+H06089)
Correct for Detector Non-linearity: No (USB2+H06089)
Correct for Stray Light: No (USB2+H06089)
Number of Pixels in Processed Spectrum: 2048
>>>>>Begin Processed Spectral Data<<<<<
339.70	1009.94
340.07	1009.94
340.45	988.88
340.82	968.98
341.19	948.85
341.57	930.13
341.94	919.83
342.31	906.96
342.69	902.04
343.06	902.98
343.43	901.11
343.81	902.28
344.18	907.19
344.55	911.87
344.93	917.96
345.30	925.45
345.67	934.11
346.04	941.60
346.42	948.85
346.79	954.94
347.16	959.62
347.54	971.09
347.91	976.47
348.28	994.96
348.65	1002.45
349.03	1011.35
349.40	1014.62
349.77	1022.58
350.14	1023.05
350.52	1031.71
350.89	1041.77
351.26	1048.09
351.63	1056.05
352.01	1067.52
352.38	1074.31
352.75	1076.65
353.12	1082.97
353.50	1094.43
353.87	1093.03
354.24	1093.97
354.61	1086.71
354.98	1078.52
355.36	1071.50
355.73	1075.01
356.10	1064.01
356.47	1076.41
356.84	1100.99
357.22	1094.43
357.59	1088.58
357.96	1102.63
358.33	1100.05
358.70	1078.28
359.08	1083.90
359.45	1081.80
359.82	1080.39
360.19	1075.71
360.56	1080.63
360.94	1086.71
361.31	1094.67
361.68	1088.58
362.05	1095.14
362.42	1099.82
362.79	1091.16
363.16	1085.77
363.54	1083.67
363.91	1083.43
364.28	1074.31
364.65	1079.46
365.02	1084.14
365.39	1095.84
365.76	1094.20
366.14	1098.88
366.51	1093.73
366.88	1091.63
367.25	1089.75
367.62	1096.54
367.99	1097.48
368.36	1100.99
368.73	1104.03
369.10	1098.41
369.48	1085.31
369.85	1092.80
370.22	1093.50
370.59	1082.97
370.96	1082.26
371.33	1086.48
371.70	1072.43
372.07	1073.60
372.44	1075.24
372.81	1080.86
373.18	1076.65
373.55	1078.75
373.93	1076.41
374.30	1087.88
374.67	1085.07
375.04	1096.07
375.41	1102.39
375.78	1099.82
376.15	1100.99
376.52	1093.50
376.89	1091.16
377.26	1086.71
377.63	1088.58
378.00	1079.22
378.37	1083.20
378.74	1081.33
379.11	1079.46
379.48	1089.29
379.85	1090.46
380.22	1092.33
380.59	1100.99
380.96	1107.31
381.33	1104.50
381.70	1106.61
382.07	1112.46
382.44	1101.46
382.81	1087.88
383.18	1088.12
383.55	1091.86
383.92	1087.18
384.29	1090.69
384.66	1100.05
385.03	1094.67
385.40	1092.09
385.77	1089.99
386.14	1091.39
386.51	1095.84
386.88	1104.50
387.25	1103.56
387.62	1111.99
387.99	1114.80
388.36	1113.63
388.73	1110.82
389.10	1100.75
389.46	1096.07
389.83	1092.80
390.20	1098.41
390.57	1102.63
390.94	1111.75
391.31	1113.16
391.68	1100.75
392.05	1096.54
392.42	1093.97
392.79	1101.69
393.16	1104.50
393.53	1118.54
393.89	1116.20
394.26	1111.05
394.63	1105.90
395.00	1115.97
395.37	1116.67
395.74	1121.58
396.11	1119.48
396.48	1126.03
396.84	1109.88
397.21	1114.80
397.58	1107.31
397.95	1112.69
398.32	1105.44
398.69	1106.61
399.06	1102.16
399.42	1106.84
399.79	1115.73
400.16	1123.22
400.53	1126.03
400.90	1134.93
401.27	1141.71
401.64	1143.59
402.00	1144.52
402.37	1149.67
402.74	1147.33
403.11	1155.76
403.48	1149.91
403.84	1162.54
404.21	1173.78
404.58	1191.10
404.95	1197.18
405.32	1217.31
405.68	1225.50
406.05	1232.99
406.42	1235.33
406.79	1246.57
407.16	1261.31
407.52	1265.29
407.89	1288.23
408.26	1309.30
408.63	1334.57
408.99	1355.17
409.36	1375.30
409.73	1391.68
410.10	1417.43
410.47	1441.54
410.83	1460.73
411.20	1506.60
411.57	1538.90
411.94	1577.29
412.30	1612.63
412.67	1656.16
413.04	1685.89
413.40	1730.83
413.77	1768.51
414.14	1822.58
414.51	1885.30
414.87	1962.07
415.24	2028.78
415.61	2103.91
415.97	2186.76
416.34	2268.45
416.71	2346.62
417.08	2451.95
417.44	2535.27
417.81	2632.87
418.18	2736.32
418.54	2853.82
418.91	2975.99
419.28	3162.77
419.64	3282.60
420.01	3432.40
420.38	3572.83
420.74	3720.52
421.11	3856.50
421.48	4057.08
421.84	4249.01
422.21	4450.29
422.58	4702.37
422.94	4936.42
423.31	5168.14
423.68	5424.43
424.04	5705.76
424.41	5955.49
424.77	6212.48
425.14	6503.41
425.51	6794.58
425.87	7125.06
426.24	7447.82
426.61	7826.52
426.97	8245.24
427.34	8671.92
427.70	9099.53
428.07	9539.09
428.44	9999.24
428.80	10457.28
429.17	10934.98
429.53	11412.69
429.90	12002.50
430.27	12528.19
430.63	13034.44
431.00	13643.22
431.36	14331.10
431.73	14911.32
432.09	15539.99
432.46	16180.36
432.83	16732.26
433.19	17253.96
433.56	17838.16
433.92	18406.91
434.29	19005.15
434.65	19640.37
435.02	20170.27
435.38	20787.00
435.75	21336.09
436.11	21927.07
436.48	22373.65
436.84	22958.78
437.21	23351.06
437.57	23752.69
437.94	24058.83
438.30	24376.68
438.67	24559.94
439.03	24741.10
439.40	24833.32
439.76	24739.23
440.13	24675.80
440.49	24566.03
440.86	24294.06
441.22	24099.79
441.59	23873.93
441.95	23510.68
442.32	23054.74
442.68	22650.77
443.05	22140.77
443.41	21658.85
443.78	21108.59
444.14	20611.46
444.51	20032.41
444.87	19620.48
445.24	19178.58
445.60	18836.40
445.96	18355.42
446.33	17973.91
446.69	17420.37
447.06	16918.09
447.42	16371.35
447.79	15923.83
448.15	15525.71
448.51	15099.97
448.88	14709.10
449.24	14336.02
449.61	14027.06
449.97	13725.60
450.33	13430.46
450.70	13052.93
451.06	12725.73
451.43	12341.18
451.79	11946.80
452.15	11595.95
452.52	11338.49
452.88	11091.80
453.24	10861.02
453.61	10656.69
453.97	10435.98
454.34	10160.97
454.70	9889.00
455.06	9624.75
455.43	9300.59
455.79	8959.57
456.15	8718.96
456.52	8457.76
456.88	8215.75
457.24	7962.27
457.61	7771.05
457.97	7530.44
458.33	7294.05
458.70	7057.65
459.06	6837.41
459.42	6640.57
459.79	6411.66
460.15	6199.61
460.51	6005.81
460.88	5834.49
461.24	5635.78
461.60	5506.81
461.96	5379.72
462.33	5234.61
462.69	5059.54
463.05	4944.62
463.42	4799.27
463.78	4645.96
464.14	4520.04
464.50	4442.80
464.87	4341.69
465.23	4243.16
465.59	4165.22
465.95	4068.09
466.32	3996.46
466.68	3906.12
467.04	3826.31
467.40	3740.64
467.77	3652.64
468.13	3552.70
468.49	3486.70
468.85	3415.78
469.22	3358.90
469.58	3332.22
469.94	3276.98
470.30	3199.98
470.66	3145.45
471.03	3096.06
471.39	3028.19
471.75	2983.25
472.11	2923.80
472.47	2888.22
472.84	2831.58
473.20	2787.81
473.56	2734.45
473.92	2699.81
474.28	2655.34
474.65	2618.83
475.01	2575.29
475.37	2548.38
475.73	2508.12
476.09	2467.16
476.45	2421.75
476.81	2385.94
477.18	2328.60
477.54	2299.58
477.90	2261.89
478.26	2231.23
478.62	2205.25
478.98	2169.68
479.34	2147.68
479.71	2120.06
480.07	2084.72
480.43	2062.01
480.79	2055.69
481.15	2030.65
481.51	2012.86
481.87	2018.71
482.23	2003.03
482.59	1981.73
482.96	1973.07
483.32	1961.37
483.68	1930.24
484.04	1900.28
484.40	1890.22
484.76	1864.00
485.12	1843.17
485.48	1823.98
485.84	1805.26
486.20	1787.23
486.56	1771.79
486.92	1752.36
487.28	1728.02
487.64	1716.31
488.00	1685.42
488.37	1670.44
488.73	1653.12
489.09	1643.29
489.45	1611.22
489.81	1603.97
490.17	1586.18
490.53	1577.05
490.89	1575.65
491.25	1570.97
491.61	1556.46
491.97	1546.86
492.33	1533.05
492.69	1511.28
493.05	1500.75
493.41	1488.35
493.77	1468.69
494.13	1452.30
494.49	1433.34
494.85	1427.73
495.21	1417.66
495.57	1410.64
495.93	1398.94
496.29	1390.51
496.64	1388.41
497.00	1382.32
497.36	1372.72
497.72	1374.13
498.08	1376.94
498.44	1348.85
498.80	1339.02
499.16	1328.25
499.52	1315.62
499.88	1309.06
500.24	1308.36
500.60	1303.21
500.96	1303.21
501.32	1292.44
501.68	1281.21
502.03	1281.91
502.39	1271.85
502.75	1265.29
503.11	1259.68
503.47	1264.59
503.83	1258.74
504.19	1252.42
504.55	1256.87
504.91	1271.14
505.26	1255.23
505.62	1251.48
505.98	1249.85
506.34	1225.27
506.70	1204.21
507.06	1200.23
507.42	1198.82
507.78	1194.61
508.13	1203.97
508.49	1203.50
508.85	1202.10
509.21	1193.67
509.57	1197.89
509.93	1190.86
510.28	1187.35
510.64	1185.48
511.00	1187.35
511.36	1183.37
511.72	1175.65
512.07	1183.37
512.43	1186.42
512.79	1173.78
513.15	1174.25
513.51	1174.01
513.86	1161.61
514.22	1143.35
514.58	1151.08
514.94	1141.01
515.30	1143.35
515.65	1147.10
516.01	1149.44
516.37	1142.18
516.73	1151.08
517.08	1150.14
517.44	1150.14
517.80	1155.76
518.16	1161.84
518.51	1148.03
518.87	1147.33
519.23	1139.14
519.59	1130.71
519.94	1120.88
520.30	1125.80
520.66	1131.41
521.01	1127.20
521.37	1134.22
521.73	1135.39
522.09	1128.84
522.44	1124.86
522.80	1128.37
523.16	1126.27
523.51	1133.99
523.87	1141.25
524.23	1135.16
524.58	1133.29
524.94	1135.86
525.30	1134.93
525.65	1123.93
526.01	1122.05
526.37	1118.78
526.72	1109.88
527.08	1106.61
527.44	1115.50
527.79	1111.99
528.15	1119.24
528.51	1119.95
528.86	1105.20
529.22	1107.31
529.58	1118.31
529.93	1116.90
530.29	1124.16
530.65	1130.95
531.00	1125.56
531.36	1122.75
531.71	1116.90
532.07	1106.61
532.43	1111.52
532.78	1117.37
533.14	1115.97
533.49	1119.48
533.85	1120.88
534.21	1117.14
534.56	1114.80
534.92	1114.56
535.27	1114.56
535.63	1124.16
535.98	1119.71
536.34	1120.88
536.69	1124.86
537.05	1120.88
537.41	1126.27
537.76	1140.54
538.12	1135.63
538.47	1128.61
538.83	1122.99
539.18	1106.14
539.54	1100.52
539.89	1097.48
540.25	1094.67
540.60	1108.01
540.96	1104.03
541.31	1088.82
541.67	1090.92
542.02	1096.07
542.38	1095.14
542.73	1113.63
543.09	1128.84
543.44	1133.05
543.80	1133.52
544.15	1127.90
544.51	1121.35
544.86	1109.88
545.22	1102.63
545.57	1106.37
545.93	1110.82
546.28	1107.78
546.64	1111.75
546.99	1108.71
547.35	1104.26
547.70	1103.80
548.05	1105.90
548.41	1115.03
548.76	1116.90
549.12	1117.14
549.47	1113.63
549.83	1112.69
550.18	1104.03
550.53	1113.16
550.89	1113.16
551.24	1112.22
551.60	1110.35
551.95	1112.69
552.30	1105.67
552.66	1100.99
553.01	1097.71
553.37	1102.86
553.72	1104.03
554.07	1109.18
554.43	1106.84
554.78	1106.61
555.13	1102.39
555.49	1111.52
555.84	1111.05
556.19	1115.50
556.55	1112.22
556.90	1110.82
557.26	1104.97
557.61	1101.22
557.96	1096.78
558.32	1100.52
558.67	1099.12
559.02	1096.78
559.37	1097.01
559.73	1099.82
560.08	1107.31
560.43	1111.99
560.79	1111.75
561.14	1111.99
561.49	1112.46
561.85	1102.16
562.20	1095.84
562.55	1098.65
562.90	1096.78
563.26	1100.75
563.61	1097.48
563.96	1102.86
564.32	1101.92
564.67	1101.92
565.02	1093.50
565.37	1100.75
565.73	1093.03
566.08	1087.88
566.43	1089.75
566.78	1098.65
567.14	1106.84
567.49	1119.24
567.84	1116.44
568.19	1111.52
568.54	1104.73
568.90	1092.56
569.25	1078.28
569.60	1079.46
569.95	1087.65
570.31	1092.80
570.66	1093.03
571.01	1091.86
571.36	1096.78
571.71	1091.63
572.06	1086.24
572.42	1086.48
572.77	1098.18
573.12	1099.58
573.47	1102.39
573.82	1102.16
574.18	1103.33
574.53	1099.35
574.88	1098.41
575.23	1093.73
575.58	1093.73
575.93	1094.67
576.28	1089.29
576.64	1089.52
576.99	1086.71
577.34	1078.05
577.69	1065.88
578.04	1061.67
578.39	1060.50
578.74	1059.79
579.09	1069.39
579.44	1077.11
579.80	1089.99
580.15	1082.73
580.50	1076.41
580.85	1074.07
581.20	1082.97
581.55	1090.22
581.90	1101.46
582.25	1110.35
582.60	1104.73
582.95	1096.31
583.30	1078.75
583.65	1067.99
584.00	1066.58
584.35	1075.71
584.71	1077.82
585.06	1077.35
585.41	1082.50
585.76	1088.35
586.11	1090.46
586.46	1091.39
586.81	1091.16
587.16	1089.05
587.51	1085.31
587.86	1085.07
588.21	1075.24
588.56	1084.84
588.91	1085.31
589.26	1088.12
589.61	1086.94
589.96	1099.12
590.31	1095.37
590.66	1090.46
591.01	1082.03
591.36	1085.31
591.71	1084.37
592.06	1088.35
592.41	1085.77
592.76	1091.16
593.10	1081.33
593.45	1080.86
593.80	1072.43
594.15	1086.48
594.50	1081.80
594.85	1081.56
595.20	1078.05
595.55	1078.52
595.90	1065.88
596.25	1079.22
596.60	1087.41
596.95	1094.43
597.30	1101.22
597.64	1159.74
597.99	1154.59
598.34	1154.35
598.69	1153.18
599.04	1152.01
599.39	1096.54
599.74	1087.41
600.09	1080.86
600.44	1076.65
600.78	1076.65
601.13	1085.07
601.48	1101.46
601.83	1104.73
602.18	1097.48
602.53	1097.71
602.88	1093.50
603.22	1085.07
603.57	1076.65
603.92	1091.63
604.27	1091.16
604.62	1090.46
604.97	1093.50
605.31	1105.90
605.66	1093.97
606.01	1084.14
606.36	1083.43
606.71	1089.75
607.05	1086.01
607.40	1089.05
607.75	1097.24
608.10	1109.65
608.44	1103.56
608.79	1103.56
609.14	1100.52
609.49	1095.14
609.84	1078.52
610.18	1070.09
610.53	1076.41
610.88	1078.28
611.23	1082.50
611.57	1097.48
611.92	1098.88
612.27	1085.31
612.62	1086.71
612.96	1089.99
613.31	1085.31
613.66	1091.86
614.00	1098.65
614.35	1100.05
614.70	1098.41
615.05	1082.73
615.39	1074.31
615.74	1072.43
616.09	1065.65
616.43	1068.92
616.78	1078.52
617.13	1084.60
617.47	1077.35
617.82	1092.56
618.17	1086.48
618.51	1080.63
618.86	1074.77
619.21	1095.14
619.55	1091.16
619.90	1091.16
620.25	1094.90
620.59	1095.37
620.94	1089.05
621.29	1088.58
621.63	1093.50
621.98	1098.18
622.32	1104.50
622.67	1104.97
623.02	1102.86
623.36	1096.07
623.71	1094.67
624.05	1085.77
624.40	1075.71
624.75	1069.86
625.09	1078.28
625.44	1071.97
625.78	1079.46
626.13	1085.31
626.48	1088.58
626.82	1076.88
627.17	1079.69
627.51	1076.65
627.86	1072.90
628.20	1070.33
628.55	1083.20
628.89	1095.14
629.24	1095.60
629.58	1103.09
629.93	1103.09
630.28	1092.09
630.62	1084.84
630.97	1090.69
631.31	1083.67
631.66	1088.58
632.00	1099.82
632.35	1105.67
632.69	1098.18
633.04	1097.24
633.38	1089.99
633.73	1087.41
634.07	1079.22
634.42	1082.03
634.76	1087.41
635.11	1101.92
635.45	1100.75
635.79	1102.63
636.14	1099.82
636.48	1092.09
636.83	1087.18
637.17	1086.01
637.52	1083.90
637.86	1080.86
638.21	1078.28
638.55	1082.03
638.89	1090.46
639.24	1092.80
639.58	1100.05
639.93	1101.92
640.27	1093.97
640.61	1088.35
640.96	1083.90
641.30	1080.16
641.65	1081.80
641.99	1088.82
642.33	1093.50
642.68	1092.56
643.02	1097.24
643.37	1108.95
643.71	1102.86
644.05	1092.56
644.40	1093.26
644.74	1090.92
645.08	1088.12
645.43	1077.35
645.77	1076.18
646.11	1075.24
646.46	1074.77
646.80	1070.09
647.14	1074.77
647.49	1083.20
647.83	1092.33
648.17	1092.56
648.52	1093.97
648.86	1101.69
649.20	1101.22
649.55	1097.71
649.89	1093.50
650.23	1090.69
650.57	1093.97
650.92	1084.84
651.26	1081.09
651.60	1086.24
651.95	1084.37
652.29	1086.71
652.63	1076.41
652.97	1081.80
653.32	1082.97
653.66	1093.03
654.00	1086.24
654.34	1099.12
654.69	1093.73
655.03	1087.41
655.37	1074.31
655.71	1071.73
656.05	1068.22
656.40	1061.67
656.74	1065.88
657.08	1068.69
657.42	1075.48
657.76	1075.24
658.11	1079.22
658.45	1075.71
658.79	1076.41
659.13	1075.71
659.47	1079.69
659.82	1086.24
660.16	1091.39
660.50	1093.50
660.84	1092.56
661.18	1086.94
661.52	1078.05
661.87	1072.67
662.21	1075.94
662.55	1078.75
662.89	1087.18
663.23	1094.90
663.57	1095.14
663.91	1092.56
664.25	1083.43
664.60	1077.35
664.94	1069.16
665.28	1069.16
665.62	1067.05
665.96	1064.94
666.30	1078.05
666.64	1091.63
666.98	1087.18
667.32	1091.39
667.66	1089.52
668.01	1087.65
668.35	1080.39
668.69	1080.16
669.03	1071.03
669.37	1076.18
669.71	1069.16
670.05	1084.84
670.39	1101.22
670.73	1111.75
671.07	1116.44
671.41	1120.88
671.75	1102.16
672.09	1095.37
672.43	1086.24
672.77	1082.50
673.11	1076.41
673.45	1081.80
673.79	1074.54
674.13	1076.88
674.47	1074.54
674.81	1082.03
675.15	1076.65
675.49	1085.07
675.83	1091.39
676.17	1101.22
676.51	1093.73
676.85	1093.03
677.19	1088.58
677.53	1085.77
677.87	1076.41
678.21	1072.43
678.55	1078.99
678.89	1076.18
679.23	1075.48
679.57	1070.56
679.90	1076.18
680.24	1073.60
680.58	1084.14
680.92	1077.35
681.26	1078.99
681.60	1075.94
681.94	1080.16
682.28	1076.18
682.62	1080.16
682.96	1082.26
683.29	1083.90
683.63	1073.60
683.97	1072.90
684.31	1073.37
684.65	1077.11
684.99	1092.56
685.33	1092.56
685.67	1091.39
686.00	1097.48
686.34	1102.63
686.68	1079.92
687.02	1078.99
687.36	1073.60
687.70	1065.88
688.03	1058.39
688.37	1063.54
688.71	1080.16
689.05	1084.84
689.39	1095.14
689.72	1097.48
690.06	1103.33
690.40	1087.88
690.74	1095.14
691.08	1086.01
691.41	1085.77
691.75	1079.69
692.09	1089.29
692.43	1078.28
692.76	1081.09
693.10	1087.88
693.44	1096.78
693.78	1092.09
694.11	1084.84
694.45	1090.69
694.79	1086.24
695.13	1079.22
695.46	1083.90
695.80	1090.69
696.14	1087.65
696.48	1081.56
696.81	1074.77
697.15	1069.62
697.49	1081.56
697.82	1073.37
698.16	1072.20
698.50	1080.16
698.83	1080.63
699.17	1075.24
699.51	1082.50
699.84	1079.69
700.18	1071.26
700.52	1068.45
700.85	1061.20
701.19	1057.92
701.53	1073.60
701.86	1080.16
702.20	1085.07
702.54	1084.37
702.87	1087.18
703.21	1078.99
703.55	1079.69
703.88	1079.46
704.22	1086.94
704.55	1085.31
704.89	1086.94
705.23	1088.35
705.56	1083.43
705.90	1081.56
706.23	1081.80
706.57	1083.20
706.91	1086.24
707.24	1103.33
707.58	1102.63
707.91	1100.05
708.25	1094.43
708.58	1085.54
708.92	1073.14
709.26	1071.26
709.59	1061.20
709.93	1058.39
710.26	1070.80
710.60	1073.84
710.93	1076.65
711.27	1091.39
711.60	1094.90
711.94	1082.73
712.27	1082.50
712.61	1087.18
712.94	1086.24
713.28	1084.60
713.61	1093.73
713.95	1091.39
714.28	1086.48
714.62	1083.43
714.95	1085.31
715.29	1083.90
715.62	1081.33
715.96	1079.92
716.29	1074.07
716.63	1075.24
716.96	1070.80
717.29	1068.22
717.63	1071.50
717.96	1074.54
718.30	1065.18
718.63	1062.37
718.97	1063.77
719.30	1062.84
719.63	1062.84
719.97	1068.69
720.30	1075.01
720.64	1072.20
720.97	1076.41
721.30	1077.82
721.64	1085.07
721.97	1078.28
722.31	1083.90
722.64	1071.73
722.97	1062.37
723.31	1060.03
723.64	1062.60
723.97	1068.69
724.31	1076.18
724.64	1090.92
724.98	1082.03
725.31	1090.69
725.64	1086.48
725.98	1091.63
726.31	1093.50
726.64	1100.99
726.97	1089.29
727.31	1086.71
727.64	1082.50
727.97	1078.75
728.31	1090.92
728.64	1097.71
728.97	1100.52
729.31	1094.43
729.64	1096.31
729.97	1078.52
730.30	1068.45
730.64	1056.05
730.97	1060.73
731.30	1062.37
731.63	1066.58
731.97	1078.99
732.30	1093.73
732.63	1097.01
732.96	1094.67
733.30	1100.29
733.63	1093.50
733.96	1093.73
734.29	1094.43
734.63	1095.60
734.96	1091.16
735.29	1093.03
735.62	1085.07
735.95	1079.46
736.29	1078.05
736.62	1081.09
736.95	1085.31
737.28	1084.84
737.61	1082.50
737.94	1089.05
738.28	1093.73
738.61	1091.16
738.94	1087.65
739.27	1084.84
739.60	1067.28
739.93	1052.07
740.27	1050.67
740.60	1057.92
740.93	1071.50
741.26	1072.90
741.59	1082.26
741.92	1086.71
742.25	1083.67
742.58	1072.67
742.91	1081.09
743.25	1083.67
743.58	1078.75
743.91	1081.80
744.24	1086.24
744.57	1076.65
744.90	1075.01
745.23	1074.54
745.56	1085.77
745.89	1095.14
746.22	1106.37
746.55	1098.41
746.88	1105.20
747.21	1090.92
747.54	1083.67
747.87	1072.90
748.20	1083.43
748.53	1073.37
748.87	1072.43
749.20	1068.92
749.53	1067.75
749.86	1056.99
750.19	1062.37
750.52	1064.24
750.85	1060.96
751.18	1065.41
751.51	1066.82
751.84	1067.75
752.16	1074.77
752.49	1079.46
752.82	1087.65
753.15	1091.63
753.48	1094.67
753.81	1098.65
754.14	1096.07
754.47	1090.69
754.80	1095.60
755.13	1094.67
755.46	1081.80
755.79	1083.67
756.12	1089.75
756.45	1087.18
756.78	1079.22
757.11	1081.56
757.43	1088.58
757.76	1090.69
758.09	1084.60
758.42	1086.24
758.75	1074.07
759.08	1067.28
759.41	1067.75
759.74	1078.75
760.07	1082.50
760.39	1094.20
760.72	1090.46
761.05	1083.67
761.38	1082.03
761.71	1084.14
762.04	1080.63
762.36	1086.94
762.69	1087.41
763.02	1090.46
763.35	1082.97
763.68	1082.03
764.01	1082.50
764.33	1077.58
764.66	1064.94
764.99	1065.41
765.32	1073.84
765.65	1058.86
765.97	1051.13
766.30	1056.28
766.63	1061.43
766.96	1060.73
767.28	1065.65
767.61	1069.86
767.94	1072.43
768.27	1063.31
768.59	1048.09
768.92	1048.33
769.25	1045.52
769.58	1042.94
769.90	1049.26
770.23	1067.75
770.56	1081.80
770.89	1097.71
771.21	1100.05
771.54	1100.99
771.87	1092.80
772.19	1081.80
772.52	1071.26
772.85	1079.22
773.17	1077.58
773.50	1079.92
773.83	1086.24
774.15	1085.07
774.48	1077.35
774.81	1079.22
775.13	1084.14
775.46	1075.94
775.79	1073.84
776.11	1072.67
776.44	1072.90
776.77	1063.77
777.09	1071.97
777.42	1089.29
777.74	1088.12
778.07	1091.86
778.40	1103.09
778.72	1105.20
779.05	1098.18
779.37	1093.03
779.70	1094.20
780.03	1088.35
780.35	1086.24
780.68	1092.56
781.00	1106.84
781.33	1102.63
781.65	1106.37
781.98	1100.05
782.31	1104.50
782.63	1083.90
782.96	1081.33
783.28	1084.37
783.61	1089.52
783.93	1078.28
784.26	1085.54
784.58	1085.54
784.91	1080.63
785.23	1071.50
785.56	1068.45
785.88	1070.09
786.21	1074.07
786.53	1062.84
786.86	1072.43
787.18	1076.18
787.51	1078.52
787.83	1072.67
788.16	1085.54
788.48	1081.09
788.81	1075.71
789.13	1074.54
789.46	1068.92
789.78	1058.39
790.10	1056.75
790.43	1061.43
790.75	1064.71
791.08	1074.31
791.40	1086.48
791.73	1093.73
792.05	1093.26
792.37	1088.12
792.70	1088.12
793.02	1085.07
793.35	1074.54
793.67	1067.75
793.99	1074.31
794.32	1071.97
794.64	1071.73
794.96	1075.71
795.29	1083.67
795.61	1078.52
795.93	1079.69
796.26	1076.88
796.58	1076.88
796.91	1067.52
797.23	1061.67
797.55	1062.14
797.87	1060.50
798.20	1060.03
798.52	1065.41
798.84	1072.67
799.17	1063.54
799.49	1063.77
799.81	1072.43
800.14	1077.11
800.46	1086.71
800.78	1102.39
801.10	1103.09
801.43	1098.18
801.75	1099.82
802.07	1086.01
802.40	1079.69
802.72	1085.77
803.04	1088.58
803.36	1082.73
803.69	1086.71
804.01	1088.12
804.33	1082.26
804.65	1075.94
804.97	1074.54
805.30	1072.90
805.62	1067.99
805.94	1065.65
806.26	1066.35
806.58	1067.99
806.91	1078.75
807.23	1081.56
807.55	1070.56
807.87	1068.69
808.19	1075.01
808.52	1064.01
808.84	1057.22
809.16	1071.50
809.48	1069.62
809.80	1058.62
810.12	1065.41
810.44	1067.52
810.77	1065.88
811.09	1076.88
811.41	1080.86
811.73	1075.71
812.05	1079.69
812.37	1075.48
812.69	1077.11
813.01	1080.63
813.33	1081.33
813.66	1085.07
813.98	1104.03
814.30	1096.31
814.62	1089.75
814.94	1084.14
815.26	1078.05
815.58	1058.16
815.90	1061.67
816.22	1062.37
816.54	1069.16
816.86	1076.65
817.18	1085.07
817.50	1086.94
817.82	1092.33
818.14	1090.69
818.46	1086.94
818.78	1082.50
819.10	1078.75
819.42	1082.03
819.74	1082.73
820.06	1082.03
820.38	1077.82
820.70	1077.35
821.02	1073.84
821.34	1070.80
821.66	1063.54
821.98	1075.24
822.30	1082.50
822.62	1080.16
822.94	1091.39
823.26	1098.65
823.58	1087.88
823.90	1084.84
824.22	1085.77
824.54	1077.82
824.86	1080.63
825.18	1084.60
825.50	1078.28
825.81	1075.24
826.13	1064.48
826.45	1061.67
826.77	1064.71
827.09	1060.73
827.41	1058.86
827.73	1069.39
828.05	1069.16
828.36	1064.71
828.68	1064.71
829.00	1071.97
829.32	1066.35
829.64	1070.56
829.96	1078.75
830.28	1091.63
830.59	1095.60
830.91	1104.03
831.23	1104.73
831.55	1106.84
831.87	1101.92
832.19	1096.54
832.50	1085.31
832.82	1079.69
833.14	1076.41
833.46	1074.77
833.78	1067.05
834.09	1073.60
834.41	1072.43
834.73	1076.65
835.05	1072.90
835.36	1083.20
835.68	1091.16
836.00	1095.14
836.32	1081.33
836.63	1085.54
836.95	1088.82
837.27	1075.24
837.59	1066.11
837.90	1073.84
838.22	1063.54
838.54	1055.58
838.85	1064.71
839.17	1074.54
839.49	1071.26
839.80	1078.28
840.12	1079.46
840.44	1071.73
840.76	1068.45
841.07	1076.88
841.39	1079.69
841.71	1084.14
842.02	1086.71
842.34	1089.29
842.65	1083.43
842.97	1086.71
843.29	1081.56
843.60	1089.05
843.92	1089.99
844.24	1080.16
844.55	1071.50
844.87	1074.77
845.18	1070.33
845.50	1068.45
845.82	1080.16
846.13	1080.63
846.45	1072.20
846.76	1067.28
847.08	1066.82
847.40	1063.07
847.71	1070.09
848.03	1082.26
848.34	1079.69
848.66	1083.20
848.97	1084.37
849.29	1080.39
849.60	1070.80
849.92	1075.01
850.24	1082.26
850.55	1084.60
850.87	1091.16
851.18	1094.90
851.50	1100.29
851.81	1083.43
852.13	1075.94
852.44	1065.65
852.76	1063.07
853.07	1061.20
853.39	1068.45
853.70	1081.09
854.01	1083.90
854.33	1083.90
854.64	1088.35
854.96	1088.58
855.27	1074.54
855.59	1074.31
855.90	1069.62
856.22	1067.05
856.53	1062.60
856.84	1073.84
857.16	1072.90
857.47	1077.82
857.79	1072.67
858.10	1077.58
858.41	1067.52
858.73	1061.20
859.04	1066.11
859.36	1067.05
859.67	1073.84
859.98	1076.41
860.30	1089.05
860.61	1083.67
860.92	1092.56
861.24	1084.14
861.55	1087.18
861.87	1083.67
862.18	1085.31
862.49	1077.35
862.81	1078.52
863.12	1080.86
863.43	1080.16
863.74	1082.50
864.06	1073.37
864.37	1068.22
864.68	1066.58
865.00	1078.05
865.31	1076.65
865.62	1082.73
865.94	1085.07
866.25	1082.26
866.56	1070.09
866.87	1071.97
867.19	1071.97
867.50	1068.45
867.81	1068.45
868.12	1071.26
868.44	1068.92
868.75	1068.92
869.06	1082.50
869.37	1080.16
869.68	1073.60
870.00	1078.05
870.31	1085.54
870.62	1078.99
870.93	1078.28
871.24	1081.56
871.56	1073.60
871.87	1067.28
872.18	1067.52
872.49	1064.71
872.80	1071.26
873.12	1085.07
873.43	1086.48
873.74	1080.39
874.05	1090.22
874.36	1079.46
874.67	1073.60
874.98	1085.07
875.29	1100.29
875.61	1095.37
875.92	1106.37
876.23	1096.78
876.54	1080.39
876.85	1065.88
877.16	1068.45
877.47	1060.26
877.78	1069.62
878.09	1082.26
878.40	1093.03
878.72	1095.37
879.03	1099.82
879.34	1093.50
879.65	1082.50
879.96	1078.05
880.27	1065.88
880.58	1064.24
880.89	1060.96
881.20	1062.60
881.51	1064.01
881.82	1069.86
882.13	1073.60
882.44	1078.52
882.75	1086.01
883.06	1084.37
883.37	1096.31
883.68	1090.69
883.99	1086.94
884.30	1073.37
884.61	1069.39
884.92	1061.90
885.23	1063.31
885.54	1069.16
885.85	1074.77
886.16	1080.86
886.47	1086.01
886.78	1084.37
887.08	1086.71
887.39	1084.60
887.70	1080.86
888.01	1074.77
888.32	1082.03
888.63	1074.31
888.94	1086.24
889.25	1082.73
889.56	1076.88
889.87	1067.52
890.17	1074.31
890.48	1065.65
890.79	1067.52
891.10	1072.20
891.41	1067.99
891.72	1059.09
892.03	1060.03
892.34	1058.16
892.64	1060.26
892.95	1067.52
893.26	1072.43
893.57	1074.31
893.88	1085.07
894.18	1081.56
894.49	1086.01
894.80	1087.18
895.11	1092.33
895.42	1090.46
895.72	1097.48
896.03	1099.58
896.34	1106.14
896.65	1094.90
896.96	1093.97
897.26	1098.88
897.57	1101.92
897.88	1099.82
898.19	1102.86
898.49	1100.52
898.80	1087.18
899.11	1085.77
899.41	1078.05
899.72	1067.28
900.03	1068.69
900.34	1062.60
900.64	1061.90
900.95	1070.33
901.26	1084.84
901.56	1080.16
901.87	1097.01
902.18	1095.84
902.48	1092.09
902.79	1097.71
903.10	1100.05
903.40	1089.99
903.71	1089.52
904.02	1089.52
904.32	1079.22
904.63	1072.43
904.94	1071.26
905.24	1063.07
905.55	1062.37
905.85	1061.90
906.16	1063.77
906.47	1069.39
906.77	1072.67
907.08	1070.80
907.38	1073.37
907.69	1084.60
908.00	1083.67
908.30	1088.35
908.61	1087.65
908.91	1088.58
909.22	1080.86
909.52	1076.41
909.83	1084.60
910.14	1095.14
910.44	1094.67
910.75	1093.50
911.05	1093.26
911.36	1080.16
911.66	1077.11
911.97	1079.69
912.27	1076.41
912.58	1082.03
912.88	1078.05
913.19	1077.11
913.49	1069.86
913.80	1076.41
914.10	1080.39
914.41	1088.12
914.71	1077.11
915.01	1076.41
915.32	1080.16
915.62	1072.43
915.93	1071.03
916.23	1088.82
916.54	1087.18
916.84	1074.77
917.15	1075.94
917.45	1075.48
917.75	1059.79
918.06	1065.41
918.36	1075.71
918.67	1073.60
918.97	1081.09
919.27	1089.52
919.58	1090.46
919.88	1088.35
920.18	1090.92
920.49	1080.86
920.79	1081.80
921.10	1085.31
921.40	1084.14
921.70	1075.24
922.01	1074.77
922.31	1066.82
922.61	1068.45
922.92	1062.37
923.22	1061.43
923.52	1057.92
923.82	1067.75
924.13	1062.37
924.43	1066.58
924.73	1069.62
925.04	1078.28
925.34	1068.22
925.64	1066.82
925.94	1066.11
926.25	1071.03
926.55	1073.84
926.85	1075.24
927.15	1077.58
927.46	1079.46
927.76	1080.63
928.06	1071.26
928.36	1077.82
928.67	1069.62
928.97	1069.39
929.27	1073.14
929.57	1079.46
929.87	1074.77
930.18	1088.12
930.48	1088.35
930.78	1082.50
931.08	1085.31
931.38	1081.33
931.69	1081.56
931.99	1076.18
932.29	1082.03
932.59	1072.67
932.89	1068.22
933.19	1051.60
933.49	1054.18
933.80	1054.41
934.10	1052.77
934.40	1062.84
934.70	1069.86
935.00	1069.16
935.30	1066.58
935.60	1064.48
935.90	1069.86
936.20	1075.48
936.50	1083.43
936.81	1082.97
937.11	1088.12
937.41	1080.16
937.71	1078.99
938.01	1071.97
938.31	1069.39
938.61	1063.07
938.91	1063.54
939.21	1071.03
939.51	1071.26
939.81	1075.48
940.11	1077.11
940.41	1081.33
940.71	1073.60
941.01	1079.92
941.31	1079.46
941.61	1094.67
941.91	1089.75
942.21	1086.24
942.51	1083.90
942.81	1082.03
943.11	1063.07
943.41	1066.82
943.71	1067.99
944.01	1071.97
944.31	1075.48
944.61	1080.63
944.90	1077.35
945.20	1076.41
945.50	1074.77
945.80	1072.67
946.10	1074.31
946.40	1075.24
946.70	1082.97
947.00	1077.35
947.30	1084.37
947.60	1097.95
947.89	1102.86
948.19	1100.29
948.49	1101.92
948.79	1098.65
949.09	1087.41
949.39	1084.37
949.69	1088.35
949.98	1089.75
950.28	1081.80
950.58	1083.90
950.88	1089.75
951.18	1083.67
951.48	1075.01
951.77	1075.01
952.07	1079.22
952.37	1066.58
952.67	1069.62
952.97	1074.77
953.26	1075.01
953.56	1059.79
953.86	1057.69
954.16	1047.86
954.45	1044.11
954.75	1050.20
955.05	1062.60
955.35	1062.14
955.64	1059.33
955.94	1064.24
956.24	1072.20
956.54	1065.41
956.83	1073.14
957.13	1081.56
957.43	1085.77
957.72	1069.86
958.02	1068.92
958.32	1075.71
958.61	1077.82
958.91	1075.01
959.21	1083.67
959.50	1081.09
959.80	1077.11
960.10	1069.86
960.39	1070.56
960.69	1073.84
960.99	1081.09
961.28	1074.54
961.58	1081.33
961.87	1071.73
962.17	1069.62
962.47	1071.50
962.76	1072.67
963.06	1079.92
963.36	1085.77
963.65	1078.28
963.95	1074.77
964.24	1078.75
964.54	1076.65
964.83	1079.22
965.13	1096.31
965.42	1102.39
965.72	1089.99
966.02	1083.90
966.31	1079.92
966.61	1064.48
966.90	1063.77
967.20	1084.37
967.49	1081.09
967.79	1084.60
968.08	1088.58
968.38	1087.65
968.67	1081.09
968.97	1086.01
969.26	1095.14
969.56	1097.48
969.85	1094.20
970.15	1086.48
970.44	1085.07
970.74	1080.16
971.03	1076.65
971.32	1073.84
971.62	1069.62
971.91	1058.39
972.21	1057.92
972.50	1057.69
972.80	1074.54
973.09	1076.88
973.38	1086.71
973.68	1078.75
973.97	1077.11
974.27	1061.43
974.56	1064.48
974.85	1055.82
975.15	1056.52
975.44	1055.35
975.73	1060.26
976.03	1066.82
976.32	1077.82
976.61	1079.46
976.91	1087.41
977.20	1089.99
977.49	1078.99
977.79	1081.09
978.08	1090.69
978.37	1089.29
978.67	1084.14
978.96	1089.99
979.25	1086.24
979.55	1075.01
979.84	1072.43
980.13	1069.39
980.42	1074.31
980.72	1075.24
981.01	1082.97
981.30	1084.37
981.59	1082.73
981.89	1077.58
982.18	1079.46
982.47	1072.20
982.76	1066.82
983.06	1071.50
983.35	1077.11
983.64	1079.22
983.93	1080.86
984.22	1087.41
984.52	1090.92
984.81	1086.48
985.10	1076.88
985.39	1075.01
985.68	1067.28
985.97	1066.58
986.27	1066.11
986.56	1074.31
986.85	1076.41
987.14	1081.33
987.43	1073.84
987.72	1083.90
988.01	1075.24
988.31	1074.07
988.60	1076.88
988.89	1086.01
989.18	1079.69
989.47	1089.99
989.76	1099.82
990.05	1093.03
990.34	1084.60
990.63	1081.09
990.92	1074.07
991.21	1066.11
991.51	1070.09
991.80	1073.14
992.09	1079.46
992.38	1075.24
992.67	1077.58
992.96	1082.97
993.25	1084.60
993.54	1082.97
993.83	1086.24
994.12	1080.63
994.41	1072.67
994.70	1069.86
994.99	1067.99
995.28	1074.54
995.57	1080.63
995.86	1082.03
996.15	1084.84
996.44	1081.80
996.73	1083.20
997.02	1075.94
997.31	1078.05
997.59	1072.67
997.88	1074.54
998.17	1069.86
998.46	1074.54
998.75	1074.54
999.04	1088.12
999.33	1078.52
999.62	1088.12
999.91	1089.29
1000.20	1083.90
1000.49	1076.18
1000.77	1088.12
1001.06	1080.39
1001.35	1086.94
1001.64	1085.54
1001.93	1087.18
1002.22	1085.77
1002.51	1079.46
1002.79	1064.24
1003.08	1064.01
1003.37	1068.22
1003.66	1065.65
1003.95	1066.11
1004.23	1075.01
1004.52	1079.69
1004.81	1079.46
1005.10	1082.50
1005.39	1088.82
1005.67	1092.33
1005.96	1091.63
1006.25	1080.86
1006.54	1082.03
1006.83	1082.73
1007.11	1075.48
1007.40	1075.48
1007.69	1074.77
1007.97	1069.86
1008.26	1072.67
1008.55	1070.09
1008.84	1066.82
1009.12	1075.01
1009.41	1073.84
1009.70	1071.97
1009.98	1078.75
1010.27	1087.41
1010.56	1088.35
1010.85	1089.05
1011.13	1092.09
1011.42	1090.92
1011.71	1083.67
1011.99	1079.69
1012.28	1078.52
1012.56	1069.62
1012.85	1067.05
1013.14	1067.05
1013.42	1069.39
1013.71	1074.77
1014.00	1070.56
1014.28	1074.07
1014.57	1080.16
1014.85	1081.80
1015.14	1078.05
1015.43	1086.48
1015.71	1089.05
1016.00	1085.31
1016.28	1076.41
1016.57	1077.11
1016.85	1077.11
1017.14	1068.45
1017.43	1071.50
1017.71	1080.39
1018.00	1083.43
1018.28	1087.65
1018.57	1094.20
1018.85	1091.39
1019.14	1088.12
1019.42	1091.16
1019.71	1083.20
1019.99	1082.26
1020.28	1082.73
1020.56	1084.14
1020.85	1084.14
1021.13	1088.58
1021.42	1086.01
1021.70	1096.54
1021.99	1100.75
1022.27	1099.58
1022.55	1105.90
1022.84	1097.71
>>>>>End Processed Spectral Data<<<<<
