SpectraSuite Data File
++++++++++++++++++++++++++++++++++++
Date: Mon Aug 26 10:24:51 PDT 2019
User: corrico
Dark Spectrum Present: No
Reference Spectrum Present: No
Number of Sampled Component Spectra: 1
Spectrometers: USB2+H06089
Integration Time (usec): 10000 (USB2+H06089)
Spectra Averaged: 2 (USB2+H06089)
Boxcar Smoothing: 2 (USB2+H06089)
Correct for Electrical Dark: No (USB2+H06089)
Strobe/Lamp Enabled: No (USB2+H06089)
Correct for Detector Non-linearity: No (USB2+H06089)
Correct for Stray Light: No (USB2+H06089)
Number of Pixels in Processed Spectrum: 2048
>>>>>Begin Processed Spectral Data<<<<<
339.70	1021.64
340.07	1021.64
340.45	984.66
340.82	961.02
341.19	932.94
341.57	905.32
341.94	897.36
342.31	893.15
342.69	889.87
343.06	891.28
343.43	896.19
343.81	901.81
344.18	901.11
344.55	905.79
344.93	909.06
345.30	915.62
345.67	918.43
346.04	935.04
346.42	938.09
346.79	952.36
347.16	968.98
347.54	981.39
347.91	981.85
348.28	997.07
348.65	998.24
349.03	991.92
349.40	1005.96
349.77	1018.37
350.14	1037.79
350.52	1048.33
350.89	1061.20
351.26	1059.09
351.63	1060.26
352.01	1060.96
352.38	1072.67
352.75	1086.01
353.12	1090.92
353.50	1092.80
353.87	1089.29
354.24	1081.09
354.61	1077.82
354.98	1078.05
355.36	1088.12
355.73	1086.24
356.10	1090.92
356.47	1088.35
356.84	1092.09
357.22	1083.67
357.59	1084.37
357.96	1083.67
358.33	1090.22
358.70	1087.18
359.08	1087.65
359.45	1086.01
359.82	1098.88
360.19	1096.07
360.56	1088.82
360.94	1089.99
361.31	1091.63
361.68	1081.09
362.05	1077.82
362.42	1082.03
362.79	1075.94
363.16	1068.45
363.54	1069.62
363.91	1073.60
364.28	1076.88
364.65	1089.99
365.02	1096.07
365.39	1097.01
365.76	1092.80
366.14	1095.60
366.51	1097.71
366.88	1110.82
367.25	1102.39
367.62	1095.37
367.99	1091.86
368.36	1087.41
368.73	1078.99
369.10	1085.54
369.48	1086.01
369.85	1085.07
370.22	1076.65
370.59	1078.99
370.96	1071.73
371.33	1079.22
371.70	1082.50
372.07	1090.69
372.44	1083.90
372.81	1095.37
373.18	1091.39
373.55	1083.20
373.93	1078.52
374.30	1074.07
374.67	1075.24
375.04	1077.82
375.41	1090.46
375.78	1098.88
376.15	1107.31
376.52	1108.95
376.89	1107.31
377.26	1111.99
377.63	1093.50
378.00	1083.90
378.37	1070.33
378.74	1065.41
379.11	1053.48
379.48	1062.14
379.85	1068.45
380.22	1075.01
380.59	1081.33
380.96	1084.37
381.33	1095.60
381.70	1094.67
382.07	1102.39
382.44	1106.61
382.81	1108.24
383.18	1108.24
383.55	1109.88
383.92	1101.46
384.29	1098.18
384.66	1098.18
385.03	1087.88
385.40	1102.16
385.77	1107.07
386.14	1109.65
386.51	1110.58
386.88	1121.35
387.25	1111.05
387.62	1110.58
387.99	1116.90
388.36	1119.95
388.73	1115.73
389.10	1119.48
389.46	1130.71
389.83	1122.75
390.20	1113.16
390.57	1115.97
390.94	1110.12
391.31	1105.20
391.68	1113.39
392.05	1121.58
392.42	1114.10
392.79	1112.69
393.16	1115.03
393.53	1112.22
393.89	1107.54
394.26	1108.01
394.63	1121.12
395.00	1117.37
395.37	1113.63
395.74	1122.52
396.11	1126.97
396.48	1129.54
396.84	1120.18
397.21	1122.75
397.58	1130.48
397.95	1140.31
398.32	1130.48
398.69	1140.31
399.06	1147.33
399.42	1137.97
399.79	1136.33
400.16	1145.22
400.53	1153.42
400.90	1155.76
401.27	1157.86
401.64	1163.95
402.00	1159.27
402.37	1170.03
402.74	1162.54
403.11	1176.82
403.48	1175.42
403.84	1190.40
404.21	1178.69
404.58	1188.29
404.95	1183.14
405.32	1193.44
405.68	1206.08
406.05	1226.21
406.42	1247.97
406.79	1264.12
407.16	1290.10
407.52	1305.78
407.89	1317.96
408.26	1342.77
408.63	1370.62
408.99	1397.53
409.36	1416.26
409.73	1446.45
410.10	1456.75
410.47	1464.71
410.83	1485.54
411.20	1525.80
411.57	1567.22
411.94	1615.91
412.30	1682.38
412.67	1729.89
413.04	1779.51
413.40	1828.43
413.77	1888.34
414.14	1940.54
414.51	1987.11
414.87	2053.12
415.24	2129.42
415.61	2212.98
415.97	2288.11
416.34	2397.64
416.71	2481.44
417.08	2583.02
417.44	2671.02
417.81	2794.83
418.18	2910.69
418.54	3045.27
418.91	3191.55
419.28	3365.22
419.64	3526.02
420.01	3711.62
420.38	3887.86
420.74	4055.21
421.11	4235.67
421.48	4419.40
421.84	4622.09
422.21	4844.44
422.58	5084.11
422.94	5358.19
423.31	5640.69
423.68	5920.85
424.04	6257.19
424.41	6561.69
424.77	6851.68
425.14	7146.12
425.51	7457.88
425.87	7778.54
426.24	8140.15
426.61	8558.64
426.97	9066.30
427.34	9518.72
427.70	10025.68
428.07	10551.84
428.44	11077.52
428.80	11542.35
429.17	12136.85
429.53	12626.25
429.90	13227.54
430.27	13748.31
430.63	14321.97
431.00	14962.58
431.36	15728.40
431.73	16336.47
432.09	17025.52
432.46	17756.71
432.83	18378.35
433.19	18959.74
433.56	19636.86
433.92	20299.93
434.29	20924.16
434.65	21663.76
435.02	22263.64
435.38	22933.74
435.75	23505.53
436.11	24169.54
436.48	24655.44
436.84	25190.72
437.21	25671.46
437.57	26179.59
437.94	26560.87
438.30	26958.76
438.67	27252.26
439.03	27423.35
439.40	27511.36
439.76	27461.27
440.13	27347.99
440.49	27255.77
440.86	26993.16
441.22	26773.39
441.59	26401.71
441.95	26020.91
442.32	25552.10
442.68	25153.50
443.05	24610.73
443.41	24170.71
443.78	23564.05
444.14	23046.32
444.51	22394.25
444.87	21924.03
445.24	21434.63
445.60	20984.54
445.96	20411.81
446.33	19934.81
446.69	19287.42
447.06	18739.97
447.42	18161.39
447.79	17657.47
448.15	17262.15
448.51	16825.88
448.88	16386.79
449.24	15975.79
449.61	15653.27
449.97	15161.76
450.33	14834.08
450.70	14392.42
451.06	14028.23
451.43	13539.06
451.79	13219.58
452.15	12856.80
452.52	12561.66
452.88	12266.51
453.24	12006.48
453.61	11767.98
453.97	11488.29
454.34	11187.06
454.70	10903.62
455.06	10620.65
455.43	10284.55
455.79	9933.23
456.15	9638.56
456.52	9300.12
456.88	9060.92
457.24	8771.86
457.61	8551.15
457.97	8307.26
458.33	8064.55
458.70	7785.56
459.06	7529.74
459.42	7296.15
459.79	7052.97
460.15	6850.28
460.51	6610.84
460.88	6397.15
461.24	6177.14
461.60	5984.52
461.96	5787.44
462.33	5658.71
462.69	5521.09
463.05	5353.27
463.42	5216.59
463.78	5094.64
464.14	4938.30
464.50	4811.44
464.87	4721.09
465.23	4607.11
465.59	4502.96
465.95	4389.44
466.32	4271.71
466.68	4182.54
467.04	4092.89
467.40	3998.81
467.77	3929.76
468.13	3879.20
468.49	3796.11
468.85	3728.47
469.22	3659.90
469.58	3587.81
469.94	3506.59
470.30	3443.86
470.66	3366.39
471.03	3316.07
471.39	3280.49
471.75	3222.92
472.11	3138.89
472.47	3097.70
472.84	3040.12
473.20	2958.20
473.56	2919.35
473.92	2884.94
474.28	2818.47
474.65	2765.58
475.01	2745.45
475.37	2678.51
475.73	2634.04
476.09	2606.89
476.45	2575.06
476.81	2522.63
477.18	2501.56
477.54	2458.03
477.90	2440.01
478.26	2404.20
478.62	2365.58
478.98	2325.79
479.34	2314.56
479.71	2270.09
480.07	2244.34
480.43	2234.28
480.79	2215.55
481.15	2179.74
481.51	2151.89
481.87	2121.23
482.23	2089.16
482.59	2061.78
482.96	2047.97
483.32	2018.71
483.68	1999.99
484.04	1977.99
484.40	1958.33
484.76	1932.11
485.12	1922.98
485.48	1900.28
485.84	1869.85
486.20	1849.02
486.56	1827.02
486.92	1810.17
487.28	1789.34
487.64	1770.85
488.00	1760.32
488.37	1747.91
488.73	1730.12
489.09	1719.36
489.45	1711.40
489.81	1697.36
490.17	1670.91
490.53	1650.31
490.89	1627.37
491.25	1616.37
491.61	1587.12
491.97	1585.24
492.33	1571.44
492.69	1562.31
493.05	1548.97
493.41	1545.69
493.77	1526.97
494.13	1529.07
494.49	1518.07
494.85	1502.86
495.21	1483.43
495.57	1486.94
495.93	1460.49
496.29	1440.13
496.64	1428.66
497.00	1422.34
497.36	1403.85
497.72	1398.47
498.08	1396.60
498.44	1390.98
498.80	1380.45
499.16	1368.51
499.52	1357.51
499.88	1362.66
500.24	1351.89
500.60	1343.94
500.96	1336.68
501.32	1338.55
501.68	1324.04
502.03	1313.51
502.39	1318.89
502.75	1316.55
503.11	1302.04
503.47	1292.68
503.83	1296.42
504.19	1274.19
504.55	1266.70
504.91	1266.23
505.26	1269.51
505.62	1262.48
505.98	1267.87
506.34	1270.91
506.70	1250.31
507.06	1236.27
507.42	1224.80
507.78	1213.80
508.13	1194.61
508.49	1201.40
508.85	1196.48
509.21	1189.93
509.57	1187.82
509.93	1197.89
510.28	1190.40
510.64	1190.40
511.00	1193.44
511.36	1194.84
511.72	1188.76
512.07	1194.84
512.43	1180.57
512.79	1179.86
513.15	1179.63
513.51	1170.74
513.86	1166.29
514.22	1178.93
514.58	1186.65
514.94	1182.67
515.30	1184.08
515.65	1177.29
516.01	1173.78
516.37	1162.31
516.73	1163.48
517.08	1159.74
517.44	1168.40
517.80	1159.74
518.16	1154.12
518.51	1144.52
518.87	1142.65
519.23	1134.46
519.59	1141.25
519.94	1144.76
520.30	1145.22
520.66	1148.97
521.01	1141.48
521.37	1143.35
521.73	1142.88
522.09	1146.63
522.44	1141.48
522.80	1152.71
523.16	1153.88
523.51	1147.33
523.87	1148.03
524.23	1146.63
524.58	1142.42
524.94	1133.76
525.30	1137.27
525.65	1135.39
526.01	1137.50
526.37	1138.90
526.72	1139.37
527.08	1123.93
527.44	1115.73
527.79	1118.07
528.15	1105.90
528.51	1095.60
528.86	1111.75
529.22	1108.01
529.58	1102.39
529.93	1107.78
530.29	1108.48
530.65	1108.01
531.00	1112.69
531.36	1111.75
531.71	1110.12
532.07	1107.78
532.43	1103.09
532.78	1107.31
533.14	1106.84
533.49	1112.69
533.85	1123.46
534.21	1122.05
534.56	1115.03
534.92	1115.27
535.27	1102.86
535.63	1108.01
535.98	1108.71
536.34	1107.54
536.69	1107.07
537.05	1118.54
537.41	1108.71
537.76	1107.78
538.12	1113.86
538.47	1114.09
538.83	1105.44
539.18	1125.56
539.54	1116.44
539.89	1107.07
540.25	1111.99
540.60	1111.99
540.96	1090.69
541.31	1098.88
541.67	1107.78
542.02	1105.67
542.38	1106.14
542.73	1105.67
543.09	1108.95
543.44	1111.05
543.80	1111.52
544.15	1116.44
544.51	1121.12
544.86	1118.07
545.22	1120.88
545.57	1120.88
545.93	1132.59
546.28	1122.52
546.64	1126.27
546.99	1122.29
547.35	1113.63
547.70	1103.09
548.05	1107.07
548.41	1110.58
548.76	1119.48
549.12	1126.03
549.47	1134.69
549.83	1139.37
550.18	1141.71
550.53	1118.78
550.89	1115.97
551.24	1100.52
551.60	1094.90
551.95	1089.52
552.30	1098.41
552.66	1100.05
553.01	1108.95
553.37	1111.75
553.72	1108.71
554.07	1105.67
554.43	1103.56
554.78	1099.35
555.13	1108.01
555.49	1110.12
555.84	1122.05
556.19	1121.58
556.55	1122.52
556.90	1115.73
557.26	1115.50
557.61	1104.50
557.96	1097.48
558.32	1094.67
558.67	1085.31
559.02	1071.03
559.37	1067.75
559.73	1079.92
560.08	1086.24
560.43	1090.46
560.79	1107.78
561.14	1114.33
561.49	1110.82
561.85	1104.03
562.20	1110.12
562.55	1096.78
562.90	1094.43
563.26	1096.31
563.61	1094.90
563.96	1093.26
564.32	1091.86
564.67	1098.65
565.02	1104.73
565.37	1111.75
565.73	1116.90
566.08	1122.99
566.43	1119.71
566.78	1119.71
567.14	1116.67
567.49	1105.44
567.84	1112.69
568.19	1113.16
568.54	1097.48
568.90	1096.07
569.25	1096.54
569.60	1084.60
569.95	1088.35
570.31	1088.58
570.66	1088.58
571.01	1090.69
571.36	1103.09
571.71	1097.71
572.06	1104.73
572.42	1104.03
572.77	1097.01
573.12	1089.75
573.47	1096.54
573.82	1097.24
574.18	1096.54
574.53	1100.99
574.88	1091.16
575.23	1086.94
575.58	1078.52
575.93	1089.75
576.28	1093.26
576.64	1104.73
576.99	1102.63
577.34	1112.69
577.69	1112.69
578.04	1112.22
578.39	1111.52
578.74	1115.97
579.09	1105.44
579.44	1100.99
579.80	1112.22
580.15	1114.56
580.50	1111.29
580.85	1114.80
581.20	1112.69
581.55	1103.09
581.90	1102.86
582.25	1095.60
582.60	1100.75
582.95	1097.48
583.30	1093.03
583.65	1093.73
584.00	1100.52
584.35	1099.35
584.71	1102.39
585.06	1097.95
585.41	1089.52
585.76	1091.16
586.11	1087.65
586.46	1082.97
586.81	1085.07
587.16	1086.48
587.51	1081.33
587.86	1087.18
588.21	1088.82
588.56	1092.80
588.91	1095.60
589.26	1090.46
589.61	1092.56
589.96	1085.07
590.31	1083.90
590.66	1077.82
591.01	1089.99
591.36	1086.01
591.71	1097.71
592.06	1102.39
592.41	1101.92
592.76	1087.88
593.10	1084.37
593.45	1080.86
593.80	1068.69
594.15	1079.92
594.50	1087.88
594.85	1089.29
595.20	1078.52
595.55	1085.77
595.90	1086.24
596.25	1095.60
596.60	1097.95
596.95	1121.82
597.30	1120.65
597.64	1164.18
597.99	1150.37
598.34	1154.12
598.69	1145.46
599.04	1159.74
599.39	1108.95
599.74	1116.44
600.09	1116.67
600.44	1115.50
600.78	1104.97
601.13	1113.16
601.48	1105.20
601.83	1103.09
602.18	1096.07
602.53	1092.80
602.88	1091.39
603.22	1096.54
603.57	1091.86
603.92	1084.60
604.27	1098.65
604.62	1096.78
604.97	1095.60
605.31	1085.07
605.66	1089.75
606.01	1077.82
606.36	1068.45
606.71	1063.77
607.05	1074.54
607.40	1074.07
607.75	1072.43
608.10	1093.73
608.44	1095.37
608.79	1104.50
609.14	1104.73
609.49	1108.48
609.84	1094.67
610.18	1098.41
610.53	1097.24
610.88	1098.18
611.23	1102.63
611.57	1105.67
611.92	1104.97
612.27	1099.58
612.62	1102.63
612.96	1090.22
613.31	1084.37
613.66	1080.63
614.00	1078.05
614.35	1077.11
614.70	1081.56
615.05	1071.03
615.39	1071.73
615.74	1069.16
616.09	1070.56
616.43	1067.28
616.78	1085.54
617.13	1091.63
617.47	1092.09
617.82	1090.22
618.17	1100.99
618.51	1104.26
618.86	1101.22
619.21	1103.09
619.55	1108.71
619.90	1108.71
620.25	1095.60
620.59	1091.86
620.94	1096.31
621.29	1085.07
621.63	1083.20
621.98	1092.56
622.32	1096.78
622.67	1093.73
623.02	1100.75
623.36	1085.31
623.71	1079.92
624.05	1082.26
624.40	1078.28
624.75	1084.84
625.09	1095.37
625.44	1099.35
625.78	1098.88
626.13	1098.65
626.48	1083.43
626.82	1079.46
627.17	1077.11
627.51	1071.97
627.86	1079.46
628.20	1091.16
628.55	1085.31
628.89	1076.65
629.24	1085.07
629.58	1082.73
629.93	1081.33
630.28	1097.24
630.62	1100.05
630.97	1096.07
631.31	1095.60
631.66	1101.92
632.00	1096.54
632.35	1099.82
632.69	1097.01
633.04	1086.01
633.38	1079.69
633.73	1080.86
634.07	1082.26
634.42	1091.86
634.76	1100.05
635.11	1100.75
635.45	1094.67
635.79	1085.54
636.14	1073.37
636.48	1075.01
636.83	1074.07
637.17	1078.05
637.52	1081.33
637.86	1078.99
638.21	1077.11
638.55	1079.69
638.89	1082.03
639.24	1084.37
639.58	1081.80
639.93	1088.58
640.27	1083.67
640.61	1077.11
640.96	1085.31
641.30	1092.33
641.65	1080.63
641.99	1087.65
642.33	1092.09
642.68	1081.56
643.02	1078.99
643.37	1085.77
643.71	1083.43
644.05	1087.65
644.40	1101.92
644.74	1102.63
645.08	1107.07
645.43	1111.99
645.77	1108.24
646.11	1094.90
646.46	1093.50
646.80	1091.16
647.14	1087.41
647.49	1086.24
647.83	1095.14
648.17	1105.90
648.52	1096.54
648.86	1092.56
649.20	1095.60
649.55	1090.69
649.89	1083.20
650.23	1085.54
650.57	1081.33
650.92	1083.67
651.26	1084.84
651.60	1086.48
651.95	1090.69
652.29	1096.07
652.63	1091.16
652.97	1096.31
653.32	1099.58
653.66	1104.03
654.00	1103.09
654.34	1097.01
654.69	1089.75
655.03	1091.39
655.37	1093.73
655.71	1092.56
656.05	1092.09
656.40	1092.33
656.74	1087.65
657.08	1092.56
657.42	1090.69
657.76	1092.33
658.11	1092.56
658.45	1085.07
658.79	1067.99
659.13	1064.01
659.47	1072.20
659.82	1069.86
660.16	1079.22
660.50	1078.75
660.84	1078.28
661.18	1077.82
661.52	1075.71
661.87	1073.84
662.21	1082.73
662.55	1083.67
662.89	1084.60
663.23	1092.56
663.57	1088.12
663.91	1080.86
664.25	1093.26
664.60	1094.43
664.94	1095.84
665.28	1092.33
665.62	1096.07
665.96	1092.56
666.30	1086.01
666.64	1089.05
666.98	1091.63
667.32	1095.14
667.66	1093.26
668.01	1089.99
668.35	1083.20
668.69	1084.84
669.03	1083.20
669.37	1074.31
669.71	1073.60
670.05	1060.50
670.39	1054.18
670.73	1055.82
671.07	1055.58
671.41	1056.52
671.75	1068.92
672.09	1090.92
672.43	1085.54
672.77	1092.80
673.11	1095.37
673.45	1095.37
673.79	1078.99
674.13	1086.24
674.47	1085.07
674.81	1086.48
675.15	1090.22
675.49	1089.29
675.83	1092.09
676.17	1102.86
676.51	1100.52
676.85	1098.88
677.19	1104.50
677.53	1095.37
677.87	1085.77
678.21	1090.22
678.55	1082.73
678.89	1081.56
679.23	1075.48
679.57	1074.31
679.90	1077.82
680.24	1083.43
680.58	1081.33
680.92	1086.71
681.26	1087.18
681.60	1081.56
681.94	1080.63
682.28	1084.37
682.62	1085.54
682.96	1086.94
683.29	1088.12
683.63	1092.09
683.97	1092.09
684.31	1098.41
684.65	1093.50
684.99	1090.92
685.33	1083.67
685.67	1078.05
686.00	1071.26
686.34	1083.43
686.68	1087.88
687.02	1091.86
687.36	1091.16
687.70	1091.63
688.03	1083.67
688.37	1081.33
688.71	1079.92
689.05	1085.54
689.39	1084.37
689.72	1081.80
690.06	1075.24
690.40	1068.69
690.74	1066.11
691.08	1071.50
691.41	1073.37
691.75	1075.01
692.09	1081.09
692.43	1077.58
692.76	1078.05
693.10	1076.88
693.44	1071.26
693.78	1067.75
694.11	1070.80
694.45	1068.69
694.79	1063.31
695.13	1070.80
695.46	1071.97
695.80	1071.73
696.14	1077.82
696.48	1089.75
696.81	1093.03
697.15	1097.71
697.49	1097.24
697.82	1092.56
698.16	1087.18
698.50	1093.73
698.83	1093.03
699.17	1093.97
699.51	1083.20
699.84	1081.33
700.18	1071.26
700.52	1069.16
700.85	1070.80
701.19	1081.56
701.53	1077.35
701.86	1077.11
702.20	1074.54
702.54	1076.18
702.87	1074.77
703.21	1074.07
703.55	1082.50
703.88	1083.90
704.22	1081.56
704.55	1082.26
704.89	1091.63
705.23	1095.14
705.56	1099.12
705.90	1114.33
706.23	1111.29
706.57	1115.50
706.91	1107.31
707.24	1098.65
707.58	1086.71
707.91	1093.73
708.25	1088.82
708.58	1086.94
708.92	1098.18
709.26	1093.50
709.59	1080.39
709.93	1075.24
710.26	1082.97
710.60	1082.50
710.93	1085.07
711.27	1101.69
711.60	1104.97
711.94	1096.07
712.27	1101.22
712.61	1103.09
712.94	1097.71
713.28	1099.12
713.61	1100.75
713.95	1100.75
714.28	1097.48
714.62	1086.24
714.95	1091.86
715.29	1089.52
715.62	1081.56
715.96	1079.69
716.29	1087.88
716.63	1080.63
716.96	1076.18
717.29	1070.56
717.63	1072.67
717.96	1074.07
718.30	1081.33
718.63	1092.33
718.97	1097.24
719.30	1097.01
719.63	1087.88
719.97	1082.26
720.30	1072.90
720.64	1073.37
720.97	1074.54
721.30	1079.69
721.64	1083.67
721.97	1094.43
722.31	1093.26
722.64	1095.14
722.97	1091.39
723.31	1086.71
723.64	1074.31
723.97	1081.80
724.31	1083.20
724.64	1096.07
724.98	1100.75
725.31	1109.18
725.64	1100.05
725.98	1098.88
726.31	1082.97
726.64	1080.63
726.97	1084.84
727.31	1078.99
727.64	1082.73
727.97	1093.97
728.31	1087.88
728.64	1092.80
728.97	1104.97
729.31	1105.90
729.64	1102.16
729.97	1115.03
730.30	1107.78
730.64	1102.39
730.97	1098.88
731.30	1093.73
731.63	1096.78
731.97	1093.50
732.30	1087.65
732.63	1082.50
732.96	1088.82
733.30	1082.97
733.63	1085.54
733.96	1094.90
734.29	1104.26
734.63	1112.46
734.96	1111.99
735.29	1102.39
735.62	1093.03
735.95	1085.77
736.29	1072.67
736.62	1064.24
736.95	1076.88
737.28	1088.12
737.61	1080.16
737.94	1085.31
738.28	1085.07
738.61	1086.71
738.94	1079.22
739.27	1086.94
739.60	1087.41
739.93	1092.80
740.27	1078.75
740.60	1083.43
740.93	1089.52
741.26	1088.58
741.59	1079.46
741.92	1083.67
742.25	1086.01
742.58	1070.33
742.91	1062.84
743.25	1075.71
743.58	1075.71
743.91	1067.28
744.24	1081.56
744.57	1085.07
744.90	1075.48
745.23	1071.26
745.56	1073.14
745.89	1068.45
746.22	1064.01
746.55	1066.35
746.88	1076.18
747.21	1079.69
747.54	1078.52
747.87	1095.60
748.20	1104.97
748.53	1097.95
748.87	1097.01
749.20	1104.50
749.53	1091.16
749.86	1079.46
750.19	1075.94
750.52	1082.03
750.85	1075.01
751.18	1074.54
751.51	1077.11
751.84	1087.65
752.16	1077.11
752.49	1072.20
752.82	1075.24
753.15	1065.41
753.48	1054.41
753.81	1066.11
754.14	1073.14
754.47	1069.86
754.80	1088.12
755.13	1091.86
755.46	1083.43
755.79	1075.48
756.12	1091.39
756.45	1086.94
756.78	1086.94
757.11	1089.29
757.43	1090.46
757.76	1079.69
758.09	1069.39
758.42	1079.46
758.75	1068.92
759.08	1072.90
759.41	1072.90
759.74	1078.75
760.07	1074.54
760.39	1088.82
760.72	1092.56
761.05	1083.67
761.38	1084.14
761.71	1078.05
762.04	1077.11
762.36	1072.43
762.69	1078.52
763.02	1075.71
763.35	1081.80
763.68	1068.69
764.01	1066.11
764.33	1068.92
764.66	1071.97
764.99	1066.82
765.32	1080.63
765.65	1083.90
765.97	1081.09
766.30	1082.97
766.63	1090.69
766.96	1085.07
767.28	1085.31
767.61	1089.05
767.94	1087.88
768.27	1087.18
768.59	1090.22
768.92	1094.67
769.25	1089.05
769.58	1086.01
769.90	1087.65
770.23	1089.99
770.56	1082.03
770.89	1091.39
771.21	1083.90
771.54	1074.77
771.87	1066.35
772.19	1058.39
772.52	1060.26
772.85	1072.90
773.17	1071.97
773.50	1077.35
773.83	1084.84
774.15	1078.28
774.48	1076.41
774.81	1074.07
775.13	1065.88
775.46	1072.43
775.79	1071.97
776.11	1076.65
776.44	1083.90
776.77	1083.67
777.09	1076.41
777.42	1082.73
777.74	1077.11
778.07	1075.71
778.40	1077.82
778.72	1085.54
779.05	1077.58
779.37	1073.14
779.70	1075.01
780.03	1082.50
780.35	1074.54
780.68	1079.22
781.00	1075.71
781.33	1082.26
781.65	1073.37
781.98	1084.60
782.31	1075.48
782.63	1076.18
782.96	1073.60
783.28	1074.54
783.61	1056.52
783.93	1061.67
784.26	1073.60
784.58	1063.54
784.91	1073.84
785.23	1094.90
785.56	1094.20
785.88	1083.90
786.21	1093.26
786.53	1082.50
786.86	1075.24
787.18	1075.71
787.51	1075.24
787.83	1078.99
788.16	1087.41
788.48	1085.77
788.81	1089.75
789.13	1088.35
789.46	1085.77
789.78	1082.26
790.10	1080.63
790.43	1078.52
790.75	1079.46
791.08	1071.97
791.40	1082.26
791.73	1091.86
792.05	1087.65
792.37	1086.48
792.70	1090.46
793.02	1081.09
793.35	1078.99
793.67	1078.52
793.99	1087.41
794.32	1091.63
794.64	1095.37
794.96	1089.05
795.29	1089.75
795.61	1087.65
795.93	1086.01
796.26	1080.39
796.58	1078.99
796.91	1078.52
797.23	1074.54
797.55	1069.86
797.87	1064.48
798.20	1062.84
798.52	1067.75
798.84	1071.50
799.17	1065.18
799.49	1074.54
799.81	1079.92
800.14	1079.69
800.46	1079.69
800.78	1087.65
801.10	1075.48
801.43	1077.35
801.75	1081.33
802.07	1073.60
802.40	1067.05
802.72	1072.43
803.04	1067.99
803.36	1067.05
803.69	1069.39
804.01	1079.46
804.33	1083.43
804.65	1091.16
804.97	1080.63
805.30	1075.71
805.62	1071.73
805.94	1069.39
806.26	1061.20
806.58	1062.14
806.91	1070.80
807.23	1066.35
807.55	1069.86
807.87	1068.22
808.19	1069.16
808.52	1072.20
808.84	1070.56
809.16	1067.99
809.48	1066.11
809.80	1078.52
810.12	1078.52
810.44	1082.73
810.77	1086.48
811.09	1091.16
811.41	1092.80
811.73	1097.24
812.05	1102.63
812.37	1099.35
812.69	1101.69
813.01	1094.67
813.33	1095.84
813.66	1090.22
813.98	1089.99
814.30	1086.71
814.62	1078.28
814.94	1073.14
815.26	1068.92
815.58	1071.26
815.90	1072.20
816.22	1084.60
816.54	1092.80
816.86	1096.31
817.18	1095.14
817.50	1096.54
817.82	1086.24
818.14	1077.11
818.46	1079.46
818.78	1078.99
819.10	1072.90
819.42	1069.86
819.74	1070.56
820.06	1067.28
820.38	1070.33
820.70	1075.01
821.02	1076.65
821.34	1076.41
821.66	1071.97
821.98	1073.37
822.30	1063.77
822.62	1075.01
822.94	1070.56
823.26	1088.82
823.58	1081.56
823.90	1090.69
824.22	1092.33
824.54	1097.48
824.86	1084.14
825.18	1086.71
825.50	1087.65
825.81	1089.52
826.13	1089.05
826.45	1089.05
826.77	1090.46
827.09	1091.63
827.41	1084.37
827.73	1086.48
828.05	1083.67
828.36	1085.07
828.68	1086.01
829.00	1093.50
829.32	1089.75
829.64	1093.26
829.96	1087.18
830.28	1087.18
830.59	1083.90
830.91	1093.26
831.23	1097.24
831.55	1097.95
831.87	1097.48
832.19	1094.43
832.50	1091.63
832.82	1078.75
833.14	1086.94
833.46	1086.94
833.78	1074.54
834.09	1058.86
834.41	1075.94
834.73	1068.92
835.05	1072.67
835.36	1071.97
835.68	1077.58
836.00	1065.18
836.32	1063.54
836.63	1051.60
836.95	1064.24
837.27	1069.39
837.59	1076.41
837.90	1078.99
838.22	1085.07
838.54	1079.92
838.85	1080.86
839.17	1083.90
839.49	1089.29
839.80	1092.09
840.12	1095.84
840.44	1100.05
840.76	1091.86
841.07	1092.09
841.39	1093.26
841.71	1092.33
842.02	1088.12
842.34	1102.16
842.65	1103.33
842.97	1098.65
843.29	1099.35
843.60	1095.60
843.92	1082.50
844.24	1082.50
844.55	1071.73
844.87	1073.14
845.18	1081.09
845.50	1083.90
845.82	1077.58
846.13	1085.54
846.45	1086.01
846.76	1079.22
847.08	1075.01
847.40	1076.88
847.71	1080.86
848.03	1071.73
848.34	1068.69
848.66	1077.11
848.97	1083.90
849.29	1087.88
849.60	1094.20
849.92	1094.67
850.24	1098.65
850.55	1090.22
850.87	1087.88
851.18	1097.48
851.50	1097.24
851.81	1082.73
852.13	1074.54
852.44	1073.84
852.76	1070.33
853.07	1075.24
853.39	1081.80
853.70	1093.26
854.01	1091.39
854.33	1074.54
854.64	1061.43
854.96	1052.77
855.27	1052.54
855.59	1042.01
855.90	1047.39
856.22	1063.07
856.53	1063.07
856.84	1065.18
857.16	1075.48
857.47	1085.31
857.79	1078.99
858.10	1086.24
858.41	1082.97
858.73	1083.90
859.04	1071.97
859.36	1072.67
859.67	1075.24
859.98	1075.94
860.30	1083.67
860.61	1088.58
860.92	1088.58
861.24	1090.22
861.55	1102.16
861.87	1090.92
862.18	1093.73
862.49	1098.88
862.81	1104.50
863.12	1083.90
863.43	1085.31
863.74	1088.12
864.06	1089.99
864.37	1080.86
864.68	1086.01
865.00	1083.67
865.31	1074.77
865.62	1067.99
865.94	1066.35
866.25	1079.69
866.56	1083.67
866.87	1094.67
867.19	1089.75
867.50	1094.90
867.81	1084.60
868.12	1079.69
868.44	1070.56
868.75	1076.88
869.06	1072.20
869.37	1071.73
869.68	1081.09
870.00	1079.22
870.31	1079.46
870.62	1082.73
870.93	1076.88
871.24	1068.45
871.56	1074.07
871.87	1072.20
872.18	1078.05
872.49	1078.75
872.80	1078.28
873.12	1079.69
873.43	1073.84
873.74	1064.01
874.05	1075.01
874.36	1075.01
874.67	1074.77
874.98	1081.80
875.29	1086.71
875.61	1065.41
875.92	1062.84
876.23	1056.52
876.54	1058.62
876.85	1049.73
877.16	1056.52
877.47	1072.67
877.78	1081.09
878.09	1080.16
878.40	1085.54
878.72	1099.12
879.03	1086.01
879.34	1079.69
879.65	1079.22
879.96	1082.73
880.27	1082.26
880.58	1090.46
880.89	1090.46
881.20	1099.58
881.51	1093.73
881.82	1086.01
882.13	1077.35
882.44	1068.45
882.75	1048.56
883.06	1052.77
883.37	1056.52
883.68	1058.16
883.99	1064.94
884.30	1069.62
884.61	1071.50
884.92	1081.56
885.23	1084.14
885.54	1094.43
885.85	1105.90
886.16	1096.78
886.47	1089.29
886.78	1101.92
887.08	1091.39
887.39	1084.60
887.70	1091.86
888.01	1086.71
888.32	1071.50
888.63	1080.86
888.94	1084.14
889.25	1082.26
889.56	1091.39
889.87	1089.29
890.17	1086.01
890.48	1090.69
890.79	1093.50
891.10	1083.43
891.41	1079.92
891.72	1091.86
892.03	1091.63
892.34	1085.31
892.64	1084.84
892.95	1094.90
893.26	1094.20
893.57	1091.86
893.88	1093.97
894.18	1089.99
894.49	1093.26
894.80	1080.39
895.11	1078.05
895.42	1077.35
895.72	1088.35
896.03	1074.77
896.34	1082.03
896.65	1076.65
896.96	1082.97
897.26	1074.07
897.57	1083.20
897.88	1070.80
898.19	1076.65
898.49	1075.24
898.80	1079.92
899.11	1078.99
899.41	1089.75
899.72	1091.16
900.03	1092.56
900.34	1085.31
900.64	1086.01
900.95	1088.58
901.26	1085.54
901.56	1074.77
901.87	1074.07
902.18	1069.39
902.48	1068.92
902.79	1072.43
903.10	1086.01
903.40	1098.88
903.71	1099.12
904.02	1088.12
904.32	1078.52
904.63	1077.58
904.94	1072.90
905.24	1070.33
905.55	1078.05
905.85	1080.39
906.16	1063.07
906.47	1063.54
906.77	1070.80
907.08	1065.65
907.38	1070.80
907.69	1090.22
908.00	1099.82
908.30	1091.63
908.61	1089.99
908.91	1081.56
909.22	1081.80
909.52	1080.16
909.83	1096.07
910.14	1092.80
910.44	1100.52
910.75	1090.22
911.05	1086.24
911.36	1074.31
911.66	1074.54
911.97	1077.11
912.27	1086.24
912.58	1083.90
912.88	1087.41
913.19	1084.60
913.49	1079.69
913.80	1075.24
914.10	1076.41
914.41	1071.97
914.71	1079.46
915.01	1079.69
915.32	1072.67
915.62	1067.75
915.93	1069.16
916.23	1066.11
916.54	1071.73
916.84	1072.67
917.15	1075.71
917.45	1076.88
917.75	1076.65
918.06	1065.88
918.36	1064.71
918.67	1059.09
918.97	1059.79
919.27	1072.90
919.58	1078.75
919.88	1079.69
920.18	1081.56
920.49	1072.20
920.79	1070.33
921.10	1073.60
921.40	1082.50
921.70	1087.88
922.01	1091.16
922.31	1093.26
922.61	1085.31
922.92	1078.75
923.22	1074.77
923.52	1080.63
923.82	1074.31
924.13	1084.14
924.43	1091.86
924.73	1096.31
925.04	1097.71
925.34	1094.43
925.64	1090.92
925.94	1078.52
926.25	1078.05
926.55	1078.05
926.85	1074.07
927.15	1063.07
927.46	1073.14
927.76	1070.56
928.06	1070.33
928.36	1079.46
928.67	1089.52
928.97	1087.65
929.27	1080.63
929.57	1070.09
929.87	1073.60
930.18	1069.39
930.48	1063.54
930.78	1061.20
931.08	1068.45
931.38	1068.69
931.69	1074.07
931.99	1078.05
932.29	1084.84
932.59	1084.37
932.89	1072.67
933.19	1067.05
933.49	1070.56
933.80	1075.94
934.10	1084.14
934.40	1087.88
934.70	1091.86
935.00	1097.24
935.30	1097.95
935.60	1100.29
935.90	1103.80
936.20	1101.69
936.50	1096.31
936.81	1098.18
937.11	1088.35
937.41	1083.20
937.71	1085.77
938.01	1083.90
938.31	1079.92
938.61	1080.63
938.91	1082.97
939.21	1090.69
939.51	1088.35
939.81	1095.14
940.11	1095.84
940.41	1097.48
940.71	1087.41
941.01	1084.84
941.31	1074.77
941.61	1082.97
941.91	1069.86
942.21	1076.88
942.51	1087.65
942.81	1096.54
943.11	1088.82
943.41	1102.63
943.71	1092.33
944.01	1087.41
944.31	1085.07
944.61	1084.60
944.90	1080.63
945.20	1084.60
945.50	1089.75
945.80	1075.71
946.10	1076.88
946.40	1073.84
946.70	1070.09
947.00	1062.37
947.30	1072.43
947.60	1077.11
947.89	1084.37
948.19	1084.84
948.49	1080.63
948.79	1072.90
949.09	1071.50
949.39	1062.84
949.69	1063.54
949.98	1070.33
950.28	1077.58
950.58	1069.39
950.88	1077.58
951.18	1084.84
951.48	1075.01
951.77	1071.03
952.07	1078.05
952.37	1065.88
952.67	1053.24
952.97	1060.50
953.26	1069.62
953.56	1069.86
953.86	1077.58
954.16	1087.65
954.45	1078.99
954.75	1064.01
955.05	1050.90
955.35	1045.99
955.64	1043.18
955.94	1060.50
956.24	1075.48
956.54	1088.35
956.83	1095.14
957.13	1089.75
957.43	1083.67
957.72	1079.69
958.02	1083.67
958.32	1078.28
958.61	1085.07
958.91	1088.12
959.21	1085.31
959.50	1082.03
959.80	1088.35
960.10	1090.69
960.39	1077.11
960.69	1082.03
960.99	1083.67
961.28	1083.43
961.58	1082.97
961.87	1093.03
962.17	1092.80
962.47	1093.50
962.76	1089.99
963.06	1092.56
963.36	1098.88
963.65	1100.05
963.95	1098.18
964.24	1096.07
964.54	1092.33
964.83	1081.09
965.13	1076.65
965.42	1073.14
965.72	1072.90
966.02	1066.58
966.31	1076.88
966.61	1078.05
966.90	1079.92
967.20	1088.35
967.49	1094.43
967.79	1088.35
968.08	1088.58
968.38	1079.22
968.67	1080.63
968.97	1071.50
969.26	1077.58
969.56	1078.28
969.85	1092.09
970.15	1076.65
970.44	1086.01
970.74	1073.14
971.03	1072.67
971.32	1074.07
971.62	1089.99
971.91	1097.71
972.21	1097.01
972.50	1085.77
972.80	1075.94
973.09	1075.24
973.38	1066.58
973.68	1079.46
973.97	1084.60
974.27	1083.90
974.56	1079.69
974.85	1079.92
975.15	1069.86
975.44	1071.26
975.73	1076.18
976.03	1069.86
976.32	1065.88
976.61	1065.65
976.91	1061.67
977.20	1059.79
977.49	1067.52
977.79	1063.54
978.08	1064.94
978.37	1066.11
978.67	1071.26
978.96	1072.43
979.25	1086.01
979.55	1085.77
979.84	1080.63
980.13	1078.05
980.42	1070.09
980.72	1064.71
981.01	1065.65
981.30	1074.07
981.59	1074.31
981.89	1078.28
982.18	1068.45
982.47	1068.22
982.76	1075.71
983.06	1074.54
983.35	1080.16
983.64	1083.20
983.93	1081.80
984.22	1071.26
984.52	1067.05
984.81	1053.01
985.10	1064.24
985.39	1065.65
985.68	1067.75
985.97	1063.54
986.27	1072.43
986.56	1068.22
986.85	1067.75
987.14	1078.05
987.43	1092.09
987.72	1085.54
988.01	1073.14
988.31	1078.99
988.60	1082.97
988.89	1081.56
989.18	1088.12
989.47	1108.24
989.76	1098.65
990.05	1082.73
990.34	1082.50
990.63	1078.28
990.92	1070.09
991.21	1084.84
991.51	1096.07
991.80	1089.29
992.09	1094.90
992.38	1083.90
992.67	1069.86
992.96	1075.94
993.25	1071.03
993.54	1072.43
993.83	1087.41
994.12	1093.26
994.41	1074.77
994.70	1086.94
994.99	1081.80
995.28	1068.22
995.57	1065.88
995.86	1071.03
996.15	1069.86
996.44	1067.99
996.73	1076.41
997.02	1068.69
997.31	1064.24
997.59	1061.90
997.88	1067.75
998.17	1070.80
998.46	1090.22
998.75	1093.26
999.04	1086.24
999.33	1086.01
999.62	1077.58
999.91	1067.52
1000.20	1067.99
1000.49	1067.05
1000.77	1063.54
1001.06	1071.73
1001.35	1069.39
1001.64	1067.28
1001.93	1080.63
1002.22	1080.63
1002.51	1081.09
1002.79	1086.71
1003.08	1092.09
1003.37	1079.46
1003.66	1084.37
1003.95	1079.46
1004.23	1079.92
1004.52	1079.22
1004.81	1080.63
1005.10	1072.20
1005.39	1075.01
1005.67	1072.90
1005.96	1071.50
1006.25	1072.67
1006.54	1072.67
1006.83	1075.48
1007.11	1071.73
1007.40	1067.99
1007.69	1064.71
1007.97	1056.28
1008.26	1053.01
1008.55	1058.16
1008.84	1066.82
1009.12	1071.50
1009.41	1086.48
1009.70	1093.50
1009.98	1096.54
1010.27	1086.48
1010.56	1085.07
1010.85	1086.48
1011.13	1078.52
1011.42	1065.88
1011.71	1079.46
1011.99	1080.63
1012.28	1080.63
1012.56	1086.71
1012.85	1092.80
1013.14	1091.16
1013.42	1098.41
1013.71	1093.26
1014.00	1093.97
1014.28	1097.24
1014.57	1081.80
1014.85	1072.43
1015.14	1066.58
1015.43	1057.45
1015.71	1057.92
1016.00	1060.73
1016.28	1062.14
1016.57	1070.80
1016.85	1075.94
1017.14	1077.82
1017.43	1081.09
1017.71	1087.18
1018.00	1091.86
1018.28	1097.01
1018.57	1096.31
1018.85	1093.26
1019.14	1085.07
1019.42	1079.22
1019.71	1070.80
1019.99	1062.37
1020.28	1067.52
1020.56	1072.20
1020.85	1078.28
1021.13	1084.37
1021.42	1086.01
1021.70	1089.05
1021.99	1095.84
1022.27	1091.16
1022.55	1116.44
1022.84	1081.33
>>>>>End Processed Spectral Data<<<<<
