SpectraSuite Data File
++++++++++++++++++++++++++++++++++++
Date: Mon Aug 26 10:24:53 PDT 2019
User: corrico
Dark Spectrum Present: No
Reference Spectrum Present: No
Number of Sampled Component Spectra: 1
Spectrometers: USB2+H06089
Integration Time (usec): 10000 (USB2+H06089)
Spectra Averaged: 2 (USB2+H06089)
Boxcar Smoothing: 2 (USB2+H06089)
Correct for Electrical Dark: No (USB2+H06089)
Strobe/Lamp Enabled: No (USB2+H06089)
Correct for Detector Non-linearity: No (USB2+H06089)
Correct for Stray Light: No (USB2+H06089)
Number of Pixels in Processed Spectrum: 2048
>>>>>Begin Processed Spectral Data<<<<<
339.70	1018.13
340.07	1018.13
340.45	976.47
340.82	960.32
341.19	937.38
341.57	918.19
341.94	904.85
342.31	899.70
342.69	898.06
343.06	892.21
343.43	890.57
343.81	895.96
344.18	902.98
344.55	899.00
344.93	900.17
345.30	902.04
345.67	915.85
346.04	920.06
346.42	924.98
346.79	941.60
347.16	959.62
347.54	962.90
347.91	981.62
348.28	997.77
348.65	1010.88
349.03	1002.45
349.40	1011.35
349.77	1019.30
350.14	1021.18
350.52	1027.73
350.89	1045.52
351.26	1044.11
351.63	1039.67
352.01	1052.07
352.38	1045.99
352.75	1046.45
353.12	1067.05
353.50	1075.48
353.87	1075.48
354.24	1081.33
354.61	1086.71
354.98	1067.05
355.36	1067.52
355.73	1070.09
356.10	1075.01
356.47	1075.94
356.84	1086.01
357.22	1087.65
357.59	1090.46
357.96	1098.18
358.33	1093.26
358.70	1100.99
359.08	1095.14
359.45	1089.75
359.82	1088.82
360.19	1089.29
360.56	1083.67
360.94	1085.77
361.31	1087.18
361.68	1087.18
362.05	1097.71
362.42	1097.24
362.79	1106.61
363.16	1104.73
363.54	1102.39
363.91	1090.92
364.28	1085.77
364.65	1077.35
365.02	1075.71
365.39	1079.22
365.76	1070.56
366.14	1068.92
366.51	1075.01
366.88	1078.75
367.25	1073.14
367.62	1080.16
367.99	1091.16
368.36	1086.71
368.73	1078.75
369.10	1081.33
369.48	1079.22
369.85	1075.48
370.22	1073.37
370.59	1088.12
370.96	1078.99
371.33	1091.63
371.70	1094.90
372.07	1086.24
372.44	1069.16
372.81	1078.05
373.18	1074.31
373.55	1071.03
373.93	1085.07
374.30	1091.63
374.67	1085.07
375.04	1083.20
375.41	1077.11
375.78	1074.54
376.15	1075.01
376.52	1069.62
376.89	1074.77
377.26	1083.90
377.63	1080.63
378.00	1085.31
378.37	1096.78
378.74	1089.52
379.11	1091.16
379.48	1100.52
379.85	1093.97
380.22	1090.92
380.59	1095.84
380.96	1084.37
381.33	1087.41
381.70	1093.26
382.07	1094.43
382.44	1092.09
382.81	1100.52
383.18	1095.37
383.55	1103.09
383.92	1113.86
384.29	1115.73
384.66	1113.39
385.03	1113.86
385.40	1098.65
385.77	1084.37
386.14	1088.82
386.51	1085.31
386.88	1082.50
387.25	1085.54
387.62	1085.77
387.99	1089.05
388.36	1096.54
388.73	1100.75
389.10	1111.52
389.46	1115.97
389.83	1107.07
390.20	1108.95
390.57	1111.05
390.94	1112.69
391.31	1112.46
391.68	1111.99
392.05	1106.84
392.42	1100.52
392.79	1095.60
393.16	1091.39
393.53	1094.90
393.89	1103.09
394.26	1099.35
394.63	1105.20
395.00	1104.03
395.37	1103.56
395.74	1110.82
396.11	1136.10
396.48	1125.80
396.84	1133.52
397.21	1133.29
397.58	1125.80
397.95	1113.39
398.32	1122.99
398.69	1133.29
399.06	1132.82
399.42	1130.01
399.79	1139.37
400.16	1141.01
400.53	1144.05
400.90	1148.27
401.27	1157.63
401.64	1160.44
402.00	1165.59
402.37	1165.12
402.74	1184.78
403.11	1185.25
403.48	1181.27
403.84	1184.31
404.21	1192.97
404.58	1190.63
404.95	1205.38
405.32	1227.85
405.68	1252.65
406.05	1277.23
406.42	1297.83
406.79	1306.25
407.16	1310.47
407.52	1314.68
407.89	1309.76
408.26	1317.49
408.63	1353.30
408.99	1372.26
409.36	1399.64
409.73	1438.49
410.10	1465.88
410.47	1484.60
410.83	1515.73
411.20	1549.67
411.57	1580.56
411.94	1624.57
412.30	1669.74
412.67	1717.02
413.04	1748.85
413.40	1798.70
413.77	1855.34
414.14	1915.49
414.51	1984.54
414.87	2062.01
415.24	2136.68
415.61	2214.38
415.97	2283.43
416.34	2360.20
416.71	2453.12
417.08	2534.80
417.44	2623.51
417.81	2737.26
418.18	2873.48
418.54	3002.21
418.91	3155.28
419.28	3325.90
419.64	3477.57
420.01	3634.38
420.38	3801.73
420.74	3982.66
421.11	4172.47
421.48	4368.84
421.84	4576.22
422.21	4802.55
422.58	5048.54
422.94	5303.19
423.31	5549.64
423.68	5812.95
424.04	6109.27
424.41	6367.66
424.77	6648.53
425.14	6967.54
425.51	7284.45
425.87	7667.60
426.24	8063.61
426.61	8462.44
426.97	8944.83
427.34	9388.59
427.70	9827.68
428.07	10319.19
428.44	10832.94
428.80	11341.30
429.17	11901.62
429.53	12444.86
429.90	13045.21
430.27	13612.56
430.63	14181.07
431.00	14836.66
431.36	15574.63
431.73	16205.17
432.09	16873.16
432.46	17567.59
432.83	18206.56
433.19	18753.78
433.56	19424.57
433.92	20137.27
434.29	20736.91
434.65	21440.48
435.02	22120.64
435.38	22747.43
435.75	23233.80
436.11	23871.36
436.48	24365.91
436.84	24857.43
437.21	25320.62
437.57	25813.53
437.94	26208.85
438.30	26584.04
438.67	26837.05
439.03	27011.89
439.40	27191.41
439.76	27143.66
440.13	27023.83
440.49	26928.57
440.86	26739.68
441.22	26417.86
441.59	26132.55
441.95	25773.51
442.32	25297.21
442.68	24816.23
443.05	24312.31
443.41	23750.12
443.78	23155.15
444.14	22635.55
444.51	22027.02
444.87	21592.85
445.24	21148.38
445.60	20706.02
445.96	20127.20
446.33	19690.46
446.69	19065.30
447.06	18488.59
447.42	17936.70
447.79	17454.55
448.15	17013.59
448.51	16562.57
448.88	16173.80
449.24	15781.53
449.61	15465.56
449.97	15062.99
450.33	14676.10
450.70	14255.73
451.06	13846.38
451.43	13353.46
451.79	12974.99
452.15	12613.38
452.52	12283.13
452.88	12031.99
453.24	11801.92
453.61	11552.88
453.97	11316.72
454.34	11025.56
454.70	10706.31
455.06	10438.56
455.43	10083.96
455.79	9734.76
456.15	9437.51
456.52	9123.88
456.88	8861.74
457.24	8603.11
457.61	8391.99
457.97	8168.24
458.33	7937.93
458.70	7661.51
459.06	7394.45
459.42	7161.57
459.79	6925.88
460.15	6713.59
460.51	6501.07
460.88	6311.72
461.24	6086.80
461.60	5895.11
461.96	5699.67
462.33	5548.71
462.69	5393.53
463.05	5249.35
463.42	5126.24
463.78	5025.13
464.14	4878.38
464.50	4778.20
464.87	4672.88
465.23	4553.28
465.59	4429.70
465.95	4332.80
466.32	4225.14
466.68	4129.17
467.04	4040.93
467.40	3950.82
467.77	3873.12
468.13	3796.82
468.49	3720.28
468.85	3658.26
469.22	3595.53
469.58	3522.97
469.94	3453.69
470.30	3389.80
470.66	3316.77
471.03	3263.41
471.39	3221.28
471.75	3157.62
472.11	3104.95
472.47	3057.68
472.84	3009.69
473.20	2955.63
473.56	2917.01
473.92	2857.56
474.28	2800.92
474.65	2749.19
475.01	2689.28
475.37	2641.06
475.73	2599.16
476.09	2568.97
476.45	2518.88
476.81	2502.73
477.18	2468.33
477.54	2438.84
477.90	2402.33
478.26	2377.98
478.62	2324.15
478.98	2297.70
479.34	2268.68
479.71	2235.91
480.07	2209.00
480.43	2196.83
480.79	2165.70
481.15	2136.21
481.51	2118.18
481.87	2099.93
482.23	2069.03
482.59	2040.95
482.96	2019.41
483.32	1995.77
483.68	1965.58
484.04	1933.75
484.40	1912.92
484.76	1894.20
485.12	1867.98
485.48	1850.19
485.84	1846.45
486.20	1838.96
486.56	1824.68
486.92	1806.43
487.28	1782.08
487.64	1755.40
488.00	1736.91
488.37	1728.72
488.73	1721.23
489.09	1715.38
489.45	1706.72
489.81	1677.93
490.17	1659.91
490.53	1636.50
490.89	1612.16
491.25	1591.56
491.61	1580.80
491.97	1562.07
492.33	1554.12
492.69	1544.52
493.05	1541.48
493.41	1531.65
493.77	1513.16
494.13	1499.35
494.49	1494.43
494.85	1483.90
495.21	1467.05
495.57	1456.75
495.93	1441.77
496.29	1428.19
496.64	1400.34
497.00	1393.32
497.36	1389.34
497.72	1390.98
498.08	1380.45
498.44	1388.17
498.80	1374.36
499.16	1356.11
499.52	1335.51
499.88	1325.91
500.24	1325.21
500.60	1322.17
500.96	1317.72
501.32	1322.87
501.68	1321.00
502.03	1310.70
502.39	1312.34
502.75	1313.74
503.11	1313.27
503.47	1302.98
503.83	1294.78
504.19	1289.40
504.55	1282.38
504.91	1262.25
505.26	1258.51
505.62	1248.21
505.98	1236.74
506.34	1231.59
506.70	1231.12
507.06	1237.91
507.42	1231.12
507.78	1223.16
508.13	1222.23
508.49	1227.61
508.85	1217.08
509.21	1220.12
509.57	1217.08
509.93	1208.18
510.28	1195.55
510.64	1188.29
511.00	1181.03
511.36	1181.74
511.72	1183.61
512.07	1181.03
512.43	1171.20
512.79	1174.71
513.15	1177.52
513.51	1182.91
513.86	1189.69
514.22	1190.86
514.58	1177.29
514.94	1183.14
515.30	1170.74
515.65	1160.91
516.01	1163.25
516.37	1177.29
516.73	1164.42
517.08	1168.86
517.44	1175.65
517.80	1161.61
518.16	1156.22
518.51	1155.29
518.87	1140.54
519.23	1126.03
519.59	1129.07
519.94	1125.10
520.30	1122.05
520.66	1128.37
521.01	1129.54
521.37	1128.14
521.73	1131.88
522.09	1131.41
522.44	1132.35
522.80	1134.93
523.16	1135.86
523.51	1130.95
523.87	1134.69
524.23	1137.73
524.58	1134.22
524.94	1138.20
525.30	1130.01
525.65	1123.93
526.01	1110.35
526.37	1107.54
526.72	1107.78
527.08	1111.52
527.44	1113.39
527.79	1117.84
528.15	1123.93
528.51	1123.46
528.86	1119.95
529.22	1117.37
529.58	1123.46
529.93	1129.07
530.29	1129.07
530.65	1141.25
531.00	1140.54
531.36	1126.50
531.71	1110.35
532.07	1114.09
532.43	1099.35
532.78	1100.75
533.14	1105.20
533.49	1113.16
533.85	1101.46
534.21	1108.48
534.56	1111.75
534.92	1118.31
535.27	1118.54
535.63	1137.03
535.98	1137.03
536.34	1128.37
536.69	1123.46
537.05	1115.73
537.41	1111.75
537.76	1113.39
538.12	1117.37
538.47	1120.18
538.83	1129.54
539.18	1118.07
539.54	1115.73
539.89	1111.29
540.25	1106.61
540.60	1098.65
540.96	1096.54
541.31	1089.05
541.67	1097.24
542.02	1093.73
542.38	1095.60
542.73	1104.97
543.09	1110.35
543.44	1097.01
543.80	1099.58
544.15	1100.29
544.51	1099.35
544.86	1105.67
545.22	1113.86
545.57	1120.65
545.93	1120.65
546.28	1117.37
546.64	1110.58
546.99	1108.71
547.35	1108.01
547.70	1115.27
548.05	1113.39
548.41	1115.27
548.76	1119.95
549.12	1113.39
549.47	1108.24
549.83	1101.22
550.18	1093.97
550.53	1100.05
550.89	1100.05
551.24	1090.46
551.60	1091.39
551.95	1086.94
552.30	1082.03
552.66	1082.73
553.01	1086.24
553.37	1091.39
553.72	1102.86
554.07	1094.43
554.43	1095.37
554.78	1101.69
555.13	1105.67
555.49	1105.90
555.84	1115.03
556.19	1121.58
556.55	1127.90
556.90	1119.24
557.26	1117.14
557.61	1111.99
557.96	1105.44
558.32	1106.84
558.67	1116.44
559.02	1113.63
559.37	1115.97
559.73	1112.46
560.08	1099.35
560.43	1100.99
560.79	1092.80
561.14	1098.18
561.49	1095.60
561.85	1100.29
562.20	1090.22
562.55	1091.16
562.90	1079.69
563.26	1081.33
563.61	1084.37
563.96	1091.16
564.32	1098.18
564.67	1099.12
565.02	1099.12
565.37	1101.22
565.73	1103.09
566.08	1104.26
566.43	1106.61
566.78	1116.20
567.14	1114.80
567.49	1108.24
567.84	1114.33
568.19	1120.41
568.54	1112.69
568.90	1104.97
569.25	1097.01
569.60	1091.63
569.95	1078.05
570.31	1082.73
570.66	1086.48
571.01	1096.31
571.36	1092.56
571.71	1101.46
572.06	1097.01
572.42	1095.60
572.77	1103.80
573.12	1104.73
573.47	1108.95
573.82	1106.37
574.18	1113.39
574.53	1099.12
574.88	1103.33
575.23	1097.95
575.58	1102.39
575.93	1095.60
576.28	1098.18
576.64	1095.14
576.99	1095.37
577.34	1091.39
577.69	1084.84
578.04	1081.80
578.39	1083.90
578.74	1087.65
579.09	1082.03
579.44	1078.05
579.80	1080.63
580.15	1071.73
580.50	1071.73
580.85	1078.05
581.20	1092.09
581.55	1096.54
581.90	1105.20
582.25	1098.18
582.60	1097.24
582.95	1087.65
583.30	1082.50
583.65	1082.73
584.00	1093.97
584.35	1093.97
584.71	1091.39
585.06	1095.84
585.41	1096.31
585.76	1081.56
586.11	1087.88
586.46	1089.52
586.81	1096.78
587.16	1100.29
587.51	1106.14
587.86	1098.88
588.21	1107.07
588.56	1097.01
588.91	1097.24
589.26	1099.12
589.61	1106.61
589.96	1109.88
590.31	1107.54
590.66	1104.97
591.01	1110.12
591.36	1109.18
591.71	1096.78
592.06	1097.95
592.41	1088.12
592.76	1082.73
593.10	1082.50
593.45	1086.71
593.80	1088.35
594.15	1092.33
594.50	1078.75
594.85	1075.71
595.20	1069.86
595.55	1075.01
595.90	1075.01
596.25	1089.05
596.60	1083.43
596.95	1098.18
597.30	1087.65
597.64	1128.61
597.99	1127.44
598.34	1133.99
598.69	1133.76
599.04	1143.59
599.39	1096.54
599.74	1092.56
600.09	1092.80
600.44	1082.50
600.78	1078.05
601.13	1084.60
601.48	1090.69
601.83	1085.07
602.18	1097.95
602.53	1098.88
602.88	1103.56
603.22	1104.73
603.57	1114.80
603.92	1099.82
604.27	1097.71
604.62	1093.50
604.97	1088.82
605.31	1085.54
605.66	1086.94
606.01	1093.97
606.36	1095.37
606.71	1088.82
607.05	1084.14
607.40	1086.24
607.75	1072.20
608.10	1079.69
608.44	1089.29
608.79	1087.41
609.14	1090.46
609.49	1096.31
609.84	1096.78
610.18	1097.24
610.53	1104.97
610.88	1089.75
611.23	1091.39
611.57	1077.82
611.92	1077.82
612.27	1081.56
612.62	1102.86
612.96	1097.71
613.31	1102.39
613.66	1105.90
614.00	1102.63
614.35	1089.99
614.70	1092.56
615.05	1093.50
615.39	1095.60
615.74	1084.14
616.09	1083.90
616.43	1091.86
616.78	1092.56
617.13	1084.60
617.47	1095.14
617.82	1101.92
618.17	1095.14
618.51	1098.18
618.86	1094.90
619.21	1098.41
619.55	1099.82
619.90	1105.44
620.25	1109.88
620.59	1104.03
620.94	1095.60
621.29	1091.16
621.63	1082.97
621.98	1065.41
622.32	1071.03
622.67	1065.88
623.02	1073.84
623.36	1076.65
623.71	1079.92
624.05	1081.09
624.40	1095.14
624.75	1098.41
625.09	1097.01
625.44	1101.92
625.78	1106.14
626.13	1102.63
626.48	1097.95
626.82	1108.48
627.17	1113.63
627.51	1111.99
627.86	1109.88
628.20	1096.31
628.55	1085.77
628.89	1076.41
629.24	1062.14
629.58	1067.28
629.93	1069.39
630.28	1080.16
630.62	1089.99
630.97	1097.24
631.31	1080.63
631.66	1085.77
632.00	1080.86
632.35	1080.86
632.69	1080.86
633.04	1088.12
633.38	1087.88
633.73	1075.24
634.07	1063.77
634.42	1067.75
634.76	1071.26
635.11	1069.86
635.45	1074.54
635.79	1080.39
636.14	1077.35
636.48	1076.88
636.83	1067.52
637.17	1067.75
637.52	1069.86
637.86	1062.14
638.21	1064.01
638.55	1067.99
638.89	1067.75
639.24	1062.14
639.58	1074.77
639.93	1075.94
640.27	1087.88
640.61	1090.22
640.96	1096.07
641.30	1092.33
641.65	1092.80
641.99	1081.56
642.33	1078.99
642.68	1075.48
643.02	1076.65
643.37	1084.60
643.71	1093.97
644.05	1086.01
644.40	1082.73
644.74	1088.82
645.08	1081.09
645.43	1076.41
645.77	1093.03
646.11	1093.26
646.46	1092.80
646.80	1086.48
647.14	1093.26
647.49	1099.35
647.83	1103.56
648.17	1098.18
648.52	1096.78
648.86	1089.05
649.20	1075.71
649.55	1077.82
649.89	1078.28
650.23	1086.01
650.57	1085.07
650.92	1078.75
651.26	1072.90
651.60	1071.26
651.95	1077.35
652.29	1079.22
652.63	1092.33
652.97	1093.97
653.32	1093.26
653.66	1081.33
654.00	1080.63
654.34	1075.01
654.69	1075.01
655.03	1077.11
655.37	1082.26
655.71	1085.31
656.05	1096.07
656.40	1110.82
656.74	1114.33
657.08	1117.37
657.42	1108.95
657.76	1106.61
658.11	1090.69
658.45	1093.73
658.79	1088.12
659.13	1100.05
659.47	1087.41
659.82	1092.33
660.16	1088.58
660.50	1088.35
660.84	1093.26
661.18	1103.33
661.52	1095.37
661.87	1093.26
662.21	1087.41
662.55	1086.24
662.89	1089.75
663.23	1095.84
663.57	1095.84
663.91	1108.24
664.25	1095.60
664.60	1089.05
664.94	1090.92
665.28	1081.33
665.62	1068.45
665.96	1068.22
666.30	1066.82
666.64	1061.20
666.98	1068.92
667.32	1066.11
667.66	1076.18
668.01	1080.16
668.35	1091.86
668.69	1093.73
669.03	1106.37
669.37	1104.73
669.71	1103.09
670.05	1091.16
670.39	1094.20
670.73	1089.52
671.07	1086.94
671.41	1084.14
671.75	1092.33
672.09	1091.39
672.43	1098.18
672.77	1092.80
673.11	1092.80
673.45	1084.37
673.79	1074.77
674.13	1072.43
674.47	1072.67
674.81	1077.35
675.15	1080.63
675.49	1088.82
675.83	1082.03
676.17	1081.09
676.51	1082.03
676.85	1085.77
677.19	1078.52
677.53	1082.03
677.87	1094.90
678.21	1094.90
678.55	1092.80
678.89	1098.88
679.23	1097.24
679.57	1085.31
679.90	1076.65
680.24	1080.63
680.58	1081.33
680.92	1080.86
681.26	1088.12
681.60	1095.60
681.94	1092.80
682.28	1093.50
682.62	1099.35
682.96	1099.35
683.29	1093.03
683.63	1095.60
683.97	1095.60
684.31	1093.97
684.65	1090.69
684.99	1095.60
685.33	1097.24
685.67	1089.75
686.00	1084.84
686.34	1087.88
686.68	1085.77
687.02	1085.77
687.36	1089.75
687.70	1096.78
688.03	1094.67
688.37	1088.35
688.71	1089.75
689.05	1087.65
689.39	1085.77
689.72	1080.39
690.06	1085.54
690.40	1075.71
690.74	1081.09
691.08	1078.05
691.41	1091.63
691.75	1096.31
692.09	1101.22
692.43	1100.75
692.76	1102.86
693.10	1091.63
693.44	1093.26
693.78	1085.54
694.11	1088.35
694.45	1083.67
694.79	1079.22
695.13	1075.71
695.46	1078.99
695.80	1078.99
696.14	1087.88
696.48	1092.56
696.81	1094.90
697.15	1096.54
697.49	1089.75
697.82	1082.73
698.16	1080.39
698.50	1075.48
698.83	1073.60
699.17	1079.69
699.51	1084.14
699.84	1091.39
700.18	1089.99
700.52	1094.67
700.85	1088.58
701.19	1077.58
701.53	1078.99
701.86	1071.26
702.20	1066.82
702.54	1073.84
702.87	1074.77
703.21	1070.56
703.55	1084.84
703.88	1086.24
704.22	1087.18
704.55	1091.16
704.89	1097.71
705.23	1094.90
705.56	1090.92
705.90	1084.84
706.23	1082.26
706.57	1074.31
706.91	1068.22
707.24	1065.88
707.58	1060.50
707.91	1063.54
708.25	1062.84
708.58	1071.97
708.92	1075.48
709.26	1081.56
709.59	1090.69
709.93	1096.31
710.26	1090.46
710.60	1101.69
710.93	1106.14
711.27	1094.20
711.60	1089.75
711.94	1082.50
712.27	1071.50
712.61	1065.88
712.94	1070.33
713.28	1069.16
713.61	1077.82
713.95	1085.54
714.28	1086.24
714.62	1089.52
714.95	1090.69
715.29	1101.92
715.62	1090.92
715.96	1093.26
716.29	1089.75
716.63	1083.20
716.96	1071.50
717.29	1065.41
717.63	1063.54
717.96	1061.90
718.30	1065.18
718.63	1060.26
718.97	1074.31
719.30	1075.01
719.63	1078.28
719.97	1076.88
720.30	1077.58
720.64	1071.73
720.97	1071.26
721.30	1071.73
721.64	1075.24
721.97	1080.63
722.31	1084.60
722.64	1084.60
722.97	1071.26
723.31	1072.90
723.64	1068.45
723.97	1069.86
724.31	1072.43
724.64	1085.77
724.98	1085.31
725.31	1082.50
725.64	1070.80
725.98	1059.79
726.31	1054.65
726.64	1049.96
726.97	1049.50
727.31	1067.28
727.64	1074.77
727.97	1083.20
728.31	1099.82
728.64	1112.22
728.97	1110.58
729.31	1113.16
729.64	1101.46
729.97	1083.43
730.30	1084.14
730.64	1072.67
730.97	1065.18
731.30	1071.03
731.63	1085.31
731.97	1084.14
732.30	1090.46
732.63	1090.92
732.96	1086.71
733.30	1083.43
733.63	1086.24
733.96	1085.31
734.29	1086.94
734.63	1090.46
734.96	1085.31
735.29	1086.94
735.62	1093.73
735.95	1099.58
736.29	1098.18
736.62	1097.01
736.95	1089.29
737.28	1082.50
737.61	1082.03
737.94	1083.43
738.28	1080.63
738.61	1081.09
738.94	1080.86
739.27	1075.94
739.60	1075.01
739.93	1079.46
740.27	1081.80
740.60	1083.20
740.93	1078.52
741.26	1082.03
741.59	1078.28
741.92	1069.39
742.25	1068.92
742.58	1079.69
742.91	1075.01
743.25	1082.50
743.58	1089.29
743.91	1091.63
744.24	1084.84
744.57	1080.39
744.90	1079.92
745.23	1080.16
745.56	1084.14
745.89	1093.50
746.22	1101.92
746.55	1104.50
746.88	1098.41
747.21	1093.50
747.54	1084.14
747.87	1077.58
748.20	1070.09
748.53	1077.11
748.87	1073.37
749.20	1076.65
749.53	1082.03
749.86	1082.50
750.19	1073.84
750.52	1067.75
750.85	1068.45
751.18	1068.22
751.51	1057.69
751.84	1060.73
752.16	1070.56
752.49	1077.82
752.82	1074.07
753.15	1089.99
753.48	1084.84
753.81	1084.60
754.14	1085.31
754.47	1092.09
754.80	1078.28
755.13	1074.54
755.46	1070.56
755.79	1063.31
756.12	1063.54
756.45	1068.92
756.78	1086.48
757.11	1094.43
757.43	1092.33
757.76	1088.58
758.09	1093.73
758.42	1086.94
758.75	1089.52
759.08	1085.77
759.41	1082.73
759.74	1091.16
760.07	1095.84
760.39	1088.82
760.72	1099.82
761.05	1104.73
761.38	1105.67
761.71	1101.92
762.04	1110.35
762.36	1106.61
762.69	1107.54
763.02	1099.12
763.35	1103.33
763.68	1099.35
764.01	1100.29
764.33	1099.58
764.66	1099.82
764.99	1093.50
765.32	1089.05
765.65	1082.73
765.97	1084.37
766.30	1078.52
766.63	1078.75
766.96	1076.18
767.28	1078.05
767.61	1073.14
767.94	1078.28
768.27	1077.11
768.59	1079.92
768.92	1086.01
769.25	1089.75
769.58	1084.60
769.90	1082.50
770.23	1078.52
770.56	1065.18
770.89	1060.26
771.21	1060.73
771.54	1067.28
771.87	1068.92
772.19	1069.16
772.52	1075.94
772.85	1082.50
773.17	1087.65
773.50	1088.35
773.83	1094.43
774.15	1080.86
774.48	1077.82
774.81	1076.18
775.13	1070.56
775.46	1076.18
775.79	1091.39
776.11	1095.14
776.44	1081.56
776.77	1089.75
777.09	1089.52
777.42	1083.90
777.74	1083.20
778.07	1086.94
778.40	1090.92
778.72	1079.92
779.05	1082.73
779.37	1079.69
779.70	1086.24
780.03	1070.56
780.35	1083.67
780.68	1079.69
781.00	1078.99
781.33	1074.77
781.65	1085.54
781.98	1085.54
782.31	1075.24
782.63	1074.07
782.96	1071.03
783.28	1075.71
783.61	1078.75
783.93	1093.26
784.26	1102.63
784.58	1109.18
784.91	1097.24
785.23	1088.58
785.56	1078.05
785.88	1063.77
786.21	1066.58
786.53	1066.35
786.86	1072.43
787.18	1081.56
787.51	1088.35
787.83	1086.71
788.16	1096.07
788.48	1089.05
788.81	1089.99
789.13	1083.90
789.46	1074.54
789.78	1068.69
790.10	1079.22
790.43	1069.62
790.75	1073.84
791.08	1075.48
791.40	1077.35
791.73	1077.58
792.05	1088.82
792.37	1095.60
792.70	1101.69
793.02	1102.39
793.35	1089.05
793.67	1088.12
793.99	1084.37
794.32	1079.69
794.64	1080.39
794.96	1075.94
795.29	1073.60
795.61	1069.86
795.93	1069.39
796.26	1060.50
796.58	1069.62
796.91	1069.39
797.23	1079.69
797.55	1082.03
797.87	1090.92
798.20	1086.71
798.52	1089.52
798.84	1073.60
799.17	1080.86
799.49	1079.92
799.81	1077.82
800.14	1071.50
800.46	1085.31
800.78	1076.88
801.10	1074.54
801.43	1081.33
801.75	1084.60
802.07	1083.67
802.40	1091.63
802.72	1096.78
803.04	1092.09
803.36	1096.07
803.69	1090.22
804.01	1077.58
804.33	1075.24
804.65	1082.50
804.97	1078.52
805.30	1092.56
805.62	1103.80
805.94	1103.33
806.26	1097.48
806.58	1092.56
806.91	1083.90
807.23	1074.07
807.55	1066.82
807.87	1063.54
808.19	1074.31
808.52	1069.62
808.84	1079.46
809.16	1081.56
809.48	1083.43
809.80	1080.86
810.12	1075.48
810.44	1080.63
810.77	1089.75
811.09	1090.22
811.41	1095.37
811.73	1104.97
812.05	1098.65
812.37	1098.18
812.69	1092.56
813.01	1079.22
813.33	1071.50
813.66	1066.58
813.98	1065.88
814.30	1075.71
814.62	1086.24
814.94	1091.39
815.26	1093.03
815.58	1099.12
815.90	1097.71
816.22	1098.88
816.54	1096.78
816.86	1097.95
817.18	1094.67
817.50	1087.88
817.82	1081.09
818.14	1079.22
818.46	1075.71
818.78	1069.16
819.10	1075.24
819.42	1074.54
819.74	1072.90
820.06	1080.63
820.38	1073.37
820.70	1068.22
821.02	1070.33
821.34	1081.33
821.66	1070.80
821.98	1088.12
822.30	1089.75
822.62	1083.67
822.94	1066.58
823.26	1076.18
823.58	1066.58
823.90	1068.45
824.22	1077.11
824.54	1087.41
824.86	1086.01
825.18	1082.97
825.50	1080.86
825.81	1072.43
826.13	1076.18
826.45	1070.80
826.77	1073.14
827.09	1081.80
827.41	1077.11
827.73	1072.20
828.05	1071.73
828.36	1071.97
828.68	1067.52
829.00	1071.97
829.32	1072.20
829.64	1068.92
829.96	1059.56
830.28	1052.77
830.59	1047.62
830.91	1049.73
831.23	1055.82
831.55	1066.82
831.87	1067.28
832.19	1073.84
832.50	1068.22
832.82	1056.52
833.14	1057.45
833.46	1062.14
833.78	1069.39
834.09	1074.54
834.41	1096.07
834.73	1092.56
835.05	1097.24
835.36	1096.54
835.68	1086.71
836.00	1078.99
836.32	1075.48
836.63	1065.88
836.95	1066.82
837.27	1079.69
837.59	1075.94
837.90	1081.56
838.22	1094.43
838.54	1095.84
838.85	1080.86
839.17	1076.41
839.49	1078.99
839.80	1070.80
840.12	1063.31
840.44	1074.07
840.76	1080.86
841.07	1072.43
841.39	1075.01
841.71	1066.58
842.02	1061.43
842.34	1054.65
842.65	1064.71
842.97	1058.16
843.29	1069.86
843.60	1076.65
843.92	1083.43
844.24	1077.11
844.55	1077.11
844.87	1082.73
845.18	1074.54
845.50	1066.11
845.82	1065.41
846.13	1071.73
846.45	1063.77
846.76	1079.92
847.08	1085.77
847.40	1090.46
847.71	1084.60
848.03	1085.31
848.34	1078.05
848.66	1078.99
848.97	1061.90
849.29	1067.75
849.60	1060.50
849.92	1055.82
850.24	1058.62
850.55	1071.50
850.87	1067.75
851.18	1072.20
851.50	1082.50
851.81	1076.41
852.13	1075.48
852.44	1080.63
852.76	1088.12
853.07	1093.26
853.39	1104.03
853.70	1103.09
854.01	1099.82
854.33	1094.67
854.64	1075.01
854.96	1061.20
855.27	1076.18
855.59	1081.56
855.90	1078.52
856.22	1088.82
856.53	1091.63
856.84	1078.75
857.16	1073.60
857.47	1086.71
857.79	1093.73
858.10	1105.67
858.41	1109.18
858.73	1101.46
859.04	1084.60
859.36	1073.14
859.67	1059.79
859.98	1056.99
860.30	1071.50
860.61	1082.26
860.92	1084.37
861.24	1102.16
861.55	1101.69
861.87	1100.05
862.18	1098.18
862.49	1094.20
862.81	1088.35
863.12	1086.94
863.43	1077.35
863.74	1079.46
864.06	1081.56
864.37	1082.03
864.68	1087.18
865.00	1093.73
865.31	1092.56
865.62	1104.50
865.94	1093.50
866.25	1096.31
866.56	1089.52
866.87	1090.69
867.19	1081.09
867.50	1085.31
867.81	1084.14
868.12	1084.84
868.44	1079.69
868.75	1073.60
869.06	1078.52
869.37	1066.35
869.68	1073.14
870.00	1086.71
870.31	1091.86
870.62	1089.52
870.93	1103.33
871.24	1106.61
871.56	1098.65
871.87	1094.90
872.18	1096.78
872.49	1094.43
872.80	1097.01
873.12	1095.37
873.43	1100.99
873.74	1092.09
874.05	1095.14
874.36	1081.80
874.67	1086.01
874.98	1077.35
875.29	1077.82
875.61	1063.77
875.92	1060.50
876.23	1052.30
876.54	1062.37
876.85	1075.71
877.16	1084.60
877.47	1100.05
877.78	1097.01
878.09	1090.22
878.40	1080.86
878.72	1083.20
879.03	1085.77
879.34	1092.56
879.65	1088.58
879.96	1093.26
880.27	1097.71
880.58	1095.60
880.89	1096.54
881.20	1102.39
881.51	1094.20
881.82	1089.99
882.13	1076.65
882.44	1078.05
882.75	1084.84
883.06	1091.39
883.37	1089.75
883.68	1092.80
883.99	1096.07
884.30	1086.71
884.61	1078.99
884.92	1072.67
885.23	1072.90
885.54	1077.82
885.85	1084.37
886.16	1092.09
886.47	1093.03
886.78	1093.97
887.08	1069.86
887.39	1065.88
887.70	1066.11
888.01	1063.54
888.32	1076.65
888.63	1079.92
888.94	1074.31
889.25	1070.09
889.56	1082.26
889.87	1072.90
890.17	1078.99
890.48	1088.12
890.79	1084.84
891.10	1076.65
891.41	1080.39
891.72	1075.48
892.03	1069.16
892.34	1072.20
892.64	1077.35
892.95	1075.71
893.26	1078.75
893.57	1088.35
893.88	1084.84
894.18	1078.75
894.49	1073.60
894.80	1078.05
895.11	1070.09
895.42	1074.77
895.72	1081.80
896.03	1079.46
896.34	1079.92
896.65	1082.97
896.96	1076.18
897.26	1060.50
897.57	1073.37
897.88	1078.99
898.19	1082.50
898.49	1082.26
898.80	1090.22
899.11	1074.77
899.41	1060.26
899.72	1049.96
900.03	1045.52
900.34	1051.13
900.64	1055.58
900.95	1066.35
901.26	1074.31
901.56	1074.31
901.87	1062.37
902.18	1064.24
902.48	1057.69
902.79	1055.11
903.10	1063.07
903.40	1071.73
903.71	1063.07
904.02	1053.94
904.32	1053.94
904.63	1058.86
904.94	1060.73
905.24	1072.67
905.55	1086.94
905.85	1085.07
906.16	1082.73
906.47	1079.69
906.77	1069.86
907.08	1066.58
907.38	1063.77
907.69	1068.92
908.00	1066.82
908.30	1076.41
908.61	1076.41
908.91	1081.56
909.22	1075.24
909.52	1084.14
909.83	1075.71
910.14	1079.46
910.44	1068.22
910.75	1067.75
911.05	1056.28
911.36	1053.94
911.66	1057.92
911.97	1067.99
912.27	1074.31
912.58	1077.58
912.88	1083.43
913.19	1071.50
913.49	1068.92
913.80	1059.09
914.10	1063.54
914.41	1064.01
914.71	1067.28
915.01	1064.01
915.32	1066.11
915.62	1060.50
915.93	1066.11
916.23	1067.52
916.54	1076.88
916.84	1077.82
917.15	1088.82
917.45	1085.77
917.75	1094.90
918.06	1101.46
918.36	1106.37
918.67	1095.60
918.97	1103.56
919.27	1085.31
919.58	1074.54
919.88	1064.94
920.18	1071.50
920.49	1053.01
920.79	1062.14
921.10	1069.86
921.40	1074.54
921.70	1073.14
922.01	1080.39
922.31	1080.16
922.61	1079.92
922.92	1089.29
923.22	1081.33
923.52	1083.20
923.82	1089.05
924.13	1089.99
924.43	1077.58
924.73	1085.07
925.04	1086.94
925.34	1075.71
925.64	1069.62
925.94	1077.11
926.25	1071.50
926.55	1062.14
926.85	1065.41
927.15	1066.35
927.46	1065.88
927.76	1066.35
928.06	1065.18
928.36	1063.31
928.67	1060.73
928.97	1052.77
929.27	1062.37
929.57	1075.48
929.87	1078.28
930.18	1073.84
930.48	1080.63
930.78	1076.41
931.08	1068.92
931.38	1071.03
931.69	1076.18
931.99	1077.35
932.29	1081.56
932.59	1087.41
932.89	1090.69
933.19	1091.39
933.49	1086.94
933.80	1090.69
934.10	1093.26
934.40	1087.18
934.70	1089.29
935.00	1085.54
935.30	1076.41
935.60	1078.99
935.90	1085.31
936.20	1091.63
936.50	1100.52
936.81	1105.90
937.11	1100.75
937.41	1092.80
937.71	1088.35
938.01	1091.63
938.31	1081.33
938.61	1069.86
938.91	1073.84
939.21	1056.52
939.51	1057.45
939.81	1062.14
940.11	1079.69
940.41	1085.77
940.71	1100.52
941.01	1093.26
941.31	1107.07
941.61	1100.75
941.91	1090.46
942.21	1083.43
942.51	1084.14
942.81	1069.39
943.11	1072.43
943.41	1073.37
943.71	1082.50
944.01	1080.39
944.31	1083.67
944.61	1067.75
944.90	1063.31
945.20	1051.37
945.50	1058.86
945.80	1059.33
946.10	1081.56
946.40	1088.58
946.70	1092.33
947.00	1081.09
947.30	1079.69
947.60	1064.94
947.89	1065.65
948.19	1069.86
948.49	1081.09
948.79	1084.84
949.09	1078.99
949.39	1079.92
949.69	1081.09
949.98	1081.56
950.28	1085.77
950.58	1096.78
950.88	1098.88
951.18	1087.18
951.48	1087.88
951.77	1078.28
952.07	1076.18
952.37	1072.20
952.67	1082.26
952.97	1071.97
953.26	1070.80
953.56	1075.24
953.86	1080.16
954.16	1073.14
954.45	1081.80
954.75	1080.86
955.05	1070.09
955.35	1063.54
955.64	1074.07
955.94	1070.56
956.24	1074.07
956.54	1080.39
956.83	1086.48
957.13	1077.58
957.43	1073.14
957.72	1075.48
958.02	1071.03
958.32	1071.26
958.61	1068.92
958.91	1077.58
959.21	1078.75
959.50	1083.90
959.80	1082.26
960.10	1086.24
960.39	1086.71
960.69	1074.77
960.99	1071.26
961.28	1076.65
961.58	1080.39
961.87	1079.22
962.17	1082.03
962.47	1082.73
962.76	1073.14
963.06	1066.58
963.36	1064.94
963.65	1067.99
963.95	1065.18
964.24	1070.33
964.54	1069.86
964.83	1069.62
965.13	1072.67
965.42	1067.52
965.72	1053.94
966.02	1057.92
966.31	1058.39
966.61	1058.86
966.90	1072.90
967.20	1091.16
967.49	1087.41
967.79	1083.90
968.08	1073.37
968.38	1075.94
968.67	1070.33
968.97	1095.60
969.26	1091.16
969.56	1098.88
969.85	1091.39
970.15	1091.16
970.44	1076.41
970.74	1070.56
971.03	1069.39
971.32	1080.16
971.62	1082.03
971.91	1076.41
972.21	1089.75
972.50	1088.58
972.80	1085.07
973.09	1080.16
973.38	1082.97
973.68	1073.37
973.97	1077.82
974.27	1073.84
974.56	1071.50
974.85	1066.82
975.15	1076.41
975.44	1079.22
975.73	1067.99
976.03	1075.24
976.32	1079.69
976.61	1070.33
976.91	1069.16
977.20	1072.20
977.49	1076.41
977.79	1080.39
978.08	1089.05
978.37	1080.86
978.67	1097.71
978.96	1091.63
979.25	1088.58
979.55	1092.33
979.84	1093.26
980.13	1083.90
980.42	1082.73
980.72	1084.14
981.01	1079.46
981.30	1082.73
981.59	1076.18
981.89	1073.84
982.18	1068.45
982.47	1067.05
982.76	1063.77
983.06	1074.07
983.35	1069.62
983.64	1067.52
983.93	1075.48
984.22	1088.82
984.52	1089.05
984.81	1088.82
985.10	1086.48
985.39	1080.16
985.68	1075.24
985.97	1067.28
986.27	1081.80
986.56	1090.22
986.85	1095.60
987.14	1098.41
987.43	1100.99
987.72	1094.67
988.01	1095.60
988.31	1082.50
988.60	1078.28
988.89	1071.97
989.18	1077.11
989.47	1067.05
989.76	1076.18
990.05	1078.05
990.34	1084.37
990.63	1082.97
990.92	1091.39
991.21	1087.88
991.51	1088.12
991.80	1089.99
992.09	1079.69
992.38	1078.75
992.67	1074.07
992.96	1064.24
993.25	1063.77
993.54	1073.60
993.83	1086.48
994.12	1094.43
994.41	1102.86
994.70	1106.14
994.99	1101.46
995.28	1083.90
995.57	1083.90
995.86	1082.50
996.15	1069.16
996.44	1063.54
996.73	1076.88
997.02	1072.20
997.31	1071.50
997.59	1089.99
997.88	1101.22
998.17	1093.03
998.46	1098.18
998.75	1093.73
999.04	1081.09
999.33	1069.86
999.62	1067.28
999.91	1060.50
1000.20	1064.24
1000.49	1055.58
1000.77	1064.94
1001.06	1061.43
1001.35	1063.77
1001.64	1068.92
1001.93	1085.07
1002.22	1081.80
1002.51	1083.67
1002.79	1089.05
1003.08	1083.67
1003.37	1083.43
1003.66	1075.24
1003.95	1079.69
1004.23	1082.26
1004.52	1095.60
1004.81	1096.31
1005.10	1104.03
1005.39	1101.22
1005.67	1093.97
1005.96	1080.39
1006.25	1079.92
1006.54	1075.01
1006.83	1082.73
1007.11	1084.37
1007.40	1081.33
1007.69	1081.80
1007.97	1088.12
1008.26	1080.39
1008.55	1085.77
1008.84	1084.84
1009.12	1080.16
1009.41	1079.92
1009.70	1083.20
1009.98	1066.11
1010.27	1073.14
1010.56	1074.07
1010.85	1067.05
1011.13	1068.45
1011.42	1083.20
1011.71	1081.33
1011.99	1083.90
1012.28	1093.26
1012.56	1094.67
1012.85	1092.56
1013.14	1086.94
1013.42	1082.97
1013.71	1085.31
1014.00	1082.50
1014.28	1085.54
1014.57	1081.33
1014.85	1072.43
1015.14	1064.48
1015.43	1066.58
1015.71	1061.20
1016.00	1064.94
1016.28	1071.50
1016.57	1069.86
1016.85	1064.01
1017.14	1064.94
1017.43	1065.18
1017.71	1059.79
1018.00	1066.58
1018.28	1079.69
1018.57	1091.86
1018.85	1108.71
1019.14	1120.88
1019.42	1126.27
1019.71	1119.48
1019.99	1108.48
1020.28	1091.86
1020.56	1088.58
1020.85	1084.37
1021.13	1080.63
1021.42	1077.35
1021.70	1081.09
1021.99	1079.92
1022.27	1072.67
1022.55	1082.50
1022.84	1061.43
>>>>>End Processed Spectral Data<<<<<
