SpectraSuite Data File
++++++++++++++++++++++++++++++++++++
Date: Mon Aug 26 10:24:51 PDT 2019
User: corrico
Dark Spectrum Present: No
Reference Spectrum Present: No
Number of Sampled Component Spectra: 1
Spectrometers: USB2+H06089
Integration Time (usec): 10000 (USB2+H06089)
Spectra Averaged: 2 (USB2+H06089)
Boxcar Smoothing: 2 (USB2+H06089)
Correct for Electrical Dark: No (USB2+H06089)
Strobe/Lamp Enabled: No (USB2+H06089)
Correct for Detector Non-linearity: No (USB2+H06089)
Correct for Stray Light: No (USB2+H06089)
Number of Pixels in Processed Spectrum: 2048
>>>>>Begin Processed Spectral Data<<<<<
339.70	1035.69
340.07	1035.69
340.45	993.09
340.82	964.77
341.19	940.43
341.57	910.00
341.94	904.15
342.31	891.51
342.69	889.17
343.06	884.25
343.43	894.32
343.81	882.62
344.18	891.98
344.55	899.47
344.93	903.21
345.30	902.51
345.67	915.62
346.04	930.36
346.42	946.98
346.79	960.32
347.16	971.56
347.54	990.28
347.91	995.20
348.28	990.98
348.65	991.45
349.03	1005.03
349.40	1013.69
349.77	1013.45
350.14	1028.67
350.52	1040.60
350.89	1040.60
351.26	1051.13
351.63	1061.43
352.01	1062.37
352.38	1077.35
352.75	1083.43
353.12	1083.43
353.50	1090.22
353.87	1097.48
354.24	1084.84
354.61	1091.86
354.98	1092.09
355.36	1095.14
355.73	1096.07
356.10	1114.80
356.47	1107.54
356.84	1107.78
357.22	1104.73
357.59	1097.95
357.96	1094.20
358.33	1108.48
358.70	1108.95
359.08	1108.01
359.45	1128.61
359.82	1127.44
360.19	1116.90
360.56	1116.67
360.94	1115.73
361.31	1100.52
361.68	1092.56
362.05	1086.94
362.42	1076.88
362.79	1076.18
363.16	1078.52
363.54	1077.82
363.91	1074.07
364.28	1068.69
364.65	1065.65
365.02	1062.14
365.39	1058.62
365.76	1067.52
366.14	1076.65
366.51	1087.18
366.88	1097.95
367.25	1104.03
367.62	1104.26
367.99	1106.14
368.36	1099.35
368.73	1083.43
369.10	1088.12
369.48	1086.71
369.85	1088.58
370.22	1092.56
370.59	1101.46
370.96	1094.90
371.33	1092.56
371.70	1081.33
372.07	1078.75
372.44	1070.80
372.81	1073.14
373.18	1074.07
373.55	1081.56
373.93	1082.26
374.30	1087.65
374.67	1086.01
375.04	1089.05
375.41	1094.90
375.78	1096.54
376.15	1097.24
376.52	1107.31
376.89	1102.86
377.26	1101.92
377.63	1098.65
378.00	1096.31
378.37	1084.60
378.74	1086.71
379.11	1096.07
379.48	1100.52
379.85	1096.78
380.22	1096.07
380.59	1097.48
380.96	1090.69
381.33	1083.43
381.70	1087.18
382.07	1095.84
382.44	1107.07
382.81	1104.97
383.18	1107.78
383.55	1103.80
383.92	1100.29
384.29	1091.16
384.66	1087.41
385.03	1088.82
385.40	1088.12
385.77	1090.92
386.14	1086.01
386.51	1086.71
386.88	1088.82
387.25	1095.84
387.62	1097.01
387.99	1097.24
388.36	1099.12
388.73	1095.37
389.10	1091.63
389.46	1091.39
389.83	1093.97
390.20	1101.46
390.57	1101.69
390.94	1110.12
391.31	1112.69
391.68	1115.27
392.05	1111.29
392.42	1114.33
392.79	1114.09
393.16	1114.56
393.53	1116.90
393.89	1114.56
394.26	1122.52
394.63	1131.88
395.00	1138.90
395.37	1137.50
395.74	1146.63
396.11	1142.18
396.48	1135.39
396.84	1127.67
397.21	1121.35
397.58	1115.73
397.95	1116.90
398.32	1126.27
398.69	1132.35
399.06	1136.33
399.42	1141.95
399.79	1144.76
400.16	1136.33
400.53	1149.20
400.90	1161.84
401.27	1167.69
401.64	1165.59
402.00	1162.78
402.37	1151.08
402.74	1152.71
403.11	1153.65
403.48	1171.67
403.84	1185.95
404.21	1190.86
404.58	1202.57
404.95	1215.21
405.32	1222.23
405.68	1230.65
406.05	1256.63
406.42	1273.49
406.79	1275.36
407.16	1279.34
407.52	1304.15
407.89	1311.64
408.26	1329.66
408.63	1365.23
408.99	1403.85
409.36	1431.00
409.73	1460.73
410.10	1477.81
410.47	1506.60
410.83	1522.05
411.20	1538.90
411.57	1564.88
411.94	1609.35
412.30	1646.57
412.67	1701.34
413.04	1758.68
413.40	1817.89
413.77	1896.54
414.14	1964.18
414.51	2025.27
414.87	2095.72
415.24	2155.17
415.61	2207.83
415.97	2281.32
416.34	2377.52
416.71	2471.84
417.08	2586.06
417.44	2682.25
417.81	2799.98
418.18	2907.88
418.54	3034.74
418.91	3161.36
419.28	3321.45
419.64	3471.95
420.01	3633.68
420.38	3790.03
420.74	3973.29
421.11	4177.15
421.48	4373.29
421.84	4595.64
422.21	4843.97
422.58	5090.43
422.94	5319.34
423.31	5580.54
423.68	5856.72
424.04	6139.93
424.41	6417.51
424.77	6729.74
425.14	7028.86
425.51	7347.18
425.87	7721.43
426.24	8098.49
426.61	8503.17
426.97	9007.08
427.34	9437.51
427.70	9915.91
428.07	10392.45
428.44	10909.71
428.80	11419.01
429.17	12000.16
429.53	12529.12
429.90	13163.41
430.27	13717.18
430.63	14227.88
431.00	14885.10
431.36	15611.14
431.73	16218.51
432.09	16927.22
432.46	17662.15
432.83	18245.65
433.19	18776.48
433.56	19450.55
433.92	20125.10
434.29	20746.27
434.65	21474.42
435.02	22110.81
435.38	22773.18
435.75	23236.84
436.11	23890.55
436.48	24331.27
436.84	24866.09
437.21	25270.53
437.57	25798.32
437.94	26139.57
438.30	26574.91
438.67	26857.88
439.03	27068.30
439.40	27205.92
439.76	27244.07
440.13	27132.19
440.49	27036.00
440.86	26793.75
441.22	26502.59
441.59	26096.27
441.95	25756.43
442.32	25301.19
442.68	24917.11
443.05	24395.17
443.41	23899.68
443.78	23280.84
444.14	22722.15
444.51	22089.98
444.87	21631.47
445.24	21153.76
445.60	20706.72
445.96	20138.91
446.33	19682.74
446.69	19094.79
447.06	18539.15
447.42	18000.12
447.79	17503.46
448.15	17077.95
448.51	16614.29
448.88	16206.81
449.24	15743.15
449.61	15430.22
449.97	14994.64
450.33	14614.07
450.70	14196.52
451.06	13870.25
451.43	13422.74
451.79	13063.23
452.15	12745.39
452.52	12464.99
452.88	12168.45
453.24	11934.39
453.61	11680.44
453.97	11402.62
454.34	11071.90
454.70	10807.42
455.06	10526.79
455.43	10192.10
455.79	9845.23
456.15	9580.75
456.52	9242.31
456.88	8956.29
457.24	8688.54
457.61	8455.65
457.97	8207.79
458.33	7986.84
458.70	7720.26
459.06	7466.54
459.42	7254.72
459.79	6992.12
460.15	6784.51
460.51	6554.44
460.88	6339.11
461.24	6116.76
461.60	5957.13
461.96	5777.38
462.33	5633.90
462.69	5506.81
463.05	5377.85
463.42	5252.40
463.78	5096.75
464.14	4953.51
464.50	4812.14
464.87	4676.39
465.23	4545.79
465.59	4441.40
465.95	4340.76
466.32	4230.28
466.68	4150.47
467.04	4055.68
467.40	3965.57
467.77	3897.93
468.13	3835.44
468.49	3775.05
468.85	3713.26
469.22	3660.36
469.58	3576.34
469.94	3515.72
470.30	3418.35
470.66	3354.22
471.03	3284.01
471.39	3243.75
471.75	3197.64
472.11	3146.62
472.47	3093.49
472.84	3038.72
473.20	2981.37
473.56	2911.63
473.92	2867.86
474.28	2807.24
474.65	2762.07
475.01	2718.53
475.37	2672.89
475.73	2640.12
476.09	2608.06
476.45	2560.55
476.81	2521.93
477.18	2482.61
477.54	2434.86
477.90	2397.41
478.26	2365.11
478.62	2328.36
478.98	2295.83
479.34	2265.64
479.71	2248.79
480.07	2236.62
480.43	2200.81
480.79	2179.51
481.15	2161.48
481.51	2140.42
481.87	2109.99
482.23	2087.99
482.59	2058.03
482.96	2040.24
483.32	2000.22
483.68	1982.20
484.04	1977.05
484.40	1962.07
484.76	1930.71
485.12	1915.03
485.48	1888.11
485.84	1852.53
486.20	1835.21
486.56	1818.13
486.92	1792.85
487.28	1774.59
487.64	1768.98
488.00	1751.42
488.37	1740.42
488.73	1735.98
489.09	1719.83
489.45	1700.87
489.81	1688.46
490.17	1654.06
490.53	1643.99
490.89	1628.78
491.25	1606.78
491.61	1590.39
491.97	1595.08
492.33	1571.67
492.69	1553.65
493.05	1548.03
493.41	1527.67
493.77	1507.54
494.13	1502.62
494.49	1497.71
494.85	1490.22
495.21	1488.11
495.57	1483.43
495.93	1468.92
496.29	1456.98
496.64	1432.41
497.00	1421.88
497.36	1400.58
497.72	1384.66
498.08	1369.21
498.44	1369.21
498.80	1355.40
499.16	1354.00
499.52	1349.79
499.88	1335.51
500.24	1330.59
500.60	1330.13
500.96	1318.42
501.32	1314.44
501.68	1321.00
502.03	1307.19
502.39	1296.89
502.75	1294.32
503.11	1292.44
503.47	1290.34
503.83	1282.15
504.19	1274.66
504.55	1262.48
504.91	1256.17
505.26	1255.93
505.62	1260.14
505.98	1263.89
506.34	1261.08
506.70	1246.80
507.06	1226.21
507.42	1219.42
507.78	1213.80
508.13	1216.61
508.49	1215.91
508.85	1225.27
509.21	1226.21
509.57	1222.46
509.93	1221.06
510.28	1218.01
510.64	1205.14
511.00	1193.21
511.36	1192.27
511.72	1195.55
512.07	1182.67
512.43	1191.80
512.79	1197.42
513.15	1189.93
513.51	1176.82
513.86	1192.27
514.22	1183.61
514.58	1178.23
514.94	1188.76
515.30	1190.86
515.65	1177.52
516.01	1175.42
516.37	1174.25
516.73	1172.37
517.08	1169.33
517.44	1170.74
517.80	1170.97
518.16	1164.18
518.51	1151.54
518.87	1149.91
519.23	1148.27
519.59	1135.39
519.94	1153.42
520.30	1148.27
520.66	1144.52
521.01	1133.76
521.37	1142.88
521.73	1128.14
522.09	1135.63
522.44	1141.25
522.80	1152.71
523.16	1158.33
523.51	1145.46
523.87	1141.25
524.23	1139.61
524.58	1131.18
524.94	1115.97
525.30	1122.52
525.65	1117.61
526.01	1116.67
526.37	1126.73
526.72	1124.39
527.08	1124.16
527.44	1121.58
527.79	1111.29
528.15	1108.48
528.51	1117.61
528.86	1113.63
529.22	1123.46
529.58	1125.56
529.93	1116.90
530.29	1121.35
530.65	1119.71
531.00	1113.39
531.36	1114.80
531.71	1123.46
532.07	1108.24
532.43	1114.33
532.78	1120.18
533.14	1119.95
533.49	1108.01
533.85	1118.31
534.21	1109.41
534.56	1106.37
534.92	1109.88
535.27	1116.67
535.63	1114.09
535.98	1122.52
536.34	1118.78
536.69	1117.61
537.05	1109.18
537.41	1102.16
537.76	1089.75
538.12	1080.16
538.47	1082.26
538.83	1088.12
539.18	1094.67
539.54	1107.31
539.89	1118.54
540.25	1120.18
540.60	1112.69
540.96	1104.50
541.31	1098.88
541.67	1089.75
542.02	1079.22
542.38	1097.48
542.73	1102.16
543.09	1111.99
543.44	1116.90
543.80	1122.05
544.15	1119.48
544.51	1117.84
544.86	1118.54
545.22	1127.67
545.57	1116.90
545.93	1116.20
546.28	1123.93
546.64	1123.69
546.99	1117.61
547.35	1135.16
547.70	1129.78
548.05	1132.12
548.41	1123.93
548.76	1121.35
549.12	1120.41
549.47	1124.39
549.83	1116.67
550.18	1123.93
550.53	1128.37
550.89	1117.14
551.24	1112.22
551.60	1107.07
551.95	1100.29
552.30	1094.43
552.66	1087.41
553.01	1085.31
553.37	1091.86
553.72	1088.12
554.07	1088.12
554.43	1099.12
554.78	1101.92
555.13	1098.65
555.49	1097.01
555.84	1098.88
556.19	1104.97
556.55	1105.67
556.90	1112.22
557.26	1118.54
557.61	1118.54
557.96	1109.18
558.32	1116.90
558.67	1112.22
559.02	1107.54
559.37	1101.46
559.73	1100.75
560.08	1090.22
560.43	1089.29
560.79	1090.22
561.14	1089.29
561.49	1080.16
561.85	1082.26
562.20	1086.24
562.55	1086.24
562.90	1092.80
563.26	1105.90
563.61	1102.86
563.96	1104.26
564.32	1111.75
564.67	1107.31
565.02	1108.95
565.37	1110.82
565.73	1111.05
566.08	1108.01
566.43	1106.14
566.78	1103.33
567.14	1108.48
567.49	1108.48
567.84	1101.46
568.19	1101.46
568.54	1098.41
568.90	1095.14
569.25	1087.65
569.60	1093.50
569.95	1099.58
570.31	1097.71
570.66	1095.60
571.01	1097.95
571.36	1098.88
571.71	1093.97
572.06	1103.09
572.42	1105.90
572.77	1097.01
573.12	1098.41
573.47	1088.58
573.82	1075.24
574.18	1072.20
574.53	1082.26
574.88	1079.22
575.23	1093.97
575.58	1101.92
575.93	1100.99
576.28	1105.90
576.64	1109.65
576.99	1112.46
577.34	1118.31
577.69	1125.10
578.04	1109.65
578.39	1110.82
578.74	1107.31
579.09	1100.99
579.44	1099.12
579.80	1109.18
580.15	1108.71
580.50	1109.41
580.85	1108.24
581.20	1104.97
581.55	1099.58
581.90	1088.58
582.25	1080.86
582.60	1086.71
582.95	1093.50
583.30	1098.88
583.65	1102.39
584.00	1104.73
584.35	1097.24
584.71	1090.92
585.06	1093.03
585.41	1090.92
585.76	1091.86
586.11	1092.09
586.46	1094.90
586.81	1089.75
587.16	1091.86
587.51	1100.99
587.86	1108.01
588.21	1109.41
588.56	1105.90
588.91	1101.92
589.26	1099.35
589.61	1098.18
589.96	1086.71
590.31	1090.46
590.66	1105.90
591.01	1109.88
591.36	1106.61
591.71	1109.65
592.06	1110.35
592.41	1106.61
592.76	1101.69
593.10	1101.22
593.45	1107.78
593.80	1105.90
594.15	1106.37
594.50	1099.35
594.85	1105.20
595.20	1104.73
595.55	1100.75
595.90	1098.18
596.25	1110.82
596.60	1104.73
596.95	1105.44
597.30	1108.24
597.64	1149.44
597.99	1136.10
598.34	1135.63
598.69	1134.46
599.04	1136.10
599.39	1083.90
599.74	1091.63
600.09	1099.82
600.44	1093.97
600.78	1095.37
601.13	1111.99
601.48	1108.71
601.83	1096.54
602.18	1101.46
602.53	1094.90
602.88	1088.35
603.22	1093.97
603.57	1099.12
603.92	1097.48
604.27	1104.97
604.62	1096.54
604.97	1090.22
605.31	1092.56
605.66	1093.50
606.01	1090.92
606.36	1102.63
606.71	1102.86
607.05	1108.01
607.40	1109.65
607.75	1115.03
608.10	1108.01
608.44	1107.07
608.79	1096.54
609.14	1097.95
609.49	1097.95
609.84	1099.35
610.18	1108.24
610.53	1124.39
610.88	1123.22
611.23	1119.24
611.57	1124.86
611.92	1120.65
612.27	1109.88
612.62	1103.80
612.96	1105.44
613.31	1100.99
613.66	1096.07
614.00	1089.75
614.35	1091.63
614.70	1090.69
615.05	1088.82
615.39	1096.31
615.74	1101.46
616.09	1101.92
616.43	1100.29
616.78	1111.75
617.13	1111.52
617.47	1103.33
617.82	1105.67
618.17	1105.90
618.51	1099.12
618.86	1090.92
619.21	1102.39
619.55	1104.26
619.90	1105.44
620.25	1088.82
620.59	1093.50
620.94	1091.86
621.29	1091.86
621.63	1092.80
621.98	1100.52
622.32	1091.86
622.67	1083.90
623.02	1080.63
623.36	1083.43
623.71	1096.78
624.05	1107.07
624.40	1111.05
624.75	1114.80
625.09	1107.31
625.44	1091.86
625.78	1083.90
626.13	1077.58
626.48	1075.48
626.82	1080.86
627.17	1093.03
627.51	1100.52
627.86	1107.54
628.20	1114.09
628.55	1107.07
628.89	1091.63
629.24	1088.35
629.58	1080.39
629.93	1060.96
630.28	1068.92
630.62	1071.26
630.97	1065.88
631.31	1068.22
631.66	1074.77
632.00	1074.54
632.35	1086.24
632.69	1092.56
633.04	1099.82
633.38	1092.09
633.73	1095.14
634.07	1084.37
634.42	1082.97
634.76	1081.33
635.11	1094.43
635.45	1092.33
635.79	1095.60
636.14	1095.60
636.48	1099.82
636.83	1097.71
637.17	1093.97
637.52	1089.99
637.86	1091.16
638.21	1082.50
638.55	1079.92
638.89	1076.18
639.24	1077.35
639.58	1076.65
639.93	1082.03
640.27	1077.82
640.61	1083.67
640.96	1089.05
641.30	1090.46
641.65	1090.46
641.99	1092.33
642.33	1093.50
642.68	1087.41
643.02	1090.22
643.37	1090.46
643.71	1097.48
644.05	1096.31
644.40	1099.12
644.74	1095.84
645.08	1100.05
645.43	1108.01
645.77	1103.80
646.11	1098.65
646.46	1088.12
646.80	1086.24
647.14	1079.69
647.49	1072.90
647.83	1084.60
648.17	1098.88
648.52	1088.58
648.86	1077.11
649.20	1086.48
649.55	1077.58
649.89	1071.97
650.23	1078.99
650.57	1084.60
650.92	1077.58
651.26	1078.05
651.60	1086.01
651.95	1083.43
652.29	1084.14
652.63	1092.33
652.97	1097.01
653.32	1082.03
653.66	1087.88
654.00	1081.80
654.34	1074.07
654.69	1071.73
655.03	1079.69
655.37	1069.16
655.71	1083.67
656.05	1079.22
656.40	1079.46
656.74	1077.58
657.08	1085.07
657.42	1086.94
657.76	1097.24
658.11	1097.95
658.45	1105.67
658.79	1104.50
659.13	1100.75
659.47	1104.97
659.82	1098.41
660.16	1081.09
660.50	1084.84
660.84	1068.92
661.18	1061.20
661.52	1071.50
661.87	1078.75
662.21	1075.71
662.55	1082.26
662.89	1081.33
663.23	1071.03
663.57	1071.73
663.91	1078.52
664.25	1081.56
664.60	1087.65
664.94	1091.86
665.28	1090.22
665.62	1080.86
665.96	1078.99
666.30	1073.14
666.64	1086.01
666.98	1089.99
667.32	1089.05
667.66	1093.73
668.01	1104.26
668.35	1084.60
668.69	1091.86
669.03	1100.29
669.37	1102.16
669.71	1098.41
670.05	1111.52
670.39	1099.12
670.73	1092.33
671.07	1099.82
671.41	1092.33
671.75	1082.26
672.09	1084.60
672.43	1080.86
672.77	1074.07
673.11	1081.56
673.45	1084.84
673.79	1091.63
674.13	1095.37
674.47	1105.90
674.81	1101.46
675.15	1098.65
675.49	1095.84
675.83	1096.78
676.17	1073.37
676.51	1065.18
676.85	1069.86
677.19	1059.09
677.53	1063.77
677.87	1072.20
678.21	1083.20
678.55	1090.22
678.89	1104.03
679.23	1093.50
679.57	1097.01
679.90	1092.56
680.24	1086.94
680.58	1089.29
680.92	1090.22
681.26	1088.12
681.60	1085.54
681.94	1088.12
682.28	1081.09
682.62	1082.50
682.96	1079.92
683.29	1085.77
683.63	1073.60
683.97	1069.62
684.31	1075.71
684.65	1071.26
684.99	1062.14
685.33	1068.69
685.67	1067.05
686.00	1070.33
686.34	1073.37
686.68	1081.80
687.02	1089.05
687.36	1089.29
687.70	1086.24
688.03	1092.33
688.37	1093.26
688.71	1091.39
689.05	1090.92
689.39	1078.75
689.72	1076.65
690.06	1073.37
690.40	1071.03
690.74	1072.67
691.08	1077.82
691.41	1075.71
691.75	1077.58
692.09	1078.75
692.43	1080.39
692.76	1086.71
693.10	1078.99
693.44	1072.20
693.78	1064.94
694.11	1060.26
694.45	1049.50
694.79	1051.84
695.13	1053.71
695.46	1064.24
695.80	1069.86
696.14	1078.28
696.48	1081.56
696.81	1081.33
697.15	1079.92
697.49	1081.33
697.82	1082.26
698.16	1088.35
698.50	1085.54
698.83	1088.12
699.17	1086.48
699.51	1081.09
699.84	1067.05
700.18	1065.41
700.52	1060.03
700.85	1063.07
701.19	1059.79
701.53	1075.48
701.86	1078.28
702.20	1082.26
702.54	1066.82
702.87	1082.03
703.21	1068.92
703.55	1078.05
703.88	1072.43
704.22	1097.71
704.55	1080.39
704.89	1086.24
705.23	1082.50
705.56	1077.82
705.90	1066.35
706.23	1078.52
706.57	1086.71
706.91	1097.01
707.24	1101.46
707.58	1089.52
707.91	1090.22
708.25	1078.75
708.58	1075.94
708.92	1088.35
709.26	1100.52
709.59	1103.56
709.93	1104.50
710.26	1108.48
710.60	1097.95
710.93	1096.31
711.27	1091.16
711.60	1089.52
711.94	1075.94
712.27	1067.52
712.61	1062.37
712.94	1061.67
713.28	1061.90
713.61	1062.84
713.95	1067.28
714.28	1070.80
714.62	1068.45
714.95	1074.07
715.29	1076.18
715.62	1075.94
715.96	1087.18
716.29	1083.90
716.63	1075.94
716.96	1073.84
717.29	1072.20
717.63	1072.90
717.96	1070.09
718.30	1079.92
718.63	1078.28
718.97	1090.46
719.30	1074.77
719.63	1084.37
719.97	1072.43
720.30	1073.14
720.64	1060.96
720.97	1069.86
721.30	1067.05
721.64	1079.69
721.97	1082.03
722.31	1086.24
722.64	1076.65
722.97	1081.56
723.31	1082.73
723.64	1075.24
723.97	1073.84
724.31	1083.20
724.64	1076.41
724.98	1079.22
725.31	1080.86
725.64	1076.18
725.98	1064.01
726.31	1071.73
726.64	1060.73
726.97	1067.75
727.31	1083.20
727.64	1093.73
727.97	1080.86
728.31	1089.29
728.64	1086.24
728.97	1083.43
729.31	1082.03
729.64	1086.94
729.97	1082.73
730.30	1081.56
730.64	1076.88
730.97	1070.33
731.30	1075.71
731.63	1070.09
731.97	1075.24
732.30	1079.92
732.63	1077.58
732.96	1068.22
733.30	1077.58
733.63	1073.37
733.96	1069.16
734.29	1074.07
734.63	1077.82
734.96	1078.52
735.29	1084.37
735.62	1082.97
735.95	1088.82
736.29	1095.84
736.62	1096.31
736.95	1086.48
737.28	1089.05
737.61	1090.22
737.94	1084.14
738.28	1075.48
738.61	1082.97
738.94	1075.71
739.27	1072.67
739.60	1082.73
739.93	1082.73
740.27	1085.77
740.60	1092.80
740.93	1093.26
741.26	1078.75
741.59	1074.54
741.92	1069.39
742.25	1064.24
742.58	1057.69
742.91	1061.67
743.25	1072.67
743.58	1074.54
743.91	1076.18
744.24	1080.86
744.57	1075.48
744.90	1070.09
745.23	1068.92
745.56	1068.92
745.89	1075.01
746.22	1070.80
746.55	1076.41
746.88	1073.84
747.21	1077.35
747.54	1064.24
747.87	1079.69
748.20	1074.07
748.53	1075.01
748.87	1068.22
749.20	1077.11
749.53	1078.28
749.86	1082.03
750.19	1092.09
750.52	1104.73
750.85	1099.35
751.18	1094.67
751.51	1102.63
751.84	1094.67
752.16	1087.18
752.49	1088.82
752.82	1091.39
753.15	1086.24
753.48	1082.03
753.81	1077.58
754.14	1081.09
754.47	1076.88
754.80	1070.56
755.13	1081.56
755.46	1084.60
755.79	1089.29
756.12	1094.43
756.45	1093.50
756.78	1073.84
757.11	1067.75
757.43	1064.24
757.76	1056.28
758.09	1059.56
758.42	1073.84
758.75	1088.82
759.08	1091.16
759.41	1091.86
759.74	1091.86
760.07	1084.84
760.39	1071.50
760.72	1069.62
761.05	1079.22
761.38	1081.09
761.71	1084.37
762.04	1092.33
762.36	1088.12
762.69	1078.52
763.02	1065.65
763.35	1064.48
763.68	1059.56
764.01	1063.54
764.33	1075.01
764.66	1083.90
764.99	1082.50
765.32	1091.63
765.65	1089.05
765.97	1075.48
766.30	1073.84
766.63	1071.26
766.96	1068.22
767.28	1069.39
767.61	1073.37
767.94	1076.41
768.27	1078.99
768.59	1070.33
768.92	1070.09
769.25	1071.03
769.58	1081.56
769.90	1079.92
770.23	1079.46
770.56	1074.31
770.89	1070.33
771.21	1069.62
771.54	1071.50
771.87	1065.41
772.19	1076.18
772.52	1083.20
772.85	1075.24
773.17	1084.60
773.50	1096.54
773.83	1094.67
774.15	1097.24
774.48	1091.39
774.81	1087.88
775.13	1092.33
775.46	1089.52
775.79	1082.50
776.11	1097.01
776.44	1099.12
776.77	1093.26
777.09	1093.73
777.42	1097.01
777.74	1083.43
778.07	1075.24
778.40	1077.82
778.72	1073.84
779.05	1069.16
779.37	1073.37
779.70	1082.73
780.03	1078.52
780.35	1079.46
780.68	1078.52
781.00	1075.24
781.33	1072.67
781.65	1078.05
781.98	1082.03
782.31	1096.31
782.63	1095.84
782.96	1089.52
783.28	1087.41
783.61	1080.63
783.93	1070.80
784.26	1078.05
784.58	1082.03
784.91	1087.18
785.23	1082.97
785.56	1082.97
785.88	1092.80
786.21	1100.29
786.53	1092.80
786.86	1101.46
787.18	1099.12
787.51	1082.03
787.83	1077.82
788.16	1073.14
788.48	1069.16
788.81	1068.92
789.13	1077.82
789.46	1065.18
789.78	1071.03
790.10	1076.41
790.43	1077.82
790.75	1073.14
791.08	1078.28
791.40	1075.24
791.73	1078.99
792.05	1077.58
792.37	1070.56
792.70	1077.58
793.02	1076.65
793.35	1064.48
793.67	1069.39
793.99	1074.77
794.32	1071.03
794.64	1068.69
794.96	1075.24
795.29	1063.31
795.61	1067.75
795.93	1063.77
796.26	1065.41
796.58	1069.86
796.91	1084.14
797.23	1078.05
797.55	1082.73
797.87	1094.43
798.20	1088.12
798.52	1086.24
798.84	1083.90
799.17	1088.58
799.49	1084.84
799.81	1092.56
800.14	1089.05
800.46	1089.52
800.78	1071.73
801.10	1063.54
801.43	1056.28
801.75	1059.79
802.07	1066.82
802.40	1077.35
802.72	1080.86
803.04	1084.84
803.36	1096.31
803.69	1099.35
804.01	1102.39
804.33	1103.09
804.65	1100.05
804.97	1079.22
805.30	1073.14
805.62	1065.41
805.94	1070.33
806.26	1070.56
806.58	1077.11
806.91	1079.69
807.23	1083.67
807.55	1074.54
807.87	1080.39
808.19	1073.84
808.52	1076.65
808.84	1069.86
809.16	1078.52
809.48	1070.56
809.80	1069.39
810.12	1065.41
810.44	1082.50
810.77	1078.28
811.09	1076.41
811.41	1091.63
811.73	1096.78
812.05	1089.99
812.37	1083.90
812.69	1086.24
813.01	1079.22
813.33	1064.24
813.66	1061.20
813.98	1060.96
814.30	1063.07
814.62	1063.77
814.94	1072.20
815.26	1075.24
815.58	1078.75
815.90	1086.71
816.22	1088.58
816.54	1089.99
816.86	1093.26
817.18	1093.50
817.50	1085.54
817.82	1093.03
818.14	1096.54
818.46	1094.90
818.78	1091.16
819.10	1084.84
819.42	1068.45
819.74	1060.73
820.06	1061.20
820.38	1073.14
820.70	1076.65
821.02	1078.75
821.34	1082.97
821.66	1084.84
821.98	1086.48
822.30	1088.12
822.62	1092.33
822.94	1079.92
823.26	1071.03
823.58	1058.39
823.90	1057.69
824.22	1057.45
824.54	1075.24
824.86	1079.69
825.18	1093.97
825.50	1089.99
825.81	1089.99
826.13	1084.84
826.45	1078.75
826.77	1071.26
827.09	1089.29
827.41	1086.01
827.73	1079.69
828.05	1092.09
828.36	1087.18
828.68	1075.01
829.00	1078.99
829.32	1080.86
829.64	1076.41
829.96	1082.97
830.28	1091.16
830.59	1093.97
830.91	1097.48
831.23	1097.48
831.55	1095.14
831.87	1081.09
832.19	1074.07
832.50	1083.43
832.82	1088.58
833.14	1082.03
833.46	1093.50
833.78	1099.35
834.09	1086.48
834.41	1085.31
834.73	1086.94
835.05	1078.99
835.36	1078.05
835.68	1082.26
836.00	1071.97
836.32	1073.37
836.63	1068.69
836.95	1064.71
837.27	1060.03
837.59	1066.58
837.90	1067.05
838.22	1075.01
838.54	1081.09
838.85	1081.09
839.17	1080.63
839.49	1086.71
839.80	1082.97
840.12	1077.82
840.44	1075.48
840.76	1071.73
841.07	1068.92
841.39	1077.82
841.71	1078.75
842.02	1086.24
842.34	1087.65
842.65	1083.20
842.97	1088.35
843.29	1080.86
843.60	1091.16
843.92	1093.73
844.24	1108.48
844.55	1096.31
844.87	1101.22
845.18	1082.97
845.50	1087.88
845.82	1071.26
846.13	1074.31
846.45	1073.37
846.76	1083.67
847.08	1074.07
847.40	1078.05
847.71	1078.28
848.03	1075.71
848.34	1065.41
848.66	1072.90
848.97	1077.11
849.29	1070.33
849.60	1084.60
849.92	1086.71
850.24	1082.73
850.55	1083.20
850.87	1077.35
851.18	1075.48
851.50	1076.88
851.81	1074.77
852.13	1069.16
852.44	1085.31
852.76	1081.33
853.07	1089.05
853.39	1089.75
853.70	1088.35
854.01	1079.22
854.33	1072.90
854.64	1068.22
854.96	1067.52
855.27	1067.99
855.59	1073.84
855.90	1081.80
856.22	1071.97
856.53	1081.80
856.84	1076.65
857.16	1068.92
857.47	1064.71
857.79	1077.35
858.10	1071.50
858.41	1083.90
858.73	1093.50
859.04	1096.31
859.36	1099.82
859.67	1099.82
859.98	1099.12
860.30	1093.73
860.61	1090.46
860.92	1085.31
861.24	1080.16
861.55	1075.01
861.87	1079.46
862.18	1081.80
862.49	1082.03
862.81	1085.54
863.12	1098.18
863.43	1099.35
863.74	1089.52
864.06	1088.82
864.37	1088.35
864.68	1080.16
865.00	1078.75
865.31	1088.35
865.62	1085.77
865.94	1087.88
866.25	1085.54
866.56	1077.82
866.87	1084.14
867.19	1081.80
867.50	1082.26
867.81	1080.39
868.12	1081.80
868.44	1078.99
868.75	1082.26
869.06	1073.14
869.37	1071.03
869.68	1076.41
870.00	1074.54
870.31	1087.65
870.62	1099.82
870.93	1103.33
871.24	1106.14
871.56	1102.86
871.87	1087.65
872.18	1081.56
872.49	1074.07
872.80	1061.90
873.12	1058.62
873.43	1061.20
873.74	1065.65
874.05	1078.28
874.36	1086.01
874.67	1080.86
874.98	1086.24
875.29	1087.18
875.61	1087.18
875.92	1071.73
876.23	1084.37
876.54	1074.31
876.85	1075.94
877.16	1073.14
877.47	1090.46
877.78	1093.73
878.09	1090.46
878.40	1086.94
878.72	1082.50
879.03	1082.26
879.34	1074.07
879.65	1082.03
879.96	1071.73
880.27	1078.52
880.58	1066.58
880.89	1071.97
881.20	1073.60
881.51	1076.88
881.82	1072.67
882.13	1080.63
882.44	1074.77
882.75	1072.67
883.06	1084.14
883.37	1086.01
883.68	1086.94
883.99	1080.63
884.30	1079.46
884.61	1071.26
884.92	1067.28
885.23	1072.20
885.54	1078.99
885.85	1071.03
886.16	1074.31
886.47	1076.65
886.78	1069.16
887.08	1063.07
887.39	1069.62
887.70	1070.09
888.01	1060.50
888.32	1061.20
888.63	1075.48
888.94	1081.80
889.25	1094.90
889.56	1100.75
889.87	1109.88
890.17	1102.63
890.48	1096.78
890.79	1084.84
891.10	1082.50
891.41	1075.48
891.72	1080.16
892.03	1083.43
892.34	1079.69
892.64	1087.18
892.95	1083.67
893.26	1083.67
893.57	1089.05
893.88	1098.65
894.18	1096.31
894.49	1103.56
894.80	1098.18
895.11	1091.16
895.42	1080.86
895.72	1083.20
896.03	1086.24
896.34	1084.60
896.65	1082.03
896.96	1087.88
897.26	1092.09
897.57	1082.73
897.88	1090.69
898.19	1094.67
898.49	1091.39
898.80	1083.90
899.11	1089.05
899.41	1086.71
899.72	1081.33
900.03	1075.71
900.34	1068.92
900.64	1067.05
900.95	1069.16
901.26	1069.86
901.56	1075.01
901.87	1095.37
902.18	1100.52
902.48	1100.75
902.79	1108.24
903.10	1112.46
903.40	1094.90
903.71	1095.37
904.02	1088.82
904.32	1087.18
904.63	1078.99
904.94	1078.99
905.24	1075.48
905.55	1083.43
905.85	1083.90
906.16	1079.22
906.47	1096.31
906.77	1089.75
907.08	1095.14
907.38	1095.14
907.69	1100.75
908.00	1082.73
908.30	1090.46
908.61	1078.75
908.91	1079.46
909.22	1075.48
909.52	1077.11
909.83	1082.26
910.14	1084.14
910.44	1086.48
910.75	1092.33
911.05	1092.09
911.36	1092.09
911.66	1089.75
911.97	1085.54
912.27	1088.12
912.58	1091.16
912.88	1092.09
913.19	1087.88
913.49	1091.63
913.80	1079.46
914.10	1077.11
914.41	1061.67
914.71	1061.67
915.01	1064.01
915.32	1068.45
915.62	1073.60
915.93	1085.31
916.23	1086.71
916.54	1082.97
916.84	1079.69
917.15	1067.28
917.45	1057.22
917.75	1057.69
918.06	1057.69
918.36	1062.37
918.67	1071.73
918.97	1076.18
919.27	1076.18
919.58	1065.65
919.88	1067.52
920.18	1074.54
920.49	1070.33
920.79	1061.43
921.10	1063.54
921.40	1064.01
921.70	1060.26
922.01	1066.82
922.31	1079.22
922.61	1084.60
922.92	1085.77
923.22	1083.20
923.52	1076.65
923.82	1079.22
924.13	1076.41
924.43	1077.35
924.73	1074.54
925.04	1077.58
925.34	1068.45
925.64	1061.20
925.94	1062.14
926.25	1063.31
926.55	1060.73
926.85	1070.09
927.15	1079.69
927.46	1076.41
927.76	1073.37
928.06	1077.11
928.36	1086.94
928.67	1085.31
928.97	1080.63
929.27	1089.05
929.57	1094.67
929.87	1068.22
930.18	1070.80
930.48	1078.05
930.78	1082.50
931.08	1069.39
931.38	1079.22
931.69	1073.37
931.99	1071.03
932.29	1064.71
932.59	1074.31
932.89	1079.92
933.19	1086.71
933.49	1084.14
933.80	1079.92
934.10	1070.80
934.40	1067.75
934.70	1066.11
935.00	1075.01
935.30	1086.24
935.60	1102.86
935.90	1103.09
936.20	1103.80
936.50	1097.01
936.81	1085.54
937.11	1073.37
937.41	1072.67
937.71	1072.67
938.01	1083.67
938.31	1095.60
938.61	1099.35
938.91	1105.44
939.21	1111.75
939.51	1096.78
939.81	1093.26
940.11	1094.67
940.41	1088.35
940.71	1080.63
941.01	1085.54
941.31	1079.22
941.61	1081.80
941.91	1090.46
942.21	1086.01
942.51	1089.29
942.81	1091.39
943.11	1077.58
943.41	1078.99
943.71	1081.80
944.01	1077.58
944.31	1091.39
944.61	1104.97
944.90	1095.60
945.20	1099.35
945.50	1105.44
945.80	1097.01
946.10	1092.80
946.40	1093.03
946.70	1089.99
947.00	1084.84
947.30	1078.28
947.60	1077.35
947.89	1072.20
948.19	1081.33
948.49	1078.52
948.79	1079.69
949.09	1069.62
949.39	1079.22
949.69	1069.62
949.98	1082.50
950.28	1076.41
950.58	1084.37
950.88	1084.14
951.18	1080.63
951.48	1075.01
951.77	1084.84
952.07	1081.33
952.37	1082.97
952.67	1086.24
952.97	1078.05
953.26	1071.50
953.56	1076.88
953.86	1074.07
954.16	1076.18
954.45	1078.28
954.75	1080.16
955.05	1075.94
955.35	1082.73
955.64	1080.63
955.94	1086.94
956.24	1085.77
956.54	1086.94
956.83	1068.45
957.13	1072.90
957.43	1057.69
957.72	1057.45
958.02	1059.09
958.32	1075.01
958.61	1076.88
958.91	1078.52
959.21	1075.01
959.50	1066.58
959.80	1064.01
960.10	1065.65
960.39	1076.18
960.69	1082.03
960.99	1084.84
961.28	1081.33
961.58	1075.94
961.87	1075.48
962.17	1071.73
962.47	1074.31
962.76	1071.03
963.06	1061.67
963.36	1061.67
963.65	1064.71
963.95	1074.54
964.24	1079.46
964.54	1092.09
964.83	1099.58
965.13	1100.75
965.42	1099.58
965.72	1089.05
966.02	1097.24
966.31	1100.52
966.61	1099.58
966.90	1097.95
967.20	1097.71
967.49	1083.67
967.79	1070.09
968.08	1077.35
968.38	1069.86
968.67	1081.56
968.97	1089.29
969.26	1089.99
969.56	1078.52
969.85	1075.94
970.15	1077.11
970.44	1074.31
970.74	1071.03
971.03	1081.09
971.32	1083.67
971.62	1088.82
971.91	1086.94
972.21	1093.50
972.50	1077.58
972.80	1078.99
973.09	1081.56
973.38	1079.69
973.68	1079.22
973.97	1086.01
974.27	1095.60
974.56	1089.52
974.85	1095.14
975.15	1089.99
975.44	1088.58
975.73	1081.80
976.03	1074.77
976.32	1069.62
976.61	1080.63
976.91	1085.77
977.20	1089.52
977.49	1089.75
977.79	1086.71
978.08	1085.31
978.37	1085.31
978.67	1075.01
978.96	1068.69
979.25	1080.16
979.55	1070.80
979.84	1071.97
980.13	1075.24
980.42	1070.33
980.72	1066.58
981.01	1073.84
981.30	1068.45
981.59	1069.39
981.89	1078.99
982.18	1073.14
982.47	1068.22
982.76	1076.41
983.06	1082.73
983.35	1085.77
983.64	1090.92
983.93	1096.31
984.22	1089.75
984.52	1080.39
984.81	1080.86
985.10	1082.73
985.39	1087.65
985.68	1089.29
985.97	1097.95
986.27	1108.24
986.56	1110.82
986.85	1098.88
987.14	1109.65
987.43	1108.71
987.72	1099.12
988.01	1086.71
988.31	1086.01
988.60	1080.63
988.89	1079.22
989.18	1075.24
989.47	1079.22
989.76	1080.16
990.05	1070.33
990.34	1062.14
990.63	1058.62
990.92	1057.22
991.21	1057.45
991.51	1062.14
991.80	1073.14
992.09	1078.99
992.38	1071.26
992.67	1072.90
992.96	1075.01
993.25	1071.50
993.54	1066.11
993.83	1072.90
994.12	1071.73
994.41	1065.88
994.70	1071.50
994.99	1076.88
995.28	1089.05
995.57	1100.75
995.86	1104.03
996.15	1095.14
996.44	1098.65
996.73	1095.60
997.02	1085.77
997.31	1092.80
997.59	1096.54
997.88	1103.80
998.17	1101.46
998.46	1093.03
998.75	1084.60
999.04	1086.24
999.33	1081.33
999.62	1083.20
999.91	1081.56
1000.20	1078.52
1000.49	1083.67
1000.77	1077.58
1001.06	1073.84
1001.35	1070.80
1001.64	1078.75
1001.93	1069.39
1002.22	1068.45
1002.51	1058.16
1002.79	1071.26
1003.08	1057.92
1003.37	1064.01
1003.66	1056.05
1003.95	1062.37
1004.23	1070.09
1004.52	1084.84
1004.81	1085.54
1005.10	1101.22
1005.39	1101.92
1005.67	1088.35
1005.96	1080.16
1006.25	1074.07
1006.54	1067.75
1006.83	1062.60
1007.11	1067.99
1007.40	1077.11
1007.69	1086.94
1007.97	1085.31
1008.26	1087.65
1008.55	1082.73
1008.84	1080.16
1009.12	1075.01
1009.41	1073.37
1009.70	1070.09
1009.98	1071.50
1010.27	1072.90
1010.56	1067.28
1010.85	1068.92
1011.13	1079.46
1011.42	1074.77
1011.71	1067.75
1011.99	1067.75
1012.28	1073.14
1012.56	1072.20
1012.85	1078.05
1013.14	1074.07
1013.42	1082.03
1013.71	1076.18
1014.00	1068.22
1014.28	1065.88
1014.57	1061.90
1014.85	1057.92
1015.14	1058.39
1015.43	1054.88
1015.71	1060.50
1016.00	1077.11
1016.28	1074.54
1016.57	1082.73
1016.85	1094.67
1017.14	1095.37
1017.43	1098.88
1017.71	1096.07
1018.00	1090.69
1018.28	1090.46
1018.57	1094.90
1018.85	1086.94
1019.14	1100.99
1019.42	1100.99
1019.71	1091.86
1019.99	1085.31
1020.28	1083.43
1020.56	1076.41
1020.85	1072.67
1021.13	1076.88
1021.42	1078.28
1021.70	1080.86
1021.99	1076.18
1022.27	1086.01
1022.55	1069.62
1022.84	1118.78
>>>>>End Processed Spectral Data<<<<<
