SpectraSuite Data File
++++++++++++++++++++++++++++++++++++
Date: Mon Aug 26 10:24:53 PDT 2019
User: corrico
Dark Spectrum Present: No
Reference Spectrum Present: No
Number of Sampled Component Spectra: 1
Spectrometers: USB2+H06089
Integration Time (usec): 10000 (USB2+H06089)
Spectra Averaged: 2 (USB2+H06089)
Boxcar Smoothing: 2 (USB2+H06089)
Correct for Electrical Dark: No (USB2+H06089)
Strobe/Lamp Enabled: No (USB2+H06089)
Correct for Detector Non-linearity: No (USB2+H06089)
Correct for Stray Light: No (USB2+H06089)
Number of Pixels in Processed Spectrum: 2048
>>>>>Begin Processed Spectral Data<<<<<
339.70	1018.13
340.07	1018.13
340.45	983.73
340.82	960.79
341.19	946.51
341.57	928.96
341.94	922.64
342.31	926.85
342.69	923.81
343.06	914.92
343.43	905.55
343.81	902.74
344.18	902.51
344.55	902.98
344.93	908.60
345.30	921.70
345.67	930.60
346.04	944.17
346.42	961.02
346.79	972.02
347.16	976.71
347.54	985.13
347.91	983.96
348.28	1003.86
348.65	1012.98
349.03	1026.79
349.40	1028.20
349.77	1039.90
350.14	1033.35
350.52	1042.94
350.89	1047.39
351.26	1052.54
351.63	1060.96
352.01	1064.94
352.38	1062.14
352.75	1070.56
353.12	1079.92
353.50	1082.03
353.87	1086.94
354.24	1089.99
354.61	1091.86
354.98	1102.86
355.36	1101.22
355.73	1111.75
356.10	1119.48
356.47	1115.73
356.84	1108.24
357.22	1105.67
357.59	1099.82
357.96	1090.46
358.33	1081.09
358.70	1079.46
359.08	1084.37
359.45	1075.71
359.82	1075.48
360.19	1080.63
360.56	1073.37
360.94	1066.11
361.31	1070.33
361.68	1070.09
362.05	1077.11
362.42	1086.71
362.79	1093.97
363.16	1094.43
363.54	1093.50
363.91	1087.88
364.28	1088.35
364.65	1084.37
365.02	1083.43
365.39	1093.50
365.76	1094.67
366.14	1092.80
366.51	1089.75
366.88	1092.09
367.25	1091.16
367.62	1088.12
367.99	1084.60
368.36	1094.67
368.73	1082.97
369.10	1082.73
369.48	1075.94
369.85	1084.84
370.22	1073.37
370.59	1089.29
370.96	1073.60
371.33	1089.75
371.70	1079.92
372.07	1082.50
372.44	1076.18
372.81	1084.14
373.18	1081.33
373.55	1077.11
373.93	1091.63
374.30	1094.43
374.67	1100.75
375.04	1092.80
375.41	1093.03
375.78	1086.24
376.15	1083.90
376.52	1078.99
376.89	1077.58
377.26	1085.07
377.63	1086.71
378.00	1086.94
378.37	1086.48
378.74	1089.05
379.11	1084.60
379.48	1078.52
379.85	1081.33
380.22	1086.71
380.59	1094.20
380.96	1097.01
381.33	1101.69
381.70	1099.82
382.07	1095.84
382.44	1100.05
382.81	1111.05
383.18	1115.50
383.55	1119.95
383.92	1124.39
384.29	1123.22
384.66	1118.07
385.03	1109.18
385.40	1108.71
385.77	1109.88
386.14	1097.95
386.51	1104.73
386.88	1109.41
387.25	1114.56
387.62	1107.54
387.99	1126.03
388.36	1104.03
388.73	1096.78
389.10	1093.73
389.46	1089.75
389.83	1082.97
390.20	1103.80
390.57	1107.07
390.94	1099.82
391.31	1111.99
391.68	1111.29
392.05	1111.75
392.42	1122.29
392.79	1128.37
393.16	1126.97
393.53	1123.22
393.89	1119.71
394.26	1118.54
394.63	1113.86
395.00	1124.39
395.37	1126.03
395.74	1136.33
396.11	1134.46
396.48	1133.29
396.84	1120.65
397.21	1130.71
397.58	1126.50
397.95	1119.01
398.32	1132.82
398.69	1144.76
399.06	1141.25
399.42	1127.44
399.79	1137.73
400.16	1136.80
400.53	1130.01
400.90	1132.82
401.27	1152.25
401.64	1163.71
402.00	1163.48
402.37	1180.10
402.74	1188.52
403.11	1191.10
403.48	1181.74
403.84	1193.67
404.21	1193.44
404.58	1197.42
404.95	1198.59
405.32	1217.31
405.68	1223.40
406.05	1231.59
406.42	1243.76
406.79	1270.21
407.16	1273.02
407.52	1290.10
407.89	1317.72
408.26	1339.02
408.63	1338.79
408.99	1367.34
409.36	1378.81
409.73	1393.55
410.10	1418.13
410.47	1457.45
410.83	1499.11
411.20	1541.01
411.57	1582.44
411.94	1624.57
412.30	1662.48
412.67	1694.55
413.04	1755.17
413.40	1805.26
413.77	1872.19
414.14	1921.81
414.51	1992.03
414.87	2057.80
415.24	2115.14
415.61	2175.29
415.97	2265.17
416.34	2344.98
416.71	2424.56
417.08	2513.74
417.44	2603.61
417.81	2714.32
418.18	2847.50
418.54	2981.14
418.91	3143.11
419.28	3295.71
419.64	3442.23
420.01	3580.32
420.38	3734.56
420.74	3894.89
421.11	4102.96
421.48	4330.93
421.84	4544.85
422.21	4764.86
422.58	5013.19
422.94	5255.44
423.31	5480.83
423.68	5762.16
424.04	6067.60
424.41	6340.28
424.77	6621.61
425.14	6922.60
425.51	7262.68
425.87	7632.49
426.24	8013.76
426.61	8426.40
426.97	8943.42
427.34	9366.36
427.70	9805.91
428.07	10322.70
428.44	10795.96
428.80	11244.87
429.17	11787.64
429.53	12333.22
429.90	12944.33
430.27	13545.15
430.63	14141.52
431.00	14798.51
431.36	15516.58
431.73	16121.38
432.09	16765.02
432.46	17417.10
432.83	18006.68
433.19	18553.66
433.56	19221.18
433.92	19850.79
434.29	20464.47
434.65	21187.00
435.02	21816.37
435.38	22465.87
435.75	23044.68
436.11	23661.41
436.48	24091.13
436.84	24590.84
437.21	24948.00
437.57	25374.68
437.94	25776.55
438.30	26139.34
438.67	26441.73
439.03	26633.89
439.40	26791.88
439.76	26756.54
440.13	26742.26
440.49	26655.19
440.86	26423.01
441.22	26126.23
441.59	25753.15
441.95	25339.58
442.32	24813.42
442.68	24379.25
443.05	23889.61
443.41	23413.31
443.78	22832.63
444.14	22303.67
444.51	21670.32
444.87	21250.89
445.24	20778.34
445.60	20368.98
445.96	19830.66
446.33	19439.55
446.69	18856.99
447.06	18313.52
447.42	17754.37
447.79	17282.05
448.15	16841.32
448.51	16350.98
448.88	15985.39
449.24	15554.73
449.61	15253.51
449.97	14890.96
450.33	14500.55
450.70	14061.94
451.06	13709.92
451.43	13250.24
451.79	12860.54
452.15	12571.72
452.52	12278.22
452.88	12003.44
453.24	11711.81
453.61	11445.92
453.97	11165.99
454.34	10849.09
454.70	10567.99
455.06	10335.57
455.43	10022.64
455.79	9649.79
456.15	9340.38
456.52	8995.85
456.88	8777.48
457.24	8504.34
457.61	8322.71
457.97	8139.21
458.33	7917.80
458.70	7604.40
459.06	7353.73
459.42	7130.68
459.79	6875.09
460.15	6678.25
460.51	6485.86
460.88	6297.68
461.24	6062.46
461.60	5894.41
461.96	5727.29
462.33	5544.03
462.69	5401.49
463.05	5259.89
463.42	5124.13
463.78	4986.04
464.14	4865.74
464.50	4740.76
464.87	4644.79
465.23	4525.89
465.59	4412.14
465.95	4316.42
466.32	4207.82
466.68	4105.77
467.04	4011.68
467.40	3916.65
467.77	3831.69
468.13	3762.88
468.49	3685.17
468.85	3624.79
469.22	3557.38
469.58	3486.23
469.94	3420.22
470.30	3386.76
470.66	3334.80
471.03	3286.11
471.39	3240.71
471.75	3185.47
472.11	3115.25
472.47	3050.65
472.84	2985.35
473.20	2916.78
473.56	2858.73
473.92	2810.52
474.28	2782.66
474.65	2752.24
475.01	2722.51
475.37	2684.59
475.73	2639.66
476.09	2598.70
476.45	2564.06
476.81	2521.46
477.18	2476.99
477.54	2442.82
477.90	2397.64
478.26	2358.09
478.62	2322.51
478.98	2302.38
479.34	2278.51
479.71	2249.72
480.07	2215.55
480.43	2196.83
480.79	2172.95
481.15	2149.55
481.51	2114.21
481.87	2104.38
482.23	2068.10
482.59	2029.48
482.96	2008.88
483.32	1996.95
483.68	1963.01
484.04	1944.52
484.40	1930.01
484.76	1903.32
485.12	1877.11
485.48	1855.81
485.84	1835.45
486.20	1823.51
486.56	1797.77
486.92	1779.51
487.28	1767.81
487.64	1749.78
488.00	1725.21
488.37	1709.53
488.73	1690.80
489.09	1667.63
489.45	1650.08
489.81	1633.46
490.17	1621.76
490.53	1610.76
490.89	1611.22
491.25	1596.95
491.61	1585.48
491.97	1567.92
492.33	1559.03
492.69	1540.54
493.05	1526.73
493.41	1523.45
493.77	1515.73
494.13	1503.56
494.49	1489.05
494.85	1480.62
495.21	1463.07
495.57	1449.73
495.93	1439.90
496.29	1426.56
496.64	1419.07
497.00	1403.85
497.36	1402.45
497.72	1394.49
498.08	1380.68
498.44	1371.79
498.80	1368.75
499.16	1356.57
499.52	1333.17
499.88	1329.66
500.24	1331.30
500.60	1320.76
500.96	1319.59
501.32	1331.06
501.68	1331.76
502.03	1322.87
502.39	1334.11
502.75	1318.89
503.11	1305.32
503.47	1294.78
503.83	1285.42
504.19	1260.61
504.55	1255.46
504.91	1249.38
505.26	1249.14
505.62	1244.93
505.98	1254.76
506.34	1255.00
506.70	1250.08
507.06	1239.08
507.42	1225.50
507.78	1213.80
508.13	1203.04
508.49	1204.21
508.85	1213.80
509.21	1228.31
509.57	1237.21
509.93	1235.10
510.28	1224.80
510.64	1217.55
511.00	1210.06
511.36	1199.52
511.72	1201.40
512.07	1208.89
512.43	1202.33
512.79	1199.06
513.15	1186.89
513.51	1184.55
513.86	1177.06
514.22	1169.57
514.58	1162.31
514.94	1166.76
515.30	1165.59
515.65	1156.46
516.01	1160.91
516.37	1154.82
516.73	1148.27
517.08	1153.88
517.44	1155.99
517.80	1145.46
518.16	1151.78
518.51	1157.63
518.87	1153.18
519.23	1152.48
519.59	1160.20
519.94	1155.52
520.30	1147.56
520.66	1146.16
521.01	1141.25
521.37	1148.27
521.73	1158.57
522.09	1165.59
522.44	1153.42
522.80	1156.22
523.16	1143.82
523.51	1141.71
523.87	1142.18
524.23	1147.10
524.58	1150.37
524.94	1147.80
525.30	1140.07
525.65	1129.54
526.01	1122.29
526.37	1122.52
526.72	1122.05
527.08	1117.37
527.44	1123.69
527.79	1130.48
528.15	1123.93
528.51	1128.61
528.86	1130.71
529.22	1122.75
529.58	1129.78
529.93	1131.65
530.29	1140.31
530.65	1137.73
531.00	1133.76
531.36	1124.16
531.71	1129.07
532.07	1107.78
532.43	1110.35
532.78	1114.33
533.14	1115.97
533.49	1119.95
533.85	1127.44
534.21	1123.46
534.56	1128.37
534.92	1130.01
535.27	1112.22
535.63	1119.01
535.98	1130.01
536.34	1127.44
536.69	1128.37
537.05	1132.82
537.41	1128.14
537.76	1120.88
538.12	1120.88
538.47	1112.69
538.83	1110.35
539.18	1104.97
539.54	1110.12
539.89	1116.90
540.25	1120.88
540.60	1130.24
540.96	1135.16
541.31	1135.86
541.67	1124.39
542.02	1123.46
542.38	1115.03
542.73	1112.69
543.09	1104.50
543.44	1109.88
543.80	1106.84
544.15	1110.58
544.51	1111.29
544.86	1114.56
545.22	1111.75
545.57	1114.56
545.93	1119.24
546.28	1125.33
546.64	1121.12
546.99	1125.33
547.35	1129.07
547.70	1123.93
548.05	1112.69
548.41	1102.86
548.76	1086.24
549.12	1076.88
549.47	1072.43
549.83	1076.18
550.18	1085.31
550.53	1092.33
550.89	1096.78
551.24	1098.65
551.60	1104.03
551.95	1097.01
552.30	1101.69
552.66	1112.92
553.01	1112.46
553.37	1107.31
553.72	1116.90
554.07	1104.97
554.43	1092.09
554.78	1085.31
555.13	1081.33
555.49	1077.11
555.84	1091.16
556.19	1102.16
556.55	1109.18
556.90	1109.88
557.26	1114.10
557.61	1111.99
557.96	1097.48
558.32	1096.54
558.67	1094.67
559.02	1090.69
559.37	1081.09
559.73	1081.80
560.08	1080.39
560.43	1082.03
560.79	1083.43
561.14	1101.22
561.49	1104.50
561.85	1096.31
562.20	1098.18
562.55	1100.99
562.90	1088.82
563.26	1095.37
563.61	1107.07
563.96	1109.41
564.32	1116.90
564.67	1109.65
565.02	1111.52
565.37	1113.63
565.73	1109.65
566.08	1092.80
566.43	1090.22
566.78	1079.69
567.14	1078.28
567.49	1085.77
567.84	1090.22
568.19	1101.22
568.54	1103.33
568.90	1096.78
569.25	1089.29
569.60	1094.20
569.95	1090.22
570.31	1099.35
570.66	1100.99
571.01	1108.01
571.36	1109.18
571.71	1115.73
572.06	1111.52
572.42	1113.16
572.77	1114.56
573.12	1107.07
573.47	1110.58
573.82	1096.78
574.18	1101.92
574.53	1097.48
574.88	1100.05
575.23	1091.39
575.58	1099.12
575.93	1101.69
576.28	1096.07
576.64	1095.84
576.99	1097.48
577.34	1107.78
577.69	1096.54
578.04	1099.12
578.39	1092.80
578.74	1080.39
579.09	1068.92
579.44	1071.97
579.80	1075.01
580.15	1085.54
580.50	1097.71
580.85	1096.54
581.20	1097.48
581.55	1091.63
581.90	1086.71
582.25	1090.46
582.60	1093.50
582.95	1093.73
583.30	1097.24
583.65	1092.33
584.00	1081.56
584.35	1071.03
584.71	1071.26
585.06	1077.11
585.41	1081.33
585.76	1094.67
586.11	1106.61
586.46	1105.67
586.81	1097.71
587.16	1095.37
587.51	1079.69
587.86	1082.26
588.21	1085.54
588.56	1088.82
588.91	1089.52
589.26	1101.69
589.61	1097.95
589.96	1101.69
590.31	1108.48
590.66	1111.52
591.01	1113.86
591.36	1112.22
591.71	1109.65
592.06	1106.84
592.41	1107.54
592.76	1106.37
593.10	1107.31
593.45	1109.18
593.80	1108.24
594.15	1098.88
594.50	1097.95
594.85	1103.33
595.20	1096.54
595.55	1093.73
595.90	1102.16
596.25	1093.03
596.60	1084.84
596.95	1075.01
597.30	1066.11
597.64	1121.35
597.99	1126.97
598.34	1125.33
598.69	1137.27
599.04	1134.22
599.39	1086.48
599.74	1093.73
600.09	1103.56
600.44	1119.24
600.78	1124.63
601.13	1115.03
601.48	1119.01
601.83	1108.71
602.18	1093.26
602.53	1094.43
602.88	1098.18
603.22	1075.71
603.57	1079.22
603.92	1076.18
604.27	1078.99
604.62	1078.99
604.97	1091.63
605.31	1103.56
605.66	1105.44
606.01	1104.26
606.36	1106.61
606.71	1108.01
607.05	1088.35
607.40	1093.50
607.75	1083.43
608.10	1088.35
608.44	1089.75
608.79	1098.18
609.14	1103.09
609.49	1119.71
609.84	1116.67
610.18	1115.73
610.53	1113.63
610.88	1107.31
611.23	1111.52
611.57	1107.31
611.92	1105.90
612.27	1111.52
612.62	1111.29
612.96	1108.01
613.31	1108.48
613.66	1103.56
614.00	1102.39
614.35	1092.80
614.70	1087.88
615.05	1088.35
615.39	1092.80
615.74	1093.50
616.09	1098.65
616.43	1103.33
616.78	1106.14
617.13	1102.86
617.47	1103.56
617.82	1106.37
618.17	1096.54
618.51	1084.14
618.86	1091.39
619.21	1085.07
619.55	1083.67
619.90	1089.29
620.25	1102.86
620.59	1104.97
620.94	1109.88
621.29	1109.65
621.63	1111.99
621.98	1104.50
622.32	1103.56
622.67	1103.33
623.02	1105.44
623.36	1103.56
623.71	1104.26
624.05	1089.05
624.40	1086.94
624.75	1086.48
625.09	1089.99
625.44	1091.63
625.78	1103.09
626.13	1099.12
626.48	1098.65
626.82	1088.12
627.17	1082.73
627.51	1076.65
627.86	1085.31
628.20	1086.24
628.55	1081.80
628.89	1084.14
629.24	1081.09
629.58	1075.01
629.93	1077.82
630.28	1078.99
630.62	1083.67
630.97	1085.77
631.31	1086.94
631.66	1083.90
632.00	1085.07
632.35	1093.73
632.69	1095.84
633.04	1086.24
633.38	1083.90
633.73	1080.16
634.07	1071.03
634.42	1068.92
634.76	1080.63
635.11	1078.52
635.45	1090.46
635.79	1088.82
636.14	1104.03
636.48	1098.65
636.83	1104.50
637.17	1097.71
637.52	1093.03
637.86	1082.50
638.21	1085.77
638.55	1084.60
638.89	1076.88
639.24	1076.88
639.58	1071.97
639.93	1073.14
640.27	1073.37
640.61	1077.82
640.96	1087.18
641.30	1089.99
641.65	1082.73
641.99	1078.28
642.33	1079.69
642.68	1070.80
643.02	1067.99
643.37	1071.97
643.71	1074.07
644.05	1069.86
644.40	1073.60
644.74	1069.62
645.08	1067.52
645.43	1068.45
645.77	1079.69
646.11	1081.09
646.46	1091.39
646.80	1098.18
647.14	1093.50
647.49	1088.35
647.83	1082.50
648.17	1088.35
648.52	1082.50
648.86	1089.99
649.20	1083.20
649.55	1080.39
649.89	1071.73
650.23	1082.03
650.57	1081.80
650.92	1086.01
651.26	1092.33
651.60	1086.01
651.95	1080.39
652.29	1068.92
652.63	1069.16
652.97	1068.92
653.32	1077.11
653.66	1077.35
654.00	1078.05
654.34	1093.50
654.69	1097.24
655.03	1088.58
655.37	1083.90
655.71	1074.54
656.05	1077.82
656.40	1078.28
656.74	1080.16
657.08	1082.50
657.42	1097.71
657.76	1093.26
658.11	1095.37
658.45	1100.99
658.79	1096.54
659.13	1093.26
659.47	1086.71
659.82	1083.43
660.16	1081.56
660.50	1082.26
660.84	1088.35
661.18	1083.20
661.52	1076.65
661.87	1074.07
662.21	1079.92
662.55	1071.26
662.89	1081.33
663.23	1090.46
663.57	1095.37
663.91	1097.95
664.25	1103.56
664.60	1086.71
664.94	1082.26
665.28	1071.73
665.62	1073.60
665.96	1072.20
666.30	1077.11
666.64	1070.09
666.98	1079.22
667.32	1074.31
667.66	1075.94
668.01	1079.22
668.35	1076.18
668.69	1074.77
669.03	1077.82
669.37	1074.77
669.71	1070.80
670.05	1077.58
670.39	1077.82
670.73	1073.14
671.07	1073.14
671.41	1077.58
671.75	1079.22
672.09	1070.33
672.43	1067.52
672.77	1068.69
673.11	1068.45
673.45	1075.94
673.79	1082.03
674.13	1081.56
674.47	1085.31
674.81	1078.52
675.15	1077.82
675.49	1079.69
675.83	1078.05
676.17	1077.82
676.51	1097.71
676.85	1091.86
677.19	1093.97
677.53	1102.16
677.87	1101.69
678.21	1090.92
678.55	1093.73
678.89	1094.90
679.23	1083.67
679.57	1086.24
679.90	1086.24
680.24	1071.50
680.58	1055.11
680.92	1061.43
681.26	1056.05
681.60	1056.05
681.94	1068.92
682.28	1083.90
682.62	1089.52
682.96	1089.52
683.29	1093.26
683.63	1097.48
683.97	1101.69
684.31	1093.97
684.65	1096.31
684.99	1089.05
685.33	1078.75
685.67	1074.54
686.00	1079.22
686.34	1079.69
686.68	1082.97
687.02	1079.69
687.36	1080.63
687.70	1076.65
688.03	1077.35
688.37	1076.41
688.71	1083.43
689.05	1079.22
689.39	1084.84
689.72	1083.43
690.06	1087.41
690.40	1088.12
690.74	1094.90
691.08	1093.03
691.41	1090.22
691.75	1082.73
692.09	1082.26
692.43	1083.90
692.76	1090.92
693.10	1100.05
693.44	1107.54
693.78	1096.78
694.11	1088.12
694.45	1084.60
694.79	1079.69
695.13	1074.77
695.46	1100.99
695.80	1107.78
696.14	1110.12
696.48	1099.58
696.81	1108.95
697.15	1086.71
697.49	1091.39
697.82	1083.43
698.16	1093.03
698.50	1089.29
698.83	1097.01
699.17	1083.90
699.51	1090.22
699.84	1091.86
700.18	1094.20
700.52	1099.58
700.85	1114.56
701.19	1110.12
701.53	1111.75
701.86	1110.35
702.20	1104.73
702.54	1099.35
702.87	1104.50
703.21	1092.33
703.55	1089.52
703.88	1095.84
704.22	1089.05
704.55	1078.75
704.89	1085.07
705.23	1085.77
705.56	1077.35
705.90	1081.80
706.23	1085.31
706.57	1079.69
706.91	1077.82
707.24	1067.99
707.58	1065.88
707.91	1070.80
708.25	1085.77
708.58	1083.90
708.92	1099.12
709.26	1094.43
709.59	1093.73
709.93	1083.43
710.26	1083.67
710.60	1081.09
710.93	1079.22
711.27	1077.11
711.60	1077.58
711.94	1076.18
712.27	1072.67
712.61	1073.84
712.94	1069.39
713.28	1071.50
713.61	1072.43
713.95	1070.80
714.28	1084.84
714.62	1094.20
714.95	1097.24
715.29	1098.88
715.62	1112.92
715.96	1104.50
716.29	1092.09
716.63	1091.16
716.96	1086.94
717.29	1075.94
717.63	1082.26
717.96	1092.33
718.30	1087.88
718.63	1091.63
718.97	1083.20
719.30	1079.69
719.63	1082.97
719.97	1092.80
720.30	1084.84
720.64	1091.39
720.97	1089.05
721.30	1087.88
721.64	1091.16
721.97	1097.95
722.31	1106.14
722.64	1102.63
722.97	1104.50
723.31	1094.20
723.64	1095.14
723.97	1094.20
724.31	1100.52
724.64	1100.75
724.98	1103.09
725.31	1102.63
725.64	1093.50
725.98	1087.18
726.31	1074.54
726.64	1069.16
726.97	1066.11
727.31	1071.73
727.64	1074.77
727.97	1082.50
728.31	1089.05
728.64	1090.92
728.97	1087.65
729.31	1084.14
729.64	1082.26
729.97	1065.18
730.30	1062.14
730.64	1067.52
730.97	1070.56
731.30	1072.43
731.63	1080.63
731.97	1082.97
732.30	1076.65
732.63	1079.69
732.96	1081.56
733.30	1088.12
733.63	1084.84
733.96	1086.94
734.29	1083.43
734.63	1071.97
734.96	1069.39
735.29	1080.39
735.62	1077.11
735.95	1072.43
736.29	1071.73
736.62	1079.69
736.95	1078.99
737.28	1091.39
737.61	1095.84
737.94	1100.75
738.28	1099.82
738.61	1089.99
738.94	1083.90
739.27	1079.46
739.60	1084.37
739.93	1075.71
740.27	1087.88
740.60	1085.54
740.93	1095.60
741.26	1097.24
741.59	1092.09
741.92	1082.73
742.25	1081.80
742.58	1075.71
742.91	1069.39
743.25	1084.37
743.58	1087.65
743.91	1087.65
744.24	1080.16
744.57	1073.84
744.90	1067.28
745.23	1071.26
745.56	1065.18
745.89	1067.52
746.22	1071.97
746.55	1062.37
746.88	1060.50
747.21	1070.56
747.54	1069.39
747.87	1073.37
748.20	1079.22
748.53	1072.90
748.87	1068.45
749.20	1069.62
749.53	1070.56
749.86	1071.50
750.19	1074.77
750.52	1076.41
750.85	1089.29
751.18	1085.77
751.51	1097.01
751.84	1090.92
752.16	1083.20
752.49	1072.43
752.82	1074.77
753.15	1053.01
753.48	1061.20
753.81	1066.11
754.14	1075.71
754.47	1075.71
754.80	1084.37
755.13	1072.20
755.46	1071.03
755.79	1064.48
756.12	1064.71
756.45	1066.11
756.78	1068.92
757.11	1066.35
757.43	1067.05
757.76	1074.54
758.09	1069.62
758.42	1070.80
758.75	1073.14
759.08	1073.14
759.41	1062.60
759.74	1062.14
760.07	1073.60
760.39	1073.14
760.72	1066.82
761.05	1064.94
761.38	1066.35
761.71	1054.65
762.04	1048.33
762.36	1052.54
762.69	1056.05
763.02	1063.07
763.35	1066.82
763.68	1077.35
764.01	1081.33
764.33	1081.09
764.66	1067.05
764.99	1072.43
765.32	1068.45
765.65	1064.48
765.97	1055.82
766.30	1071.50
766.63	1065.65
766.96	1070.33
767.28	1072.67
767.61	1076.88
767.94	1073.84
768.27	1083.90
768.59	1075.94
768.92	1071.97
769.25	1075.94
769.58	1074.31
769.90	1064.01
770.23	1070.56
770.56	1080.39
770.89	1088.35
771.21	1089.99
771.54	1087.65
771.87	1082.73
772.19	1074.31
772.52	1055.58
772.85	1056.52
773.17	1061.43
773.50	1074.77
773.83	1083.67
774.15	1098.18
774.48	1099.12
774.81	1099.35
775.13	1086.71
775.46	1078.52
775.79	1073.84
776.11	1075.71
776.44	1074.31
776.77	1074.31
777.09	1079.22
777.42	1086.24
777.74	1083.43
778.07	1087.65
778.40	1091.63
778.72	1099.82
779.05	1104.97
779.37	1102.39
779.70	1093.73
780.03	1094.67
780.35	1088.58
780.68	1075.71
781.00	1085.54
781.33	1083.43
781.65	1088.35
781.98	1075.48
782.31	1081.09
782.63	1065.18
782.96	1071.73
783.28	1054.88
783.61	1062.14
783.93	1061.67
784.26	1067.52
784.58	1063.07
784.91	1079.22
785.23	1076.88
785.56	1069.39
785.88	1058.86
786.21	1056.05
786.53	1044.11
786.86	1045.52
787.18	1052.77
787.51	1066.35
787.83	1077.11
788.16	1077.58
788.48	1080.86
788.81	1078.99
789.13	1085.31
789.46	1082.03
789.78	1087.18
790.10	1078.05
790.43	1077.58
790.75	1070.33
791.08	1068.69
791.40	1074.31
791.73	1074.54
792.05	1070.56
792.37	1067.99
792.70	1073.60
793.02	1068.69
793.35	1073.60
793.67	1078.52
793.99	1082.97
794.32	1078.52
794.64	1081.80
794.96	1081.56
795.29	1087.88
795.61	1082.50
795.93	1083.67
796.26	1078.28
796.58	1079.92
796.91	1063.54
797.23	1067.99
797.55	1066.82
797.87	1070.09
798.20	1080.39
798.52	1074.31
798.84	1072.20
799.17	1075.24
799.49	1078.52
799.81	1065.18
800.14	1082.26
800.46	1084.60
800.78	1082.26
801.10	1075.01
801.43	1086.48
801.75	1090.46
802.07	1090.46
802.40	1094.43
802.72	1095.37
803.04	1082.26
803.36	1078.99
803.69	1071.03
804.01	1057.22
804.33	1058.16
804.65	1069.39
804.97	1064.94
805.30	1070.80
805.62	1070.80
805.94	1075.24
806.26	1065.88
806.58	1064.71
806.91	1064.94
807.23	1073.14
807.55	1069.62
807.87	1065.18
808.19	1075.24
808.52	1077.58
808.84	1067.52
809.16	1067.99
809.48	1078.28
809.80	1069.62
810.12	1056.52
810.44	1070.33
810.77	1071.26
811.09	1063.31
811.41	1060.73
811.73	1071.73
812.05	1069.39
812.37	1076.41
812.69	1084.60
813.01	1093.97
813.33	1091.16
813.66	1085.77
813.98	1071.50
814.30	1064.71
814.62	1067.05
814.94	1074.31
815.26	1066.82
815.58	1068.69
815.90	1067.75
816.22	1062.37
816.54	1051.37
816.86	1078.75
817.18	1084.14
817.50	1084.37
817.82	1087.65
818.14	1098.41
818.46	1079.22
818.78	1076.65
819.10	1084.60
819.42	1083.90
819.74	1086.24
820.06	1085.07
820.38	1079.69
820.70	1075.24
821.02	1063.07
821.34	1055.11
821.66	1063.31
821.98	1073.14
822.30	1077.82
822.62	1089.05
822.94	1096.31
823.26	1089.05
823.58	1090.46
823.90	1098.65
824.22	1090.69
824.54	1084.14
824.86	1085.54
825.18	1089.29
825.50	1075.71
825.81	1078.99
826.13	1081.33
826.45	1083.43
826.77	1089.29
827.09	1094.43
827.41	1094.67
827.73	1079.46
828.05	1082.03
828.36	1071.50
828.68	1061.90
829.00	1061.67
829.32	1067.28
829.64	1063.31
829.96	1060.03
830.28	1071.97
830.59	1062.60
830.91	1075.01
831.23	1075.71
831.55	1075.48
831.87	1065.18
832.19	1068.22
832.50	1056.99
832.82	1060.96
833.14	1072.20
833.46	1082.03
833.78	1089.29
834.09	1097.95
834.41	1096.54
834.73	1082.73
835.05	1067.99
835.36	1070.80
835.68	1064.94
836.00	1064.24
836.32	1067.05
836.63	1076.65
836.95	1076.41
837.27	1080.63
837.59	1090.46
837.90	1089.52
838.22	1084.84
838.54	1086.94
838.85	1088.35
839.17	1095.60
839.49	1100.05
839.80	1109.88
840.12	1108.48
840.44	1108.71
840.76	1094.20
841.07	1087.88
841.39	1088.58
841.71	1085.07
842.02	1088.58
842.34	1084.84
842.65	1086.48
842.97	1082.73
843.29	1085.54
843.60	1085.07
843.92	1080.39
844.24	1078.52
844.55	1073.37
844.87	1071.03
845.18	1066.11
845.50	1074.07
845.82	1077.58
846.13	1087.88
846.45	1091.39
846.76	1086.48
847.08	1081.80
847.40	1080.86
847.71	1074.54
848.03	1075.94
848.34	1077.58
848.66	1085.31
848.97	1083.90
849.29	1083.43
849.60	1075.48
849.92	1075.94
850.24	1072.67
850.55	1064.48
850.87	1065.41
851.18	1074.07
851.50	1077.11
851.81	1074.77
852.13	1091.63
852.44	1101.69
852.76	1090.69
853.07	1083.67
853.39	1085.31
853.70	1079.46
854.01	1066.82
854.33	1071.73
854.64	1079.92
854.96	1086.94
855.27	1083.90
855.59	1086.94
855.90	1080.16
856.22	1080.39
856.53	1068.69
856.84	1066.11
857.16	1064.01
857.47	1066.58
857.79	1061.90
858.10	1072.43
858.41	1078.28
858.73	1081.33
859.04	1087.65
859.36	1089.99
859.67	1081.80
859.98	1078.75
860.30	1068.69
860.61	1071.50
860.92	1082.03
861.24	1091.86
861.55	1089.99
861.87	1101.22
862.18	1098.88
862.49	1085.77
862.81	1074.07
863.12	1080.86
863.43	1081.80
863.74	1075.94
864.06	1072.67
864.37	1070.56
864.68	1063.54
865.00	1060.26
865.31	1062.37
865.62	1071.03
865.94	1077.11
866.25	1087.18
866.56	1082.26
866.87	1087.65
867.19	1083.67
867.50	1082.73
867.81	1078.52
868.12	1080.63
868.44	1081.80
868.75	1085.31
869.06	1086.01
869.37	1081.56
869.68	1078.75
870.00	1073.37
870.31	1067.28
870.62	1074.54
870.93	1070.80
871.24	1073.37
871.56	1075.24
871.87	1065.65
872.18	1058.39
872.49	1061.43
872.80	1065.65
873.12	1065.18
873.43	1077.11
873.74	1081.80
874.05	1084.37
874.36	1086.24
874.67	1078.28
874.98	1083.90
875.29	1073.60
875.61	1079.69
875.92	1082.26
876.23	1093.03
876.54	1099.82
876.85	1105.90
877.16	1106.84
877.47	1095.14
877.78	1091.16
878.09	1075.01
878.40	1073.84
878.72	1068.45
879.03	1070.80
879.34	1065.41
879.65	1069.39
879.96	1072.90
880.27	1069.39
880.58	1078.52
880.89	1075.24
881.20	1077.11
881.51	1067.99
881.82	1064.24
882.13	1053.94
882.44	1058.39
882.75	1060.50
883.06	1067.28
883.37	1064.71
883.68	1078.28
883.99	1077.82
884.30	1086.01
884.61	1093.73
884.92	1098.18
885.23	1085.77
885.54	1085.07
885.85	1086.01
886.16	1076.41
886.47	1092.09
886.78	1097.95
887.08	1104.03
887.39	1087.65
887.70	1087.88
888.01	1080.63
888.32	1081.56
888.63	1081.09
888.94	1086.48
889.25	1091.16
889.56	1083.43
889.87	1079.46
890.17	1078.28
890.48	1084.14
890.79	1078.52
891.10	1077.82
891.41	1077.58
891.72	1082.26
892.03	1076.65
892.34	1082.26
892.64	1099.12
892.95	1100.99
893.26	1096.07
893.57	1093.26
893.88	1085.31
894.18	1070.33
894.49	1072.90
894.80	1083.67
895.11	1078.52
895.42	1075.01
895.72	1079.22
896.03	1081.56
896.34	1074.07
896.65	1078.75
896.96	1085.77
897.26	1084.60
897.57	1078.52
897.88	1076.65
898.19	1079.46
898.49	1091.39
898.80	1090.46
899.11	1085.07
899.41	1078.99
899.72	1077.35
900.03	1068.22
900.34	1065.65
900.64	1071.03
900.95	1076.88
901.26	1080.16
901.56	1073.84
901.87	1078.75
902.18	1075.94
902.48	1064.71
902.79	1064.24
903.10	1061.43
903.40	1060.03
903.71	1062.84
904.02	1080.16
904.32	1080.63
904.63	1089.05
904.94	1084.37
905.24	1081.56
905.55	1074.31
905.85	1067.99
906.16	1065.41
906.47	1071.50
906.77	1069.86
907.08	1078.75
907.38	1089.75
907.69	1076.65
908.00	1077.35
908.30	1079.92
908.61	1069.39
908.91	1071.97
909.22	1088.12
909.52	1084.14
909.83	1084.60
910.14	1088.35
910.44	1081.80
910.75	1086.48
911.05	1091.86
911.36	1097.95
911.66	1096.54
911.97	1090.46
912.27	1083.67
912.58	1086.71
912.88	1083.20
913.19	1082.50
913.49	1088.12
913.80	1083.20
914.10	1071.97
914.41	1069.62
914.71	1066.11
915.01	1074.31
915.32	1078.05
915.62	1091.16
915.93	1093.03
916.23	1090.69
916.54	1081.80
916.84	1081.80
917.15	1063.77
917.45	1070.33
917.75	1085.07
918.06	1091.63
918.36	1091.86
918.67	1098.18
918.97	1086.71
919.27	1069.39
919.58	1062.37
919.88	1064.01
920.18	1065.18
920.49	1073.84
920.79	1081.33
921.10	1075.01
921.40	1080.39
921.70	1085.54
922.01	1073.37
922.31	1088.12
922.61	1093.50
922.92	1091.86
923.22	1096.07
923.52	1103.56
923.82	1085.07
924.13	1087.88
924.43	1094.43
924.73	1085.77
925.04	1091.16
925.34	1086.24
925.64	1077.82
925.94	1065.41
926.25	1068.92
926.55	1059.79
926.85	1071.26
927.15	1077.11
927.46	1078.28
927.76	1071.03
928.06	1068.69
928.36	1068.22
928.67	1075.94
928.97	1078.75
929.27	1083.90
929.57	1087.88
929.87	1094.43
930.18	1090.22
930.48	1085.54
930.78	1094.20
931.08	1106.61
931.38	1093.97
931.69	1093.03
931.99	1097.01
932.29	1083.43
932.59	1073.60
932.89	1078.99
933.19	1076.41
933.49	1068.22
933.80	1077.58
934.10	1073.37
934.40	1072.20
934.70	1073.37
935.00	1080.86
935.30	1082.50
935.60	1092.56
935.90	1094.90
936.20	1099.35
936.50	1108.48
936.81	1098.41
937.11	1097.48
937.41	1093.50
937.71	1092.80
938.01	1087.88
938.31	1099.58
938.61	1099.12
938.91	1113.39
939.21	1106.84
939.51	1097.95
939.81	1096.07
940.11	1091.39
940.41	1077.35
940.71	1085.07
941.01	1088.82
941.31	1070.09
941.61	1070.80
941.91	1071.73
942.21	1063.54
942.51	1063.31
942.81	1069.86
943.11	1067.05
943.41	1073.37
943.71	1083.43
944.01	1083.67
944.31	1086.01
944.61	1084.37
944.90	1080.63
945.20	1073.37
945.50	1066.35
945.80	1075.94
946.10	1085.07
946.40	1086.94
946.70	1095.14
947.00	1099.12
947.30	1090.92
947.60	1086.24
947.89	1089.75
948.19	1077.35
948.49	1081.56
948.79	1093.03
949.09	1094.90
949.39	1085.31
949.69	1080.86
949.98	1083.43
950.28	1064.48
950.58	1060.26
950.88	1071.50
951.18	1088.12
951.48	1077.35
951.77	1089.52
952.07	1084.60
952.37	1080.86
952.67	1072.43
952.97	1083.20
953.26	1073.60
953.56	1077.58
953.86	1074.31
954.16	1085.31
954.45	1078.52
954.75	1087.65
955.05	1086.01
955.35	1085.31
955.64	1074.54
955.94	1066.11
956.24	1060.50
956.54	1064.24
956.83	1072.20
957.13	1077.82
957.43	1087.18
957.72	1096.31
958.02	1095.14
958.32	1089.52
958.61	1072.67
958.91	1068.22
959.21	1061.67
959.50	1055.58
959.80	1051.60
960.10	1063.31
960.39	1078.52
960.69	1085.54
960.99	1092.56
961.28	1098.65
961.58	1102.63
961.87	1105.44
962.17	1101.22
962.47	1105.20
962.76	1100.52
963.06	1100.99
963.36	1092.80
963.65	1096.31
963.95	1097.24
964.24	1099.58
964.54	1102.86
964.83	1105.44
965.13	1105.67
965.42	1099.35
965.72	1093.97
966.02	1082.26
966.31	1071.97
966.61	1065.18
966.90	1060.26
967.20	1066.11
967.49	1075.01
967.79	1076.41
968.08	1077.58
968.38	1084.60
968.67	1083.90
968.97	1079.92
969.26	1088.12
969.56	1081.33
969.85	1071.97
970.15	1074.77
970.44	1078.75
970.74	1072.67
971.03	1072.20
971.32	1077.11
971.62	1075.94
971.91	1076.18
972.21	1081.56
972.50	1089.75
972.80	1088.12
973.09	1084.37
973.38	1077.58
973.68	1072.67
973.97	1074.77
974.27	1079.46
974.56	1086.48
974.85	1092.80
975.15	1097.48
975.44	1087.88
975.73	1086.94
976.03	1078.28
976.32	1073.37
976.61	1074.77
976.91	1085.54
977.20	1090.69
977.49	1097.01
977.79	1095.60
978.08	1090.22
978.37	1080.86
978.67	1078.99
978.96	1078.99
979.25	1077.35
979.55	1083.20
979.84	1091.63
980.13	1089.05
980.42	1079.92
980.72	1079.46
981.01	1066.11
981.30	1062.84
981.59	1072.67
981.89	1078.28
982.18	1082.50
982.47	1087.41
982.76	1095.14
983.06	1089.29
983.35	1084.14
983.64	1079.92
983.93	1086.94
984.22	1079.22
984.52	1080.63
984.81	1081.80
985.10	1087.88
985.39	1083.67
985.68	1087.41
985.97	1085.31
986.27	1083.20
986.56	1082.50
986.85	1083.20
987.14	1082.50
987.43	1081.56
987.72	1085.31
988.01	1082.26
988.31	1078.75
988.60	1079.22
988.89	1072.90
989.18	1077.35
989.47	1067.28
989.76	1067.99
990.05	1065.88
990.34	1067.52
990.63	1067.28
990.92	1079.92
991.21	1079.22
991.51	1083.90
991.80	1093.97
992.09	1092.09
992.38	1095.14
992.67	1101.92
992.96	1100.75
993.25	1093.97
993.54	1101.92
993.83	1088.82
994.12	1093.50
994.41	1092.09
994.70	1097.95
994.99	1100.52
995.28	1120.88
995.57	1100.29
995.86	1095.60
996.15	1096.78
996.44	1085.07
996.73	1071.26
997.02	1086.01
997.31	1087.41
997.59	1084.14
997.88	1089.99
998.17	1091.86
998.46	1085.54
998.75	1085.31
999.04	1076.18
999.33	1074.31
999.62	1081.09
999.91	1077.58
1000.20	1081.56
1000.49	1090.92
1000.77	1090.46
1001.06	1079.22
1001.35	1092.09
1001.64	1094.67
1001.93	1091.86
1002.22	1081.33
1002.51	1082.26
1002.79	1072.90
1003.08	1070.56
1003.37	1073.84
1003.66	1082.26
1003.95	1086.94
1004.23	1089.99
1004.52	1080.63
1004.81	1074.54
1005.10	1078.52
1005.39	1079.22
1005.67	1079.92
1005.96	1075.24
1006.25	1079.69
1006.54	1077.35
1006.83	1066.11
1007.11	1062.60
1007.40	1077.11
1007.69	1072.67
1007.97	1070.09
1008.26	1077.35
1008.55	1090.22
1008.84	1080.63
1009.12	1086.24
1009.41	1084.60
1009.70	1082.26
1009.98	1077.82
1010.27	1083.20
1010.56	1081.33
1010.85	1090.69
1011.13	1095.60
1011.42	1083.67
1011.71	1090.69
1011.99	1091.63
1012.28	1084.60
1012.56	1087.41
1012.85	1097.48
1013.14	1091.39
1013.42	1084.14
1013.71	1087.65
1014.00	1085.07
1014.28	1088.58
1014.57	1087.18
1014.85	1093.50
1015.14	1087.88
1015.43	1098.88
1015.71	1093.50
1016.00	1092.56
1016.28	1093.03
1016.57	1094.20
1016.85	1091.16
1017.14	1092.80
1017.43	1102.39
1017.71	1101.92
1018.00	1102.16
1018.28	1097.71
1018.57	1088.12
1018.85	1074.07
1019.14	1076.41
1019.42	1071.50
1019.71	1066.11
1019.99	1070.33
1020.28	1072.67
1020.56	1064.71
1020.85	1069.86
1021.13	1074.31
1021.42	1079.46
1021.70	1091.39
1021.99	1095.84
1022.27	1094.67
1022.55	1086.01
1022.84	1074.31
>>>>>End Processed Spectral Data<<<<<
