SpectraSuite Data File
++++++++++++++++++++++++++++++++++++
Date: Mon Aug 26 10:24:53 PDT 2019
User: corrico
Dark Spectrum Present: No
Reference Spectrum Present: No
Number of Sampled Component Spectra: 1
Spectrometers: USB2+H06089
Integration Time (usec): 10000 (USB2+H06089)
Spectra Averaged: 2 (USB2+H06089)
Boxcar Smoothing: 2 (USB2+H06089)
Correct for Electrical Dark: No (USB2+H06089)
Strobe/Lamp Enabled: No (USB2+H06089)
Correct for Detector Non-linearity: No (USB2+H06089)
Correct for Stray Light: No (USB2+H06089)
Number of Pixels in Processed Spectrum: 2048
>>>>>Begin Processed Spectral Data<<<<<
339.70	1039.20
340.07	1039.20
340.45	997.54
340.82	972.02
341.19	945.81
341.57	927.09
341.94	917.49
342.31	908.60
342.69	906.72
343.06	909.53
343.43	909.77
343.81	910.47
344.18	910.00
344.55	918.66
344.93	916.32
345.30	902.04
345.67	916.32
346.04	924.04
346.42	925.45
346.79	936.45
347.16	970.39
347.54	978.11
347.91	1004.09
348.28	1017.90
348.65	1035.92
349.03	1032.18
349.40	1031.94
349.77	1031.47
350.14	1033.81
350.52	1031.47
350.89	1042.24
351.26	1058.86
351.63	1068.69
352.01	1076.41
352.38	1086.48
352.75	1091.39
353.12	1082.50
353.50	1077.82
353.87	1082.03
354.24	1082.03
354.61	1073.14
354.98	1080.16
355.36	1073.37
355.73	1071.26
356.10	1076.41
356.47	1086.71
356.84	1086.94
357.22	1101.46
357.59	1112.22
357.96	1105.67
358.33	1096.31
358.70	1104.73
359.08	1091.86
359.45	1082.50
359.82	1084.37
360.19	1085.31
360.56	1079.22
360.94	1087.18
361.31	1080.86
361.68	1075.94
362.05	1078.99
362.42	1076.18
362.79	1083.67
363.16	1086.71
363.54	1092.09
363.91	1088.12
364.28	1086.01
364.65	1083.20
365.02	1081.09
365.39	1076.18
365.76	1070.33
366.14	1075.24
366.51	1071.50
366.88	1071.03
367.25	1086.24
367.62	1096.07
367.99	1095.60
368.36	1096.31
368.73	1107.07
369.10	1091.63
369.48	1092.33
369.85	1086.01
370.22	1089.52
370.59	1081.56
370.96	1082.03
371.33	1082.73
371.70	1087.88
372.07	1092.09
372.44	1097.24
372.81	1092.09
373.18	1093.03
373.55	1086.94
373.93	1084.37
374.30	1076.41
374.67	1079.22
375.04	1076.18
375.41	1082.03
375.78	1084.14
376.15	1093.26
376.52	1103.80
376.89	1108.48
377.26	1113.63
377.63	1100.29
378.00	1098.88
378.37	1094.67
378.74	1084.37
379.11	1078.75
379.48	1075.71
379.85	1076.65
380.22	1080.39
380.59	1086.24
380.96	1080.16
381.33	1094.20
381.70	1087.18
382.07	1088.58
382.44	1086.01
382.81	1086.24
383.18	1079.46
383.55	1091.39
383.92	1085.07
384.29	1095.84
384.66	1094.20
385.03	1104.03
385.40	1109.65
385.77	1107.07
386.14	1107.07
386.51	1122.75
386.88	1101.69
387.25	1084.14
387.62	1095.84
387.99	1096.07
388.36	1095.84
388.73	1114.80
389.10	1129.54
389.46	1133.29
389.83	1136.33
390.20	1130.95
390.57	1129.07
390.94	1121.35
391.31	1117.37
391.68	1106.84
392.05	1112.46
392.42	1113.16
392.79	1117.84
393.16	1113.16
393.53	1121.12
393.89	1114.33
394.26	1116.44
394.63	1111.29
395.00	1110.82
395.37	1107.54
395.74	1119.01
396.11	1116.67
396.48	1118.78
396.84	1122.52
397.21	1130.48
397.58	1125.33
397.95	1136.80
398.32	1138.67
398.69	1137.50
399.06	1136.56
399.42	1132.12
399.79	1120.41
400.16	1128.37
400.53	1120.65
400.90	1126.27
401.27	1141.01
401.64	1147.80
402.00	1147.56
402.37	1176.59
402.74	1186.65
403.11	1182.44
403.48	1193.67
403.84	1200.93
404.21	1195.55
404.58	1197.42
404.95	1207.25
405.32	1222.70
405.68	1223.63
406.05	1224.57
406.42	1239.08
406.79	1263.42
407.16	1268.57
407.52	1302.27
407.89	1330.83
408.26	1341.60
408.63	1348.85
408.99	1368.28
409.36	1383.49
409.73	1404.32
410.10	1423.98
410.47	1447.15
410.83	1487.64
411.20	1530.24
411.57	1559.03
411.94	1608.88
412.30	1653.35
412.67	1688.70
413.04	1720.53
413.40	1777.17
413.77	1834.51
414.14	1904.03
414.51	1975.41
414.87	2033.93
415.24	2093.14
415.61	2173.89
415.97	2247.38
416.34	2314.56
416.71	2407.01
417.08	2517.01
417.44	2591.68
417.81	2712.68
418.18	2830.18
418.54	2975.05
418.91	3093.02
419.28	3232.51
419.64	3357.50
420.01	3518.06
420.38	3663.64
420.74	3849.25
421.11	4050.06
421.48	4241.28
421.84	4464.81
422.21	4674.99
422.58	4898.51
422.94	5131.62
423.31	5399.15
423.68	5619.63
424.04	5881.53
424.41	6150.46
424.77	6440.45
425.14	6715.70
425.51	7045.01
425.87	7386.26
426.24	7726.81
426.61	8096.38
426.97	8577.83
427.34	8997.49
427.70	9468.64
428.07	9971.85
428.44	10488.41
428.80	10964.71
429.17	11497.18
429.53	12017.48
429.90	12598.40
430.27	13141.87
430.63	13660.07
431.00	14278.20
431.36	14964.68
431.73	15552.63
432.09	16171.46
432.46	16790.77
432.83	17417.80
433.19	17954.02
433.56	18594.62
433.92	19291.16
434.29	19935.75
434.65	20577.76
435.02	21170.61
435.38	21856.39
435.75	22337.37
436.11	22974.46
436.48	23436.49
436.84	23998.92
437.21	24370.13
437.57	24850.40
437.94	25194.70
438.30	25575.50
438.67	25750.81
439.03	25878.60
439.40	25933.84
439.76	25889.84
440.13	25796.68
440.49	25720.15
440.86	25490.31
441.22	25256.25
441.59	24920.85
441.95	24538.18
442.32	24077.56
442.68	23721.56
443.05	23216.94
443.41	22732.22
443.78	22130.23
444.14	21611.34
444.51	20963.24
444.87	20555.75
445.24	20067.05
445.60	19692.57
445.96	19178.82
446.33	18751.67
446.69	18123.47
447.06	17642.96
447.42	17146.06
447.79	16706.98
448.15	16321.73
448.51	15909.09
448.88	15527.35
449.24	15052.92
449.61	14737.18
449.97	14372.06
450.33	14057.73
450.70	13641.11
451.06	13313.20
451.43	12896.59
451.79	12518.82
452.15	12156.51
452.52	11849.90
452.88	11598.29
453.24	11350.66
453.61	11088.05
453.97	10818.66
454.34	10562.84
454.70	10306.78
455.06	10039.49
455.43	9733.35
455.79	9376.89
456.15	9062.09
456.52	8749.86
456.88	8476.72
457.24	8231.66
457.61	8058.46
457.97	7868.41
458.33	7660.34
458.70	7409.67
459.06	7165.78
459.42	6953.50
459.79	6691.12
460.15	6462.69
460.51	6251.34
460.88	6034.37
461.24	5836.36
461.60	5718.86
461.96	5546.60
462.33	5400.55
462.69	5274.87
463.05	5124.60
463.42	4962.17
463.78	4824.55
464.14	4709.16
464.50	4612.49
464.87	4511.15
465.23	4393.19
465.59	4327.42
465.95	4206.41
466.32	4098.75
466.68	4002.78
467.04	3934.44
467.40	3824.20
467.77	3765.69
468.13	3697.34
468.49	3652.64
468.85	3576.34
469.22	3513.38
469.58	3445.50
469.94	3374.12
470.30	3298.75
470.66	3234.15
471.03	3181.02
471.39	3128.83
471.75	3071.49
472.11	3020.70
472.47	2997.52
472.84	2962.18
473.20	2889.39
473.56	2847.03
473.92	2785.47
474.28	2713.38
474.65	2652.06
475.01	2638.49
475.37	2596.82
475.73	2565.93
476.09	2528.25
476.45	2491.27
476.81	2430.41
477.18	2395.07
477.54	2362.77
477.90	2350.13
478.26	2316.90
478.62	2303.32
478.98	2285.07
479.34	2258.15
479.71	2224.68
480.07	2202.91
480.43	2177.17
480.79	2143.23
481.15	2116.78
481.51	2081.20
481.87	2053.12
482.23	2029.95
482.59	2009.35
482.96	1993.20
483.32	1978.45
483.68	1951.30
484.04	1919.01
484.40	1895.83
484.76	1882.26
485.12	1862.60
485.48	1857.22
485.84	1850.19
486.20	1842.24
486.56	1809.00
486.92	1790.04
487.28	1765.23
487.64	1743.00
488.00	1711.63
488.37	1690.80
488.73	1671.61
489.09	1667.63
489.45	1657.57
489.81	1637.67
490.17	1638.14
490.53	1625.50
490.89	1604.44
491.25	1593.44
491.61	1582.20
491.97	1563.48
492.33	1550.84
492.69	1529.54
493.05	1515.50
493.41	1518.54
493.77	1514.09
494.13	1506.37
494.49	1508.01
494.85	1492.56
495.21	1469.62
495.57	1442.71
495.93	1431.94
496.29	1420.00
496.64	1410.17
497.00	1406.66
497.36	1397.77
497.72	1390.51
498.08	1372.49
498.44	1363.60
498.80	1353.77
499.16	1349.08
499.52	1328.25
499.88	1326.62
500.24	1329.89
500.60	1329.19
500.96	1317.72
501.32	1318.19
501.68	1300.64
502.03	1280.27
502.39	1268.57
502.75	1280.04
503.11	1266.00
503.47	1270.21
503.83	1275.83
504.19	1268.80
504.55	1257.34
504.91	1259.68
505.26	1265.76
505.62	1253.12
505.98	1249.38
506.34	1245.17
506.70	1232.76
507.06	1223.16
507.42	1218.72
507.78	1212.87
508.13	1201.16
508.49	1202.57
508.85	1194.84
509.21	1197.18
509.57	1203.27
509.93	1204.67
510.28	1206.78
510.64	1205.38
511.00	1198.35
511.36	1189.23
511.72	1188.06
512.07	1174.48
512.43	1166.99
512.79	1160.67
513.15	1155.76
513.51	1160.20
513.86	1168.63
514.22	1167.93
514.58	1166.52
514.94	1166.52
515.30	1152.95
515.65	1150.61
516.01	1152.01
516.37	1157.63
516.73	1159.03
517.08	1159.50
517.44	1154.12
517.80	1150.37
518.16	1147.80
518.51	1139.61
518.87	1145.69
519.23	1162.08
519.59	1166.05
519.94	1162.31
520.30	1165.82
520.66	1159.50
521.01	1148.97
521.37	1146.86
521.73	1147.80
522.09	1152.01
522.44	1156.69
522.80	1150.14
523.16	1146.63
523.51	1134.93
523.87	1127.20
524.23	1118.78
524.58	1122.29
524.94	1124.39
525.30	1131.41
525.65	1133.05
526.01	1130.48
526.37	1127.44
526.72	1122.75
527.08	1117.37
527.44	1118.31
527.79	1124.16
528.15	1116.67
528.51	1119.71
528.86	1121.82
529.22	1126.73
529.58	1115.97
529.93	1122.75
530.29	1115.73
530.65	1121.58
531.00	1116.44
531.36	1125.10
531.71	1122.52
532.07	1122.75
532.43	1124.16
532.78	1129.78
533.14	1129.31
533.49	1125.10
533.85	1130.95
534.21	1122.75
534.56	1114.10
534.92	1115.97
535.27	1110.35
535.63	1107.31
535.98	1111.99
536.34	1113.16
536.69	1103.09
537.05	1102.16
537.41	1097.71
537.76	1102.39
538.12	1105.20
538.47	1117.84
538.83	1130.01
539.18	1133.52
539.54	1126.97
539.89	1119.48
540.25	1118.54
540.60	1114.33
540.96	1105.67
541.31	1096.54
541.67	1098.41
542.02	1099.12
542.38	1093.26
542.73	1099.12
543.09	1105.90
543.44	1103.80
543.80	1106.61
544.15	1118.78
544.51	1115.03
544.86	1113.39
545.22	1110.82
545.57	1102.63
545.93	1094.67
546.28	1090.92
546.64	1090.69
546.99	1088.35
547.35	1090.22
547.70	1094.67
548.05	1108.48
548.41	1109.18
548.76	1110.35
549.12	1104.03
549.47	1107.07
549.83	1099.58
550.18	1100.75
550.53	1102.39
550.89	1099.12
551.24	1096.78
551.60	1093.03
551.95	1095.37
552.30	1091.86
552.66	1106.14
553.01	1107.07
553.37	1109.18
553.72	1113.86
554.07	1114.33
554.43	1102.86
554.78	1090.46
555.13	1086.48
555.49	1083.90
555.84	1092.56
556.19	1099.58
556.55	1114.10
556.90	1119.24
557.26	1116.67
557.61	1112.22
557.96	1105.67
558.32	1108.95
558.67	1109.41
559.02	1108.95
559.37	1107.31
559.73	1103.09
560.08	1104.50
560.43	1102.86
560.79	1104.50
561.14	1109.41
561.49	1115.97
561.85	1111.52
562.20	1122.75
562.55	1124.16
562.90	1135.16
563.26	1135.16
563.61	1125.33
563.96	1127.44
564.32	1122.99
564.67	1110.58
565.02	1108.95
565.37	1104.26
565.73	1097.01
566.08	1098.18
566.43	1093.97
566.78	1094.20
567.14	1101.22
567.49	1097.95
567.84	1095.37
568.19	1090.69
568.54	1091.86
568.90	1093.73
569.25	1096.07
569.60	1095.60
569.95	1095.37
570.31	1092.56
570.66	1094.67
571.01	1089.99
571.36	1088.82
571.71	1086.71
572.06	1094.43
572.42	1094.90
572.77	1093.03
573.12	1086.48
573.47	1086.48
573.82	1081.80
574.18	1079.46
574.53	1081.33
574.88	1085.31
575.23	1093.03
575.58	1089.99
575.93	1089.05
576.28	1095.60
576.64	1100.29
576.99	1106.61
577.34	1096.54
577.69	1092.80
578.04	1084.37
578.39	1079.92
578.74	1074.54
579.09	1086.94
579.44	1091.39
579.80	1096.78
580.15	1103.09
580.50	1096.54
580.85	1109.65
581.20	1115.73
581.55	1117.37
581.90	1106.61
582.25	1110.12
582.60	1096.78
582.95	1095.60
583.30	1086.94
583.65	1093.26
584.00	1094.67
584.35	1089.75
584.71	1092.56
585.06	1096.78
585.41	1101.92
585.76	1102.16
586.11	1112.22
586.46	1104.50
586.81	1112.22
587.16	1112.46
587.51	1122.29
587.86	1119.48
588.21	1126.50
588.56	1111.29
588.91	1093.03
589.26	1084.37
589.61	1075.71
589.96	1073.37
590.31	1073.14
590.66	1093.26
591.01	1092.33
591.36	1101.92
591.71	1093.73
592.06	1089.29
592.41	1088.82
592.76	1085.07
593.10	1083.90
593.45	1090.46
593.80	1104.97
594.15	1095.60
594.50	1100.29
594.85	1102.63
595.20	1102.63
595.55	1106.61
595.90	1102.39
596.25	1092.80
596.60	1084.84
596.95	1071.73
597.30	1067.75
597.64	1125.10
597.99	1129.78
598.34	1125.56
598.69	1135.16
599.04	1134.93
599.39	1080.86
599.74	1090.46
600.09	1100.52
600.44	1100.75
600.78	1098.41
601.13	1106.14
601.48	1106.37
601.83	1105.20
602.18	1109.65
602.53	1101.46
602.88	1089.52
603.22	1080.63
603.57	1080.16
603.92	1072.43
604.27	1075.01
604.62	1082.97
604.97	1086.24
605.31	1084.37
605.66	1087.65
606.01	1096.78
606.36	1097.48
606.71	1094.67
607.05	1088.35
607.40	1087.41
607.75	1078.28
608.10	1070.80
608.44	1065.88
608.79	1066.82
609.14	1057.69
609.49	1065.88
609.84	1074.31
610.18	1078.52
610.53	1074.31
610.88	1092.33
611.23	1093.50
611.57	1095.37
611.92	1104.97
612.27	1118.78
612.62	1108.01
612.96	1113.63
613.31	1108.24
613.66	1104.50
614.00	1097.48
614.35	1104.97
614.70	1093.97
615.05	1094.90
615.39	1087.41
615.74	1090.69
616.09	1079.22
616.43	1078.99
616.78	1075.24
617.13	1082.73
617.47	1082.73
617.82	1086.94
618.17	1089.52
618.51	1095.60
618.86	1094.43
619.21	1091.63
619.55	1098.41
619.90	1097.24
620.25	1100.05
620.59	1104.97
620.94	1102.16
621.29	1089.99
621.63	1091.86
621.98	1086.71
622.32	1079.69
622.67	1084.60
623.02	1086.01
623.36	1087.88
623.71	1083.43
624.05	1083.67
624.40	1082.73
624.75	1084.14
625.09	1076.65
625.44	1079.46
625.78	1089.99
626.13	1091.63
626.48	1104.26
626.82	1115.03
627.17	1118.07
627.51	1109.65
627.86	1107.31
628.20	1111.75
628.55	1101.46
628.89	1096.54
629.24	1095.14
629.58	1104.50
629.93	1091.86
630.28	1104.50
630.62	1106.61
630.97	1101.92
631.31	1087.18
631.66	1086.01
632.00	1066.82
632.35	1064.48
632.69	1068.45
633.04	1074.31
633.38	1067.28
633.73	1081.56
634.07	1086.24
634.42	1087.41
634.76	1086.01
635.11	1101.22
635.45	1085.31
635.79	1097.95
636.14	1092.80
636.48	1092.33
636.83	1082.26
637.17	1095.14
637.52	1081.56
637.86	1090.22
638.21	1090.22
638.55	1094.90
638.89	1096.54
639.24	1100.52
639.58	1098.18
639.93	1098.41
640.27	1093.03
640.61	1082.97
640.96	1073.14
641.30	1075.01
641.65	1069.39
641.99	1071.97
642.33	1088.12
642.68	1100.52
643.02	1097.24
643.37	1098.88
643.71	1105.44
644.05	1099.58
644.40	1093.73
644.74	1092.33
645.08	1095.14
645.43	1087.88
645.77	1093.26
646.11	1089.75
646.46	1090.46
646.80	1097.95
647.14	1090.92
647.49	1076.41
647.83	1071.26
648.17	1069.16
648.52	1057.69
648.86	1071.50
649.20	1083.20
649.55	1087.88
649.89	1099.58
650.23	1104.50
650.57	1105.67
650.92	1105.90
651.26	1104.97
651.60	1093.73
651.95	1100.75
652.29	1090.46
652.63	1069.39
652.97	1075.94
653.32	1086.01
653.66	1085.54
654.00	1089.75
654.34	1105.44
654.69	1104.03
655.03	1084.84
655.37	1074.54
655.71	1074.54
656.05	1072.43
656.40	1067.52
656.74	1075.48
657.08	1077.82
657.42	1083.43
657.76	1079.92
658.11	1082.03
658.45	1080.16
658.79	1087.88
659.13	1077.82
659.47	1084.14
659.82	1079.46
660.16	1086.94
660.50	1087.41
660.84	1091.39
661.18	1092.09
661.52	1102.16
661.87	1094.20
662.21	1094.90
662.55	1096.07
662.89	1096.07
663.23	1083.90
663.57	1089.05
663.91	1074.54
664.25	1071.26
664.60	1067.99
664.94	1089.05
665.28	1083.43
665.62	1089.05
665.96	1081.09
666.30	1074.07
666.64	1060.03
666.98	1069.16
667.32	1070.80
667.66	1081.09
668.01	1089.29
668.35	1082.50
668.69	1082.26
669.03	1085.77
669.37	1075.71
669.71	1073.37
670.05	1080.39
670.39	1080.86
670.73	1075.01
671.07	1082.97
671.41	1073.60
671.75	1075.94
672.09	1080.63
672.43	1083.90
672.77	1080.39
673.11	1090.92
673.45	1093.26
673.79	1077.82
674.13	1078.75
674.47	1090.22
674.81	1087.65
675.15	1071.97
675.49	1074.54
675.83	1062.60
676.17	1046.69
676.51	1047.62
676.85	1059.09
677.19	1058.39
677.53	1076.65
677.87	1075.48
678.21	1074.54
678.55	1074.77
678.89	1078.28
679.23	1071.73
679.57	1082.50
679.90	1080.16
680.24	1080.39
680.58	1072.90
680.92	1067.75
681.26	1065.18
681.60	1074.31
681.94	1070.56
682.28	1078.99
682.62	1083.20
682.96	1084.60
683.29	1075.48
683.63	1079.92
683.97	1086.48
684.31	1096.78
684.65	1101.69
684.99	1112.46
685.33	1121.35
685.67	1107.31
686.00	1092.09
686.34	1078.75
686.68	1073.60
687.02	1063.31
687.36	1071.50
687.70	1074.31
688.03	1083.67
688.37	1091.16
688.71	1093.03
689.05	1097.01
689.39	1100.29
689.72	1101.69
690.06	1097.01
690.40	1093.97
690.74	1091.16
691.08	1090.22
691.41	1092.09
691.75	1086.48
692.09	1085.07
692.43	1073.37
692.76	1067.52
693.10	1060.26
693.44	1059.09
693.78	1062.60
694.11	1076.88
694.45	1084.60
694.79	1086.71
695.13	1091.16
695.46	1091.86
695.80	1085.77
696.14	1075.71
696.48	1079.22
696.81	1088.12
697.15	1086.01
697.49	1090.22
697.82	1103.33
698.16	1103.33
698.50	1088.12
698.83	1095.84
699.17	1090.92
699.51	1087.88
699.84	1080.86
700.18	1084.60
700.52	1085.31
700.85	1084.14
701.19	1084.14
701.53	1085.77
701.86	1087.65
702.20	1070.80
702.54	1067.52
702.87	1069.39
703.21	1072.20
703.55	1067.52
703.88	1077.35
704.22	1091.63
704.55	1085.77
704.89	1091.63
705.23	1098.88
705.56	1097.01
705.90	1091.16
706.23	1092.33
706.57	1079.22
706.91	1069.86
707.24	1069.16
707.58	1062.14
707.91	1053.94
708.25	1058.16
708.58	1054.41
708.92	1064.01
709.26	1063.31
709.59	1072.20
709.93	1080.39
710.26	1093.26
710.60	1081.09
710.93	1088.82
711.27	1087.65
711.60	1086.01
711.94	1089.52
712.27	1093.50
712.61	1099.12
712.94	1102.39
713.28	1105.44
713.61	1108.95
713.95	1103.80
714.28	1088.35
714.62	1084.84
714.95	1074.54
715.29	1061.67
715.62	1068.45
715.96	1069.62
716.29	1070.80
716.63	1071.03
716.96	1078.99
717.29	1080.86
717.63	1093.50
717.96	1092.09
718.30	1083.67
718.63	1078.52
718.97	1083.20
719.30	1074.07
719.63	1074.31
719.97	1075.94
720.30	1062.14
720.64	1041.30
720.97	1041.54
721.30	1041.77
721.64	1054.65
721.97	1060.50
722.31	1076.41
722.64	1081.80
722.97	1085.31
723.31	1070.80
723.64	1082.97
723.97	1084.37
724.31	1079.22
724.64	1085.54
724.98	1089.29
725.31	1089.05
725.64	1084.14
725.98	1086.48
726.31	1073.84
726.64	1067.99
726.97	1067.52
727.31	1068.22
727.64	1068.22
727.97	1075.01
728.31	1089.99
728.64	1086.01
728.97	1086.71
729.31	1090.92
729.64	1089.05
729.97	1088.35
730.30	1082.03
730.64	1079.46
730.97	1075.01
731.30	1082.26
731.63	1082.26
731.97	1085.07
732.30	1094.90
732.63	1096.31
732.96	1087.18
733.30	1079.92
733.63	1077.35
733.96	1070.80
734.29	1064.24
734.63	1064.24
734.96	1071.26
735.29	1079.22
735.62	1073.14
735.95	1075.01
736.29	1074.07
736.62	1077.35
736.95	1075.48
737.28	1084.14
737.61	1090.22
737.94	1099.35
738.28	1084.84
738.61	1089.05
738.94	1087.18
739.27	1092.80
739.60	1088.35
739.93	1097.95
740.27	1087.41
740.60	1094.20
740.93	1089.99
741.26	1091.86
741.59	1093.97
741.92	1101.46
742.25	1097.01
742.58	1089.05
742.91	1075.48
743.25	1068.69
743.58	1066.58
743.91	1071.03
744.24	1068.92
744.57	1084.14
744.90	1092.56
745.23	1100.29
745.56	1095.37
745.89	1091.86
746.22	1080.39
746.55	1076.65
746.88	1067.75
747.21	1067.05
747.54	1078.75
747.87	1091.86
748.20	1094.90
748.53	1086.01
748.87	1082.97
749.20	1083.90
749.53	1071.97
749.86	1058.62
750.19	1069.62
750.52	1076.41
750.85	1070.33
751.18	1082.03
751.51	1093.97
751.84	1091.63
752.16	1093.97
752.49	1094.90
752.82	1086.71
753.15	1087.41
753.48	1091.63
753.81	1087.18
754.14	1090.92
754.47	1093.03
754.80	1095.37
755.13	1092.56
755.46	1091.16
755.79	1094.67
756.12	1087.88
756.45	1087.41
756.78	1080.39
757.11	1079.46
757.43	1061.67
757.76	1058.39
758.09	1052.77
758.42	1052.77
758.75	1054.18
759.08	1066.11
759.41	1069.62
759.74	1071.73
760.07	1073.14
760.39	1061.67
760.72	1074.77
761.05	1077.11
761.38	1072.20
761.71	1086.71
762.04	1091.63
762.36	1078.52
762.69	1094.67
763.02	1098.18
763.35	1084.84
763.68	1076.18
764.01	1074.77
764.33	1065.18
764.66	1057.92
764.99	1058.39
765.32	1072.43
765.65	1068.92
765.97	1066.58
766.30	1065.41
766.63	1067.28
766.96	1063.07
767.28	1070.80
767.61	1069.86
767.94	1081.56
768.27	1086.01
768.59	1083.67
768.92	1071.73
769.25	1068.22
769.58	1068.69
769.90	1064.71
770.23	1063.77
770.56	1076.41
770.89	1080.63
771.21	1075.94
771.54	1080.86
771.87	1085.77
772.19	1082.26
772.52	1082.03
772.85	1080.16
773.17	1076.88
773.50	1076.41
773.83	1076.65
774.15	1083.20
774.48	1090.46
774.81	1091.16
775.13	1098.18
775.46	1107.31
775.79	1094.90
776.11	1088.58
776.44	1088.58
776.77	1092.56
777.09	1072.67
777.42	1082.97
777.74	1086.24
778.07	1087.88
778.40	1081.56
778.72	1098.65
779.05	1095.37
779.37	1096.31
779.70	1084.84
780.03	1081.33
780.35	1078.52
780.68	1075.71
781.00	1079.46
781.33	1084.37
781.65	1084.14
781.98	1068.69
782.31	1065.65
782.63	1059.79
782.96	1059.56
783.28	1062.37
783.61	1075.24
783.93	1075.24
784.26	1080.16
784.58	1083.20
784.91	1071.97
785.23	1075.24
785.56	1082.97
785.88	1071.03
786.21	1064.94
786.53	1067.05
786.86	1065.18
787.18	1056.52
787.51	1069.86
787.83	1068.22
788.16	1080.86
788.48	1077.11
788.81	1080.63
789.13	1072.67
789.46	1085.54
789.78	1080.39
790.10	1091.63
790.43	1096.07
790.75	1095.84
791.08	1087.41
791.40	1089.75
791.73	1083.20
792.05	1077.35
792.37	1072.67
792.70	1079.92
793.02	1078.28
793.35	1086.48
793.67	1086.94
793.99	1099.35
794.32	1092.56
794.64	1087.41
794.96	1078.75
795.29	1075.71
795.61	1075.71
795.93	1084.14
796.26	1079.46
796.58	1085.77
796.91	1096.54
797.23	1093.03
797.55	1099.82
797.87	1105.90
798.20	1084.60
798.52	1077.82
798.84	1078.05
799.17	1065.88
799.49	1067.52
799.81	1080.39
800.14	1080.39
800.46	1071.50
800.78	1070.80
801.10	1062.14
801.43	1059.33
801.75	1060.26
802.07	1065.88
802.40	1068.69
802.72	1078.05
803.04	1084.84
803.36	1086.01
803.69	1085.31
804.01	1085.07
804.33	1080.86
804.65	1075.24
804.97	1075.24
805.30	1074.54
805.62	1068.92
805.94	1073.37
806.26	1065.88
806.58	1066.58
806.91	1072.90
807.23	1077.11
807.55	1070.80
807.87	1079.22
808.19	1075.71
808.52	1078.75
808.84	1079.22
809.16	1081.33
809.48	1094.67
809.80	1092.09
810.12	1085.77
810.44	1081.80
810.77	1089.29
811.09	1084.60
811.41	1088.58
811.73	1086.71
812.05	1087.88
812.37	1085.77
812.69	1079.22
813.01	1087.41
813.33	1094.90
813.66	1106.61
813.98	1111.99
814.30	1109.18
814.62	1100.29
814.94	1092.56
815.26	1082.50
815.58	1080.86
815.90	1080.63
816.22	1078.28
816.54	1082.73
816.86	1089.99
817.18	1089.75
817.50	1089.52
817.82	1090.92
818.14	1083.20
818.46	1077.58
818.78	1065.18
819.10	1056.52
819.42	1054.41
819.74	1057.69
820.06	1056.75
820.38	1070.56
820.70	1083.43
821.02	1086.01
821.34	1087.41
821.66	1093.97
821.98	1092.56
822.30	1095.60
822.62	1106.84
822.94	1105.90
823.26	1097.71
823.58	1092.33
823.90	1089.75
824.22	1077.11
824.54	1077.11
824.86	1084.37
825.18	1089.52
825.50	1078.28
825.81	1072.20
826.13	1064.01
826.45	1058.86
826.77	1050.20
827.09	1053.71
827.41	1060.26
827.73	1074.77
828.05	1075.71
828.36	1083.43
828.68	1086.48
829.00	1090.69
829.32	1086.01
829.64	1092.09
829.96	1089.99
830.28	1093.50
830.59	1091.63
830.91	1093.26
831.23	1082.97
831.55	1083.43
831.87	1086.48
832.19	1085.54
832.50	1082.97
832.82	1090.22
833.14	1092.33
833.46	1092.33
833.78	1092.33
834.09	1089.75
834.41	1085.07
834.73	1075.24
835.05	1071.03
835.36	1071.73
835.68	1079.22
836.00	1087.18
836.32	1087.18
836.63	1088.82
836.95	1096.07
837.27	1086.01
837.59	1082.50
837.90	1082.26
838.22	1076.88
838.54	1067.75
838.85	1074.54
839.17	1068.92
839.49	1069.39
839.80	1076.41
840.12	1066.35
840.44	1063.77
840.76	1064.94
841.07	1066.58
841.39	1060.26
841.71	1060.03
842.02	1064.94
842.34	1071.03
842.65	1069.62
842.97	1066.35
843.29	1084.37
843.60	1070.56
843.92	1064.71
844.24	1072.20
844.55	1087.18
844.87	1086.01
845.18	1088.58
845.50	1092.80
845.82	1085.77
846.13	1076.18
846.45	1071.97
846.76	1086.24
847.08	1090.46
847.40	1098.18
847.71	1095.14
848.03	1091.16
848.34	1082.97
848.66	1074.31
848.97	1061.90
849.29	1063.54
849.60	1068.69
849.92	1078.28
850.24	1074.31
850.55	1084.60
850.87	1084.14
851.18	1087.88
851.50	1083.43
851.81	1084.14
852.13	1076.65
852.44	1073.60
852.76	1065.18
853.07	1064.24
853.39	1070.56
853.70	1074.31
854.01	1087.18
854.33	1094.43
854.64	1098.88
854.96	1095.14
855.27	1100.52
855.59	1094.43
855.90	1091.86
856.22	1083.20
856.53	1082.26
856.84	1083.20
857.16	1082.50
857.47	1082.73
857.79	1085.31
858.10	1089.52
858.41	1087.18
858.73	1079.22
859.04	1075.94
859.36	1079.69
859.67	1080.16
859.98	1069.86
860.30	1082.26
860.61	1086.48
860.92	1083.43
861.24	1078.28
861.55	1090.92
861.87	1088.82
862.18	1076.65
862.49	1072.43
862.81	1073.60
863.12	1074.31
863.43	1075.01
863.74	1089.05
864.06	1086.24
864.37	1076.41
864.68	1070.80
865.00	1067.52
865.31	1068.45
865.62	1067.75
865.94	1078.99
866.25	1075.94
866.56	1075.48
866.87	1059.33
867.19	1066.35
867.50	1058.62
867.81	1060.96
868.12	1051.84
868.44	1052.77
868.75	1050.20
869.06	1061.67
869.37	1059.56
869.68	1067.28
870.00	1068.45
870.31	1069.16
870.62	1061.90
870.93	1058.16
871.24	1057.69
871.56	1064.24
871.87	1067.52
872.18	1070.09
872.49	1069.62
872.80	1065.41
873.12	1063.31
873.43	1059.79
873.74	1058.62
874.05	1067.52
874.36	1068.69
874.67	1076.18
874.98	1075.71
875.29	1089.52
875.61	1085.07
875.92	1088.12
876.23	1084.37
876.54	1086.24
876.85	1073.84
877.16	1070.09
877.47	1070.09
877.78	1067.75
878.09	1057.69
878.40	1064.71
878.72	1076.18
879.03	1074.31
879.34	1074.54
879.65	1092.56
879.96	1084.60
880.27	1081.80
880.58	1075.48
880.89	1085.07
881.20	1071.73
881.51	1066.58
881.82	1056.99
882.13	1061.90
882.44	1054.18
882.75	1056.52
883.06	1065.88
883.37	1061.20
883.68	1054.88
883.99	1061.90
884.30	1062.37
884.61	1061.90
884.92	1074.54
885.23	1089.99
885.54	1083.67
885.85	1083.67
886.16	1072.67
886.47	1066.35
886.78	1060.73
887.08	1058.62
887.39	1066.35
887.70	1067.99
888.01	1076.65
888.32	1078.75
888.63	1082.97
888.94	1088.12
889.25	1107.07
889.56	1100.99
889.87	1101.22
890.17	1103.33
890.48	1092.09
890.79	1080.16
891.10	1071.26
891.41	1068.92
891.72	1062.37
892.03	1065.88
892.34	1075.24
892.64	1090.22
892.95	1097.01
893.26	1096.31
893.57	1100.99
893.88	1081.09
894.18	1084.84
894.49	1077.11
894.80	1076.41
895.11	1062.14
895.42	1069.62
895.72	1065.88
896.03	1067.28
896.34	1069.16
896.65	1069.39
896.96	1077.35
897.26	1075.48
897.57	1071.50
897.88	1072.20
898.19	1080.86
898.49	1077.58
898.80	1079.46
899.11	1081.56
899.41	1089.52
899.72	1077.82
900.03	1083.20
900.34	1082.03
900.64	1082.03
900.95	1084.60
901.26	1091.39
901.56	1083.67
901.87	1077.82
902.18	1067.99
902.48	1054.18
902.79	1053.24
903.10	1058.62
903.40	1059.56
903.71	1078.99
904.02	1082.73
904.32	1086.01
904.63	1073.84
904.94	1085.31
905.24	1088.12
905.55	1094.43
905.85	1101.46
906.16	1106.84
906.47	1097.48
906.77	1082.50
907.08	1078.52
907.38	1066.58
907.69	1071.97
908.00	1078.05
908.30	1086.24
908.61	1089.29
908.91	1097.95
909.22	1099.82
909.52	1100.99
909.83	1097.24
910.14	1086.24
910.44	1086.94
910.75	1080.63
911.05	1078.28
911.36	1076.88
911.66	1086.94
911.97	1083.90
912.27	1087.65
912.58	1087.88
912.88	1084.60
913.19	1074.07
913.49	1071.97
913.80	1069.39
914.10	1068.92
914.41	1074.77
914.71	1076.88
915.01	1069.16
915.32	1071.50
915.62	1070.56
915.93	1069.16
916.23	1069.62
916.54	1078.52
916.84	1077.11
917.15	1066.82
917.45	1063.07
917.75	1064.71
918.06	1067.52
918.36	1064.94
918.67	1072.20
918.97	1067.52
919.27	1068.22
919.58	1068.45
919.88	1070.80
920.18	1065.88
920.49	1076.18
920.79	1070.56
921.10	1067.99
921.40	1067.28
921.70	1064.24
922.01	1052.07
922.31	1061.90
922.61	1064.94
922.92	1061.67
923.22	1066.11
923.52	1087.65
923.82	1086.24
924.13	1083.43
924.43	1083.67
924.73	1085.31
925.04	1064.94
925.34	1066.58
925.64	1058.86
925.94	1064.01
926.25	1064.01
926.55	1070.80
926.85	1066.11
927.15	1076.41
927.46	1074.77
927.76	1079.92
928.06	1079.22
928.36	1078.52
928.67	1081.56
928.97	1084.14
929.27	1085.77
929.57	1091.16
929.87	1093.97
930.18	1093.50
930.48	1095.84
930.78	1091.86
931.08	1083.20
931.38	1078.52
931.69	1075.01
931.99	1062.14
932.29	1053.48
932.59	1059.79
932.89	1064.48
933.19	1057.92
933.49	1064.48
933.80	1071.26
934.10	1073.14
934.40	1067.75
934.70	1075.01
935.00	1074.07
935.30	1074.54
935.60	1073.84
935.90	1075.48
936.20	1067.28
936.50	1069.39
936.81	1076.65
937.11	1082.50
937.41	1087.41
937.71	1089.29
938.01	1086.71
938.31	1079.46
938.61	1064.24
938.91	1070.09
939.21	1073.14
939.51	1076.18
939.81	1083.43
940.11	1092.33
940.41	1086.48
940.71	1088.82
941.01	1094.67
941.31	1086.94
941.61	1086.48
941.91	1084.84
942.21	1078.75
942.51	1071.73
942.81	1071.73
943.11	1069.39
943.41	1072.67
943.71	1074.77
944.01	1073.60
944.31	1075.01
944.61	1087.41
944.90	1097.71
945.20	1107.54
945.50	1110.12
945.80	1114.09
946.10	1103.56
946.40	1088.12
946.70	1073.84
947.00	1074.77
947.30	1076.65
947.60	1081.80
947.89	1084.60
948.19	1093.26
948.49	1093.50
948.79	1096.54
949.09	1091.63
949.39	1078.99
949.69	1074.54
949.98	1071.03
950.28	1066.58
950.58	1063.77
950.88	1072.20
951.18	1081.09
951.48	1077.82
951.77	1075.24
952.07	1077.58
952.37	1078.75
952.67	1073.60
952.97	1072.90
953.26	1071.03
953.56	1068.45
953.86	1070.09
954.16	1072.20
954.45	1079.92
954.75	1078.05
955.05	1084.84
955.35	1090.22
955.64	1081.56
955.94	1080.16
956.24	1080.63
956.54	1080.16
956.83	1082.50
957.13	1095.60
957.43	1088.12
957.72	1091.63
958.02	1088.58
958.32	1086.24
958.61	1080.16
958.91	1093.03
959.21	1089.75
959.50	1092.09
959.80	1083.67
960.10	1081.56
960.39	1075.71
960.69	1079.46
960.99	1076.88
961.28	1080.86
961.58	1077.58
961.87	1069.39
962.17	1072.43
962.47	1068.69
962.76	1072.20
963.06	1079.92
963.36	1101.69
963.65	1104.50
963.95	1109.18
964.24	1104.50
964.54	1103.33
964.83	1089.29
965.13	1075.01
965.42	1065.65
965.72	1063.54
966.02	1067.05
966.31	1065.18
966.61	1068.45
966.90	1084.37
967.20	1090.69
967.49	1094.43
967.79	1094.20
968.08	1104.26
968.38	1098.88
968.67	1098.65
968.97	1078.28
969.26	1069.62
969.56	1064.24
969.85	1064.48
970.15	1050.90
970.44	1068.69
970.74	1083.43
971.03	1082.03
971.32	1082.73
971.62	1099.58
971.91	1094.20
972.21	1087.88
972.50	1090.46
972.80	1078.28
973.09	1069.62
973.38	1066.11
973.68	1068.69
973.97	1065.88
974.27	1070.80
974.56	1072.67
974.85	1079.92
975.15	1078.28
975.44	1070.80
975.73	1073.60
976.03	1075.01
976.32	1074.31
976.61	1069.86
976.91	1067.99
977.20	1069.86
977.49	1074.31
977.79	1071.26
978.08	1078.52
978.37	1094.90
978.67	1101.69
978.96	1098.65
979.25	1087.88
979.55	1086.24
979.84	1081.09
980.13	1073.60
980.42	1071.03
980.72	1084.14
981.01	1089.99
981.30	1090.69
981.59	1089.05
981.89	1086.94
982.18	1078.05
982.47	1075.01
982.76	1071.26
983.06	1073.14
983.35	1074.07
983.64	1085.07
983.93	1084.60
984.22	1083.20
984.52	1088.35
984.81	1089.75
985.10	1085.77
985.39	1082.50
985.68	1090.69
985.97	1084.60
986.27	1076.65
986.56	1065.18
986.85	1061.43
987.14	1051.13
987.43	1049.03
987.72	1060.50
988.01	1071.97
988.31	1076.65
988.60	1083.20
988.89	1085.31
989.18	1074.77
989.47	1070.80
989.76	1070.09
990.05	1063.77
990.34	1069.16
990.63	1081.56
990.92	1082.03
991.21	1093.03
991.51	1098.41
991.80	1086.01
992.09	1079.69
992.38	1083.67
992.67	1079.92
992.96	1085.31
993.25	1096.78
993.54	1089.99
993.83	1086.94
994.12	1075.48
994.41	1077.58
994.70	1071.03
994.99	1087.65
995.28	1086.01
995.57	1089.75
995.86	1078.28
996.15	1081.56
996.44	1070.09
996.73	1074.54
997.02	1078.99
997.31	1079.92
997.59	1086.71
997.88	1084.84
998.17	1080.86
998.46	1084.84
998.75	1085.54
999.04	1088.58
999.33	1099.58
999.62	1094.90
999.91	1084.84
1000.20	1078.75
1000.49	1066.82
1000.77	1055.58
1001.06	1066.82
1001.35	1064.48
1001.64	1073.60
1001.93	1078.75
1002.22	1080.16
1002.51	1071.03
1002.79	1086.48
1003.08	1076.41
1003.37	1068.45
1003.66	1071.03
1003.95	1074.31
1004.23	1071.26
1004.52	1084.60
1004.81	1081.80
1005.10	1082.97
1005.39	1083.20
1005.67	1084.37
1005.96	1078.99
1006.25	1098.41
1006.54	1102.39
1006.83	1100.52
1007.11	1094.43
1007.40	1096.54
1007.69	1088.35
1007.97	1084.37
1008.26	1081.33
1008.55	1081.80
1008.84	1078.52
1009.12	1076.41
1009.41	1068.69
1009.70	1077.82
1009.98	1075.94
1010.27	1075.01
1010.56	1071.73
1010.85	1079.69
1011.13	1069.62
1011.42	1069.39
1011.71	1078.28
1011.99	1079.22
1012.28	1072.67
1012.56	1079.69
1012.85	1074.31
1013.14	1068.22
1013.42	1063.07
1013.71	1072.67
1014.00	1077.35
1014.28	1089.29
1014.57	1095.37
1014.85	1097.24
1015.14	1092.56
1015.43	1084.84
1015.71	1074.31
1016.00	1067.28
1016.28	1075.01
1016.57	1073.37
1016.85	1071.50
1017.14	1076.41
1017.43	1070.09
1017.71	1065.41
1018.00	1073.84
1018.28	1075.01
1018.57	1071.97
1018.85	1081.80
1019.14	1081.56
1019.42	1077.82
1019.71	1085.31
1019.99	1087.18
1020.28	1081.33
1020.56	1075.71
1020.85	1072.20
1021.13	1064.94
1021.42	1067.05
1021.70	1070.09
1021.99	1069.16
1022.27	1072.67
1022.55	1038.03
1022.84	1088.35
>>>>>End Processed Spectral Data<<<<<
