SpectraSuite Data File
++++++++++++++++++++++++++++++++++++
Date: Mon Aug 26 10:24:52 PDT 2019
User: corrico
Dark Spectrum Present: No
Reference Spectrum Present: No
Number of Sampled Component Spectra: 1
Spectrometers: USB2+H06089
Integration Time (usec): 10000 (USB2+H06089)
Spectra Averaged: 2 (USB2+H06089)
Boxcar Smoothing: 2 (USB2+H06089)
Correct for Electrical Dark: No (USB2+H06089)
Strobe/Lamp Enabled: No (USB2+H06089)
Correct for Detector Non-linearity: No (USB2+H06089)
Correct for Stray Light: No (USB2+H06089)
Number of Pixels in Processed Spectrum: 2048
>>>>>Begin Processed Spectral Data<<<<<
339.70	1054.41
340.07	1054.41
340.45	1014.62
340.82	987.47
341.19	966.88
341.57	937.85
341.94	924.98
342.31	913.51
342.69	903.21
343.06	895.72
343.43	890.11
343.81	881.68
344.18	883.79
344.55	895.25
344.93	902.74
345.30	916.32
345.67	930.13
346.04	949.79
346.42	957.98
346.79	960.79
347.16	962.90
347.54	977.41
347.91	979.75
348.28	993.09
348.65	1008.54
349.03	1019.77
349.40	1022.35
349.77	1022.11
350.14	1020.71
350.52	1018.84
350.89	1030.54
351.26	1032.64
351.63	1055.11
352.01	1070.80
352.38	1080.39
352.75	1091.39
353.12	1115.73
353.50	1101.46
353.87	1104.73
354.24	1101.22
354.61	1091.16
354.98	1078.52
355.36	1087.88
355.73	1072.90
356.10	1085.31
356.47	1092.80
356.84	1099.82
357.22	1097.71
357.59	1115.73
357.96	1114.10
358.33	1108.71
358.70	1106.14
359.08	1110.58
359.45	1100.99
359.82	1098.41
360.19	1108.95
360.56	1106.37
360.94	1103.56
361.31	1100.75
361.68	1097.24
362.05	1087.18
362.42	1087.88
362.79	1097.01
363.16	1096.07
363.54	1101.92
363.91	1100.29
364.28	1097.24
364.65	1091.63
365.02	1093.26
365.39	1086.24
365.76	1096.54
366.14	1102.16
366.51	1093.97
366.88	1100.05
367.25	1104.97
367.62	1095.60
367.99	1095.84
368.36	1103.80
368.73	1101.46
369.10	1097.71
369.48	1093.26
369.85	1090.46
370.22	1090.46
370.59	1086.48
370.96	1087.41
371.33	1096.07
371.70	1095.37
372.07	1085.31
372.44	1083.43
372.81	1078.05
373.18	1063.07
373.55	1058.86
373.93	1066.35
374.30	1070.56
374.67	1077.58
375.04	1089.05
375.41	1097.24
375.78	1095.60
376.15	1101.92
376.52	1104.26
376.89	1111.52
377.26	1100.99
377.63	1098.18
378.00	1081.56
378.37	1069.16
378.74	1063.54
379.11	1068.22
379.48	1083.43
379.85	1099.58
380.22	1109.18
380.59	1109.65
380.96	1113.39
381.33	1103.33
381.70	1102.39
382.07	1105.90
382.44	1107.07
382.81	1113.86
383.18	1108.24
383.55	1110.58
383.92	1107.07
384.29	1107.31
384.66	1094.67
385.03	1100.29
385.40	1090.46
385.77	1086.01
386.14	1087.41
386.51	1097.24
386.88	1103.56
387.25	1108.95
387.62	1115.73
387.99	1112.69
388.36	1111.05
388.73	1106.61
389.10	1108.48
389.46	1104.50
389.83	1108.48
390.20	1104.03
390.57	1102.39
390.94	1099.12
391.31	1102.86
391.68	1097.48
392.05	1100.52
392.42	1100.52
392.79	1104.73
393.16	1101.92
393.53	1106.37
393.89	1110.12
394.26	1112.46
394.63	1114.56
395.00	1121.82
395.37	1114.80
395.74	1110.35
396.11	1118.07
396.48	1119.01
396.84	1115.97
397.21	1118.78
397.58	1115.73
397.95	1113.86
398.32	1105.20
398.69	1108.71
399.06	1121.58
399.42	1133.05
399.79	1136.56
400.16	1140.78
400.53	1143.12
400.90	1139.84
401.27	1141.48
401.64	1141.25
402.00	1151.08
402.37	1162.08
402.74	1161.37
403.11	1169.80
403.48	1168.86
403.84	1178.46
404.21	1182.91
404.58	1197.42
404.95	1205.14
405.32	1226.91
405.68	1240.02
406.05	1246.57
406.42	1253.36
406.79	1271.61
407.16	1288.70
407.52	1301.81
407.89	1309.30
408.26	1336.68
408.63	1346.98
408.99	1360.79
409.36	1383.49
409.73	1419.07
410.10	1451.60
410.47	1472.43
410.83	1513.39
411.20	1544.99
411.57	1587.12
411.94	1622.93
412.30	1676.06
412.67	1703.21
413.04	1744.17
413.40	1779.74
413.77	1832.17
414.14	1885.54
414.51	1952.01
414.87	2022.69
415.24	2095.25
415.61	2176.46
415.97	2246.91
416.34	2330.94
416.71	2432.52
417.08	2535.50
417.44	2635.91
417.81	2765.11
418.18	2897.35
418.54	3035.67
418.91	3198.81
419.28	3333.39
419.64	3484.82
420.01	3637.89
420.38	3790.73
420.74	3940.06
421.11	4138.30
421.48	4326.25
421.84	4564.04
422.21	4773.52
422.58	5007.11
422.94	5254.74
423.31	5507.98
423.68	5758.42
424.04	6076.73
424.41	6380.07
424.77	6663.51
425.14	6985.09
425.51	7312.54
425.87	7647.23
426.24	7957.82
426.61	8384.27
426.97	8876.95
427.34	9311.59
427.70	9796.78
428.07	10324.81
428.44	10831.30
428.80	11260.32
429.17	11797.94
429.53	12282.43
429.90	12904.08
430.27	13418.29
430.63	14000.38
431.00	14646.84
431.36	15400.72
431.73	15961.05
432.09	16654.08
432.46	17317.86
432.83	17917.27
433.19	18441.55
433.56	19161.97
433.92	19855.47
434.29	20544.29
434.65	21254.40
435.02	21928.25
435.38	22581.96
435.75	23125.20
436.11	23735.37
436.48	24207.46
436.84	24668.78
437.21	25069.48
437.57	25499.20
437.94	25857.30
438.30	26287.26
438.67	26587.08
439.03	26761.69
439.40	26900.25
439.76	26870.52
440.13	26684.68
440.49	26618.91
440.86	26401.24
441.22	26162.51
441.59	25792.70
441.95	25485.16
442.32	24968.13
442.68	24523.67
443.05	23961.47
443.41	23453.10
443.78	22844.33
444.14	22319.35
444.51	21675.70
444.87	21288.81
445.24	20851.60
445.60	20416.02
445.96	19869.74
446.33	19479.34
446.69	18848.10
447.06	18345.82
447.42	17816.39
447.79	17321.84
448.15	16886.97
448.51	16433.14
448.88	16019.09
449.24	15551.92
449.61	15257.48
449.97	14834.32
450.33	14459.13
450.70	13999.45
451.06	13685.11
451.43	13234.33
451.79	12889.33
452.15	12578.27
452.52	12285.24
452.88	12014.67
453.24	11741.06
453.61	11475.41
453.97	11209.76
454.34	10927.26
454.70	10649.91
455.06	10423.81
455.43	10144.12
455.79	9758.63
456.15	9492.04
456.52	9177.47
456.88	8897.78
457.24	8583.21
457.61	8409.08
457.97	8158.87
458.33	7905.86
458.70	7629.21
459.06	7387.67
459.42	7129.51
459.79	6868.54
460.15	6659.06
460.51	6461.28
460.88	6261.40
461.24	6057.07
461.60	5911.02
461.96	5725.42
462.33	5561.58
462.69	5424.43
463.05	5290.31
463.42	5157.84
463.78	5039.88
464.14	4892.66
464.50	4781.48
464.87	4672.18
465.23	4541.34
465.59	4436.95
465.95	4350.35
466.32	4240.82
466.68	4134.79
467.04	4042.81
467.40	3952.70
467.77	3882.71
468.13	3813.20
468.49	3749.77
468.85	3690.09
469.22	3629.70
469.58	3549.19
469.94	3493.95
470.30	3426.54
470.66	3358.90
471.03	3283.77
471.39	3236.96
471.75	3158.55
472.11	3095.59
472.47	3039.42
472.84	2994.95
473.20	2926.61
473.56	2894.07
473.92	2846.09
474.28	2806.54
474.65	2758.79
475.01	2740.53
475.37	2698.87
475.73	2656.27
476.09	2608.29
476.45	2579.04
476.81	2521.69
477.18	2472.07
477.54	2444.46
477.90	2425.03
478.26	2382.43
478.62	2363.00
478.98	2334.22
479.34	2293.49
479.71	2257.45
480.07	2228.42
480.43	2191.44
480.79	2151.19
481.15	2126.61
481.51	2100.63
481.87	2070.91
482.23	2043.05
482.59	2033.69
482.96	2019.88
483.32	1999.99
483.68	1985.48
484.04	1958.09
484.40	1928.84
484.76	1906.13
485.12	1882.02
485.48	1856.28
485.84	1844.81
486.20	1829.36
486.56	1812.51
486.92	1792.15
487.28	1777.87
487.64	1768.04
488.00	1760.08
488.37	1736.91
488.73	1724.04
489.09	1710.93
489.45	1695.72
489.81	1668.57
490.17	1658.74
490.53	1638.84
490.89	1618.25
491.25	1598.59
491.61	1585.95
491.97	1557.86
492.33	1544.05
492.69	1533.28
493.05	1519.24
493.41	1516.43
493.77	1516.43
494.13	1509.18
494.49	1493.73
494.85	1483.90
495.21	1468.22
495.57	1457.45
495.93	1446.69
496.29	1438.03
496.64	1431.24
497.00	1416.96
497.36	1402.68
497.72	1389.81
498.08	1377.17
498.44	1358.92
498.80	1353.53
499.16	1352.13
499.52	1350.96
499.88	1354.00
500.24	1356.34
500.60	1355.64
500.96	1336.68
501.32	1330.83
501.68	1320.76
502.03	1300.64
502.39	1279.57
502.75	1278.87
503.11	1267.17
503.47	1267.63
503.83	1275.36
504.19	1276.53
504.55	1268.10
504.91	1269.51
505.26	1261.08
505.62	1251.95
505.98	1251.48
506.34	1259.68
506.70	1249.61
507.06	1243.99
507.42	1236.74
507.78	1228.78
508.13	1220.12
508.49	1222.93
508.85	1222.70
509.21	1224.33
509.57	1222.93
509.93	1219.65
510.28	1209.12
510.64	1200.23
511.00	1194.14
511.36	1191.33
511.72	1189.23
512.07	1191.57
512.43	1186.18
512.79	1188.76
513.15	1190.63
513.51	1183.37
513.86	1176.12
514.22	1181.74
514.58	1175.42
514.94	1165.35
515.30	1160.67
515.65	1165.12
516.01	1163.48
516.37	1160.91
516.73	1161.84
517.08	1166.52
517.44	1159.50
517.80	1148.03
518.16	1147.56
518.51	1145.46
518.87	1135.16
519.23	1131.18
519.59	1137.50
519.94	1133.76
520.30	1128.84
520.66	1137.50
521.01	1145.22
521.37	1133.99
521.73	1131.18
522.09	1131.88
522.44	1128.84
522.80	1126.50
523.16	1134.69
523.51	1144.52
523.87	1148.73
524.23	1145.93
524.58	1140.78
524.94	1141.25
525.30	1131.88
525.65	1129.31
526.01	1124.63
526.37	1122.05
526.72	1121.82
527.08	1127.20
527.44	1126.50
527.79	1133.52
528.15	1128.84
528.51	1117.84
528.86	1104.03
529.22	1105.20
529.58	1104.03
529.93	1117.14
530.29	1132.82
530.65	1140.31
531.00	1136.10
531.36	1132.59
531.71	1125.33
532.07	1111.75
532.43	1109.65
532.78	1112.22
533.14	1108.01
533.49	1110.35
533.85	1110.82
534.21	1116.20
534.56	1110.12
534.92	1114.80
535.27	1109.65
535.63	1118.31
535.98	1113.86
536.34	1119.01
536.69	1113.86
537.05	1128.14
537.41	1126.50
537.76	1128.37
538.12	1121.58
538.47	1120.65
538.83	1105.67
539.18	1100.29
539.54	1089.52
539.89	1086.24
540.25	1097.01
540.60	1095.84
540.96	1105.90
541.31	1112.69
541.67	1123.93
542.02	1114.33
542.38	1122.99
542.73	1111.29
543.09	1112.46
543.44	1111.75
543.80	1115.27
544.15	1112.22
544.51	1116.20
544.86	1112.69
545.22	1105.20
545.57	1103.56
545.93	1098.88
546.28	1097.24
546.64	1097.48
546.99	1102.86
547.35	1099.12
547.70	1094.20
548.05	1097.01
548.41	1104.73
548.76	1095.84
549.12	1097.48
549.47	1102.86
549.83	1103.33
550.18	1096.78
550.53	1111.75
550.89	1105.20
551.24	1107.31
551.60	1101.22
551.95	1098.65
552.30	1089.05
552.66	1096.54
553.01	1093.26
553.37	1094.90
553.72	1098.41
554.07	1109.41
554.43	1108.24
554.78	1109.41
555.13	1104.26
555.49	1105.90
555.84	1102.39
556.19	1114.10
556.55	1112.22
556.90	1114.10
557.26	1111.05
557.61	1106.14
557.96	1099.12
558.32	1105.67
558.67	1107.07
559.02	1107.31
559.37	1107.54
559.73	1108.01
560.08	1100.75
560.43	1107.07
560.79	1105.90
561.14	1100.05
561.49	1100.75
561.85	1101.69
562.20	1102.86
562.55	1104.97
562.90	1107.78
563.26	1105.20
563.61	1114.80
563.96	1111.75
564.32	1109.88
564.67	1095.60
565.02	1088.35
565.37	1082.03
565.73	1083.20
566.08	1086.94
566.43	1114.56
566.78	1118.54
567.14	1116.90
567.49	1115.50
567.84	1115.27
568.19	1103.09
568.54	1106.14
568.90	1109.18
569.25	1102.63
569.60	1104.26
569.95	1104.73
570.31	1104.73
570.66	1100.29
571.01	1105.67
571.36	1093.50
571.71	1097.24
572.06	1096.31
572.42	1097.24
572.77	1098.18
573.12	1101.92
573.47	1100.29
573.82	1092.56
574.18	1093.03
574.53	1099.82
574.88	1105.90
575.23	1100.29
575.58	1100.52
575.93	1097.01
576.28	1087.41
576.64	1080.39
576.99	1076.18
577.34	1083.90
577.69	1082.97
578.04	1078.75
578.39	1091.63
578.74	1093.03
579.09	1095.60
579.44	1106.14
579.80	1109.41
580.15	1093.50
580.50	1089.52
580.85	1080.63
581.20	1072.90
581.55	1076.41
581.90	1087.88
582.25	1102.63
582.60	1106.84
582.95	1106.61
583.30	1106.37
583.65	1097.71
584.00	1089.05
584.35	1091.86
584.71	1090.46
585.06	1093.50
585.41	1096.31
585.76	1097.48
586.11	1103.09
586.46	1098.41
586.81	1100.52
587.16	1102.16
587.51	1104.73
587.86	1082.73
588.21	1090.92
588.56	1083.20
588.91	1084.60
589.26	1083.90
589.61	1100.99
589.96	1098.65
590.31	1097.95
590.66	1093.73
591.01	1095.14
591.36	1097.71
591.71	1097.01
592.06	1092.80
592.41	1101.22
592.76	1097.48
593.10	1093.73
593.45	1095.60
593.80	1095.60
594.15	1099.35
594.50	1104.26
594.85	1106.14
595.20	1107.31
595.55	1108.95
595.90	1103.09
596.25	1098.88
596.60	1098.65
596.95	1095.14
597.30	1100.05
597.64	1144.76
597.99	1144.52
598.34	1131.18
598.69	1127.67
599.04	1125.80
599.39	1072.90
599.74	1078.75
600.09	1099.82
600.44	1102.16
600.78	1106.61
601.13	1113.86
601.48	1110.82
601.83	1105.67
602.18	1108.48
602.53	1107.78
602.88	1111.75
603.22	1102.39
603.57	1093.26
603.92	1093.26
604.27	1078.28
604.62	1071.26
604.97	1081.56
605.31	1085.31
605.66	1076.88
606.01	1086.24
606.36	1089.29
606.71	1089.75
607.05	1098.18
607.40	1109.41
607.75	1111.05
608.10	1109.88
608.44	1103.80
608.79	1086.94
609.14	1087.41
609.49	1088.35
609.84	1088.58
610.18	1093.50
610.53	1104.97
610.88	1098.18
611.23	1101.46
611.57	1099.58
611.92	1097.95
612.27	1093.50
612.62	1100.52
612.96	1090.22
613.31	1081.56
613.66	1078.75
614.00	1074.54
614.35	1066.58
614.70	1073.37
615.05	1082.03
615.39	1086.48
615.74	1092.33
616.09	1095.84
616.43	1092.33
616.78	1090.92
617.13	1086.94
617.47	1079.22
617.82	1080.63
618.17	1078.75
618.51	1081.09
618.86	1076.65
619.21	1079.69
619.55	1076.41
619.90	1079.22
620.25	1083.43
620.59	1089.52
620.94	1093.50
621.29	1093.26
621.63	1093.73
621.98	1098.65
622.32	1103.33
622.67	1097.71
623.02	1104.73
623.36	1111.29
623.71	1099.12
624.05	1101.46
624.40	1108.71
624.75	1102.86
625.09	1101.46
625.44	1106.37
625.78	1098.88
626.13	1096.07
626.48	1093.26
626.82	1095.84
627.17	1096.54
627.51	1105.44
627.86	1104.26
628.20	1101.69
628.55	1093.50
628.89	1094.90
629.24	1077.35
629.58	1084.37
629.93	1090.46
630.28	1088.12
630.62	1085.77
630.97	1103.09
631.31	1089.05
631.66	1084.60
632.00	1079.69
632.35	1072.43
632.69	1066.82
633.04	1071.73
633.38	1078.75
633.73	1093.03
634.07	1094.67
634.42	1090.22
634.76	1090.46
635.11	1086.01
635.45	1078.28
635.79	1086.71
636.14	1082.03
636.48	1086.24
636.83	1094.20
637.17	1095.37
637.52	1092.80
637.86	1099.12
638.21	1101.22
638.55	1092.09
638.89	1088.12
639.24	1088.12
639.58	1090.46
639.93	1075.94
640.27	1073.37
640.61	1085.77
640.96	1075.71
641.30	1065.88
641.65	1080.39
641.99	1083.20
642.33	1075.48
642.68	1077.82
643.02	1082.97
643.37	1081.09
643.71	1089.29
644.05	1093.50
644.40	1102.16
644.74	1096.54
645.08	1093.26
645.43	1076.41
645.77	1069.39
646.11	1062.84
646.46	1061.43
646.80	1054.65
647.14	1064.71
647.49	1063.07
647.83	1062.37
648.17	1078.99
648.52	1088.82
648.86	1080.63
649.20	1089.75
649.55	1097.95
649.89	1084.14
650.23	1083.90
650.57	1097.48
650.92	1093.03
651.26	1083.67
651.60	1084.84
651.95	1084.37
652.29	1078.99
652.63	1078.75
652.97	1085.54
653.32	1092.33
653.66	1084.37
654.00	1080.86
654.34	1074.54
654.69	1074.77
655.03	1072.43
655.37	1081.80
655.71	1081.80
656.05	1087.65
656.40	1082.26
656.74	1088.82
657.08	1088.35
657.42	1089.99
657.76	1090.69
658.11	1095.37
658.45	1086.48
658.79	1092.80
659.13	1094.43
659.47	1099.58
659.82	1094.43
660.16	1091.86
660.50	1079.46
660.84	1075.71
661.18	1075.24
661.52	1079.22
661.87	1087.18
662.21	1085.31
662.55	1087.88
662.89	1085.77
663.23	1083.67
663.57	1082.97
663.91	1091.86
664.25	1092.33
664.60	1090.92
664.94	1085.07
665.28	1091.39
665.62	1085.31
665.96	1080.63
666.30	1079.46
666.64	1077.82
666.98	1072.20
667.32	1079.92
667.66	1087.65
668.01	1088.35
668.35	1100.75
668.69	1103.33
669.03	1095.37
669.37	1088.12
669.71	1084.84
670.05	1075.24
670.39	1075.24
670.73	1070.56
671.07	1077.35
671.41	1082.03
671.75	1085.31
672.09	1073.37
672.43	1089.52
672.77	1090.92
673.11	1078.28
673.45	1078.75
673.79	1076.41
674.13	1080.16
674.47	1079.69
674.81	1087.18
675.15	1080.86
675.49	1085.07
675.83	1070.56
676.17	1065.65
676.51	1061.67
676.85	1059.56
677.19	1069.86
677.53	1066.82
677.87	1076.88
678.21	1082.26
678.55	1088.82
678.89	1084.14
679.23	1084.60
679.57	1075.01
679.90	1078.75
680.24	1077.58
680.58	1079.22
680.92	1082.26
681.26	1087.41
681.60	1086.94
681.94	1093.03
682.28	1085.07
682.62	1092.09
682.96	1093.26
683.29	1092.80
683.63	1088.82
683.97	1092.33
684.31	1090.69
684.65	1082.73
684.99	1083.90
685.33	1089.52
685.67	1092.33
686.00	1092.09
686.34	1104.97
686.68	1102.86
687.02	1094.43
687.36	1092.80
687.70	1094.43
688.03	1086.48
688.37	1085.77
688.71	1086.48
689.05	1077.58
689.39	1069.86
689.72	1053.48
690.06	1060.96
690.40	1075.24
690.74	1090.46
691.08	1086.94
691.41	1101.92
691.75	1097.71
692.09	1093.26
692.43	1084.84
692.76	1085.07
693.10	1083.67
693.44	1079.69
693.78	1084.84
694.11	1088.82
694.45	1100.05
694.79	1104.97
695.13	1104.73
695.46	1092.09
695.80	1093.73
696.14	1090.46
696.48	1088.58
696.81	1081.33
697.15	1085.54
697.49	1090.22
697.82	1081.56
698.16	1074.77
698.50	1083.20
698.83	1088.12
699.17	1074.54
699.51	1076.41
699.84	1085.07
700.18	1086.48
700.52	1076.65
700.85	1078.05
701.19	1088.35
701.53	1084.60
701.86	1075.71
702.20	1079.46
702.54	1073.14
702.87	1056.28
703.21	1058.16
703.55	1058.62
703.88	1057.45
704.22	1070.56
704.55	1082.50
704.89	1079.69
705.23	1081.56
705.56	1085.77
705.90	1079.92
706.23	1084.60
706.57	1101.92
706.91	1103.56
707.24	1091.63
707.58	1099.35
707.91	1099.82
708.25	1080.86
708.58	1075.01
708.92	1083.90
709.26	1083.43
709.59	1070.09
709.93	1069.62
710.26	1078.28
710.60	1082.97
710.93	1078.99
711.27	1079.92
711.60	1082.03
711.94	1085.31
712.27	1075.24
712.61	1071.26
712.94	1071.73
713.28	1075.48
713.61	1070.56
713.95	1078.75
714.28	1089.29
714.62	1103.09
714.95	1110.82
715.29	1114.80
715.62	1113.63
715.96	1108.95
716.29	1093.73
716.63	1083.67
716.96	1077.35
717.29	1082.73
717.63	1085.31
717.96	1089.05
718.30	1088.58
718.63	1078.28
718.97	1074.31
719.30	1064.01
719.63	1073.37
719.97	1071.97
720.30	1092.80
720.64	1091.16
720.97	1093.50
721.30	1088.82
721.64	1093.50
721.97	1080.63
722.31	1080.63
722.64	1090.22
722.97	1085.07
723.31	1087.41
723.64	1093.50
723.97	1089.99
724.31	1087.41
724.64	1094.20
724.98	1090.46
725.31	1087.41
725.64	1085.31
725.98	1079.92
726.31	1079.69
726.64	1079.22
726.97	1083.43
727.31	1090.69
727.64	1094.20
727.97	1081.09
728.31	1080.63
728.64	1079.46
728.97	1079.92
729.31	1067.75
729.64	1076.65
729.97	1076.88
730.30	1082.03
730.64	1083.43
730.97	1094.20
731.30	1091.16
731.63	1091.16
731.97	1083.90
732.30	1072.67
732.63	1066.82
732.96	1077.11
733.30	1078.75
733.63	1078.75
733.96	1089.05
734.29	1098.18
734.63	1096.07
734.96	1090.46
735.29	1100.05
735.62	1099.58
735.95	1091.86
736.29	1082.50
736.62	1081.33
736.95	1085.77
737.28	1081.09
737.61	1089.75
737.94	1093.97
738.28	1088.58
738.61	1077.82
738.94	1080.86
739.27	1080.39
739.60	1085.77
739.93	1090.92
740.27	1092.56
740.60	1100.99
740.93	1092.80
741.26	1088.82
741.59	1093.73
741.92	1096.07
742.25	1084.84
742.58	1093.03
742.91	1083.67
743.25	1078.28
743.58	1066.82
743.91	1071.26
744.24	1068.92
744.57	1071.97
744.90	1070.33
745.23	1079.22
745.56	1076.41
745.89	1075.24
746.22	1078.05
746.55	1089.29
746.88	1088.12
747.21	1093.50
747.54	1088.12
747.87	1087.65
748.20	1079.69
748.53	1072.90
748.87	1066.35
749.20	1077.58
749.53	1081.80
749.86	1085.31
750.19	1097.24
750.52	1097.95
750.85	1097.71
751.18	1105.20
751.51	1097.24
751.84	1083.67
752.16	1086.01
752.49	1086.71
752.82	1076.88
753.15	1092.09
753.48	1099.82
753.81	1095.84
754.14	1079.69
754.47	1080.39
754.80	1075.01
755.13	1071.73
755.46	1073.14
755.79	1078.05
756.12	1076.88
756.45	1079.92
756.78	1077.11
757.11	1077.58
757.43	1080.63
757.76	1086.01
758.09	1081.80
758.42	1101.22
758.75	1096.54
759.08	1102.63
759.41	1111.05
759.74	1111.75
760.07	1097.24
760.39	1097.01
760.72	1092.33
761.05	1071.50
761.38	1062.37
761.71	1059.79
762.04	1060.73
762.36	1061.67
762.69	1068.92
763.02	1072.90
763.35	1072.43
763.68	1067.99
764.01	1058.86
764.33	1061.67
764.66	1065.18
764.99	1064.71
765.32	1071.50
765.65	1080.63
765.97	1083.67
766.30	1085.07
766.63	1093.03
766.96	1094.20
767.28	1089.29
767.61	1075.94
767.94	1080.63
768.27	1071.26
768.59	1067.52
768.92	1064.48
769.25	1065.88
769.58	1054.41
769.90	1060.73
770.23	1056.05
770.56	1072.67
770.89	1080.86
771.21	1080.63
771.54	1074.31
771.87	1072.90
772.19	1055.35
772.52	1052.30
772.85	1063.07
773.17	1071.73
773.50	1080.86
773.83	1085.77
774.15	1086.01
774.48	1083.90
774.81	1083.90
775.13	1080.86
775.46	1085.77
775.79	1097.48
776.11	1092.09
776.44	1086.71
776.77	1080.16
777.09	1068.45
777.42	1060.50
777.74	1068.45
778.07	1067.05
778.40	1075.48
778.72	1087.41
779.05	1078.52
779.37	1063.77
779.70	1062.60
780.03	1064.24
780.35	1051.37
780.68	1068.22
781.00	1075.24
781.33	1073.37
781.65	1067.05
781.98	1069.16
782.31	1054.65
782.63	1052.30
782.96	1056.28
783.28	1062.14
783.61	1067.75
783.93	1071.97
784.26	1076.65
784.58	1077.82
784.91	1068.92
785.23	1070.56
785.56	1067.75
785.88	1067.75
786.21	1069.62
786.53	1084.37
786.86	1081.80
787.18	1090.46
787.51	1090.92
787.83	1090.92
788.16	1088.35
788.48	1093.97
788.81	1093.73
789.13	1098.88
789.46	1100.52
789.78	1098.41
790.10	1096.07
790.43	1083.90
790.75	1080.86
791.08	1075.48
791.40	1067.52
791.73	1063.77
792.05	1080.39
792.37	1072.67
792.70	1076.41
793.02	1075.24
793.35	1078.52
793.67	1065.88
793.99	1067.05
794.32	1072.90
794.64	1085.54
794.96	1089.29
795.29	1093.73
795.61	1098.88
795.93	1092.09
796.26	1084.84
796.58	1081.56
796.91	1079.46
797.23	1078.52
797.55	1084.37
797.87	1085.77
798.20	1084.14
798.52	1080.39
798.84	1075.01
799.17	1062.37
799.49	1063.07
799.81	1059.79
800.14	1065.65
800.46	1063.54
800.78	1067.28
801.10	1066.35
801.43	1073.60
801.75	1071.50
802.07	1079.46
802.40	1086.71
802.72	1092.80
803.04	1090.22
803.36	1089.75
803.69	1086.24
804.01	1081.09
804.33	1074.54
804.65	1070.56
804.97	1062.37
805.30	1069.86
805.62	1081.80
805.94	1078.05
806.26	1073.84
806.58	1076.41
806.91	1068.69
807.23	1062.60
807.55	1062.37
807.87	1073.14
808.19	1082.97
808.52	1083.90
808.84	1080.16
809.16	1078.52
809.48	1073.60
809.80	1070.80
810.12	1070.80
810.44	1070.80
810.77	1085.31
811.09	1083.43
811.41	1084.60
811.73	1075.01
812.05	1078.75
812.37	1078.52
812.69	1085.54
813.01	1083.43
813.33	1092.80
813.66	1085.54
813.98	1084.37
814.30	1082.26
814.62	1084.84
814.94	1089.52
815.26	1103.33
815.58	1099.82
815.90	1114.56
816.22	1112.92
816.54	1108.95
816.86	1094.90
817.18	1089.75
817.50	1076.41
817.82	1078.52
818.14	1078.99
818.46	1084.37
818.78	1079.92
819.10	1085.31
819.42	1077.35
819.74	1071.97
820.06	1067.99
820.38	1081.80
820.70	1076.65
821.02	1083.67
821.34	1085.07
821.66	1088.82
821.98	1080.63
822.30	1078.05
822.62	1075.24
822.94	1087.18
823.26	1083.90
823.58	1092.09
823.90	1097.24
824.22	1096.07
824.54	1084.60
824.86	1087.88
825.18	1077.35
825.50	1072.90
825.81	1078.75
826.13	1076.65
826.45	1076.88
826.77	1077.35
827.09	1077.11
827.41	1077.82
827.73	1083.90
828.05	1078.52
828.36	1089.75
828.68	1096.07
829.00	1086.24
829.32	1081.80
829.64	1085.07
829.96	1080.63
830.28	1071.03
830.59	1088.12
830.91	1092.56
831.23	1091.86
831.55	1082.97
831.87	1081.09
832.19	1071.26
832.50	1069.62
832.82	1065.65
833.14	1064.94
833.46	1064.24
833.78	1062.84
834.09	1066.35
834.41	1070.56
834.73	1071.97
835.05	1068.22
835.36	1067.99
835.68	1064.48
836.00	1062.14
836.32	1068.22
836.63	1080.86
836.95	1082.50
837.27	1081.80
837.59	1089.29
837.90	1089.75
838.22	1083.20
838.54	1082.50
838.85	1084.37
839.17	1078.52
839.49	1077.11
839.80	1084.84
840.12	1081.33
840.44	1082.26
840.76	1087.88
841.07	1087.18
841.39	1086.24
841.71	1094.20
842.02	1097.71
842.34	1095.37
842.65	1099.82
842.97	1091.16
843.29	1082.26
843.60	1073.14
843.92	1078.28
844.24	1077.35
844.55	1081.80
844.87	1092.33
845.18	1090.22
845.50	1088.58
845.82	1095.14
846.13	1097.01
846.45	1089.05
846.76	1096.54
847.08	1091.86
847.40	1075.94
847.71	1069.16
848.03	1068.92
848.34	1065.88
848.66	1069.86
848.97	1069.86
849.29	1075.94
849.60	1080.16
849.92	1078.28
850.24	1071.26
850.55	1086.48
850.87	1083.20
851.18	1080.86
851.50	1084.14
851.81	1077.35
852.13	1076.41
852.44	1078.52
852.76	1079.22
853.07	1065.88
853.39	1073.84
853.70	1062.84
854.01	1060.50
854.33	1063.77
854.64	1083.90
854.96	1094.20
855.27	1091.16
855.59	1100.29
855.90	1100.75
856.22	1093.97
856.53	1092.56
856.84	1092.09
857.16	1094.43
857.47	1093.03
857.79	1090.92
858.10	1090.22
858.41	1098.18
858.73	1096.31
859.04	1090.22
859.36	1103.80
859.67	1096.31
859.98	1089.75
860.30	1086.71
860.61	1093.50
860.92	1075.48
861.24	1069.16
861.55	1078.52
861.87	1075.71
862.18	1066.11
862.49	1062.37
862.81	1067.05
863.12	1068.45
863.43	1080.16
863.74	1088.58
864.06	1096.31
864.37	1097.71
864.68	1095.60
865.00	1085.54
865.31	1067.75
865.62	1075.71
865.94	1087.18
866.25	1079.92
866.56	1079.22
866.87	1093.97
867.19	1081.33
867.50	1062.84
867.81	1060.26
868.12	1053.48
868.44	1050.90
868.75	1050.67
869.06	1059.09
869.37	1067.28
869.68	1069.86
870.00	1076.88
870.31	1091.16
870.62	1088.35
870.93	1083.67
871.24	1079.22
871.56	1075.01
871.87	1060.96
872.18	1059.56
872.49	1059.33
872.80	1068.69
873.12	1075.71
873.43	1080.39
873.74	1080.86
874.05	1086.24
874.36	1083.90
874.67	1079.69
874.98	1082.73
875.29	1079.92
875.61	1078.28
875.92	1067.52
876.23	1061.90
876.54	1056.28
876.85	1056.75
877.16	1060.50
877.47	1084.37
877.78	1082.50
878.09	1088.82
878.40	1095.84
878.72	1095.37
879.03	1081.09
879.34	1083.20
879.65	1089.52
879.96	1086.71
880.27	1081.56
880.58	1076.88
880.89	1075.94
881.20	1072.20
881.51	1071.03
881.82	1078.05
882.13	1076.41
882.44	1078.28
882.75	1068.22
883.06	1074.31
883.37	1067.28
883.68	1066.35
883.99	1067.05
884.30	1060.73
884.61	1051.37
884.92	1066.11
885.23	1062.14
885.54	1064.01
885.85	1075.01
886.16	1082.97
886.47	1071.26
886.78	1082.26
887.08	1078.52
887.39	1076.41
887.70	1069.62
888.01	1065.88
888.32	1065.41
888.63	1070.56
888.94	1072.20
889.25	1079.22
889.56	1078.52
889.87	1076.65
890.17	1078.99
890.48	1088.35
890.79	1085.07
891.10	1085.77
891.41	1089.05
891.72	1093.26
892.03	1088.58
892.34	1080.39
892.64	1086.24
892.95	1080.39
893.26	1068.69
893.57	1063.54
893.88	1061.67
894.18	1051.60
894.49	1057.69
894.80	1053.71
895.11	1047.62
895.42	1050.90
895.72	1053.01
896.03	1046.69
896.34	1054.88
896.65	1058.86
896.96	1065.88
897.26	1063.31
897.57	1073.60
897.88	1067.75
898.19	1070.33
898.49	1071.03
898.80	1074.07
899.11	1064.94
899.41	1067.52
899.72	1073.37
900.03	1075.01
900.34	1081.09
900.64	1078.75
900.95	1082.73
901.26	1078.99
901.56	1080.16
901.87	1080.86
902.18	1088.35
902.48	1090.46
902.79	1082.50
903.10	1078.28
903.40	1073.37
903.71	1071.73
904.02	1064.71
904.32	1075.01
904.63	1079.22
904.94	1085.77
905.24	1087.41
905.55	1091.16
905.85	1085.77
906.16	1083.43
906.47	1083.43
906.77	1085.31
907.08	1082.50
907.38	1088.12
907.69	1086.94
908.00	1074.77
908.30	1077.11
908.61	1077.35
908.91	1074.54
909.22	1071.73
909.52	1072.20
909.83	1073.14
910.14	1078.99
910.44	1074.54
910.75	1079.46
911.05	1093.50
911.36	1081.33
911.66	1067.99
911.97	1068.22
912.27	1064.01
912.58	1053.48
912.88	1051.84
913.19	1066.11
913.49	1073.84
913.80	1070.80
914.10	1074.31
914.41	1080.39
914.71	1075.01
915.01	1078.99
915.32	1079.92
915.62	1075.94
915.93	1080.63
916.23	1080.63
916.54	1065.18
916.84	1070.33
917.15	1075.71
917.45	1076.65
917.75	1071.73
918.06	1077.11
918.36	1078.75
918.67	1076.41
918.97	1065.65
919.27	1076.18
919.58	1083.90
919.88	1084.37
920.18	1080.86
920.49	1082.97
920.79	1085.54
921.10	1088.12
921.40	1089.99
921.70	1102.16
922.01	1107.07
922.31	1092.56
922.61	1088.82
922.92	1081.56
923.22	1073.60
923.52	1081.80
923.82	1089.52
924.13	1090.46
924.43	1082.03
924.73	1078.75
925.04	1080.16
925.34	1074.07
925.64	1065.41
925.94	1077.58
926.25	1077.35
926.55	1076.88
926.85	1082.26
927.15	1082.73
927.46	1070.09
927.76	1065.41
928.06	1051.37
928.36	1047.86
928.67	1053.94
928.97	1061.20
929.27	1072.43
929.57	1083.20
929.87	1080.16
930.18	1081.80
930.48	1092.80
930.78	1091.16
931.08	1081.80
931.38	1090.92
931.69	1082.97
931.99	1074.07
932.29	1080.63
932.59	1077.11
932.89	1075.94
933.19	1084.37
933.49	1084.84
933.80	1077.35
934.10	1079.22
934.40	1070.09
934.70	1064.01
935.00	1075.24
935.30	1076.88
935.60	1079.46
935.90	1082.97
936.20	1080.39
936.50	1071.03
936.81	1072.90
937.11	1074.54
937.41	1078.05
937.71	1082.50
938.01	1087.88
938.31	1088.35
938.61	1083.43
938.91	1081.80
939.21	1089.75
939.51	1084.37
939.81	1084.84
940.11	1097.95
940.41	1104.03
940.71	1096.54
941.01	1099.12
941.31	1093.97
941.61	1082.73
941.91	1071.50
942.21	1072.67
942.51	1070.09
942.81	1077.82
943.11	1089.05
943.41	1097.48
943.71	1099.12
944.01	1099.12
944.31	1089.99
944.61	1090.69
944.90	1100.52
945.20	1106.61
945.50	1104.73
945.80	1100.75
946.10	1093.50
946.40	1083.67
946.70	1075.01
947.00	1082.73
947.30	1083.20
947.60	1075.01
947.89	1075.01
948.19	1064.94
948.49	1063.54
948.79	1076.18
949.09	1082.50
949.39	1084.14
949.69	1101.92
949.98	1096.07
950.28	1083.67
950.58	1070.09
950.88	1061.43
951.18	1050.67
951.48	1050.43
951.77	1042.01
952.07	1050.67
952.37	1064.24
952.67	1068.92
952.97	1066.58
953.26	1078.75
953.56	1087.18
953.86	1078.99
954.16	1073.14
954.45	1081.33
954.75	1080.63
955.05	1080.16
955.35	1091.16
955.64	1096.31
955.94	1098.18
956.24	1102.16
956.54	1093.03
956.83	1088.35
957.13	1083.20
957.43	1072.67
957.72	1076.65
958.02	1078.52
958.32	1066.82
958.61	1067.75
958.91	1068.22
959.21	1068.45
959.50	1075.71
959.80	1079.92
960.10	1087.41
960.39	1080.16
960.69	1076.41
960.99	1072.67
961.28	1071.73
961.58	1078.05
961.87	1095.14
962.17	1093.50
962.47	1093.73
962.76	1090.46
963.06	1077.82
963.36	1067.99
963.65	1069.16
963.95	1064.01
964.24	1077.82
964.54	1076.18
964.83	1077.35
965.13	1075.01
965.42	1086.01
965.72	1080.86
966.02	1086.48
966.31	1093.26
966.61	1093.73
966.90	1084.37
967.20	1074.77
967.49	1063.31
967.79	1056.75
968.08	1059.09
968.38	1061.43
968.67	1067.52
968.97	1077.35
969.26	1084.84
969.56	1084.14
969.85	1084.14
970.15	1079.69
970.44	1083.43
970.74	1079.92
971.03	1078.52
971.32	1066.82
971.62	1072.43
971.91	1071.50
972.21	1067.28
972.50	1062.37
972.80	1082.50
973.09	1082.03
973.38	1072.90
973.68	1071.03
973.97	1072.67
974.27	1061.43
974.56	1065.18
974.85	1070.80
975.15	1087.88
975.44	1092.33
975.73	1099.58
976.03	1104.03
976.32	1104.26
976.61	1087.65
976.91	1088.82
977.20	1083.90
977.49	1078.28
977.79	1075.94
978.08	1076.65
978.37	1076.18
978.67	1073.37
978.96	1077.11
979.25	1084.37
979.55	1084.14
979.84	1078.75
980.13	1093.03
980.42	1089.29
980.72	1089.99
981.01	1091.39
981.30	1091.39
981.59	1082.26
981.89	1084.37
982.18	1075.71
982.47	1078.99
982.76	1077.35
983.06	1079.92
983.35	1074.07
983.64	1075.01
983.93	1072.20
984.22	1077.82
984.52	1082.03
984.81	1082.50
985.10	1088.12
985.39	1089.52
985.68	1078.28
985.97	1076.65
986.27	1069.39
986.56	1063.77
986.85	1066.58
987.14	1080.86
987.43	1080.63
987.72	1088.12
988.01	1091.39
988.31	1082.97
988.60	1076.88
988.89	1066.35
989.18	1075.48
989.47	1073.14
989.76	1080.86
990.05	1087.65
990.34	1090.46
990.63	1091.16
990.92	1092.33
991.21	1090.46
991.51	1091.16
991.80	1088.58
992.09	1075.71
992.38	1067.28
992.67	1064.94
992.96	1057.22
993.25	1065.18
993.54	1074.07
993.83	1078.75
994.12	1083.43
994.41	1089.99
994.70	1086.01
994.99	1085.54
995.28	1083.20
995.57	1082.03
995.86	1076.41
996.15	1076.41
996.44	1066.58
996.73	1069.86
997.02	1059.56
997.31	1053.01
997.59	1057.69
997.88	1059.56
998.17	1058.39
998.46	1071.97
998.75	1087.65
999.04	1088.12
999.33	1100.99
999.62	1108.24
999.91	1100.29
1000.20	1086.24
1000.49	1076.88
1000.77	1062.60
1001.06	1064.24
1001.35	1067.52
1001.64	1071.26
1001.93	1064.24
1002.22	1062.60
1002.51	1052.54
1002.79	1048.79
1003.08	1049.73
1003.37	1071.26
1003.66	1080.86
1003.95	1085.31
1004.23	1086.71
1004.52	1085.54
1004.81	1083.67
1005.10	1082.50
1005.39	1081.56
1005.67	1090.46
1005.96	1093.97
1006.25	1082.03
1006.54	1078.28
1006.83	1081.09
1007.11	1069.16
1007.40	1060.96
1007.69	1070.33
1007.97	1067.99
1008.26	1070.80
1008.55	1085.77
1008.84	1095.14
1009.12	1088.82
1009.41	1093.97
1009.70	1089.99
1009.98	1072.43
1010.27	1074.54
1010.56	1071.50
1010.85	1067.05
1011.13	1068.22
1011.42	1075.48
1011.71	1062.60
1011.99	1076.88
1012.28	1082.73
1012.56	1076.88
1012.85	1084.37
1013.14	1097.71
1013.42	1097.95
1013.71	1103.80
1014.00	1115.97
1014.28	1107.31
1014.57	1098.18
1014.85	1088.12
1015.14	1083.20
1015.43	1079.69
1015.71	1085.54
1016.00	1086.24
1016.28	1084.60
1016.57	1081.56
1016.85	1077.58
1017.14	1077.11
1017.43	1083.90
1017.71	1096.07
1018.00	1090.46
1018.28	1087.88
1018.57	1087.18
1018.85	1089.75
1019.14	1077.35
1019.42	1082.50
1019.71	1087.18
1019.99	1086.71
1020.28	1088.12
1020.56	1089.29
1020.85	1092.09
1021.13	1086.48
1021.42	1081.56
1021.70	1074.77
1021.99	1082.03
1022.27	1076.65
1022.55	1103.56
1022.84	1063.77
>>>>>End Processed Spectral Data<<<<<
