SpectraSuite Data File
++++++++++++++++++++++++++++++++++++
Date: Mon Aug 26 10:24:54 PDT 2019
User: corrico
Dark Spectrum Present: No
Reference Spectrum Present: No
Number of Sampled Component Spectra: 1
Spectrometers: USB2+H06089
Integration Time (usec): 10000 (USB2+H06089)
Spectra Averaged: 2 (USB2+H06089)
Boxcar Smoothing: 2 (USB2+H06089)
Correct for Electrical Dark: No (USB2+H06089)
Strobe/Lamp Enabled: No (USB2+H06089)
Correct for Detector Non-linearity: No (USB2+H06089)
Correct for Stray Light: No (USB2+H06089)
Number of Pixels in Processed Spectrum: 2048
>>>>>Begin Processed Spectral Data<<<<<
339.70	1042.71
340.07	1042.71
340.45	999.41
340.82	983.26
341.19	956.34
341.57	931.07
341.94	923.58
342.31	910.94
342.69	899.23
343.06	902.74
343.43	900.40
343.81	912.11
344.18	913.51
344.55	921.00
344.93	926.38
345.30	929.89
345.67	927.79
346.04	941.13
346.42	938.55
346.79	938.55
347.16	949.09
347.54	962.90
347.91	968.28
348.28	982.79
348.65	997.77
349.03	1010.18
349.40	1007.13
349.77	1013.45
350.14	1026.79
350.52	1035.22
350.89	1043.18
351.26	1052.54
351.63	1065.88
352.01	1070.56
352.38	1071.73
352.75	1071.03
353.12	1077.58
353.50	1071.73
353.87	1067.99
354.24	1070.09
354.61	1064.24
354.98	1057.22
355.36	1061.43
355.73	1056.75
356.10	1045.28
356.47	1058.86
356.84	1063.07
357.22	1066.58
357.59	1077.82
357.96	1101.92
358.33	1099.82
358.70	1109.18
359.08	1110.35
359.45	1105.44
359.82	1089.05
360.19	1086.71
360.56	1086.71
360.94	1078.99
361.31	1072.67
361.68	1074.07
362.05	1056.05
362.42	1049.73
362.79	1044.82
363.16	1049.73
363.54	1059.79
363.91	1072.90
364.28	1073.37
364.65	1083.43
365.02	1077.82
365.39	1070.33
365.76	1071.73
366.14	1078.99
366.51	1077.35
366.88	1090.69
367.25	1091.16
367.62	1091.16
367.99	1076.41
368.36	1072.90
368.73	1068.69
369.10	1071.03
369.48	1083.20
369.85	1093.73
370.22	1098.88
370.59	1102.39
370.96	1103.56
371.33	1093.26
371.70	1089.29
372.07	1081.33
372.44	1077.35
372.81	1072.20
373.18	1077.35
373.55	1085.77
373.93	1090.46
374.30	1085.77
374.67	1092.56
375.04	1086.24
375.41	1085.31
375.78	1090.92
376.15	1093.97
376.52	1090.46
376.89	1097.71
377.26	1099.58
377.63	1099.35
378.00	1098.18
378.37	1100.29
378.74	1096.31
379.11	1095.84
379.48	1098.65
379.85	1106.84
380.22	1114.10
380.59	1106.61
380.96	1101.22
381.33	1088.82
381.70	1080.39
382.07	1066.82
382.44	1080.39
382.81	1085.07
383.18	1096.78
383.55	1089.75
383.92	1092.56
384.29	1085.07
384.66	1086.71
385.03	1078.52
385.40	1089.05
385.77	1081.80
386.14	1084.14
386.51	1073.60
386.88	1085.07
387.25	1084.37
387.62	1101.69
387.99	1105.67
388.36	1121.12
388.73	1124.63
389.10	1125.80
389.46	1121.58
389.83	1117.37
390.20	1107.07
390.57	1092.80
390.94	1095.37
391.31	1090.46
391.68	1095.14
392.05	1097.24
392.42	1107.07
392.79	1105.90
393.16	1111.52
393.53	1111.29
393.89	1112.22
394.26	1104.50
394.63	1105.44
395.00	1100.99
395.37	1099.12
395.74	1103.33
396.11	1107.31
396.48	1111.52
396.84	1112.92
397.21	1120.65
397.58	1121.12
397.95	1121.58
398.32	1123.69
398.69	1120.65
399.06	1128.37
399.42	1132.12
399.79	1141.48
400.16	1142.18
400.53	1155.05
400.90	1143.82
401.27	1141.01
401.64	1141.71
402.00	1142.42
402.37	1146.63
402.74	1156.93
403.11	1167.46
403.48	1177.76
403.84	1188.06
404.21	1195.78
404.58	1201.87
404.95	1206.55
405.32	1207.25
405.68	1219.65
406.05	1231.59
406.42	1244.93
406.79	1259.21
407.16	1282.15
407.52	1284.02
407.89	1296.89
408.26	1306.25
408.63	1321.93
408.99	1321.47
409.36	1346.98
409.73	1368.28
410.10	1394.26
410.47	1421.41
410.83	1460.96
411.20	1505.20
411.57	1537.73
411.94	1573.54
412.30	1614.27
412.67	1666.23
413.04	1700.40
413.40	1745.81
413.77	1800.57
414.14	1857.22
414.51	1908.24
414.87	1973.07
415.24	2039.78
415.61	2106.95
415.97	2176.93
416.34	2251.60
416.71	2326.49
417.08	2416.60
417.44	2517.48
417.81	2635.68
418.18	2748.49
418.54	2874.41
418.91	3005.72
419.28	3137.02
419.64	3266.45
420.01	3420.46
420.38	3569.32
420.74	3717.71
421.11	3899.80
421.48	4072.30
421.84	4260.71
422.21	4474.40
422.58	4706.12
422.94	4936.66
423.31	5151.29
423.68	5390.96
424.04	5637.18
424.41	5872.40
424.77	6114.42
425.14	6435.54
425.51	6753.15
425.87	7097.21
426.24	7460.46
426.61	7853.43
426.97	8278.47
427.34	8680.11
427.70	9124.11
428.07	9562.26
428.44	10033.88
428.80	10475.30
429.17	10953.94
429.53	11421.11
429.90	11996.18
430.27	12497.76
430.63	13003.78
431.00	13624.26
431.36	14314.48
431.73	14876.21
432.09	15509.09
432.46	16182.46
432.83	16740.45
433.19	17223.53
433.56	17836.05
433.92	18421.42
434.29	18993.21
434.65	19609.94
435.02	20204.91
435.38	20787.94
435.75	21271.02
436.11	21895.01
436.48	22360.31
436.84	22917.82
437.21	23336.78
437.57	23740.05
437.94	24007.58
438.30	24428.87
438.67	24566.73
439.03	24734.31
439.40	24912.66
439.76	24872.40
440.13	24707.63
440.49	24649.12
440.86	24353.27
441.22	24104.94
441.59	23826.19
441.95	23497.11
442.32	23010.98
442.68	22699.69
443.05	22204.90
443.41	21714.79
443.78	21135.51
444.14	20618.25
444.51	20011.58
444.87	19595.20
445.24	19136.69
445.60	18755.88
445.96	18293.63
446.33	17901.35
446.69	17340.80
447.06	16859.11
447.42	16313.30
447.79	15874.68
448.15	15454.09
448.51	15050.35
448.88	14705.82
449.24	14320.10
449.61	14040.41
449.97	13730.75
450.33	13411.50
450.70	13002.85
451.06	12695.30
451.43	12225.79
451.79	11812.68
452.15	11494.60
452.52	11219.12
452.88	10982.03
453.24	10806.02
453.61	10627.90
453.97	10376.06
454.34	10128.67
454.70	9882.91
455.06	9613.28
455.43	9318.61
455.79	8969.40
456.15	8668.41
456.52	8339.56
456.88	8101.30
457.24	7826.28
457.61	7669.94
457.97	7479.18
458.33	7280.00
458.70	7049.23
459.06	6835.77
459.42	6624.89
459.79	6379.36
460.15	6168.48
460.51	5975.86
460.88	5772.00
461.24	5590.84
461.60	5478.49
461.96	5357.95
462.33	5213.31
462.69	5083.64
463.05	4929.17
463.42	4772.82
463.78	4634.49
464.14	4523.79
464.50	4430.40
464.87	4330.23
465.23	4238.24
465.59	4179.03
465.95	4067.38
466.32	3974.46
466.68	3907.29
467.04	3809.69
467.40	3691.96
467.77	3621.04
468.13	3559.95
468.49	3479.67
468.85	3426.31
469.22	3369.44
469.58	3322.86
469.94	3254.98
470.30	3192.26
470.66	3137.49
471.03	3100.98
471.39	3035.21
471.75	2973.88
472.11	2922.39
472.47	2882.84
472.84	2815.66
473.20	2754.81
473.56	2717.13
473.92	2670.79
474.28	2620.46
474.65	2585.82
475.01	2554.23
475.37	2500.63
475.73	2465.99
476.09	2429.94
476.45	2395.30
476.81	2361.83
477.18	2338.43
477.54	2307.07
477.90	2283.66
478.26	2242.23
478.62	2230.53
478.98	2207.59
479.34	2195.42
479.71	2170.61
480.07	2155.63
480.43	2115.14
480.79	2090.33
481.15	2050.08
481.51	2013.56
481.87	1995.07
482.23	1980.80
482.59	1954.11
482.96	1945.69
483.32	1941.01
483.68	1911.28
484.04	1895.60
484.40	1874.77
484.76	1843.64
485.12	1825.15
485.48	1807.83
485.84	1789.57
486.20	1774.36
486.56	1763.36
486.92	1734.10
487.28	1718.19
487.64	1705.78
488.00	1693.85
488.37	1681.21
488.73	1666.93
489.09	1653.82
489.45	1610.52
489.81	1594.14
490.17	1568.63
490.53	1559.50
490.89	1551.54
491.25	1559.03
491.61	1545.22
491.97	1544.29
492.33	1531.41
492.69	1518.77
493.05	1505.67
493.41	1502.39
493.77	1496.77
494.13	1478.05
494.49	1461.90
494.85	1450.43
495.21	1441.54
495.57	1421.64
495.93	1416.26
496.29	1406.66
496.64	1394.02
497.00	1382.32
497.36	1383.02
497.72	1377.64
498.08	1369.45
498.44	1363.60
498.80	1347.21
499.16	1329.42
499.52	1315.85
499.88	1308.83
500.24	1301.10
500.60	1308.83
500.96	1302.98
501.32	1295.02
501.68	1285.42
502.03	1288.00
502.39	1277.00
502.75	1273.02
503.11	1272.32
503.47	1270.91
503.83	1273.72
504.19	1257.34
504.55	1255.70
504.91	1257.80
505.26	1251.95
505.62	1235.57
505.98	1237.91
506.34	1233.23
506.70	1222.70
507.06	1218.48
507.42	1201.16
507.78	1200.69
508.13	1195.08
508.49	1199.29
508.85	1197.18
509.21	1210.53
509.57	1198.59
509.93	1193.91
510.28	1185.72
510.64	1181.27
511.00	1164.88
511.36	1178.46
511.72	1185.25
512.07	1182.44
512.43	1174.48
512.79	1183.61
513.15	1165.82
513.51	1157.63
513.86	1146.39
514.22	1161.14
514.58	1161.61
514.94	1168.16
515.30	1165.12
515.65	1165.59
516.01	1142.88
516.37	1134.93
516.73	1127.67
517.08	1124.16
517.44	1131.18
517.80	1138.90
518.16	1137.03
518.51	1134.69
518.87	1138.44
519.23	1130.01
519.59	1122.75
519.94	1121.82
520.30	1115.97
520.66	1107.07
521.01	1106.84
521.37	1120.18
521.73	1131.18
522.09	1137.97
522.44	1143.35
522.80	1153.42
523.16	1148.27
523.51	1134.93
523.87	1138.44
524.23	1138.90
524.58	1135.39
524.94	1128.61
525.30	1139.61
525.65	1137.03
526.01	1129.07
526.37	1119.95
526.72	1130.48
527.08	1135.16
527.44	1131.18
527.79	1128.14
528.15	1137.97
528.51	1133.52
528.86	1125.10
529.22	1118.07
529.58	1118.07
529.93	1107.31
530.29	1095.84
530.65	1080.86
531.00	1081.09
531.36	1083.67
531.71	1097.24
532.07	1104.50
532.43	1116.90
532.78	1119.48
533.14	1121.12
533.49	1108.71
533.85	1120.88
534.21	1117.37
534.56	1121.58
534.92	1136.80
535.27	1139.61
535.63	1133.29
535.98	1134.22
536.34	1123.69
536.69	1101.22
537.05	1095.37
537.41	1086.01
537.76	1093.03
538.12	1102.16
538.47	1118.31
538.83	1133.29
539.18	1135.39
539.54	1135.16
539.89	1135.86
540.25	1126.03
540.60	1111.99
540.96	1114.10
541.31	1106.84
541.67	1109.41
542.02	1102.39
542.38	1106.84
542.73	1109.65
543.09	1112.69
543.44	1098.18
543.80	1111.75
544.15	1113.86
544.51	1124.63
544.86	1120.18
545.22	1129.31
545.57	1121.82
545.93	1115.97
546.28	1095.84
546.64	1093.26
546.99	1094.20
547.35	1093.26
547.70	1092.80
548.05	1103.80
548.41	1108.95
548.76	1111.52
549.12	1110.58
549.47	1108.48
549.83	1095.37
550.18	1092.09
550.53	1091.63
550.89	1087.88
551.24	1090.69
551.60	1103.33
551.95	1108.01
552.30	1113.86
552.66	1116.67
553.01	1115.97
553.37	1105.67
553.72	1105.20
554.07	1087.88
554.43	1088.82
554.78	1095.60
555.13	1097.01
555.49	1102.39
555.84	1111.29
556.19	1118.78
556.55	1116.20
556.90	1113.63
557.26	1100.52
557.61	1095.60
557.96	1080.86
558.32	1076.18
558.67	1071.03
559.02	1065.18
559.37	1070.09
559.73	1080.63
560.08	1076.18
560.43	1087.18
560.79	1102.63
561.14	1099.82
561.49	1099.58
561.85	1109.88
562.20	1105.67
562.55	1093.26
562.90	1100.52
563.26	1095.14
563.61	1089.75
563.96	1092.33
564.32	1096.54
564.67	1094.43
565.02	1094.90
565.37	1097.48
565.73	1090.22
566.08	1094.90
566.43	1092.56
566.78	1097.71
567.14	1090.69
567.49	1104.26
567.84	1101.69
568.19	1097.01
568.54	1099.12
568.90	1108.95
569.25	1095.84
569.60	1086.71
569.95	1097.48
570.31	1097.24
570.66	1082.73
571.01	1085.31
571.36	1097.48
571.71	1092.80
572.06	1090.46
572.42	1101.22
572.77	1091.16
573.12	1088.12
573.47	1074.54
573.82	1074.77
574.18	1079.46
574.53	1094.43
574.88	1097.48
575.23	1106.37
575.58	1100.29
575.93	1096.07
576.28	1094.43
576.64	1094.20
576.99	1096.78
577.34	1103.33
577.69	1100.52
578.04	1102.63
578.39	1098.88
578.74	1093.97
579.09	1097.71
579.44	1100.29
579.80	1093.03
580.15	1095.14
580.50	1092.80
580.85	1091.86
581.20	1088.35
581.55	1099.82
581.90	1103.33
582.25	1107.54
582.60	1105.90
582.95	1115.50
583.30	1110.58
583.65	1098.88
584.00	1094.90
584.35	1097.48
584.71	1091.86
585.06	1087.41
585.41	1099.82
585.76	1109.88
586.11	1105.44
586.46	1114.33
586.81	1119.95
587.16	1110.35
587.51	1102.86
587.86	1111.05
588.21	1093.50
588.56	1089.52
588.91	1094.67
589.26	1098.41
589.61	1087.18
589.96	1091.86
590.31	1087.18
590.66	1074.31
591.01	1077.11
591.36	1078.99
591.71	1082.73
592.06	1094.67
592.41	1097.24
592.76	1098.65
593.10	1094.90
593.45	1090.22
593.80	1090.46
594.15	1091.63
594.50	1073.37
594.85	1077.58
595.20	1080.86
595.55	1074.54
595.90	1082.97
596.25	1093.50
596.60	1099.12
596.95	1092.09
597.30	1096.54
597.64	1135.16
597.99	1137.97
598.34	1141.01
598.69	1146.63
599.04	1144.76
599.39	1110.12
599.74	1108.48
600.09	1104.50
600.44	1101.92
600.78	1103.80
601.13	1094.90
601.48	1097.01
601.83	1086.01
602.18	1088.82
602.53	1086.24
602.88	1091.16
603.22	1089.75
603.57	1099.58
603.92	1092.09
604.27	1088.12
604.62	1086.71
604.97	1086.94
605.31	1086.94
605.66	1095.37
606.01	1098.18
606.36	1090.92
606.71	1080.86
607.05	1075.24
607.40	1073.60
607.75	1069.39
608.10	1076.18
608.44	1087.18
608.79	1092.09
609.14	1092.33
609.49	1098.65
609.84	1102.63
610.18	1104.97
610.53	1099.82
610.88	1099.35
611.23	1088.58
611.57	1089.29
611.92	1094.43
612.27	1109.18
612.62	1112.22
612.96	1123.93
613.31	1124.16
613.66	1113.63
614.00	1106.14
614.35	1108.24
614.70	1100.29
615.05	1108.71
615.39	1106.14
615.74	1097.01
616.09	1100.75
616.43	1108.95
616.78	1092.56
617.13	1094.90
617.47	1095.84
617.82	1086.71
618.17	1080.16
618.51	1082.03
618.86	1087.18
619.21	1097.95
619.55	1097.71
619.90	1103.33
620.25	1092.56
620.59	1073.84
620.94	1064.01
621.29	1072.20
621.63	1068.22
621.98	1080.16
622.32	1095.37
622.67	1092.80
623.02	1081.80
623.36	1087.18
623.71	1090.69
624.05	1095.84
624.40	1091.63
624.75	1087.41
625.09	1078.75
625.44	1089.29
625.78	1087.41
626.13	1099.35
626.48	1112.69
626.82	1109.65
627.17	1088.35
627.51	1094.20
627.86	1089.05
628.20	1080.63
628.55	1080.86
628.89	1090.92
629.24	1083.90
629.58	1091.16
629.93	1085.07
630.28	1088.82
630.62	1093.97
630.97	1096.54
631.31	1098.41
631.66	1106.84
632.00	1111.05
632.35	1101.22
632.69	1103.09
633.04	1103.33
633.38	1103.56
633.73	1101.92
634.07	1102.86
634.42	1089.29
634.76	1088.58
635.11	1089.75
635.45	1083.67
635.79	1080.86
636.14	1091.16
636.48	1091.39
636.83	1097.48
637.17	1105.44
637.52	1111.52
637.86	1116.90
638.21	1111.29
638.55	1101.92
638.89	1102.39
639.24	1093.03
639.58	1085.77
639.93	1089.05
640.27	1080.16
640.61	1077.82
640.96	1078.75
641.30	1072.43
641.65	1064.71
641.99	1072.67
642.33	1067.05
642.68	1077.82
643.02	1083.20
643.37	1091.63
643.71	1090.22
644.05	1101.22
644.40	1096.54
644.74	1096.78
645.08	1095.84
645.43	1103.09
645.77	1103.80
646.11	1103.09
646.46	1101.69
646.80	1097.71
647.14	1090.69
647.49	1076.41
647.83	1070.09
648.17	1068.69
648.52	1068.92
648.86	1068.69
649.20	1078.75
649.55	1086.01
649.89	1094.43
650.23	1089.29
650.57	1093.50
650.92	1086.48
651.26	1082.50
651.60	1077.82
651.95	1076.18
652.29	1077.35
652.63	1077.82
652.97	1075.94
653.32	1071.26
653.66	1076.18
654.00	1079.92
654.34	1087.65
654.69	1096.54
655.03	1097.71
655.37	1099.12
655.71	1094.20
656.05	1086.48
656.40	1077.58
656.74	1084.60
657.08	1084.84
657.42	1084.37
657.76	1087.18
658.11	1095.60
658.45	1090.46
658.79	1096.78
659.13	1089.52
659.47	1089.05
659.82	1093.97
660.16	1101.46
660.50	1095.60
660.84	1100.05
661.18	1097.95
661.52	1089.05
661.87	1084.14
662.21	1082.03
662.55	1085.07
662.89	1079.22
663.23	1075.71
663.57	1073.37
663.91	1071.50
664.25	1068.22
664.60	1071.03
664.94	1081.56
665.28	1082.50
665.62	1083.20
665.96	1087.88
666.30	1096.31
666.64	1087.18
666.98	1087.41
667.32	1086.71
667.66	1085.54
668.01	1093.73
668.35	1099.12
668.69	1093.73
669.03	1086.01
669.37	1084.37
669.71	1073.84
670.05	1068.92
670.39	1071.73
670.73	1085.54
671.07	1089.29
671.41	1082.50
671.75	1084.14
672.09	1086.94
672.43	1074.54
672.77	1067.28
673.11	1069.39
673.45	1072.90
673.79	1070.09
674.13	1078.05
674.47	1082.50
674.81	1086.48
675.15	1082.26
675.49	1080.39
675.83	1078.05
676.17	1078.99
676.51	1085.07
676.85	1086.24
677.19	1090.92
677.53	1089.29
677.87	1095.60
678.21	1089.29
678.55	1086.94
678.89	1090.22
679.23	1090.22
679.57	1090.92
679.90	1088.82
680.24	1091.16
680.58	1082.03
680.92	1081.33
681.26	1062.14
681.60	1063.31
681.94	1056.52
682.28	1070.56
682.62	1072.20
682.96	1081.80
683.29	1083.67
683.63	1090.69
683.97	1079.69
684.31	1078.05
684.65	1078.75
684.99	1084.84
685.33	1086.48
685.67	1085.77
686.00	1078.52
686.34	1072.43
686.68	1072.20
687.02	1069.39
687.36	1067.52
687.70	1078.99
688.03	1093.26
688.37	1090.92
688.71	1093.26
689.05	1097.48
689.39	1088.82
689.72	1086.01
690.06	1076.88
690.40	1078.75
690.74	1076.18
691.08	1079.22
691.41	1089.05
691.75	1100.99
692.09	1082.97
692.43	1090.46
692.76	1101.69
693.10	1090.46
693.44	1078.99
693.78	1082.97
694.11	1082.73
694.45	1079.69
694.79	1066.35
695.13	1076.65
695.46	1091.39
695.80	1086.01
696.14	1080.39
696.48	1084.14
696.81	1080.39
697.15	1072.20
697.49	1066.58
697.82	1066.58
698.16	1068.45
698.50	1063.77
698.83	1071.97
699.17	1077.11
699.51	1076.41
699.84	1085.31
700.18	1096.31
700.52	1097.71
700.85	1094.67
701.19	1099.35
701.53	1091.86
701.86	1086.24
702.20	1086.01
702.54	1091.63
702.87	1093.97
703.21	1092.80
703.55	1086.94
703.88	1090.22
704.22	1086.01
704.55	1091.63
704.89	1091.39
705.23	1099.82
705.56	1090.69
705.90	1105.90
706.23	1102.63
706.57	1099.12
706.91	1099.82
707.24	1101.69
707.58	1090.92
707.91	1082.50
708.25	1081.80
708.58	1083.43
708.92	1085.07
709.26	1081.09
709.59	1083.67
709.93	1097.48
710.26	1085.31
710.60	1082.26
710.93	1085.31
711.27	1087.18
711.60	1081.56
711.94	1084.60
712.27	1089.29
712.61	1092.33
712.94	1090.92
713.28	1098.65
713.61	1102.86
713.95	1106.61
714.28	1100.05
714.62	1099.82
714.95	1091.16
715.29	1082.73
715.62	1077.58
715.96	1071.50
716.29	1067.05
716.63	1070.33
716.96	1070.09
717.29	1062.37
717.63	1072.43
717.96	1077.11
718.30	1078.99
718.63	1089.52
718.97	1094.90
719.30	1091.39
719.63	1097.24
719.97	1095.84
720.30	1083.67
720.64	1081.56
720.97	1076.88
721.30	1058.62
721.64	1052.77
721.97	1060.73
722.31	1062.60
722.64	1074.31
722.97	1086.71
723.31	1091.16
723.64	1085.07
723.97	1087.65
724.31	1075.01
724.64	1082.03
724.98	1082.26
725.31	1093.26
725.64	1080.63
725.98	1085.54
726.31	1073.37
726.64	1065.88
726.97	1057.45
727.31	1061.20
727.64	1061.20
727.97	1064.24
728.31	1074.07
728.64	1073.14
728.97	1076.65
729.31	1073.60
729.64	1065.88
729.97	1053.48
730.30	1062.37
730.64	1060.96
730.97	1069.62
731.30	1080.39
731.63	1082.26
731.97	1077.82
732.30	1081.09
732.63	1073.37
732.96	1074.54
733.30	1086.71
733.63	1085.07
733.96	1085.54
734.29	1086.24
734.63	1077.11
734.96	1072.90
735.29	1073.37
735.62	1072.67
735.95	1073.14
736.29	1079.22
736.62	1078.28
736.95	1087.41
737.28	1090.46
737.61	1083.20
737.94	1087.18
738.28	1086.94
738.61	1070.56
738.94	1075.94
739.27	1085.31
739.60	1091.16
739.93	1100.29
740.27	1106.14
740.60	1099.82
740.93	1096.54
741.26	1086.24
741.59	1069.62
741.92	1074.07
742.25	1068.45
742.58	1077.58
742.91	1082.26
743.25	1080.86
743.58	1070.33
743.91	1070.56
744.24	1068.22
744.57	1062.14
744.90	1069.39
745.23	1065.41
745.56	1072.43
745.89	1064.71
746.22	1069.16
746.55	1070.33
746.88	1077.82
747.21	1067.28
747.54	1076.18
747.87	1075.01
748.20	1073.60
748.53	1074.77
748.87	1085.07
749.20	1084.60
749.53	1090.22
749.86	1094.20
750.19	1096.31
750.52	1090.69
750.85	1089.05
751.18	1083.43
751.51	1084.60
751.84	1082.50
752.16	1079.69
752.49	1084.14
752.82	1082.73
753.15	1073.37
753.48	1078.05
753.81	1092.80
754.14	1078.28
754.47	1077.11
754.80	1078.52
755.13	1076.41
755.46	1064.94
755.79	1072.43
756.12	1072.20
756.45	1077.82
756.78	1079.22
757.11	1070.80
757.43	1069.39
757.76	1065.41
758.09	1066.35
758.42	1071.50
758.75	1073.37
759.08	1079.22
759.41	1088.35
759.74	1086.94
760.07	1082.97
760.39	1093.97
760.72	1081.56
761.05	1082.73
761.38	1078.28
761.71	1073.84
762.04	1065.18
762.36	1079.22
762.69	1075.01
763.02	1083.43
763.35	1084.14
763.68	1090.92
764.01	1083.67
764.33	1077.35
764.66	1072.67
764.99	1075.71
765.32	1066.82
765.65	1080.16
765.97	1087.65
766.30	1088.58
766.63	1091.16
766.96	1088.12
767.28	1077.35
767.61	1082.50
767.94	1083.67
768.27	1078.28
768.59	1092.56
768.92	1089.52
769.25	1076.65
769.58	1072.67
769.90	1071.73
770.23	1072.20
770.56	1069.86
770.89	1082.03
771.21	1085.54
771.54	1096.54
771.87	1093.26
772.19	1096.07
772.52	1095.60
772.85	1099.82
773.17	1093.26
773.50	1091.16
773.83	1089.05
774.15	1079.22
774.48	1081.33
774.81	1072.20
775.13	1073.37
775.46	1078.05
775.79	1086.01
776.11	1082.50
776.44	1093.97
776.77	1092.80
777.09	1090.46
777.42	1088.82
777.74	1083.43
778.07	1071.97
778.40	1072.67
778.72	1075.48
779.05	1069.39
779.37	1080.86
779.70	1093.03
780.03	1089.75
780.35	1091.63
780.68	1101.69
781.00	1095.14
781.33	1095.14
781.65	1096.78
781.98	1075.24
782.31	1075.48
782.63	1073.37
782.96	1066.82
783.28	1065.18
783.61	1082.50
783.93	1078.52
784.26	1078.05
784.58	1081.80
784.91	1089.52
785.23	1090.46
785.56	1086.24
785.88	1090.22
786.21	1084.14
786.53	1076.18
786.86	1070.09
787.18	1077.35
787.51	1065.18
787.83	1069.86
788.16	1065.88
788.48	1075.94
788.81	1071.26
789.13	1078.75
789.46	1082.26
789.78	1090.69
790.10	1080.39
790.43	1076.18
790.75	1069.39
791.08	1069.39
791.40	1068.69
791.73	1081.80
792.05	1087.18
792.37	1102.63
792.70	1093.03
793.02	1088.58
793.35	1079.69
793.67	1082.26
793.99	1068.45
794.32	1086.01
794.64	1086.48
794.96	1085.31
795.29	1078.75
795.61	1080.86
795.93	1055.58
796.26	1056.75
796.58	1056.05
796.91	1055.11
797.23	1058.16
797.55	1070.56
797.87	1080.63
798.20	1087.41
798.52	1093.73
798.84	1091.63
799.17	1094.90
799.49	1086.94
799.81	1082.50
800.14	1075.24
800.46	1082.97
800.78	1077.82
801.10	1080.63
801.43	1082.50
801.75	1095.37
802.07	1093.50
802.40	1095.37
802.72	1099.82
803.04	1093.03
803.36	1085.77
803.69	1085.31
804.01	1092.09
804.33	1094.67
804.65	1102.86
804.97	1098.41
805.30	1091.39
805.62	1087.18
805.94	1080.16
806.26	1079.22
806.58	1085.07
806.91	1086.94
807.23	1087.18
807.55	1076.65
807.87	1079.92
808.19	1077.35
808.52	1074.54
808.84	1075.94
809.16	1080.39
809.48	1071.97
809.80	1066.35
810.12	1075.71
810.44	1075.94
810.77	1077.11
811.09	1074.54
811.41	1068.69
811.73	1068.92
812.05	1056.52
812.37	1061.90
812.69	1064.01
813.01	1067.28
813.33	1069.39
813.66	1078.99
813.98	1067.52
814.30	1071.50
814.62	1082.50
814.94	1070.09
815.26	1064.24
815.58	1059.56
815.90	1053.24
816.22	1054.41
816.54	1056.99
816.86	1066.58
817.18	1079.46
817.50	1076.41
817.82	1075.71
818.14	1078.28
818.46	1067.28
818.78	1066.58
819.10	1075.48
819.42	1073.14
819.74	1083.43
820.06	1078.05
820.38	1081.56
820.70	1075.24
821.02	1075.71
821.34	1064.48
821.66	1078.05
821.98	1074.31
822.30	1086.24
822.62	1080.39
822.94	1083.43
823.26	1071.97
823.58	1065.88
823.90	1056.99
824.22	1058.62
824.54	1056.05
824.86	1069.62
825.18	1075.24
825.50	1080.63
825.81	1081.56
826.13	1081.33
826.45	1074.54
826.77	1078.75
827.09	1074.31
827.41	1083.90
827.73	1087.88
828.05	1090.92
828.36	1088.35
828.68	1092.09
829.00	1084.14
829.32	1072.43
829.64	1073.84
829.96	1077.35
830.28	1070.56
830.59	1067.05
830.91	1073.84
831.23	1064.71
831.55	1060.73
831.87	1065.41
832.19	1068.92
832.50	1072.20
832.82	1082.50
833.14	1080.39
833.46	1085.07
833.78	1081.80
834.09	1076.88
834.41	1076.88
834.73	1091.16
835.05	1095.14
835.36	1092.56
835.68	1101.22
836.00	1100.05
836.32	1093.73
836.63	1080.16
836.95	1086.94
837.27	1085.31
837.59	1093.03
837.90	1083.67
838.22	1084.84
838.54	1092.80
838.85	1085.54
839.17	1079.92
839.49	1091.16
839.80	1099.58
840.12	1090.46
840.44	1090.22
840.76	1080.63
841.07	1077.35
841.39	1071.50
841.71	1073.37
842.02	1077.35
842.34	1073.84
842.65	1080.16
842.97	1075.24
843.29	1071.03
843.60	1072.67
843.92	1081.33
844.24	1066.35
844.55	1067.75
844.87	1068.45
845.18	1065.41
845.50	1070.56
845.82	1075.24
846.13	1080.39
846.45	1078.52
846.76	1078.05
847.08	1075.24
847.40	1075.01
847.71	1081.80
848.03	1083.20
848.34	1087.65
848.66	1090.46
848.97	1095.14
849.29	1084.84
849.60	1084.37
849.92	1087.41
850.24	1081.33
850.55	1071.73
850.87	1072.90
851.18	1071.26
851.50	1069.39
851.81	1072.20
852.13	1074.54
852.44	1071.50
852.76	1075.24
853.07	1069.39
853.39	1065.65
853.70	1069.16
854.01	1072.43
854.33	1076.65
854.64	1076.41
854.96	1081.56
855.27	1077.58
855.59	1080.86
855.90	1074.31
856.22	1078.52
856.53	1070.09
856.84	1075.71
857.16	1071.03
857.47	1071.03
857.79	1069.62
858.10	1075.48
858.41	1069.86
858.73	1074.31
859.04	1071.97
859.36	1077.35
859.67	1071.97
859.98	1080.63
860.30	1086.48
860.61	1093.50
860.92	1081.33
861.24	1092.80
861.55	1086.01
861.87	1078.75
862.18	1075.94
862.49	1086.71
862.81	1081.80
863.12	1081.56
863.43	1087.65
863.74	1088.35
864.06	1094.67
864.37	1090.92
864.68	1093.50
865.00	1089.99
865.31	1090.46
865.62	1076.88
865.94	1071.26
866.25	1060.96
866.56	1061.90
866.87	1060.96
867.19	1059.33
867.50	1066.11
867.81	1084.60
868.12	1087.41
868.44	1088.58
868.75	1084.14
869.06	1080.16
869.37	1071.73
869.68	1065.41
870.00	1055.58
870.31	1071.26
870.62	1073.37
870.93	1075.71
871.24	1075.71
871.56	1087.65
871.87	1071.97
872.18	1075.94
872.49	1077.82
872.80	1076.41
873.12	1074.54
873.43	1078.28
873.74	1076.65
874.05	1072.43
874.36	1075.71
874.67	1071.50
874.98	1076.88
875.29	1077.58
875.61	1077.35
875.92	1080.63
876.23	1085.31
876.54	1086.24
876.85	1086.71
877.16	1083.90
877.47	1080.63
877.78	1073.14
878.09	1070.56
878.40	1062.60
878.72	1060.03
879.03	1061.20
879.34	1069.16
879.65	1067.52
879.96	1083.67
880.27	1086.94
880.58	1086.71
880.89	1084.60
881.20	1087.18
881.51	1079.22
881.82	1084.14
882.13	1087.18
882.44	1083.43
882.75	1079.92
883.06	1077.82
883.37	1077.58
883.68	1074.54
883.99	1085.54
884.30	1091.86
884.61	1090.92
884.92	1089.05
885.23	1098.65
885.54	1095.37
885.85	1095.84
886.16	1100.05
886.47	1101.46
886.78	1091.86
887.08	1085.54
887.39	1082.03
887.70	1078.05
888.01	1075.24
888.32	1090.46
888.63	1089.52
888.94	1079.92
889.25	1084.14
889.56	1083.43
889.87	1062.84
890.17	1066.58
890.48	1079.46
890.79	1078.28
891.10	1074.07
891.41	1075.48
891.72	1076.18
892.03	1078.28
892.34	1070.80
892.64	1075.94
892.95	1077.11
893.26	1079.22
893.57	1071.03
893.88	1070.80
894.18	1074.31
894.49	1073.84
894.80	1071.26
895.11	1084.14
895.42	1094.43
895.72	1096.78
896.03	1098.88
896.34	1097.48
896.65	1089.99
896.96	1087.88
897.26	1076.88
897.57	1065.88
897.88	1063.31
898.19	1053.48
898.49	1049.03
898.80	1057.69
899.11	1072.90
899.41	1073.37
899.72	1082.26
900.03	1091.39
900.34	1078.75
900.64	1072.43
900.95	1073.37
901.26	1068.92
901.56	1067.28
901.87	1079.92
902.18	1086.24
902.48	1096.78
902.79	1100.75
903.10	1103.09
903.40	1099.35
903.71	1092.33
904.02	1078.28
904.32	1083.43
904.63	1077.82
904.94	1079.22
905.24	1085.77
905.55	1101.22
905.85	1097.71
906.16	1092.09
906.47	1087.18
906.77	1090.92
907.08	1084.60
907.38	1088.12
907.69	1095.84
908.00	1096.78
908.30	1086.24
908.61	1088.12
908.91	1087.18
909.22	1084.37
909.52	1089.99
909.83	1086.24
910.14	1082.26
910.44	1075.48
910.75	1079.46
911.05	1074.54
911.36	1093.50
911.66	1100.05
911.97	1103.33
912.27	1103.56
912.58	1109.88
912.88	1087.88
913.19	1077.58
913.49	1069.62
913.80	1064.24
914.10	1052.54
914.41	1069.39
914.71	1082.03
915.01	1078.28
915.32	1079.69
915.62	1080.16
915.93	1064.48
916.23	1055.11
916.54	1066.58
916.84	1077.82
917.15	1087.18
917.45	1091.16
917.75	1092.80
918.06	1089.75
918.36	1079.22
918.67	1074.07
918.97	1078.28
919.27	1074.77
919.58	1079.46
919.88	1074.07
920.18	1075.48
920.49	1075.01
920.79	1079.92
921.10	1081.33
921.40	1078.75
921.70	1071.26
922.01	1080.39
922.31	1075.24
922.61	1066.11
922.92	1067.75
923.22	1080.16
923.52	1072.90
923.82	1071.97
924.13	1083.43
924.43	1085.77
924.73	1075.94
925.04	1075.48
925.34	1078.75
925.64	1061.20
925.94	1065.65
926.25	1073.14
926.55	1079.92
926.85	1083.43
927.15	1107.07
927.46	1114.80
927.76	1111.52
928.06	1106.14
928.36	1108.01
928.67	1096.54
928.97	1074.31
929.27	1075.01
929.57	1076.88
929.87	1076.41
930.18	1076.65
930.48	1089.99
930.78	1089.05
931.08	1089.29
931.38	1079.69
931.69	1071.73
931.99	1061.20
932.29	1061.67
932.59	1052.30
932.89	1053.71
933.19	1061.43
933.49	1074.54
933.80	1078.05
934.10	1080.86
934.40	1090.92
934.70	1085.07
935.00	1085.07
935.30	1087.65
935.60	1099.82
935.90	1104.26
936.20	1110.58
936.50	1112.22
936.81	1100.52
937.11	1081.33
937.41	1067.28
937.71	1062.37
938.01	1066.11
938.31	1070.80
938.61	1077.35
938.91	1085.77
939.21	1096.78
939.51	1096.54
939.81	1095.84
940.11	1099.58
940.41	1085.31
940.71	1082.50
941.01	1076.65
941.31	1086.01
941.61	1086.94
941.91	1090.92
942.21	1081.33
942.51	1084.60
942.81	1075.24
943.11	1072.43
943.41	1082.97
943.71	1090.69
944.01	1085.77
944.31	1092.33
944.61	1098.41
944.90	1089.52
945.20	1087.88
945.50	1087.65
945.80	1088.58
946.10	1071.50
946.40	1073.84
946.70	1075.01
947.00	1071.50
947.30	1073.14
947.60	1079.22
947.89	1080.39
948.19	1089.29
948.49	1101.92
948.79	1095.37
949.09	1104.03
949.39	1101.92
949.69	1095.14
949.98	1091.86
950.28	1093.03
950.58	1087.65
950.88	1085.77
951.18	1083.90
951.48	1081.80
951.77	1088.35
952.07	1088.58
952.37	1090.22
952.67	1087.41
952.97	1090.22
953.26	1086.01
953.56	1089.99
953.86	1085.31
954.16	1086.71
954.45	1081.33
954.75	1079.69
955.05	1095.60
955.35	1096.54
955.64	1093.03
955.94	1085.77
956.24	1081.56
956.54	1054.18
956.83	1062.14
957.13	1066.58
957.43	1064.94
957.72	1065.41
958.02	1076.88
958.32	1067.52
958.61	1064.48
958.91	1067.75
959.21	1077.11
959.50	1075.48
959.80	1085.31
960.10	1084.37
960.39	1083.90
960.69	1074.77
960.99	1071.73
961.28	1066.58
961.58	1062.37
961.87	1060.26
962.17	1065.41
962.47	1056.99
962.76	1060.96
963.06	1073.14
963.36	1083.90
963.65	1081.09
963.95	1092.80
964.24	1089.99
964.54	1086.24
964.83	1080.86
965.13	1076.88
965.42	1067.99
965.72	1068.92
966.02	1061.67
966.31	1056.75
966.61	1064.24
966.90	1076.41
967.20	1077.82
967.49	1085.77
967.79	1093.26
968.08	1084.84
968.38	1071.97
968.67	1072.67
968.97	1066.58
969.26	1067.28
969.56	1067.99
969.85	1086.94
970.15	1080.39
970.44	1092.80
970.74	1086.48
971.03	1084.37
971.32	1070.80
971.62	1075.01
971.91	1066.82
972.21	1064.48
972.50	1067.75
972.80	1071.50
973.09	1073.84
973.38	1078.28
973.68	1080.16
973.97	1079.69
974.27	1084.60
974.56	1083.43
974.85	1073.84
975.15	1075.01
975.44	1079.46
975.73	1084.84
976.03	1080.16
976.32	1078.99
976.61	1088.12
976.91	1086.24
977.20	1075.94
977.49	1083.67
977.79	1088.82
978.08	1076.41
978.37	1078.75
978.67	1083.67
978.96	1067.28
979.25	1060.50
979.55	1066.11
979.84	1073.84
980.13	1064.48
980.42	1084.14
980.72	1091.86
981.01	1102.16
981.30	1091.39
981.59	1096.78
981.89	1087.65
982.18	1090.46
982.47	1078.99
982.76	1078.52
983.06	1080.86
983.35	1077.82
983.64	1067.28
983.93	1077.35
984.22	1078.99
984.52	1072.43
984.81	1073.84
985.10	1075.71
985.39	1065.88
985.68	1068.45
985.97	1074.54
986.27	1079.92
986.56	1094.90
986.85	1098.88
987.14	1094.20
987.43	1089.05
987.72	1081.33
988.01	1062.37
988.31	1064.24
988.60	1063.31
988.89	1062.60
989.18	1065.88
989.47	1071.26
989.76	1065.41
990.05	1072.20
990.34	1077.11
990.63	1071.03
990.92	1071.97
991.21	1075.71
991.51	1078.75
991.80	1086.94
992.09	1099.12
992.38	1101.92
992.67	1091.86
992.96	1084.60
993.25	1071.97
993.54	1067.75
993.83	1079.46
994.12	1088.82
994.41	1085.54
994.70	1085.07
994.99	1087.88
995.28	1078.99
995.57	1078.99
995.86	1092.09
996.15	1096.31
996.44	1091.16
996.73	1079.46
997.02	1075.94
997.31	1065.65
997.59	1060.73
997.88	1059.79
998.17	1064.48
998.46	1067.99
998.75	1076.88
999.04	1080.86
999.33	1082.50
999.62	1076.18
999.91	1079.22
1000.20	1080.39
1000.49	1083.43
1000.77	1083.90
1001.06	1100.52
1001.35	1106.14
1001.64	1099.58
1001.93	1095.84
1002.22	1096.07
1002.51	1082.26
1002.79	1069.16
1003.08	1067.05
1003.37	1080.86
1003.66	1089.05
1003.95	1096.31
1004.23	1099.58
1004.52	1101.92
1004.81	1097.01
1005.10	1096.31
1005.39	1104.03
1005.67	1104.03
1005.96	1113.63
1006.25	1115.97
1006.54	1122.05
1006.83	1116.67
1007.11	1114.56
1007.40	1105.20
1007.69	1097.24
1007.97	1076.88
1008.26	1074.77
1008.55	1082.03
1008.84	1082.50
1009.12	1087.41
1009.41	1090.92
1009.70	1094.20
1009.98	1088.35
1010.27	1091.86
1010.56	1088.35
1010.85	1093.03
1011.13	1087.88
1011.42	1089.05
1011.71	1080.39
1011.99	1075.94
1012.28	1073.60
1012.56	1076.65
1012.85	1076.18
1013.14	1079.46
1013.42	1074.54
1013.71	1069.62
1014.00	1075.24
1014.28	1066.58
1014.57	1064.71
1014.85	1063.77
1015.14	1070.33
1015.43	1065.88
1015.71	1073.37
1016.00	1071.73
1016.28	1088.58
1016.57	1087.41
1016.85	1081.33
1017.14	1088.35
1017.43	1084.84
1017.71	1075.94
1018.00	1083.90
1018.28	1086.24
1018.57	1081.09
1018.85	1094.43
1019.14	1095.37
1019.42	1089.52
1019.71	1090.46
1019.99	1084.37
1020.28	1092.09
1020.56	1090.46
1020.85	1091.63
1021.13	1098.88
1021.42	1104.50
1021.70	1087.41
1021.99	1080.86
1022.27	1077.35
1022.55	1049.73
1022.84	1070.80
>>>>>End Processed Spectral Data<<<<<
