SpectraSuite Data File
++++++++++++++++++++++++++++++++++++
Date: Mon Aug 26 10:24:54 PDT 2019
User: corrico
Dark Spectrum Present: No
Reference Spectrum Present: No
Number of Sampled Component Spectra: 1
Spectrometers: USB2+H06089
Integration Time (usec): 10000 (USB2+H06089)
Spectra Averaged: 2 (USB2+H06089)
Boxcar Smoothing: 2 (USB2+H06089)
Correct for Electrical Dark: No (USB2+H06089)
Strobe/Lamp Enabled: No (USB2+H06089)
Correct for Detector Non-linearity: No (USB2+H06089)
Correct for Stray Light: No (USB2+H06089)
Number of Pixels in Processed Spectrum: 2048
>>>>>Begin Processed Spectral Data<<<<<
339.70	1013.45
340.07	1013.45
340.45	974.83
340.82	957.28
341.19	944.87
341.57	922.64
341.94	915.38
342.31	912.57
342.69	902.74
343.06	886.36
343.43	885.19
343.81	890.34
344.18	892.21
344.55	904.15
344.93	913.51
345.30	917.02
345.67	912.81
346.04	918.19
346.42	918.19
346.79	928.26
347.16	940.43
347.54	953.30
347.91	962.43
348.28	978.58
348.65	995.66
349.03	1010.64
349.40	1033.11
349.77	1046.45
350.14	1058.16
350.52	1062.14
350.89	1059.09
351.26	1052.77
351.63	1056.52
352.01	1049.50
352.38	1052.30
352.75	1056.75
353.12	1067.05
353.50	1072.90
353.87	1078.52
354.24	1071.73
354.61	1085.07
354.98	1082.03
355.36	1076.41
355.73	1080.16
356.10	1093.03
356.47	1085.31
356.84	1093.97
357.22	1104.73
357.59	1096.54
357.96	1094.90
358.33	1089.05
358.70	1080.39
359.08	1076.65
359.45	1083.90
359.82	1084.37
360.19	1088.12
360.56	1093.03
360.94	1087.65
361.31	1100.05
361.68	1093.73
362.05	1097.71
362.42	1095.37
362.79	1097.01
363.16	1075.71
363.54	1067.99
363.91	1068.22
364.28	1063.07
364.65	1064.94
365.02	1072.43
365.39	1072.20
365.76	1070.56
366.14	1075.94
366.51	1076.18
366.88	1083.20
367.25	1093.50
367.62	1093.03
367.99	1088.35
368.36	1081.80
368.73	1069.39
369.10	1063.54
369.48	1063.54
369.85	1066.82
370.22	1070.09
370.59	1071.50
370.96	1069.86
371.33	1063.54
371.70	1064.01
372.07	1059.09
372.44	1061.90
372.81	1070.80
373.18	1075.94
373.55	1071.97
373.93	1073.84
374.30	1079.69
374.67	1073.14
375.04	1073.60
375.41	1077.82
375.78	1081.80
376.15	1091.63
376.52	1094.90
376.89	1100.29
377.26	1105.44
377.63	1118.54
378.00	1105.20
378.37	1104.26
378.74	1099.82
379.11	1093.73
379.48	1087.65
379.85	1076.18
380.22	1083.20
380.59	1074.31
380.96	1079.69
381.33	1076.65
381.70	1093.26
382.07	1080.39
382.44	1084.37
382.81	1085.54
383.18	1085.77
383.55	1082.97
383.92	1084.60
384.29	1092.33
384.66	1089.75
385.03	1099.58
385.40	1113.86
385.77	1121.12
386.14	1124.39
386.51	1122.05
386.88	1110.12
387.25	1097.01
387.62	1096.07
387.99	1088.58
388.36	1091.16
388.73	1088.58
389.10	1092.80
389.46	1093.97
389.83	1097.95
390.20	1099.12
390.57	1113.86
390.94	1112.69
391.31	1120.65
391.68	1132.82
392.05	1128.61
392.42	1123.46
392.79	1124.39
393.16	1111.05
393.53	1096.07
393.89	1100.75
394.26	1086.01
394.63	1082.26
395.00	1087.18
395.37	1090.92
395.74	1092.09
396.11	1104.26
396.48	1095.84
396.84	1097.01
397.21	1109.18
397.58	1118.54
397.95	1126.03
398.32	1147.56
398.69	1150.37
399.06	1143.35
399.42	1143.12
399.79	1140.54
400.16	1123.69
400.53	1125.10
400.90	1133.52
401.27	1128.84
401.64	1139.37
402.00	1151.54
402.37	1165.82
402.74	1168.16
403.11	1163.48
403.48	1155.29
403.84	1166.29
404.21	1159.27
404.58	1165.12
404.95	1183.14
405.32	1200.46
405.68	1210.76
406.05	1230.89
406.42	1236.51
406.79	1247.74
407.16	1247.04
407.52	1241.89
407.89	1257.34
408.26	1277.93
408.63	1298.53
408.99	1324.28
409.36	1366.64
409.73	1390.51
410.10	1410.41
410.47	1447.39
410.83	1484.37
411.20	1517.37
411.57	1538.90
411.94	1576.82
412.30	1605.37
412.67	1633.23
413.04	1664.35
413.40	1718.66
413.77	1767.57
414.14	1818.36
414.51	1893.96
414.87	1954.35
415.24	2012.16
415.61	2091.50
415.97	2166.63
416.34	2231.47
416.71	2321.58
417.08	2417.31
417.44	2491.73
417.81	2593.08
418.18	2693.96
418.54	2802.09
418.91	2918.65
419.28	3054.63
419.64	3198.11
420.01	3350.24
420.38	3489.97
420.74	3642.34
421.11	3815.07
421.48	3990.38
421.84	4158.66
422.21	4345.44
422.58	4569.19
422.94	4810.74
423.31	5040.11
423.68	5311.85
424.04	5585.22
424.41	5829.57
424.77	6071.35
425.14	6343.32
425.51	6607.57
425.87	6954.90
426.24	7278.83
426.61	7625.00
426.97	8059.17
427.34	8457.99
427.70	8860.80
428.07	9308.54
428.44	9799.59
428.80	10211.06
429.17	10739.55
429.53	11194.08
429.90	11757.45
430.27	12223.68
430.63	12732.05
431.00	13250.01
431.36	13980.72
431.73	14527.47
432.09	15118.46
432.46	15742.21
432.83	16299.49
433.19	16717.74
433.56	17273.15
433.92	17863.44
434.29	18401.76
434.65	19060.85
435.02	19623.29
435.38	20227.38
435.75	20728.95
436.11	21296.07
436.48	21726.02
436.84	22278.39
437.21	22692.66
437.57	23109.98
437.94	23489.85
438.30	23837.42
438.67	23987.45
439.03	24142.16
439.40	24238.35
439.76	24144.73
440.13	24038.47
440.49	23950.47
440.86	23668.43
441.22	23426.89
441.59	23153.28
441.95	22776.22
442.32	22332.22
442.68	21976.23
443.05	21506.25
443.41	21021.05
443.78	20492.09
444.14	20008.77
444.51	19454.53
444.87	19088.24
445.24	18690.58
445.60	18328.50
445.96	17855.95
446.33	17429.50
446.69	16857.71
447.06	16382.35
447.42	15894.81
447.79	15498.79
448.15	15170.88
448.51	14794.29
448.88	14420.74
449.24	14041.58
449.61	13699.62
449.97	13354.86
450.33	13036.08
450.70	12661.60
451.06	12359.90
451.43	11960.61
451.79	11648.14
452.15	11316.72
452.52	11029.54
452.88	10791.27
453.24	10581.56
453.61	10318.72
453.97	10105.73
454.34	9835.87
454.70	9584.03
455.06	9350.91
455.43	9045.00
455.79	8732.77
456.15	8500.12
456.52	8178.53
456.88	7910.54
457.24	7685.15
457.61	7479.42
457.97	7278.13
458.33	7087.84
458.70	6892.41
459.06	6682.93
459.42	6486.33
459.79	6273.10
460.15	6080.24
460.51	5884.34
460.88	5710.67
461.24	5546.60
461.60	5372.70
461.96	5238.12
462.33	5105.18
462.69	4930.57
463.05	4791.54
463.42	4679.67
463.78	4534.32
464.14	4411.91
464.50	4339.35
464.87	4233.33
465.23	4127.07
465.59	4050.53
465.95	3960.89
466.32	3867.97
466.68	3792.14
467.04	3716.07
467.40	3624.09
467.77	3542.63
468.13	3461.42
468.49	3396.12
468.85	3341.35
469.22	3292.67
469.58	3240.47
469.94	3199.98
470.30	3124.38
470.66	3075.23
471.03	3029.36
471.39	2995.89
471.75	2922.16
472.11	2882.60
472.47	2830.41
472.84	2769.79
473.20	2708.00
473.56	2679.68
473.92	2626.08
474.28	2582.55
474.65	2550.25
475.01	2514.67
475.37	2454.52
475.73	2435.56
476.09	2394.84
476.45	2342.17
476.81	2308.00
477.18	2290.68
477.54	2255.34
477.90	2224.45
478.26	2206.19
478.62	2169.21
478.98	2144.87
479.34	2120.29
479.71	2104.84
480.07	2080.27
480.43	2054.52
480.79	2028.31
481.15	2003.03
481.51	1972.84
481.87	1951.07
482.23	1928.37
482.59	1911.52
482.96	1893.96
483.32	1881.09
483.68	1861.66
484.04	1848.79
484.40	1834.75
484.76	1819.77
485.12	1813.45
485.48	1803.38
485.84	1801.04
486.20	1783.25
486.56	1763.36
486.92	1743.00
487.28	1721.70
487.64	1698.99
488.00	1686.36
488.37	1677.93
488.73	1656.63
489.09	1650.31
489.45	1634.63
489.81	1618.48
490.17	1602.33
490.53	1595.54
490.89	1575.18
491.25	1562.78
491.61	1541.94
491.97	1519.71
492.33	1506.84
492.69	1497.94
493.05	1480.62
493.41	1466.58
493.77	1466.11
494.13	1445.28
494.49	1445.05
494.85	1440.60
495.21	1437.32
495.57	1412.51
495.93	1398.94
496.29	1373.43
496.64	1357.51
497.00	1349.55
497.36	1349.55
497.72	1355.40
498.08	1357.04
498.44	1355.87
498.80	1351.89
499.16	1346.28
499.52	1331.76
499.88	1320.06
500.24	1318.42
500.60	1305.32
500.96	1300.17
501.32	1292.91
501.68	1286.83
502.03	1280.51
502.39	1278.17
502.75	1277.23
503.11	1268.57
503.47	1259.91
503.83	1252.65
504.19	1251.02
504.55	1237.91
504.91	1232.99
505.26	1228.31
505.62	1227.85
505.98	1217.08
506.34	1213.57
506.70	1214.97
507.06	1208.42
507.42	1197.42
507.78	1198.59
508.13	1198.82
508.49	1199.06
508.85	1202.57
509.21	1197.42
509.57	1200.69
509.93	1193.21
510.28	1180.10
510.64	1183.61
511.00	1189.69
511.36	1178.46
511.72	1183.37
512.07	1189.69
512.43	1177.52
512.79	1168.40
513.15	1166.76
513.51	1166.29
513.86	1164.88
514.22	1160.20
514.58	1156.93
514.94	1149.91
515.30	1130.95
515.65	1128.84
516.01	1131.88
516.37	1139.14
516.73	1161.61
517.08	1173.54
517.44	1167.46
517.80	1164.18
518.16	1157.63
518.51	1143.35
518.87	1143.82
519.23	1144.29
519.59	1148.27
519.94	1142.65
520.30	1141.95
520.66	1141.01
521.01	1141.01
521.37	1138.67
521.73	1140.54
522.09	1146.86
522.44	1147.10
522.80	1136.33
523.16	1139.14
523.51	1139.14
523.87	1130.24
524.23	1130.95
524.58	1136.80
524.94	1133.29
525.30	1129.31
525.65	1126.27
526.01	1118.78
526.37	1114.56
526.72	1099.58
527.08	1093.03
527.44	1089.52
527.79	1087.65
528.15	1102.16
528.51	1113.16
528.86	1118.54
529.22	1122.75
529.58	1126.03
529.93	1125.10
530.29	1123.93
530.65	1129.31
531.00	1123.46
531.36	1115.97
531.71	1112.22
532.07	1102.63
532.43	1089.75
532.78	1087.18
533.14	1089.52
533.49	1092.33
533.85	1098.88
534.21	1102.63
534.56	1102.16
534.92	1105.90
535.27	1092.80
535.63	1106.84
535.98	1110.35
536.34	1118.78
536.69	1118.31
537.05	1125.56
537.41	1116.90
537.76	1115.73
538.12	1117.14
538.47	1115.27
538.83	1118.78
539.18	1123.46
539.54	1122.05
539.89	1110.58
540.25	1110.35
540.60	1105.67
540.96	1102.16
541.31	1108.48
541.67	1122.52
542.02	1119.24
542.38	1108.24
542.73	1110.82
543.09	1113.63
543.44	1097.01
543.80	1097.48
544.15	1113.86
544.51	1109.88
544.86	1103.09
545.22	1110.12
545.57	1108.95
545.93	1097.24
546.28	1086.48
546.64	1085.31
546.99	1091.16
547.35	1093.26
547.70	1104.73
548.05	1111.05
548.41	1109.41
548.76	1097.95
549.12	1087.41
549.47	1086.94
549.83	1100.05
550.18	1103.33
550.53	1109.41
550.89	1115.50
551.24	1114.09
551.60	1107.07
551.95	1101.22
552.30	1099.58
552.66	1108.48
553.01	1102.39
553.37	1094.90
553.72	1104.50
554.07	1110.12
554.43	1104.97
554.78	1101.46
555.13	1109.65
555.49	1103.33
555.84	1101.92
556.19	1107.54
556.55	1105.20
556.90	1099.35
557.26	1107.78
557.61	1094.67
557.96	1092.33
558.32	1090.69
558.67	1092.56
559.02	1075.71
559.37	1090.92
559.73	1093.26
560.08	1099.12
560.43	1098.88
560.79	1106.14
561.14	1095.84
561.49	1092.33
561.85	1091.86
562.20	1091.39
562.55	1098.18
562.90	1106.84
563.26	1113.63
563.61	1117.84
563.96	1113.39
564.32	1114.56
564.67	1108.24
565.02	1095.37
565.37	1094.67
565.73	1095.14
566.08	1091.39
566.43	1097.48
566.78	1106.37
567.14	1105.67
567.49	1104.97
567.84	1104.97
568.19	1100.05
568.54	1094.43
568.90	1089.99
569.25	1096.54
569.60	1092.09
569.95	1091.39
570.31	1089.99
570.66	1091.63
571.01	1090.22
571.36	1093.73
571.71	1098.65
572.06	1108.24
572.42	1105.67
572.77	1105.44
573.12	1110.35
573.47	1110.58
573.82	1106.84
574.18	1111.52
574.53	1108.71
574.88	1104.03
575.23	1098.88
575.58	1097.01
575.93	1090.69
576.28	1091.16
576.64	1085.07
576.99	1091.86
577.34	1087.65
577.69	1097.24
578.04	1099.35
578.39	1100.99
578.74	1088.12
579.09	1082.50
579.44	1079.69
579.80	1092.09
580.15	1093.03
580.50	1105.90
580.85	1114.33
581.20	1115.97
581.55	1099.82
581.90	1098.41
582.25	1098.65
582.60	1091.16
582.95	1078.99
583.30	1077.82
583.65	1077.82
584.00	1071.26
584.35	1080.16
584.71	1089.75
585.06	1103.33
585.41	1109.65
585.76	1106.37
586.11	1108.24
586.46	1109.65
586.81	1107.31
587.16	1106.84
587.51	1113.16
587.86	1111.52
588.21	1116.90
588.56	1111.52
588.91	1106.61
589.26	1099.35
589.61	1095.14
589.96	1080.39
590.31	1071.50
590.66	1070.80
591.01	1070.09
591.36	1070.56
591.71	1077.35
592.06	1088.82
592.41	1098.88
592.76	1116.44
593.10	1122.05
593.45	1127.44
593.80	1122.75
594.15	1110.82
594.50	1109.88
594.85	1110.12
595.20	1105.90
595.55	1104.50
595.90	1110.58
596.25	1100.05
596.60	1093.03
596.95	1089.99
597.30	1088.58
597.64	1123.22
597.99	1124.39
598.34	1124.86
598.69	1135.86
599.04	1148.27
599.39	1111.75
599.74	1106.37
600.09	1111.52
600.44	1099.82
600.78	1093.03
601.13	1101.22
601.48	1105.44
601.83	1100.99
602.18	1101.92
602.53	1084.84
602.88	1080.39
603.22	1077.11
603.57	1081.33
603.92	1083.67
604.27	1099.82
604.62	1090.92
604.97	1086.94
605.31	1073.14
605.66	1084.14
606.01	1085.31
606.36	1093.26
606.71	1108.01
607.05	1121.58
607.40	1111.05
607.75	1103.56
608.10	1096.78
608.44	1086.01
608.79	1082.03
609.14	1083.43
609.49	1083.67
609.84	1092.80
610.18	1090.46
610.53	1099.12
610.88	1095.84
611.23	1093.73
611.57	1092.33
611.92	1082.73
612.27	1078.99
612.62	1075.01
612.96	1084.14
613.31	1082.26
613.66	1105.90
614.00	1102.39
614.35	1104.03
614.70	1096.07
615.05	1090.22
615.39	1076.65
615.74	1071.03
616.09	1071.73
616.43	1072.67
616.78	1076.65
617.13	1083.90
617.47	1092.33
617.82	1083.20
618.17	1082.26
618.51	1076.65
618.86	1080.63
619.21	1079.92
619.55	1091.39
619.90	1089.29
620.25	1088.82
620.59	1086.24
620.94	1087.65
621.29	1091.86
621.63	1096.78
621.98	1092.56
622.32	1081.80
622.67	1085.54
623.02	1069.39
623.36	1077.58
623.71	1087.41
624.05	1091.16
624.40	1081.56
624.75	1085.77
625.09	1074.31
625.44	1076.41
625.78	1083.20
626.13	1085.54
626.48	1091.63
626.82	1097.71
627.17	1091.16
627.51	1082.03
627.86	1081.33
628.20	1085.07
628.55	1085.31
628.89	1092.56
629.24	1097.48
629.58	1101.46
629.93	1099.12
630.28	1098.88
630.62	1096.31
630.97	1095.84
631.31	1094.43
631.66	1088.12
632.00	1081.56
632.35	1081.33
632.69	1078.99
633.04	1076.18
633.38	1073.14
633.73	1074.31
634.07	1078.28
634.42	1091.16
634.76	1089.05
635.11	1087.18
635.45	1095.84
635.79	1092.80
636.14	1081.56
636.48	1082.03
636.83	1097.48
637.17	1084.60
637.52	1081.09
637.86	1087.88
638.21	1086.71
638.55	1079.92
638.89	1094.43
639.24	1090.92
639.58	1077.11
639.93	1086.71
640.27	1081.09
640.61	1066.11
640.96	1069.16
641.30	1073.14
641.65	1060.73
641.99	1068.92
642.33	1069.86
642.68	1068.69
643.02	1069.39
643.37	1075.71
643.71	1077.82
644.05	1086.48
644.40	1093.26
644.74	1093.97
645.08	1083.43
645.43	1089.99
645.77	1082.50
646.11	1088.58
646.46	1085.54
646.80	1105.20
647.14	1104.50
647.49	1113.86
647.83	1118.54
648.17	1126.50
648.52	1119.48
648.86	1103.33
649.20	1102.16
649.55	1088.58
649.89	1087.88
650.23	1089.99
650.57	1106.14
650.92	1099.82
651.26	1100.75
651.60	1092.80
651.95	1100.52
652.29	1089.52
652.63	1095.14
652.97	1093.26
653.32	1090.22
653.66	1076.41
654.00	1078.05
654.34	1082.50
654.69	1081.09
655.03	1086.24
655.37	1093.03
655.71	1088.58
656.05	1088.35
656.40	1095.14
656.74	1105.20
657.08	1100.05
657.42	1109.65
657.76	1114.56
658.11	1113.39
658.45	1109.41
658.79	1106.14
659.13	1108.24
659.47	1100.99
659.82	1099.12
660.16	1088.12
660.50	1089.29
660.84	1075.94
661.18	1070.09
661.52	1066.82
661.87	1086.71
662.21	1082.50
662.55	1086.24
662.89	1082.73
663.23	1079.69
663.57	1065.88
663.91	1069.39
664.25	1067.99
664.60	1079.92
664.94	1079.46
665.28	1088.35
665.62	1080.39
665.96	1083.43
666.30	1076.65
666.64	1085.07
666.98	1078.75
667.32	1090.22
667.66	1089.52
668.01	1091.39
668.35	1089.75
668.69	1086.48
669.03	1083.90
669.37	1083.43
669.71	1079.46
670.05	1082.03
670.39	1084.84
670.73	1079.69
671.07	1080.86
671.41	1087.41
671.75	1077.11
672.09	1079.69
672.43	1077.82
672.77	1078.99
673.11	1077.35
673.45	1074.77
673.79	1066.11
674.13	1078.99
674.47	1070.33
674.81	1069.39
675.15	1073.37
675.49	1082.73
675.83	1072.43
676.17	1081.56
676.51	1076.65
676.85	1081.80
677.19	1067.05
677.53	1074.07
677.87	1070.56
678.21	1067.75
678.55	1062.37
678.89	1071.03
679.23	1066.35
679.57	1067.05
679.90	1074.77
680.24	1083.90
680.58	1084.60
680.92	1086.94
681.26	1085.77
681.60	1075.24
681.94	1071.03
682.28	1074.07
682.62	1075.48
682.96	1080.39
683.29	1088.12
683.63	1092.09
683.97	1087.65
684.31	1088.35
684.65	1088.12
684.99	1092.33
685.33	1088.12
685.67	1086.94
686.00	1086.48
686.34	1091.39
686.68	1092.56
687.02	1093.50
687.36	1096.31
687.70	1097.48
688.03	1087.41
688.37	1084.84
688.71	1089.52
689.05	1096.78
689.39	1093.73
689.72	1097.71
690.06	1090.69
690.40	1088.35
690.74	1082.26
691.08	1083.20
691.41	1075.01
691.75	1067.28
692.09	1061.20
692.43	1063.07
692.76	1063.54
693.10	1068.69
693.44	1076.41
693.78	1086.01
694.11	1089.52
694.45	1085.07
694.79	1091.86
695.13	1094.43
695.46	1087.88
695.80	1086.48
696.14	1084.84
696.48	1079.46
696.81	1075.24
697.15	1078.28
697.49	1070.33
697.82	1064.71
698.16	1069.86
698.50	1076.88
698.83	1074.54
699.17	1083.67
699.51	1084.60
699.84	1083.43
700.18	1086.24
700.52	1092.09
700.85	1076.41
701.19	1088.35
701.53	1078.99
701.86	1076.88
702.20	1070.33
702.54	1079.22
702.87	1087.65
703.21	1104.97
703.55	1088.58
703.88	1082.03
704.22	1081.33
704.55	1078.52
704.89	1061.67
705.23	1068.69
705.56	1077.58
705.90	1093.97
706.23	1085.07
706.57	1080.86
706.91	1091.63
707.24	1078.28
707.58	1064.24
707.91	1063.31
708.25	1072.90
708.58	1070.56
708.92	1084.14
709.26	1093.03
709.59	1095.60
709.93	1093.97
710.26	1095.37
710.60	1091.16
710.93	1084.60
711.27	1093.50
711.60	1097.01
711.94	1092.09
712.27	1090.69
712.61	1084.84
712.94	1072.67
713.28	1065.65
713.61	1067.28
713.95	1067.52
714.28	1070.56
714.62	1070.80
714.95	1083.43
715.29	1093.03
715.62	1093.50
715.96	1099.12
716.29	1108.01
716.63	1100.75
716.96	1086.48
717.29	1090.46
717.63	1086.71
717.96	1077.58
718.30	1078.05
718.63	1089.29
718.97	1090.22
719.30	1089.05
719.63	1095.14
719.97	1099.82
720.30	1089.52
720.64	1079.69
720.97	1073.14
721.30	1072.90
721.64	1073.37
721.97	1083.43
722.31	1092.80
722.64	1095.84
722.97	1094.43
723.31	1090.46
723.64	1083.43
723.97	1076.18
724.31	1075.71
724.64	1075.24
724.98	1070.33
725.31	1071.73
725.64	1086.01
725.98	1083.43
726.31	1080.16
726.64	1075.71
726.97	1072.20
727.31	1065.88
727.64	1078.52
727.97	1082.03
728.31	1084.84
728.64	1079.46
728.97	1073.37
729.31	1071.26
729.64	1072.43
729.97	1075.71
730.30	1087.18
730.64	1082.97
730.97	1077.11
731.30	1067.75
731.63	1066.82
731.97	1054.18
732.30	1064.71
732.63	1067.28
732.96	1072.20
733.30	1070.09
733.63	1075.24
733.96	1077.35
734.29	1076.65
734.63	1073.14
734.96	1067.52
735.29	1065.65
735.62	1063.77
735.95	1071.26
736.29	1075.01
736.62	1089.99
736.95	1095.84
737.28	1093.97
737.61	1089.29
737.94	1092.33
738.28	1089.05
738.61	1093.73
738.94	1088.58
739.27	1091.16
739.60	1081.56
739.93	1081.33
740.27	1080.39
740.60	1089.05
740.93	1083.43
741.26	1096.31
741.59	1094.43
741.92	1090.22
742.25	1087.65
742.58	1080.39
742.91	1068.69
743.25	1069.86
743.58	1064.01
743.91	1053.71
744.24	1052.07
744.57	1049.96
744.90	1051.84
745.23	1059.56
745.56	1067.05
745.89	1071.03
746.22	1083.20
746.55	1084.60
746.88	1092.09
747.21	1092.09
747.54	1097.01
747.87	1090.92
748.20	1079.92
748.53	1074.31
748.87	1081.33
749.20	1080.16
749.53	1081.56
749.86	1082.50
750.19	1086.48
750.52	1073.60
750.85	1069.86
751.18	1071.73
751.51	1076.18
751.84	1069.39
752.16	1070.33
752.49	1083.90
752.82	1082.03
753.15	1087.65
753.48	1091.16
753.81	1096.54
754.14	1088.82
754.47	1083.20
754.80	1072.43
755.13	1069.16
755.46	1068.22
755.79	1061.90
756.12	1074.31
756.45	1082.73
756.78	1088.35
757.11	1095.14
757.43	1097.01
757.76	1097.24
758.09	1095.60
758.42	1092.80
758.75	1081.56
759.08	1091.39
759.41	1088.12
759.74	1085.31
760.07	1080.63
760.39	1081.80
760.72	1079.46
761.05	1073.37
761.38	1080.86
761.71	1091.16
762.04	1095.84
762.36	1084.84
762.69	1096.31
763.02	1086.48
763.35	1075.71
763.68	1076.41
764.01	1093.97
764.33	1084.84
764.66	1091.16
764.99	1095.84
765.32	1088.35
765.65	1087.65
765.97	1082.73
766.30	1080.39
766.63	1076.41
766.96	1079.92
767.28	1073.14
767.61	1077.82
767.94	1080.16
768.27	1072.67
768.59	1077.35
768.92	1078.52
769.25	1080.16
769.58	1078.52
769.90	1081.80
770.23	1078.05
770.56	1076.88
770.89	1083.20
771.21	1081.56
771.54	1087.41
771.87	1092.33
772.19	1088.58
772.52	1079.69
772.85	1080.63
773.17	1080.86
773.50	1075.94
773.83	1080.39
774.15	1085.07
774.48	1079.69
774.81	1082.50
775.13	1082.97
775.46	1085.54
775.79	1088.58
776.11	1092.56
776.44	1092.56
776.77	1092.33
777.09	1083.90
777.42	1074.77
777.74	1060.96
778.07	1062.14
778.40	1066.82
778.72	1073.37
779.05	1073.84
779.37	1086.71
779.70	1079.92
780.03	1082.26
780.35	1078.52
780.68	1066.58
781.00	1068.45
781.33	1075.71
781.65	1076.18
781.98	1069.16
782.31	1085.31
782.63	1097.01
782.96	1089.29
783.28	1082.26
783.61	1090.69
783.93	1088.58
784.26	1068.22
784.58	1065.65
784.91	1067.28
785.23	1063.77
785.56	1065.88
785.88	1078.75
786.21	1081.33
786.53	1070.33
786.86	1072.90
787.18	1066.58
787.51	1067.75
787.83	1075.94
788.16	1082.73
788.48	1071.03
788.81	1071.73
789.13	1064.94
789.46	1066.58
789.78	1077.11
790.10	1089.52
790.43	1097.95
790.75	1102.16
791.08	1096.07
791.40	1082.50
791.73	1085.07
792.05	1078.75
792.37	1082.50
792.70	1083.43
793.02	1096.31
793.35	1085.07
793.67	1089.52
793.99	1080.39
794.32	1074.54
794.64	1073.84
794.96	1089.99
795.29	1079.92
795.61	1089.05
795.93	1086.71
796.26	1075.01
796.58	1062.37
796.91	1065.88
797.23	1060.96
797.55	1071.50
797.87	1073.60
798.20	1082.97
798.52	1088.58
798.84	1094.90
799.17	1098.18
799.49	1098.18
799.81	1096.54
800.14	1100.99
800.46	1102.16
800.78	1093.26
801.10	1090.92
801.43	1082.97
801.75	1072.67
802.07	1064.48
802.40	1061.20
802.72	1065.41
803.04	1068.69
803.36	1065.88
803.69	1060.50
804.01	1070.80
804.33	1077.35
804.65	1079.92
804.97	1092.33
805.30	1101.46
805.62	1092.33
805.94	1084.60
806.26	1083.43
806.58	1074.54
806.91	1061.20
807.23	1053.48
807.55	1055.82
807.87	1054.65
808.19	1050.43
808.52	1058.86
808.84	1075.01
809.16	1077.11
809.48	1085.31
809.80	1083.90
810.12	1088.35
810.44	1085.31
810.77	1083.43
811.09	1069.62
811.41	1076.88
811.73	1073.37
812.05	1072.67
812.37	1067.28
812.69	1072.67
813.01	1069.39
813.33	1071.26
813.66	1075.94
813.98	1087.88
814.30	1092.56
814.62	1096.54
814.94	1093.97
815.26	1088.58
815.58	1082.73
815.90	1078.99
816.22	1079.92
816.54	1078.28
816.86	1086.01
817.18	1080.63
817.50	1082.73
817.82	1084.84
818.14	1081.80
818.46	1078.52
818.78	1080.39
819.10	1073.84
819.42	1068.92
819.74	1069.16
820.06	1067.75
820.38	1073.37
820.70	1067.52
821.02	1074.77
821.34	1074.31
821.66	1075.48
821.98	1069.62
822.30	1079.22
822.62	1083.43
822.94	1089.75
823.26	1091.39
823.58	1091.86
823.90	1098.88
824.22	1092.09
824.54	1081.33
824.86	1067.05
825.18	1070.56
825.50	1051.37
825.81	1053.94
826.13	1073.37
826.45	1084.84
826.77	1091.63
827.09	1106.61
827.41	1105.67
827.73	1094.90
828.05	1091.39
828.36	1077.82
828.68	1067.52
829.00	1064.24
829.32	1062.37
829.64	1072.20
829.96	1075.94
830.28	1090.69
830.59	1090.69
830.91	1089.52
831.23	1081.56
831.55	1081.33
831.87	1070.80
832.19	1073.37
832.50	1078.52
832.82	1085.77
833.14	1090.46
833.46	1085.07
833.78	1074.31
834.09	1076.18
834.41	1062.84
834.73	1059.09
835.05	1064.48
835.36	1073.14
835.68	1070.33
836.00	1072.67
836.32	1071.26
836.63	1075.48
836.95	1068.22
837.27	1066.82
837.59	1069.39
837.90	1073.84
838.22	1073.37
838.54	1077.11
838.85	1074.31
839.17	1073.60
839.49	1065.65
839.80	1064.94
840.12	1068.22
840.44	1080.16
840.76	1081.80
841.07	1076.88
841.39	1079.46
841.71	1078.28
842.02	1073.37
842.34	1068.45
842.65	1081.56
842.97	1078.75
843.29	1079.69
843.60	1078.52
843.92	1082.73
844.24	1080.63
844.55	1081.33
844.87	1085.07
845.18	1076.18
845.50	1076.65
845.82	1072.20
846.13	1072.67
846.45	1068.92
846.76	1076.41
847.08	1067.52
847.40	1071.97
847.71	1068.22
848.03	1066.58
848.34	1061.20
848.66	1061.67
848.97	1058.62
849.29	1058.62
849.60	1059.33
849.92	1073.84
850.24	1081.80
850.55	1077.58
850.87	1086.24
851.18	1090.92
851.50	1090.46
851.81	1081.56
852.13	1091.63
852.44	1085.77
852.76	1089.05
853.07	1078.75
853.39	1086.94
853.70	1084.37
854.01	1077.82
854.33	1075.48
854.64	1082.50
854.96	1082.03
855.27	1084.14
855.59	1090.69
855.90	1084.60
856.22	1081.56
856.53	1083.67
856.84	1083.67
857.16	1078.75
857.47	1087.65
857.79	1091.39
858.10	1089.05
858.41	1083.90
858.73	1093.50
859.04	1084.84
859.36	1076.18
859.67	1076.65
859.98	1085.31
860.30	1077.35
860.61	1069.16
860.92	1063.07
861.24	1074.07
861.55	1077.11
861.87	1071.50
862.18	1081.09
862.49	1091.86
862.81	1084.84
863.12	1075.48
863.43	1090.92
863.74	1087.88
864.06	1081.80
864.37	1078.05
864.68	1089.05
865.00	1091.39
865.31	1085.07
865.62	1086.71
865.94	1090.22
866.25	1083.43
866.56	1071.97
866.87	1081.33
867.19	1084.14
867.50	1081.56
867.81	1079.46
868.12	1071.26
868.44	1067.75
868.75	1068.69
869.06	1069.86
869.37	1069.39
869.68	1079.69
870.00	1088.12
870.31	1093.50
870.62	1089.05
870.93	1086.71
871.24	1086.94
871.56	1081.56
871.87	1070.09
872.18	1069.62
872.49	1063.07
872.80	1057.22
873.12	1065.18
873.43	1066.58
873.74	1060.26
874.05	1068.69
874.36	1071.03
874.67	1062.60
874.98	1061.90
875.29	1064.71
875.61	1066.11
875.92	1064.01
876.23	1062.84
876.54	1059.56
876.85	1063.31
877.16	1066.82
877.47	1072.67
877.78	1077.82
878.09	1090.92
878.40	1094.67
878.72	1089.52
879.03	1095.14
879.34	1088.12
879.65	1081.33
879.96	1084.37
880.27	1076.65
880.58	1077.11
880.89	1074.31
881.20	1078.75
881.51	1070.33
881.82	1075.94
882.13	1071.50
882.44	1078.99
882.75	1069.16
883.06	1070.33
883.37	1061.90
883.68	1053.71
883.99	1056.05
884.30	1060.96
884.61	1052.07
884.92	1067.99
885.23	1073.84
885.54	1065.41
885.85	1064.48
886.16	1084.14
886.47	1083.43
886.78	1080.63
887.08	1083.43
887.39	1077.58
887.70	1069.39
888.01	1068.92
888.32	1080.16
888.63	1078.05
888.94	1092.09
889.25	1094.90
889.56	1084.60
889.87	1076.18
890.17	1084.84
890.48	1092.33
890.79	1094.20
891.10	1099.82
891.41	1091.39
891.72	1089.75
892.03	1074.77
892.34	1075.24
892.64	1068.92
892.95	1067.75
893.26	1060.96
893.57	1065.88
893.88	1062.37
894.18	1060.50
894.49	1072.43
894.80	1074.31
895.11	1082.03
895.42	1086.01
895.72	1095.84
896.03	1095.14
896.34	1092.09
896.65	1085.54
896.96	1079.69
897.26	1077.35
897.57	1081.80
897.88	1087.88
898.19	1081.09
898.49	1085.77
898.80	1087.65
899.11	1078.75
899.41	1082.26
899.72	1086.01
900.03	1088.12
900.34	1080.86
900.64	1074.31
900.95	1070.56
901.26	1072.20
901.56	1061.90
901.87	1060.26
902.18	1070.80
902.48	1070.56
902.79	1078.05
903.10	1077.82
903.40	1084.14
903.71	1078.99
904.02	1071.26
904.32	1058.39
904.63	1065.18
904.94	1067.75
905.24	1071.26
905.55	1087.88
905.85	1097.01
906.16	1093.97
906.47	1089.99
906.77	1093.73
907.08	1091.39
907.38	1082.50
907.69	1079.22
908.00	1077.82
908.30	1071.50
908.61	1058.39
908.91	1064.71
909.22	1060.50
909.52	1054.65
909.83	1056.75
910.14	1061.43
910.44	1064.01
910.75	1078.99
911.05	1091.63
911.36	1098.18
911.66	1095.84
911.97	1094.43
912.27	1088.35
912.58	1086.48
912.88	1081.09
913.19	1085.07
913.49	1083.43
913.80	1077.11
914.10	1076.41
914.41	1078.75
914.71	1071.97
915.01	1067.28
915.32	1074.77
915.62	1075.94
915.93	1077.58
916.23	1076.88
916.54	1077.82
916.84	1077.58
917.15	1074.54
917.45	1070.33
917.75	1086.48
918.06	1086.24
918.36	1085.54
918.67	1085.54
918.97	1093.50
919.27	1084.84
919.58	1084.84
919.88	1090.69
920.18	1088.82
920.49	1086.94
920.79	1082.03
921.10	1084.37
921.40	1078.75
921.70	1077.35
922.01	1065.18
922.31	1064.48
922.61	1068.22
922.92	1073.84
923.22	1077.35
923.52	1084.60
923.82	1081.56
924.13	1075.24
924.43	1065.41
924.73	1081.80
925.04	1083.20
925.34	1093.73
925.64	1090.92
925.94	1093.97
926.25	1090.69
926.55	1094.90
926.85	1080.86
927.15	1087.41
927.46	1086.01
927.76	1066.82
928.06	1058.16
928.36	1074.54
928.67	1060.50
928.97	1055.11
929.27	1061.90
929.57	1070.33
929.87	1067.05
930.18	1078.99
930.48	1088.12
930.78	1083.20
931.08	1068.45
931.38	1060.73
931.69	1070.33
931.99	1071.03
932.29	1080.16
932.59	1084.84
932.89	1092.80
933.19	1079.92
933.49	1075.94
933.80	1079.69
934.10	1084.84
934.40	1087.88
934.70	1086.71
935.00	1082.03
935.30	1071.73
935.60	1064.24
935.90	1058.86
936.20	1068.22
936.50	1069.16
936.81	1061.20
937.11	1070.33
937.41	1079.46
937.71	1067.28
938.01	1075.94
938.31	1089.29
938.61	1080.39
938.91	1073.60
939.21	1074.54
939.51	1072.20
939.81	1067.75
940.11	1080.86
940.41	1077.11
940.71	1086.71
941.01	1095.37
941.31	1103.80
941.61	1089.99
941.91	1097.48
942.21	1091.16
942.51	1088.82
942.81	1077.58
943.11	1087.18
943.41	1083.67
943.71	1087.18
944.01	1080.63
944.31	1082.03
944.61	1083.43
944.90	1082.26
945.20	1069.62
945.50	1073.37
945.80	1070.09
946.10	1064.94
946.40	1060.50
946.70	1071.03
947.00	1064.24
947.30	1073.60
947.60	1082.03
947.89	1092.09
948.19	1090.46
948.49	1097.48
948.79	1099.82
949.09	1086.94
949.39	1079.69
949.69	1076.18
949.98	1062.84
950.28	1055.11
950.58	1064.71
950.88	1063.77
951.18	1068.69
951.48	1078.99
951.77	1076.41
952.07	1073.84
952.37	1080.39
952.67	1082.50
952.97	1085.54
953.26	1103.33
953.56	1104.50
953.86	1097.01
954.16	1094.20
954.45	1081.80
954.75	1066.11
955.05	1050.43
955.35	1051.84
955.64	1046.69
955.94	1048.33
956.24	1059.56
956.54	1077.58
956.83	1076.65
957.13	1079.92
957.43	1083.67
957.72	1077.82
958.02	1070.33
958.32	1072.20
958.61	1067.52
958.91	1062.37
959.21	1053.24
959.50	1055.35
959.80	1058.62
960.10	1065.88
960.39	1074.77
960.69	1090.22
960.99	1093.50
961.28	1097.48
961.58	1097.01
961.87	1098.41
962.17	1082.97
962.47	1085.31
962.76	1074.77
963.06	1076.88
963.36	1077.82
963.65	1094.67
963.95	1083.90
964.24	1093.73
964.54	1098.41
964.83	1093.50
965.13	1084.14
965.42	1098.41
965.72	1097.24
966.02	1096.07
966.31	1096.78
966.61	1095.37
966.90	1090.92
967.20	1087.65
967.49	1075.24
967.79	1067.75
968.08	1067.52
968.38	1069.62
968.67	1061.43
968.97	1063.77
969.26	1071.97
969.56	1073.60
969.85	1069.86
970.15	1080.63
970.44	1082.03
970.74	1089.29
971.03	1097.71
971.32	1093.03
971.62	1090.46
971.91	1097.01
972.21	1085.31
972.50	1083.43
972.80	1088.58
973.09	1096.07
973.38	1105.90
973.68	1116.20
973.97	1110.82
974.27	1110.12
974.56	1098.88
974.85	1093.97
975.15	1085.31
975.44	1078.05
975.73	1072.43
976.03	1071.97
976.32	1066.11
976.61	1064.94
976.91	1072.20
977.20	1078.28
977.49	1073.14
977.79	1075.94
978.08	1077.35
978.37	1071.26
978.67	1063.77
978.96	1065.18
979.25	1053.01
979.55	1059.33
979.84	1059.79
980.13	1068.92
980.42	1076.41
980.72	1078.05
981.01	1071.26
981.30	1075.24
981.59	1063.07
981.89	1064.24
982.18	1072.90
982.47	1070.80
982.76	1067.28
983.06	1071.03
983.35	1074.54
983.64	1067.05
983.93	1074.77
984.22	1081.80
984.52	1091.39
984.81	1081.80
985.10	1100.05
985.39	1102.63
985.68	1099.12
985.97	1098.65
986.27	1102.16
986.56	1089.75
986.85	1093.26
987.14	1100.29
987.43	1106.14
987.72	1108.71
988.01	1109.65
988.31	1100.75
988.60	1089.29
988.89	1075.01
989.18	1075.71
989.47	1076.65
989.76	1079.46
990.05	1088.35
990.34	1094.43
990.63	1086.71
990.92	1083.90
991.21	1077.35
991.51	1069.86
991.80	1061.43
992.09	1060.50
992.38	1069.16
992.67	1078.05
992.96	1078.52
993.25	1089.29
993.54	1091.16
993.83	1080.16
994.12	1078.05
994.41	1086.01
994.70	1087.41
994.99	1099.82
995.28	1104.73
995.57	1096.78
995.86	1088.82
996.15	1085.31
996.44	1074.31
996.73	1078.75
997.02	1089.75
997.31	1092.80
997.59	1091.63
997.88	1093.26
998.17	1082.73
998.46	1081.09
998.75	1088.35
999.04	1089.75
999.33	1093.03
999.62	1095.60
999.91	1093.97
1000.20	1082.50
1000.49	1070.09
1000.77	1070.80
1001.06	1076.18
1001.35	1079.22
1001.64	1086.71
1001.93	1100.52
1002.22	1099.35
1002.51	1093.50
1002.79	1084.14
1003.08	1086.24
1003.37	1079.22
1003.66	1086.48
1003.95	1082.73
1004.23	1081.33
1004.52	1072.20
1004.81	1075.48
1005.10	1055.58
1005.39	1067.05
1005.67	1071.97
1005.96	1071.73
1006.25	1069.86
1006.54	1078.28
1006.83	1074.31
1007.11	1076.41
1007.40	1081.09
1007.69	1091.63
1007.97	1096.78
1008.26	1101.46
1008.55	1097.24
1008.84	1094.67
1009.12	1089.05
1009.41	1074.31
1009.70	1069.16
1009.98	1072.20
1010.27	1067.52
1010.56	1068.92
1010.85	1082.97
1011.13	1082.73
1011.42	1084.37
1011.71	1082.26
1011.99	1073.37
1012.28	1067.05
1012.56	1065.18
1012.85	1059.79
1013.14	1073.60
1013.42	1074.31
1013.71	1071.97
1014.00	1075.01
1014.28	1084.14
1014.57	1074.07
1014.85	1070.33
1015.14	1077.11
1015.43	1083.90
1015.71	1081.09
1016.00	1082.73
1016.28	1090.46
1016.57	1091.86
1016.85	1085.07
1017.14	1081.33
1017.43	1083.20
1017.71	1086.01
1018.00	1084.14
1018.28	1075.01
1018.57	1069.39
1018.85	1064.24
1019.14	1058.16
1019.42	1056.28
1019.71	1060.73
1019.99	1063.77
1020.28	1078.52
1020.56	1080.39
1020.85	1088.35
1021.13	1084.84
1021.42	1082.26
1021.70	1082.97
1021.99	1086.01
1022.27	1083.90
1022.55	1093.03
1022.84	1096.54
>>>>>End Processed Spectral Data<<<<<
