SpectraSuite Data File
++++++++++++++++++++++++++++++++++++
Date: Mon Aug 26 10:24:53 PDT 2019
User: corrico
Dark Spectrum Present: No
Reference Spectrum Present: No
Number of Sampled Component Spectra: 1
Spectrometers: USB2+H06089
Integration Time (usec): 10000 (USB2+H06089)
Spectra Averaged: 2 (USB2+H06089)
Boxcar Smoothing: 2 (USB2+H06089)
Correct for Electrical Dark: No (USB2+H06089)
Strobe/Lamp Enabled: No (USB2+H06089)
Correct for Detector Non-linearity: No (USB2+H06089)
Correct for Stray Light: No (USB2+H06089)
Number of Pixels in Processed Spectrum: 2048
>>>>>Begin Processed Spectral Data<<<<<
339.70	1047.39
340.07	1047.39
340.45	994.96
340.82	971.79
341.19	948.62
341.57	930.36
341.94	918.66
342.31	919.60
342.69	917.02
343.06	916.55
343.43	910.47
343.81	914.92
344.18	930.60
344.55	946.04
344.93	947.21
345.30	956.34
345.67	961.02
346.04	963.36
346.42	955.41
346.79	962.43
347.16	972.02
347.54	989.34
347.91	993.79
348.28	1007.13
348.65	1010.41
349.03	1002.92
349.40	1008.77
349.77	1010.64
350.14	1018.13
350.52	1034.05
350.89	1042.94
351.26	1046.22
351.63	1051.84
352.01	1057.92
352.38	1058.39
352.75	1071.73
353.12	1074.31
353.50	1076.18
353.87	1070.56
354.24	1071.50
354.61	1065.88
354.98	1064.24
355.36	1073.37
355.73	1084.14
356.10	1075.01
356.47	1078.05
356.84	1083.43
357.22	1075.48
357.59	1070.80
357.96	1084.37
358.33	1090.69
358.70	1095.37
359.08	1110.12
359.45	1107.07
359.82	1101.22
360.19	1093.50
360.56	1090.69
360.94	1076.41
361.31	1079.22
361.68	1093.26
362.05	1093.73
362.42	1084.60
362.79	1091.16
363.16	1094.20
363.54	1081.80
363.91	1078.99
364.28	1086.48
364.65	1085.54
365.02	1081.80
365.39	1088.58
365.76	1094.90
366.14	1094.43
366.51	1092.09
366.88	1089.29
367.25	1082.03
367.62	1079.22
367.99	1080.63
368.36	1074.07
368.73	1079.92
369.10	1075.48
369.48	1082.03
369.85	1083.43
370.22	1092.33
370.59	1092.56
370.96	1109.88
371.33	1104.50
371.70	1102.86
372.07	1098.18
372.44	1094.20
372.81	1081.33
373.18	1088.35
373.55	1089.05
373.93	1091.16
374.30	1097.71
374.67	1097.71
375.04	1082.50
375.41	1076.88
375.78	1069.86
376.15	1066.11
376.52	1082.26
376.89	1092.56
377.26	1093.26
377.63	1096.54
378.00	1098.41
378.37	1089.75
378.74	1079.92
379.11	1082.97
379.48	1086.71
379.85	1082.26
380.22	1079.92
380.59	1085.77
380.96	1086.94
381.33	1093.26
381.70	1094.43
382.07	1097.48
382.44	1097.24
382.81	1100.05
383.18	1096.78
383.55	1100.29
383.92	1095.37
384.29	1105.67
384.66	1098.88
385.03	1096.78
385.40	1098.18
385.77	1109.65
386.14	1099.12
386.51	1107.31
386.88	1108.01
387.25	1105.67
387.62	1097.01
387.99	1111.99
388.36	1103.80
388.73	1101.92
389.10	1102.39
389.46	1099.35
389.83	1090.92
390.20	1088.58
390.57	1090.46
390.94	1093.97
391.31	1099.58
391.68	1095.14
392.05	1099.12
392.42	1109.65
392.79	1108.71
393.16	1114.80
393.53	1118.31
393.89	1129.07
394.26	1129.78
394.63	1122.05
395.00	1114.80
395.37	1120.88
395.74	1131.41
396.11	1116.90
396.48	1117.37
396.84	1128.37
397.21	1133.29
397.58	1119.95
397.95	1130.95
398.32	1132.59
398.69	1133.29
399.06	1118.07
399.42	1126.50
399.79	1132.59
400.16	1143.35
400.53	1144.05
400.90	1150.84
401.27	1141.48
401.64	1139.14
402.00	1138.90
402.37	1141.48
402.74	1150.37
403.11	1164.65
403.48	1172.84
403.84	1187.59
404.21	1189.69
404.58	1201.16
404.95	1209.12
405.32	1215.21
405.68	1222.46
406.05	1231.36
406.42	1244.70
406.79	1257.57
407.16	1280.27
407.52	1293.85
407.89	1309.06
408.26	1315.85
408.63	1333.87
408.99	1350.72
409.36	1376.00
409.73	1410.17
410.10	1444.11
410.47	1466.11
410.83	1496.07
411.20	1521.82
411.57	1541.71
411.94	1579.86
412.30	1628.54
412.67	1664.35
413.04	1708.59
413.40	1785.59
413.77	1829.36
414.14	1875.71
414.51	1931.41
414.87	2010.75
415.24	2061.31
415.61	2126.84
415.97	2197.29
416.34	2266.57
416.71	2338.90
417.08	2422.69
417.44	2520.52
417.81	2625.85
418.18	2744.98
418.54	2850.77
418.91	2982.08
419.28	3126.49
419.64	3272.77
420.01	3435.67
420.38	3595.06
420.74	3741.11
421.11	3929.29
421.48	4107.17
421.84	4302.14
422.21	4496.64
422.58	4743.33
422.94	4945.08
423.31	5196.69
423.68	5434.49
424.04	5705.06
424.41	5948.71
424.77	6228.87
425.14	6507.63
425.51	6820.56
425.87	7160.40
426.24	7510.31
426.61	7880.12
426.97	8337.22
427.34	8751.50
427.70	9180.28
428.07	9609.77
428.44	10107.37
428.80	10560.50
429.17	11064.65
429.53	11559.91
429.90	12126.55
430.27	12628.59
430.63	13105.36
431.00	13706.65
431.36	14356.14
431.73	14945.26
432.09	15554.97
432.46	16224.83
432.83	16777.19
433.19	17361.63
433.56	18022.36
433.92	18688.01
434.29	19246.23
434.65	19910.47
435.02	20444.11
435.38	20998.58
435.75	21416.37
436.11	22041.06
436.48	22513.61
436.84	23021.04
437.21	23455.68
437.57	23911.15
437.94	24285.16
438.30	24637.42
438.67	24865.62
439.03	25030.39
439.40	25172.93
439.76	25109.50
440.13	24996.92
440.49	24951.28
440.86	24718.63
441.22	24470.30
441.59	24117.58
441.95	23777.74
442.32	23257.20
442.68	22832.16
443.05	22385.12
443.41	21973.65
443.78	21426.20
444.14	20971.90
444.51	20425.39
444.87	19980.45
445.24	19486.83
445.60	19106.96
445.96	18575.43
446.33	18124.64
446.69	17555.89
447.06	17055.48
447.42	16489.31
447.79	16012.54
448.15	15599.20
448.51	15164.10
448.88	14780.01
449.24	14377.21
449.61	14117.64
449.97	13786.93
450.33	13484.53
450.70	13098.57
451.06	12777.45
451.43	12350.77
451.79	12028.01
452.15	11710.87
452.52	11450.13
452.88	11226.15
453.24	11025.56
453.61	10791.04
453.97	10522.35
454.34	10260.21
454.70	10002.05
455.06	9763.31
455.43	9427.21
455.79	9114.28
456.15	8816.80
456.52	8468.99
456.88	8206.15
457.24	7962.50
457.61	7761.22
457.97	7553.38
458.33	7359.81
458.70	7098.84
459.06	6865.49
459.42	6667.48
459.79	6433.90
460.15	6265.15
460.51	6088.20
460.88	5915.94
461.24	5708.33
461.60	5573.05
461.96	5408.98
462.33	5257.55
462.69	5121.33
463.05	4998.21
463.42	4856.14
463.78	4716.41
464.14	4581.13
464.50	4473.23
464.87	4362.06
465.23	4262.82
465.59	4144.39
465.95	4054.28
466.32	3959.48
466.68	3880.37
467.04	3797.99
467.40	3736.20
467.77	3674.88
468.13	3591.32
468.49	3526.25
468.85	3462.82
469.22	3407.35
469.58	3335.03
469.94	3296.64
470.30	3232.28
470.66	3178.92
471.03	3115.96
471.39	3058.38
471.75	2994.01
472.11	2932.69
472.47	2890.56
472.84	2844.22
473.20	2788.98
473.56	2733.75
473.92	2684.83
474.28	2622.57
474.65	2583.48
475.01	2557.97
475.37	2526.14
475.73	2497.12
476.09	2463.88
476.45	2416.37
476.81	2356.45
477.18	2320.17
477.54	2293.49
477.90	2279.21
478.26	2258.62
478.62	2261.19
478.98	2230.53
479.34	2208.76
479.71	2173.66
480.07	2150.25
480.43	2121.23
480.79	2104.14
481.15	2069.50
481.51	2031.82
481.87	2005.61
482.23	1970.50
482.59	1952.71
482.96	1929.77
483.32	1922.05
483.68	1900.98
484.04	1884.13
484.40	1861.66
484.76	1844.81
485.12	1829.83
485.48	1817.19
485.84	1807.60
486.20	1789.11
486.56	1780.68
486.92	1761.49
487.28	1734.10
487.64	1716.31
488.00	1694.31
488.37	1667.40
488.73	1657.80
489.09	1652.65
489.45	1634.63
489.81	1628.54
490.17	1615.91
490.53	1589.46
490.89	1579.16
491.25	1561.37
491.61	1544.99
491.97	1540.77
492.33	1534.92
492.69	1512.92
493.05	1507.54
493.41	1490.92
493.77	1469.39
494.13	1451.13
494.49	1444.34
494.85	1419.30
495.21	1408.53
495.57	1399.87
495.93	1412.05
496.29	1394.73
496.64	1394.49
497.00	1387.24
497.36	1374.36
497.72	1345.11
498.08	1340.19
498.44	1332.23
498.80	1323.81
499.16	1322.40
499.52	1316.55
499.88	1304.61
500.24	1304.85
500.60	1304.61
500.96	1302.04
501.32	1301.34
501.68	1303.91
502.03	1300.40
502.39	1295.49
502.75	1286.12
503.11	1281.44
503.47	1274.19
503.83	1260.85
504.19	1256.63
504.55	1258.51
504.91	1245.63
505.26	1238.61
505.62	1237.91
505.98	1232.29
506.34	1228.08
506.70	1233.23
507.06	1233.46
507.42	1226.44
507.78	1224.80
508.13	1223.40
508.49	1220.59
508.85	1213.57
509.21	1203.27
509.57	1183.37
509.93	1165.82
510.28	1160.67
510.64	1166.05
511.00	1163.01
511.36	1181.27
511.72	1187.35
512.07	1172.37
512.43	1155.29
512.79	1159.97
513.15	1148.50
513.51	1148.27
513.86	1155.05
514.22	1161.61
514.58	1163.95
514.94	1153.65
515.30	1149.20
515.65	1151.08
516.01	1145.22
516.37	1135.86
516.73	1143.82
517.08	1154.82
517.44	1155.05
517.80	1157.86
518.16	1159.03
518.51	1163.25
518.87	1147.80
519.23	1141.01
519.59	1141.95
519.94	1139.37
520.30	1138.67
520.66	1135.16
521.01	1131.41
521.37	1126.97
521.73	1135.86
522.09	1126.73
522.44	1122.05
522.80	1127.20
523.16	1125.56
523.51	1119.24
523.87	1123.93
524.23	1129.78
524.58	1123.22
524.94	1125.10
525.30	1128.14
525.65	1123.93
526.01	1126.27
526.37	1134.46
526.72	1135.86
527.08	1127.44
527.44	1131.41
527.79	1131.65
528.15	1122.05
528.51	1112.46
528.86	1112.46
529.22	1103.56
529.58	1095.14
529.93	1105.90
530.29	1108.24
530.65	1116.20
531.00	1111.99
531.36	1115.73
531.71	1110.82
532.07	1116.44
532.43	1105.90
532.78	1116.20
533.14	1113.16
533.49	1111.75
533.85	1107.07
534.21	1122.29
534.56	1108.48
534.92	1116.90
535.27	1119.01
535.63	1122.75
535.98	1109.88
536.34	1113.39
536.69	1105.67
537.05	1098.41
537.41	1093.97
537.76	1098.18
538.12	1110.82
538.47	1115.50
538.83	1113.86
539.18	1124.63
539.54	1121.12
539.89	1126.27
540.25	1119.95
540.60	1130.24
540.96	1122.75
541.31	1137.97
541.67	1126.73
542.02	1134.22
542.38	1131.65
542.73	1119.95
543.09	1111.75
543.44	1111.29
543.80	1102.86
544.15	1101.92
544.51	1107.78
544.86	1100.05
545.22	1100.05
545.57	1108.48
545.93	1106.84
546.28	1117.84
546.64	1107.54
546.99	1109.41
547.35	1108.24
547.70	1117.84
548.05	1119.48
548.41	1133.52
548.76	1129.07
549.12	1125.56
549.47	1118.31
549.83	1113.63
550.18	1108.48
550.53	1108.95
550.89	1104.03
551.24	1102.39
551.60	1094.90
551.95	1106.84
552.30	1105.90
552.66	1111.75
553.01	1111.05
553.37	1111.05
553.72	1103.56
554.07	1108.95
554.43	1102.16
554.78	1101.69
555.13	1107.54
555.49	1106.61
555.84	1106.37
556.19	1113.63
556.55	1113.16
556.90	1112.22
557.26	1109.88
557.61	1103.33
557.96	1095.60
558.32	1094.90
558.67	1083.43
559.02	1082.03
559.37	1079.22
559.73	1074.54
560.08	1081.80
560.43	1092.56
560.79	1096.31
561.14	1103.33
561.49	1107.31
561.85	1091.86
562.20	1089.05
562.55	1096.78
562.90	1100.52
563.26	1108.95
563.61	1117.61
563.96	1121.35
564.32	1112.46
564.67	1118.78
565.02	1112.92
565.37	1105.90
565.73	1103.80
566.08	1099.58
566.43	1086.01
566.78	1090.46
567.14	1094.90
567.49	1107.07
567.84	1105.90
568.19	1110.12
568.54	1103.09
568.90	1106.84
569.25	1094.90
569.60	1099.58
569.95	1105.20
570.31	1110.12
570.66	1106.37
571.01	1100.05
571.36	1094.43
571.71	1078.52
572.06	1076.88
572.42	1078.75
572.77	1082.03
573.12	1093.97
573.47	1097.71
573.82	1091.39
574.18	1093.73
574.53	1088.12
574.88	1085.31
575.23	1084.60
575.58	1093.73
575.93	1099.58
576.28	1105.90
576.64	1096.78
576.99	1103.09
577.34	1095.60
577.69	1087.88
578.04	1087.65
578.39	1093.73
578.74	1090.92
579.09	1098.41
579.44	1099.58
579.80	1099.12
580.15	1089.52
580.50	1082.73
580.85	1085.77
581.20	1076.88
581.55	1076.88
581.90	1099.12
582.25	1108.24
582.60	1102.63
582.95	1105.90
583.30	1103.09
583.65	1080.39
584.00	1081.09
584.35	1074.77
584.71	1075.71
585.06	1076.88
585.41	1080.39
585.76	1087.18
586.11	1098.41
586.46	1100.52
586.81	1098.18
587.16	1108.48
587.51	1102.63
587.86	1093.03
588.21	1087.65
588.56	1094.20
588.91	1085.77
589.26	1080.39
589.61	1084.60
589.96	1096.54
590.31	1091.16
590.66	1088.35
591.01	1095.37
591.36	1099.12
591.71	1090.92
592.06	1084.37
592.41	1089.75
592.76	1083.67
593.10	1078.05
593.45	1082.03
593.80	1086.94
594.15	1086.01
594.50	1089.52
594.85	1093.50
595.20	1103.80
595.55	1107.07
595.90	1106.14
596.25	1112.46
596.60	1111.29
596.95	1105.44
597.30	1109.18
597.64	1154.12
597.99	1157.63
598.34	1161.61
598.69	1152.95
599.04	1155.52
599.39	1110.35
599.74	1102.86
600.09	1092.80
600.44	1103.56
600.78	1101.22
601.13	1093.73
601.48	1082.50
601.83	1080.63
602.18	1070.80
602.53	1068.22
602.88	1080.39
603.22	1089.29
603.57	1100.05
603.92	1098.41
604.27	1090.69
604.62	1093.26
604.97	1087.88
605.31	1087.88
605.66	1091.39
606.01	1093.73
606.36	1086.94
606.71	1091.63
607.05	1086.48
607.40	1089.75
607.75	1102.16
608.10	1098.65
608.44	1088.35
608.79	1087.41
609.14	1086.94
609.49	1083.20
609.84	1087.18
610.18	1091.63
610.53	1091.39
610.88	1084.60
611.23	1084.37
611.57	1082.03
611.92	1097.01
612.27	1097.71
612.62	1096.78
612.96	1098.41
613.31	1100.29
613.66	1088.82
614.00	1088.58
614.35	1090.22
614.70	1084.60
615.05	1082.50
615.39	1088.12
615.74	1092.33
616.09	1094.90
616.43	1091.16
616.78	1093.50
617.13	1080.16
617.47	1083.43
617.82	1079.69
618.17	1084.60
618.51	1077.58
618.86	1081.33
619.21	1083.67
619.55	1080.16
619.90	1072.67
620.25	1077.11
620.59	1086.01
620.94	1078.99
621.29	1086.24
621.63	1091.63
621.98	1091.16
622.32	1083.67
622.67	1085.54
623.02	1089.29
623.36	1097.01
623.71	1097.95
624.05	1103.56
624.40	1104.26
624.75	1098.18
625.09	1086.71
625.44	1093.50
625.78	1091.16
626.13	1098.65
626.48	1098.18
626.82	1100.05
627.17	1100.29
627.51	1100.75
627.86	1087.18
628.20	1088.12
628.55	1093.97
628.89	1089.52
629.24	1089.29
629.58	1098.88
629.93	1106.14
630.28	1102.63
630.62	1101.69
630.97	1102.16
631.31	1085.77
631.66	1075.24
632.00	1081.80
632.35	1082.73
632.69	1075.48
633.04	1082.26
633.38	1084.60
633.73	1075.24
634.07	1076.65
634.42	1084.84
634.76	1092.80
635.11	1100.52
635.45	1095.37
635.79	1093.26
636.14	1093.26
636.48	1087.65
636.83	1078.05
637.17	1086.71
637.52	1089.75
637.86	1087.18
638.21	1082.03
638.55	1085.31
638.89	1090.22
639.24	1089.75
639.58	1091.86
639.93	1093.73
640.27	1095.37
640.61	1093.26
640.96	1091.63
641.30	1093.97
641.65	1094.90
641.99	1092.56
642.33	1090.22
642.68	1093.50
643.02	1090.69
643.37	1096.07
643.71	1093.50
644.05	1093.26
644.40	1088.82
644.74	1089.29
645.08	1081.56
645.43	1093.50
645.77	1096.07
646.11	1083.90
646.46	1081.80
646.80	1083.20
647.14	1077.11
647.49	1074.54
647.83	1086.48
648.17	1091.63
648.52	1092.56
648.86	1089.52
649.20	1088.12
649.55	1084.14
649.89	1075.48
650.23	1078.75
650.57	1079.46
650.92	1074.54
651.26	1078.05
651.60	1084.37
651.95	1082.03
652.29	1085.31
652.63	1085.07
652.97	1083.67
653.32	1079.69
653.66	1071.97
654.00	1070.80
654.34	1079.46
654.69	1084.84
655.03	1084.37
655.37	1089.29
655.71	1083.90
656.05	1083.20
656.40	1078.05
656.74	1082.03
657.08	1082.73
657.42	1088.82
657.76	1092.33
658.11	1093.26
658.45	1081.33
658.79	1086.24
659.13	1089.99
659.47	1082.03
659.82	1092.09
660.16	1103.80
660.50	1111.99
660.84	1099.58
661.18	1098.65
661.52	1085.07
661.87	1076.88
662.21	1057.69
662.55	1056.99
662.89	1070.56
663.23	1082.97
663.57	1097.01
663.91	1111.29
664.25	1118.07
664.60	1108.71
664.94	1088.12
665.28	1075.48
665.62	1072.67
665.96	1074.07
666.30	1071.26
666.64	1085.31
666.98	1085.07
667.32	1081.80
667.66	1076.18
668.01	1073.84
668.35	1071.73
668.69	1073.84
669.03	1072.20
669.37	1063.77
669.71	1066.82
670.05	1059.79
670.39	1058.62
670.73	1063.07
671.07	1077.35
671.41	1075.71
671.75	1083.20
672.09	1087.88
672.43	1078.99
672.77	1071.97
673.11	1071.73
673.45	1073.60
673.79	1070.09
674.13	1071.50
674.47	1081.33
674.81	1091.63
675.15	1095.60
675.49	1097.71
675.83	1094.90
676.17	1090.22
676.51	1089.29
676.85	1085.31
677.19	1078.05
677.53	1091.86
677.87	1093.26
678.21	1093.03
678.55	1085.31
678.89	1096.07
679.23	1085.31
679.57	1079.22
679.90	1080.16
680.24	1087.41
680.58	1080.39
680.92	1092.09
681.26	1103.80
681.60	1106.61
681.94	1107.78
682.28	1113.63
682.62	1106.37
682.96	1100.52
683.29	1095.37
683.63	1093.73
683.97	1081.80
684.31	1085.77
684.65	1081.56
684.99	1074.31
685.33	1085.54
685.67	1097.48
686.00	1088.58
686.34	1090.92
686.68	1096.78
687.02	1086.94
687.36	1096.31
687.70	1107.78
688.03	1105.90
688.37	1105.44
688.71	1104.26
689.05	1086.48
689.39	1074.77
689.72	1078.52
690.06	1079.46
690.40	1078.28
690.74	1078.99
691.08	1078.52
691.41	1082.97
691.75	1078.75
692.09	1086.24
692.43	1091.39
692.76	1094.67
693.10	1090.69
693.44	1095.37
693.78	1089.05
694.11	1082.26
694.45	1093.03
694.79	1086.94
695.13	1086.24
695.46	1092.09
695.80	1105.44
696.14	1095.60
696.48	1109.65
696.81	1115.73
697.15	1108.24
697.49	1113.39
697.82	1112.46
698.16	1104.50
698.50	1092.33
698.83	1093.50
699.17	1082.97
699.51	1089.05
699.84	1087.88
700.18	1091.86
700.52	1091.39
700.85	1097.95
701.19	1088.82
701.53	1079.69
701.86	1072.20
702.20	1075.71
702.54	1071.26
702.87	1075.01
703.21	1075.48
703.55	1086.48
703.88	1083.43
704.22	1081.33
704.55	1082.03
704.89	1089.52
705.23	1078.52
705.56	1080.39
705.90	1081.80
706.23	1079.69
706.57	1073.37
706.91	1072.67
707.24	1082.26
707.58	1084.60
707.91	1082.03
708.25	1087.18
708.58	1091.63
708.92	1079.92
709.26	1075.01
709.59	1088.82
709.93	1095.14
710.26	1102.63
710.60	1097.95
710.93	1097.24
711.27	1093.50
711.60	1097.71
711.94	1104.03
712.27	1106.84
712.61	1107.31
712.94	1104.26
713.28	1096.78
713.61	1081.80
713.95	1092.33
714.28	1091.86
714.62	1079.22
714.95	1072.67
715.29	1078.28
715.62	1065.18
715.96	1062.14
716.29	1070.80
716.63	1071.97
716.96	1070.56
717.29	1071.03
717.63	1069.39
717.96	1075.01
718.30	1082.03
718.63	1075.71
718.97	1078.52
719.30	1081.09
719.63	1080.63
719.97	1074.54
720.30	1078.52
720.64	1072.90
720.97	1074.54
721.30	1066.11
721.64	1064.48
721.97	1063.31
722.31	1078.99
722.64	1076.65
722.97	1086.48
723.31	1101.92
723.64	1101.69
723.97	1090.69
724.31	1094.90
724.64	1089.29
724.98	1077.58
725.31	1072.67
725.64	1070.09
725.98	1069.62
726.31	1076.65
726.64	1081.33
726.97	1098.18
727.31	1107.78
727.64	1107.07
727.97	1103.56
728.31	1105.67
728.64	1100.52
728.97	1084.14
729.31	1081.80
729.64	1067.52
729.97	1052.07
730.30	1045.99
730.64	1060.73
730.97	1074.77
731.30	1091.39
731.63	1105.67
731.97	1104.03
732.30	1105.90
732.63	1082.26
732.96	1077.82
733.30	1067.05
733.63	1070.80
733.96	1065.18
734.29	1072.20
734.63	1066.35
734.96	1073.60
735.29	1076.65
735.62	1072.43
735.95	1080.16
736.29	1082.26
736.62	1077.82
736.95	1067.75
737.28	1067.05
737.61	1050.90
737.94	1052.30
738.28	1058.62
738.61	1062.84
738.94	1062.60
739.27	1074.54
739.60	1081.09
739.93	1068.45
740.27	1076.65
740.60	1082.73
740.93	1078.05
741.26	1081.09
741.59	1094.67
741.92	1093.03
742.25	1089.05
742.58	1085.31
742.91	1075.71
743.25	1068.92
743.58	1078.99
743.91	1077.58
744.24	1089.75
744.57	1083.43
744.90	1087.18
745.23	1072.67
745.56	1074.77
745.89	1071.03
746.22	1074.31
746.55	1078.75
746.88	1084.14
747.21	1088.35
747.54	1090.46
747.87	1095.14
748.20	1095.37
748.53	1089.29
748.87	1082.50
749.20	1089.29
749.53	1094.67
749.86	1085.31
750.19	1079.69
750.52	1082.97
750.85	1077.11
751.18	1065.18
751.51	1071.73
751.84	1077.35
752.16	1070.09
752.49	1071.97
752.82	1073.37
753.15	1080.63
753.48	1081.33
753.81	1085.07
754.14	1084.14
754.47	1100.05
754.80	1086.94
755.13	1086.24
755.46	1095.14
755.79	1083.90
756.12	1070.56
756.45	1076.65
756.78	1089.29
757.11	1083.67
757.43	1087.65
757.76	1093.26
758.09	1084.84
758.42	1071.73
758.75	1069.62
759.08	1066.58
759.41	1061.67
759.74	1067.75
760.07	1062.37
760.39	1072.90
760.72	1071.50
761.05	1083.20
761.38	1076.65
761.71	1091.63
762.04	1075.48
762.36	1084.60
762.69	1075.94
763.02	1074.77
763.35	1064.71
763.68	1076.41
764.01	1077.82
764.33	1073.60
764.66	1072.20
764.99	1071.97
765.32	1060.96
765.65	1052.77
765.97	1044.58
766.30	1042.24
766.63	1039.43
766.96	1039.90
767.28	1047.86
767.61	1053.71
767.94	1057.92
768.27	1060.03
768.59	1070.33
768.92	1059.56
769.25	1072.43
769.58	1078.75
769.90	1082.97
770.23	1087.18
770.56	1091.39
770.89	1081.80
771.21	1084.37
771.54	1086.48
771.87	1088.82
772.19	1104.26
772.52	1108.71
772.85	1111.99
773.17	1110.58
773.50	1115.50
773.83	1098.65
774.15	1091.39
774.48	1088.12
774.81	1085.31
775.13	1075.24
775.46	1080.39
775.79	1075.94
776.11	1063.77
776.44	1061.20
776.77	1059.09
777.09	1043.64
777.42	1046.92
777.74	1049.50
778.07	1057.45
778.40	1051.84
778.72	1076.18
779.05	1087.41
779.37	1094.43
779.70	1087.18
780.03	1089.99
780.35	1076.41
780.68	1074.31
781.00	1076.41
781.33	1083.90
781.65	1084.37
781.98	1085.07
782.31	1078.28
782.63	1080.16
782.96	1071.03
783.28	1065.41
783.61	1072.43
783.93	1078.28
784.26	1078.75
784.58	1084.14
784.91	1087.18
785.23	1087.65
785.56	1088.12
785.88	1086.71
786.21	1082.03
786.53	1092.09
786.86	1087.65
787.18	1083.43
787.51	1077.82
787.83	1090.92
788.16	1083.90
788.48	1079.92
788.81	1077.11
789.13	1080.86
789.46	1080.86
789.78	1080.86
790.10	1091.39
790.43	1095.14
790.75	1102.63
791.08	1091.16
791.40	1092.09
791.73	1094.20
792.05	1096.54
792.37	1075.71
792.70	1073.37
793.02	1070.33
793.35	1065.65
793.67	1063.07
793.99	1071.26
794.32	1073.14
794.64	1073.84
794.96	1073.84
795.29	1074.54
795.61	1078.28
795.93	1076.41
796.26	1079.92
796.58	1082.03
796.91	1083.90
797.23	1090.92
797.55	1095.60
797.87	1097.95
798.20	1092.33
798.52	1088.58
798.84	1077.82
799.17	1083.90
799.49	1084.60
799.81	1085.31
800.14	1085.07
800.46	1089.05
800.78	1085.31
801.10	1081.33
801.43	1080.39
801.75	1086.01
802.07	1092.80
802.40	1087.65
802.72	1085.31
803.04	1087.18
803.36	1086.48
803.69	1084.37
804.01	1090.22
804.33	1089.52
804.65	1098.41
804.97	1085.31
805.30	1081.09
805.62	1078.75
805.94	1081.80
806.26	1069.86
806.58	1081.56
806.91	1076.65
807.23	1072.90
807.55	1076.18
807.87	1075.24
808.19	1072.20
808.52	1075.48
808.84	1082.97
809.16	1075.71
809.48	1068.45
809.80	1077.58
810.12	1078.75
810.44	1072.20
810.77	1076.65
811.09	1094.43
811.41	1084.37
811.73	1078.28
812.05	1084.37
812.37	1087.41
812.69	1081.09
813.01	1081.09
813.33	1087.41
813.66	1070.56
813.98	1071.03
814.30	1068.92
814.62	1076.65
814.94	1079.92
815.26	1091.39
815.58	1082.26
815.90	1090.22
816.22	1091.16
816.54	1086.48
816.86	1084.84
817.18	1080.39
817.50	1075.48
817.82	1068.45
818.14	1071.50
818.46	1066.11
818.78	1073.37
819.10	1073.60
819.42	1075.01
819.74	1068.45
820.06	1072.67
820.38	1073.84
820.70	1064.48
821.02	1063.54
821.34	1072.43
821.66	1082.97
821.98	1082.26
822.30	1090.69
822.62	1091.39
822.94	1083.20
823.26	1074.31
823.58	1072.43
823.90	1079.22
824.22	1077.82
824.54	1076.18
824.86	1087.65
825.18	1091.39
825.50	1091.39
825.81	1098.88
826.13	1109.65
826.45	1097.95
826.77	1091.16
827.09	1090.22
827.41	1084.60
827.73	1074.31
828.05	1068.69
828.36	1070.56
828.68	1055.82
829.00	1058.16
829.32	1061.67
829.64	1064.71
829.96	1074.54
830.28	1086.48
830.59	1087.41
830.91	1088.35
831.23	1091.63
831.55	1097.24
831.87	1091.63
832.19	1096.07
832.50	1097.24
832.82	1093.73
833.14	1084.37
833.46	1078.05
833.78	1067.05
834.09	1071.03
834.41	1082.73
834.73	1073.84
835.05	1086.71
835.36	1089.99
835.68	1088.12
836.00	1087.18
836.32	1100.75
836.63	1096.31
836.95	1101.69
837.27	1100.29
837.59	1087.41
837.90	1071.50
838.22	1071.50
838.54	1068.69
838.85	1067.52
839.17	1072.43
839.49	1078.05
839.80	1074.77
840.12	1070.33
840.44	1070.80
840.76	1078.99
841.07	1084.60
841.39	1086.71
841.71	1088.35
842.02	1093.50
842.34	1092.09
842.65	1083.43
842.97	1085.54
843.29	1085.77
843.60	1088.12
843.92	1085.31
844.24	1089.75
844.55	1086.94
844.87	1080.16
845.18	1067.75
845.50	1065.65
845.82	1074.31
846.13	1077.82
846.45	1083.67
846.76	1086.48
847.08	1090.22
847.40	1074.54
847.71	1072.90
848.03	1081.33
848.34	1078.05
848.66	1067.05
848.97	1074.31
849.29	1066.35
849.60	1057.22
849.92	1067.05
850.24	1070.56
850.55	1071.50
850.87	1087.41
851.18	1097.24
851.50	1087.65
851.81	1092.80
852.13	1098.18
852.44	1091.86
852.76	1081.80
853.07	1081.09
853.39	1078.99
853.70	1084.37
854.01	1088.35
854.33	1088.82
854.64	1092.80
854.96	1086.48
855.27	1079.46
855.59	1071.73
855.90	1078.05
856.22	1069.39
856.53	1079.22
856.84	1080.63
857.16	1074.07
857.47	1060.50
857.79	1072.67
858.10	1063.31
858.41	1056.99
858.73	1064.71
859.04	1077.58
859.36	1073.37
859.67	1082.26
859.98	1089.75
860.30	1094.90
860.61	1087.18
860.92	1094.90
861.24	1090.46
861.55	1089.99
861.87	1094.43
862.18	1093.73
862.49	1095.84
862.81	1095.37
863.12	1085.54
863.43	1083.67
863.74	1089.75
864.06	1080.16
864.37	1081.56
864.68	1086.48
865.00	1081.09
865.31	1080.39
865.62	1075.01
865.94	1065.65
866.25	1060.96
866.56	1060.96
866.87	1057.45
867.19	1064.94
867.50	1075.01
867.81	1084.37
868.12	1091.16
868.44	1091.63
868.75	1096.78
869.06	1097.71
869.37	1090.22
869.68	1081.09
870.00	1086.24
870.31	1086.48
870.62	1093.97
870.93	1097.48
871.24	1101.46
871.56	1098.65
871.87	1097.24
872.18	1087.65
872.49	1081.80
872.80	1069.86
873.12	1066.35
873.43	1068.45
873.74	1074.31
874.05	1081.33
874.36	1087.88
874.67	1094.20
874.98	1081.80
875.29	1074.31
875.61	1071.03
875.92	1079.46
876.23	1080.63
876.54	1081.33
876.85	1092.56
877.16	1096.54
877.47	1080.39
877.78	1073.84
878.09	1079.69
878.40	1069.39
878.72	1072.90
879.03	1081.09
879.34	1084.14
879.65	1086.01
879.96	1096.54
880.27	1083.43
880.58	1089.05
880.89	1089.29
881.20	1089.29
881.51	1070.80
881.82	1076.41
882.13	1073.14
882.44	1061.90
882.75	1061.67
883.06	1074.07
883.37	1067.05
883.68	1066.58
883.99	1075.94
884.30	1071.26
884.61	1072.20
884.92	1087.88
885.23	1097.01
885.54	1099.12
885.85	1103.56
886.16	1110.12
886.47	1103.80
886.78	1101.46
887.08	1101.69
887.39	1092.56
887.70	1081.56
888.01	1086.24
888.32	1082.97
888.63	1080.39
888.94	1092.56
889.25	1100.75
889.56	1092.80
889.87	1087.18
890.17	1080.63
890.48	1066.58
890.79	1059.09
891.10	1065.65
891.41	1069.86
891.72	1072.43
892.03	1079.46
892.34	1082.26
892.64	1074.54
892.95	1073.60
893.26	1066.82
893.57	1067.75
893.88	1062.60
894.18	1067.75
894.49	1066.82
894.80	1083.90
895.11	1090.46
895.42	1093.50
895.72	1093.97
896.03	1089.05
896.34	1084.84
896.65	1079.92
896.96	1078.75
897.26	1088.12
897.57	1088.58
897.88	1086.24
898.19	1087.18
898.49	1082.73
898.80	1067.99
899.11	1077.35
899.41	1081.09
899.72	1077.82
900.03	1079.92
900.34	1084.60
900.64	1073.14
900.95	1073.84
901.26	1074.31
901.56	1080.16
901.87	1076.18
902.18	1082.50
902.48	1082.73
902.79	1086.48
903.10	1087.88
903.40	1089.99
903.71	1093.50
904.02	1084.84
904.32	1083.20
904.63	1083.90
904.94	1086.24
905.24	1084.60
905.55	1090.46
905.85	1086.01
906.16	1070.09
906.47	1072.67
906.77	1069.39
907.08	1069.62
907.38	1071.26
907.69	1083.90
908.00	1081.09
908.30	1079.22
908.61	1083.67
908.91	1080.86
909.22	1076.41
909.52	1070.56
909.83	1071.03
910.14	1076.18
910.44	1087.41
910.75	1087.65
911.05	1098.88
911.36	1104.03
911.66	1096.31
911.97	1091.63
912.27	1078.75
912.58	1068.22
912.88	1061.43
913.19	1054.65
913.49	1048.79
913.80	1062.60
914.10	1061.90
914.41	1066.11
914.71	1072.43
915.01	1077.11
915.32	1078.05
915.62	1086.01
915.93	1093.26
916.23	1091.63
916.54	1087.41
916.84	1080.63
917.15	1077.82
917.45	1068.22
917.75	1066.58
918.06	1067.75
918.36	1073.84
918.67	1074.07
918.97	1067.28
919.27	1069.86
919.58	1068.69
919.88	1071.50
920.18	1066.11
920.49	1078.52
920.79	1084.84
921.10	1085.54
921.40	1084.37
921.70	1085.54
922.01	1095.84
922.31	1086.71
922.61	1095.84
922.92	1100.05
923.22	1102.39
923.52	1092.33
923.82	1088.35
924.13	1089.29
924.43	1090.92
924.73	1087.88
925.04	1081.33
925.34	1080.86
925.64	1073.60
925.94	1067.05
926.25	1069.86
926.55	1076.18
926.85	1080.39
927.15	1073.60
927.46	1081.33
927.76	1081.09
928.06	1076.41
928.36	1082.26
928.67	1098.88
928.97	1089.75
929.27	1090.92
929.57	1093.73
929.87	1092.09
930.18	1077.58
930.48	1078.05
930.78	1086.48
931.08	1082.97
931.38	1068.92
931.69	1082.73
931.99	1086.24
932.29	1078.52
932.59	1084.60
932.89	1097.95
933.19	1073.84
933.49	1066.82
933.80	1063.31
934.10	1057.69
934.40	1053.71
934.70	1066.82
935.00	1064.24
935.30	1065.41
935.60	1068.22
935.90	1060.26
936.20	1060.03
936.50	1067.75
936.81	1070.09
937.11	1074.07
937.41	1087.88
937.71	1088.35
938.01	1091.86
938.31	1093.73
938.61	1089.52
938.91	1092.80
939.21	1095.37
939.51	1098.65
939.81	1101.69
940.11	1101.92
940.41	1093.26
940.71	1092.33
941.01	1085.54
941.31	1081.33
941.61	1082.50
941.91	1083.43
942.21	1080.63
942.51	1082.03
942.81	1078.52
943.11	1076.18
943.41	1085.07
943.71	1086.71
944.01	1079.92
944.31	1079.92
944.61	1085.77
944.90	1080.63
945.20	1080.63
945.50	1081.56
945.80	1090.69
946.10	1084.60
946.40	1080.39
946.70	1074.31
947.00	1076.88
947.30	1075.48
947.60	1077.35
947.89	1077.35
948.19	1082.50
948.49	1088.35
948.79	1084.84
949.09	1089.75
949.39	1092.33
949.69	1088.35
949.98	1081.80
950.28	1074.07
950.58	1057.92
950.88	1054.65
951.18	1060.50
951.48	1056.52
951.77	1069.39
952.07	1078.05
952.37	1084.14
952.67	1081.80
952.97	1083.67
953.26	1078.05
953.56	1079.92
953.86	1074.31
954.16	1066.82
954.45	1074.07
954.75	1074.54
955.05	1066.82
955.35	1068.45
955.64	1074.54
955.94	1066.58
956.24	1067.99
956.54	1078.05
956.83	1075.01
957.13	1075.71
957.43	1092.33
957.72	1085.54
958.02	1080.86
958.32	1086.71
958.61	1092.33
958.91	1091.63
959.21	1102.39
959.50	1100.99
959.80	1092.56
960.10	1097.71
960.39	1086.24
960.69	1075.24
960.99	1074.31
961.28	1085.07
961.58	1076.41
961.87	1074.54
962.17	1079.22
962.47	1083.20
962.76	1089.52
963.06	1087.18
963.36	1092.09
963.65	1079.69
963.95	1067.28
964.24	1053.71
964.54	1062.14
964.83	1061.90
965.13	1072.67
965.42	1086.71
965.72	1087.41
966.02	1081.80
966.31	1084.60
966.61	1085.07
966.90	1084.84
967.20	1086.48
967.49	1093.03
967.79	1089.99
968.08	1087.65
968.38	1091.86
968.67	1086.71
968.97	1084.84
969.26	1086.01
969.56	1092.33
969.85	1084.60
970.15	1090.69
970.44	1086.48
970.74	1094.43
971.03	1094.20
971.32	1101.69
971.62	1098.88
971.91	1093.73
972.21	1079.22
972.50	1076.41
972.80	1068.22
973.09	1068.45
973.38	1072.90
973.68	1079.22
973.97	1078.05
974.27	1078.52
974.56	1076.88
974.85	1081.56
975.15	1079.22
975.44	1071.26
975.73	1071.50
976.03	1072.67
976.32	1077.35
976.61	1075.71
976.91	1082.03
977.20	1087.18
977.49	1087.88
977.79	1071.97
978.08	1079.22
978.37	1079.69
978.67	1077.82
978.96	1075.48
979.25	1081.80
979.55	1071.26
979.84	1066.82
980.13	1063.77
980.42	1064.01
980.72	1066.58
981.01	1082.50
981.30	1085.07
981.59	1088.82
981.89	1105.44
982.18	1094.90
982.47	1081.09
982.76	1080.39
983.06	1084.14
983.35	1071.50
983.64	1082.73
983.93	1089.99
984.22	1093.03
984.52	1086.71
984.81	1086.71
985.10	1080.63
985.39	1071.50
985.68	1077.82
985.97	1076.18
986.27	1076.41
986.56	1077.58
986.85	1091.86
987.14	1079.46
987.43	1074.31
987.72	1074.54
988.01	1079.92
988.31	1068.69
988.60	1074.54
988.89	1081.80
989.18	1086.71
989.47	1080.39
989.76	1083.67
990.05	1091.63
990.34	1089.29
990.63	1081.80
990.92	1086.24
991.21	1083.43
991.51	1077.35
991.80	1079.22
992.09	1087.18
992.38	1079.92
992.67	1082.50
992.96	1084.84
993.25	1085.07
993.54	1083.20
993.83	1088.82
994.12	1086.71
994.41	1087.88
994.70	1082.26
994.99	1081.56
995.28	1075.01
995.57	1078.28
995.86	1075.48
996.15	1090.92
996.44	1084.84
996.73	1088.58
997.02	1083.43
997.31	1078.52
997.59	1061.20
997.88	1058.16
998.17	1058.62
998.46	1073.60
998.75	1074.77
999.04	1081.56
999.33	1089.99
999.62	1096.54
999.91	1075.94
1000.20	1086.24
1000.49	1095.37
1000.77	1088.58
1001.06	1081.80
1001.35	1084.84
1001.64	1071.97
1001.93	1054.65
1002.22	1060.73
1002.51	1066.35
1002.79	1071.03
1003.08	1074.31
1003.37	1081.56
1003.66	1086.94
1003.95	1080.63
1004.23	1084.60
1004.52	1089.05
1004.81	1092.56
1005.10	1079.69
1005.39	1082.97
1005.67	1081.09
1005.96	1077.35
1006.25	1073.37
1006.54	1077.58
1006.83	1083.20
1007.11	1075.48
1007.40	1073.84
1007.69	1075.24
1007.97	1077.58
1008.26	1074.07
1008.55	1074.07
1008.84	1086.71
1009.12	1080.63
1009.41	1071.97
1009.70	1071.50
1009.98	1084.84
1010.27	1073.84
1010.56	1080.63
1010.85	1090.92
1011.13	1087.65
1011.42	1078.52
1011.71	1088.58
1011.99	1083.20
1012.28	1089.52
1012.56	1095.14
1012.85	1093.26
1013.14	1073.14
1013.42	1077.11
1013.71	1062.84
1014.00	1071.26
1014.28	1077.58
1014.57	1093.97
1014.85	1093.50
1015.14	1101.92
1015.43	1086.01
1015.71	1088.58
1016.00	1085.31
1016.28	1090.22
1016.57	1080.39
1016.85	1073.37
1017.14	1067.05
1017.43	1059.79
1017.71	1057.69
1018.00	1060.26
1018.28	1077.35
1018.57	1075.01
1018.85	1084.37
1019.14	1073.37
1019.42	1071.03
1019.71	1060.73
1019.99	1069.86
1020.28	1068.69
1020.56	1077.58
1020.85	1092.80
1021.13	1097.95
1021.42	1087.65
1021.70	1089.05
1021.99	1092.09
1022.27	1080.86
1022.55	1087.18
1022.84	1070.80
>>>>>End Processed Spectral Data<<<<<
