SpectraSuite Data File
++++++++++++++++++++++++++++++++++++
Date: Mon Aug 26 10:21:52 PDT 2019
User: corrico
Dark Spectrum Present: No
Reference Spectrum Present: No
Number of Sampled Component Spectra: 1
Spectrometers: USB2+H06089
Integration Time (usec): 2000 (USB2+H06089)
Spectra Averaged: 20 (USB2+H06089)
Boxcar Smoothing: 2 (USB2+H06089)
Correct for Electrical Dark: No (USB2+H06089)
Strobe/Lamp Enabled: No (USB2+H06089)
Correct for Detector Non-linearity: No (USB2+H06089)
Correct for Stray Light: No (USB2+H06089)
Number of Pixels in Processed Spectrum: 2048
>>>>>Begin Processed Spectral Data<<<<<
339.70	1017.43
340.07	1017.43
340.45	986.51
340.82	967.48
341.19	945.18
341.57	920.16
341.94	912.50
342.31	903.31
342.69	897.83
343.06	895.21
343.43	895.02
343.81	895.42
344.18	900.90
344.55	906.72
344.93	910.30
345.30	917.19
345.67	922.69
346.04	927.04
346.42	931.44
346.79	940.01
347.16	951.01
347.54	957.98
347.91	968.61
348.28	979.80
348.65	988.67
349.03	992.74
349.40	1002.78
349.77	1010.57
350.14	1015.56
350.52	1022.09
350.89	1028.36
351.26	1036.13
351.63	1040.39
352.01	1044.30
352.38	1049.94
352.75	1056.78
353.12	1056.47
353.50	1058.95
353.87	1064.26
354.24	1063.94
354.61	1065.81
354.98	1068.52
355.36	1067.94
355.73	1070.30
356.10	1074.84
356.47	1074.52
356.84	1074.68
357.22	1078.10
357.59	1075.31
357.96	1072.15
358.33	1070.09
358.70	1067.96
359.08	1070.07
359.45	1068.88
359.82	1071.36
360.19	1071.66
360.56	1075.22
360.94	1068.52
361.31	1066.21
361.68	1063.07
362.05	1065.01
362.42	1067.35
362.79	1066.82
363.16	1071.15
363.54	1071.78
363.91	1068.55
364.28	1065.18
364.65	1067.87
365.02	1064.05
365.39	1060.45
365.76	1059.49
366.14	1057.81
366.51	1057.13
366.88	1056.24
367.25	1060.33
367.62	1061.64
367.99	1063.66
368.36	1061.18
368.73	1064.62
369.10	1063.84
369.48	1065.72
369.85	1063.19
370.22	1064.78
370.59	1064.41
370.96	1062.02
371.33	1059.65
371.70	1059.44
372.07	1060.89
372.44	1057.22
372.81	1057.62
373.18	1057.41
373.55	1058.37
373.93	1056.03
374.30	1061.11
374.67	1060.99
375.04	1063.63
375.41	1064.03
375.78	1066.54
376.15	1063.12
376.52	1064.26
376.89	1065.18
377.26	1066.96
377.63	1065.74
378.00	1067.40
378.37	1072.11
378.74	1070.05
379.11	1069.25
379.48	1071.68
379.85	1070.84
380.22	1068.41
380.59	1070.56
380.96	1068.52
381.33	1065.58
381.70	1064.94
382.07	1064.08
382.44	1063.07
382.81	1064.24
383.18	1063.68
383.55	1065.83
383.92	1067.19
384.29	1066.28
384.66	1066.93
385.03	1071.12
385.40	1067.96
385.77	1065.44
386.14	1064.64
386.51	1066.30
386.88	1063.45
387.25	1065.46
387.62	1069.51
387.99	1071.33
388.36	1068.24
388.73	1070.42
389.10	1073.42
389.46	1069.72
389.83	1071.78
390.20	1075.43
390.57	1071.43
390.94	1070.02
391.31	1071.33
391.68	1070.75
392.05	1065.79
392.42	1068.78
392.79	1068.41
393.16	1068.36
393.53	1065.58
393.89	1067.17
394.26	1070.47
394.63	1071.61
395.00	1073.28
395.37	1076.01
395.74	1076.04
396.11	1071.92
396.48	1069.95
396.84	1067.42
397.21	1065.11
397.58	1067.00
397.95	1066.75
398.32	1065.08
398.69	1065.97
399.06	1066.16
399.42	1065.83
399.79	1068.06
400.16	1071.52
400.53	1070.68
400.90	1072.83
401.27	1072.18
401.64	1069.18
402.00	1066.63
402.37	1065.86
402.74	1064.87
403.11	1066.00
403.48	1067.49
403.84	1069.98
404.21	1074.03
404.58	1072.97
404.95	1071.45
405.32	1071.15
405.68	1068.88
406.05	1068.29
406.42	1069.51
406.79	1074.80
407.16	1072.08
407.52	1075.66
407.89	1075.64
408.26	1076.41
408.63	1072.36
408.99	1075.97
409.36	1073.30
409.73	1072.97
410.10	1070.94
410.47	1072.15
410.83	1073.46
411.20	1073.86
411.57	1073.21
411.94	1072.60
412.30	1069.88
412.67	1068.78
413.04	1068.59
413.40	1067.82
413.77	1070.12
414.14	1072.29
414.51	1073.11
414.87	1072.27
415.24	1071.12
415.61	1068.99
415.97	1067.10
416.34	1066.28
416.71	1067.96
417.08	1070.63
417.44	1071.33
417.81	1074.61
418.18	1075.27
418.54	1076.93
418.91	1078.92
419.28	1080.32
419.64	1080.06
420.01	1080.84
420.38	1077.44
420.74	1074.59
421.11	1075.52
421.48	1075.71
421.84	1075.62
422.21	1079.62
422.58	1082.69
422.94	1080.27
423.31	1078.03
423.68	1078.07
424.04	1076.72
424.41	1074.19
424.77	1075.34
425.14	1074.49
425.51	1074.82
425.87	1076.11
426.24	1078.43
426.61	1078.03
426.97	1077.89
427.34	1079.03
427.70	1077.61
428.07	1078.64
428.44	1080.77
428.80	1086.87
429.17	1085.07
429.53	1087.23
429.90	1086.97
430.27	1088.65
430.63	1086.24
431.00	1086.13
431.36	1088.07
431.73	1086.57
432.09	1085.07
432.46	1087.67
432.83	1088.91
433.19	1093.59
433.56	1095.21
433.92	1096.96
434.29	1094.22
434.65	1096.21
435.02	1091.98
435.38	1095.84
435.75	1098.48
436.11	1104.08
436.48	1108.66
436.84	1110.33
437.21	1113.23
437.57	1118.82
437.94	1121.96
438.30	1124.42
438.67	1128.30
439.03	1132.47
439.40	1134.76
439.76	1136.61
440.13	1142.46
440.49	1148.43
440.86	1150.58
441.22	1154.75
441.59	1161.21
441.95	1166.22
442.32	1173.64
442.68	1178.48
443.05	1187.75
443.41	1196.76
443.78	1202.68
444.14	1210.29
444.51	1220.78
444.87	1230.05
445.24	1240.88
445.60	1250.45
445.96	1259.47
446.33	1271.24
446.69	1277.25
447.06	1285.42
447.42	1297.78
447.79	1307.77
448.15	1323.20
448.51	1340.07
448.88	1353.79
449.24	1368.32
449.61	1391.40
449.97	1409.42
450.33	1431.31
450.70	1452.40
451.06	1475.12
451.43	1492.91
451.79	1515.47
452.15	1538.50
452.52	1564.91
452.88	1596.99
453.24	1633.02
453.61	1667.63
453.97	1703.56
454.34	1740.54
454.70	1774.06
455.06	1804.67
455.43	1841.65
455.79	1875.99
456.15	1914.30
456.52	1952.12
456.88	1998.91
457.24	2046.24
457.61	2091.50
457.97	2143.74
458.33	2194.28
458.70	2244.18
459.06	2287.12
459.42	2344.80
459.79	2387.30
460.15	2445.30
460.51	2499.48
460.88	2555.02
461.24	2598.44
461.60	2658.29
461.96	2712.63
462.33	2758.51
462.69	2810.12
463.05	2870.27
463.42	2917.52
463.78	2964.08
464.14	3007.26
464.50	3042.67
464.87	3072.66
465.23	3090.00
465.59	3103.60
465.95	3124.03
466.32	3135.24
466.68	3150.85
467.04	3170.02
467.40	3179.92
467.77	3179.64
468.13	3183.99
468.49	3174.30
468.85	3171.03
469.22	3173.65
469.58	3170.72
469.94	3164.59
470.30	3155.23
470.66	3129.58
471.03	3095.19
471.39	3069.61
471.75	3029.57
472.11	2990.41
472.47	2966.18
472.84	2942.01
473.20	2909.80
473.56	2891.31
473.92	2860.09
474.28	2827.41
474.65	2790.97
475.01	2760.29
475.37	2717.62
475.73	2691.48
476.09	2657.16
476.45	2628.40
476.81	2600.66
477.18	2578.40
477.54	2557.78
477.90	2545.43
478.26	2519.77
478.62	2493.82
478.98	2475.87
479.34	2453.63
479.71	2428.68
480.07	2410.61
480.43	2395.19
480.79	2376.16
481.15	2353.55
481.51	2331.71
481.87	2310.34
482.23	2291.81
482.59	2269.95
482.96	2253.35
483.32	2240.69
483.68	2220.30
484.04	2196.69
484.40	2182.53
484.76	2162.49
485.12	2141.59
485.48	2127.76
485.84	2110.79
486.20	2092.16
486.56	2073.20
486.92	2047.73
487.28	2028.50
487.64	2006.31
488.00	1982.74
488.37	1960.62
488.73	1944.38
489.09	1920.85
489.45	1901.94
489.81	1885.18
490.17	1866.81
490.53	1846.89
490.89	1826.93
491.25	1806.36
491.61	1780.84
491.97	1761.60
492.33	1736.96
492.69	1717.44
493.05	1698.85
493.41	1679.85
493.77	1657.75
494.13	1644.65
494.49	1627.91
494.85	1613.40
495.21	1602.26
495.57	1590.67
495.93	1572.49
496.29	1557.49
496.64	1543.98
497.00	1525.61
497.36	1511.35
497.72	1502.55
498.08	1490.17
498.44	1477.21
498.80	1468.12
499.16	1457.17
499.52	1443.15
499.88	1435.12
500.24	1428.78
500.60	1421.22
500.96	1413.71
501.32	1404.23
501.68	1395.40
502.03	1381.90
502.39	1369.92
502.75	1359.73
503.11	1354.63
503.47	1345.50
503.83	1338.20
504.19	1330.97
504.55	1323.39
504.91	1316.04
505.26	1308.55
505.62	1302.32
505.98	1294.85
506.34	1287.36
506.70	1277.86
507.06	1270.26
507.42	1262.86
507.78	1255.53
508.13	1249.71
508.49	1245.42
508.85	1242.71
509.21	1237.16
509.57	1235.29
509.93	1230.44
510.28	1226.65
510.64	1223.89
511.00	1219.96
511.36	1211.30
511.72	1208.25
512.07	1203.46
512.43	1195.10
512.79	1190.65
513.15	1185.81
513.51	1181.95
513.86	1180.31
514.22	1176.59
514.58	1173.50
514.94	1174.11
515.30	1169.99
515.65	1165.03
516.01	1164.44
516.37	1161.30
516.73	1160.02
517.08	1161.30
517.44	1160.48
517.80	1158.80
518.16	1155.50
518.51	1152.57
518.87	1147.59
519.23	1144.57
519.59	1141.01
519.94	1141.15
520.30	1138.83
520.66	1136.12
521.01	1133.90
521.37	1131.74
521.73	1130.15
522.09	1128.16
522.44	1127.97
522.80	1125.05
523.16	1126.48
523.51	1122.10
523.87	1124.39
524.23	1124.07
524.58	1124.32
524.94	1124.09
525.30	1122.61
525.65	1116.58
526.01	1112.90
526.37	1108.90
526.72	1104.66
527.08	1106.11
527.44	1104.90
527.79	1105.01
528.15	1105.25
528.51	1107.26
528.86	1102.44
529.22	1103.26
529.58	1101.53
529.93	1098.95
530.29	1095.00
530.65	1097.36
531.00	1096.78
531.36	1096.10
531.71	1095.53
532.07	1095.42
532.43	1093.40
532.78	1092.77
533.14	1092.40
533.49	1095.07
533.85	1096.68
534.21	1098.06
534.56	1094.90
534.92	1096.49
535.27	1093.62
535.63	1091.20
535.98	1087.55
536.34	1088.93
536.69	1083.88
537.05	1083.32
537.41	1078.78
537.76	1079.41
538.12	1080.27
538.47	1083.48
538.83	1082.40
539.18	1086.15
539.54	1090.29
539.89	1091.51
540.25	1090.55
540.60	1094.20
540.96	1095.93
541.31	1092.75
541.67	1086.90
542.02	1088.00
542.38	1086.15
542.73	1081.16
543.09	1081.47
543.44	1085.56
543.80	1081.44
544.15	1080.23
544.51	1081.70
544.86	1080.39
545.22	1078.24
545.57	1077.54
545.93	1075.71
546.28	1074.89
546.64	1076.34
546.99	1081.16
547.35	1084.96
547.70	1089.19
548.05	1089.07
548.41	1088.21
548.76	1083.22
549.12	1082.03
549.47	1079.78
549.83	1080.18
550.18	1083.48
550.53	1084.65
550.89	1086.27
551.24	1084.21
551.60	1083.46
551.95	1080.88
552.30	1080.56
552.66	1080.25
553.01	1084.23
553.37	1087.23
553.72	1087.53
554.07	1085.19
554.43	1082.31
554.78	1081.00
555.13	1080.04
555.49	1077.98
555.84	1077.61
556.19	1080.04
556.55	1078.43
556.90	1077.51
557.26	1076.48
557.61	1077.93
557.96	1075.71
558.32	1074.45
558.67	1075.08
559.02	1075.59
559.37	1076.88
559.73	1077.82
560.08	1081.42
560.43	1080.13
560.79	1080.56
561.14	1080.13
561.49	1080.04
561.85	1079.13
562.20	1080.11
562.55	1077.44
562.90	1075.83
563.26	1076.51
563.61	1076.15
563.96	1075.52
564.32	1077.11
564.67	1076.34
565.02	1074.05
565.37	1071.80
565.73	1071.78
566.08	1072.08
566.43	1073.37
566.78	1074.26
567.14	1076.41
567.49	1076.20
567.84	1077.42
568.19	1076.51
568.54	1074.61
568.90	1069.79
569.25	1068.95
569.60	1067.47
569.95	1064.80
570.31	1069.53
570.66	1073.46
571.01	1073.30
571.36	1072.69
571.71	1075.38
572.06	1074.14
572.42	1072.88
572.77	1075.87
573.12	1077.04
573.47	1079.92
573.82	1076.76
574.18	1079.41
574.53	1079.22
574.88	1080.48
575.23	1077.16
575.58	1078.66
575.93	1080.74
576.28	1078.96
576.64	1077.37
576.99	1078.14
577.34	1079.50
577.69	1077.79
578.04	1077.25
578.39	1081.00
578.74	1080.37
579.09	1078.66
579.44	1080.23
579.80	1084.39
580.15	1081.30
580.50	1083.29
580.85	1083.90
581.20	1081.98
581.55	1077.89
581.90	1079.55
582.25	1076.62
582.60	1077.30
582.95	1075.36
583.30	1074.70
583.65	1075.08
584.00	1077.96
584.35	1075.62
584.71	1075.36
585.06	1077.40
585.41	1074.98
585.76	1074.56
586.11	1076.74
586.46	1077.00
586.81	1075.85
587.16	1072.74
587.51	1072.74
587.86	1071.17
588.21	1070.91
588.56	1071.26
588.91	1074.77
589.26	1074.54
589.61	1074.40
589.96	1075.05
590.31	1073.91
590.66	1073.88
591.01	1071.78
591.36	1069.37
591.71	1069.72
592.06	1069.88
592.41	1070.00
592.76	1072.88
593.10	1077.33
593.45	1078.59
593.80	1078.87
594.15	1078.14
594.50	1077.77
594.85	1075.13
595.20	1073.98
595.55	1072.43
595.90	1073.28
596.25	1073.21
596.60	1074.77
596.95	1073.21
597.30	1073.77
597.64	1087.44
597.99	1085.75
598.34	1086.57
598.69	1087.18
599.04	1088.23
599.39	1075.57
599.74	1077.68
600.09	1078.59
600.44	1080.70
600.78	1081.23
601.13	1079.97
601.48	1076.15
601.83	1074.33
602.18	1072.15
602.53	1072.46
602.88	1069.98
603.22	1073.70
603.57	1069.72
603.92	1072.39
604.27	1071.12
604.62	1075.48
604.97	1073.09
605.31	1076.65
605.66	1071.47
606.01	1070.51
606.36	1067.66
606.71	1068.41
607.05	1069.32
607.40	1074.49
607.75	1076.06
608.10	1074.14
608.44	1073.84
608.79	1073.58
609.14	1069.18
609.49	1070.65
609.84	1073.84
610.18	1076.15
610.53	1075.71
610.88	1077.04
611.23	1076.41
611.57	1075.43
611.92	1075.94
612.27	1073.77
612.62	1077.09
612.96	1076.76
613.31	1077.04
613.66	1074.56
614.00	1076.83
614.35	1076.53
614.70	1075.62
615.05	1073.74
615.39	1077.25
615.74	1075.27
616.09	1072.83
616.43	1073.93
616.78	1079.67
617.13	1077.21
617.47	1078.38
617.82	1076.23
618.17	1076.30
618.51	1070.40
618.86	1070.33
619.21	1068.55
619.55	1071.57
619.90	1070.19
620.25	1070.42
620.59	1072.36
620.94	1076.67
621.29	1076.11
621.63	1076.62
621.98	1076.97
622.32	1075.52
622.67	1076.62
623.02	1076.51
623.36	1076.90
623.71	1077.72
624.05	1080.20
624.40	1076.13
624.75	1076.06
625.09	1075.87
625.44	1077.37
625.78	1073.30
626.13	1074.47
626.48	1072.88
626.82	1073.81
627.17	1072.08
627.51	1070.56
627.86	1070.19
628.20	1069.51
628.55	1067.92
628.89	1071.15
629.24	1073.88
629.58	1076.15
629.93	1079.43
630.28	1078.45
630.62	1075.73
630.97	1075.48
631.31	1074.73
631.66	1073.58
632.00	1074.63
632.35	1074.68
632.69	1075.94
633.04	1074.87
633.38	1075.31
633.73	1075.62
634.07	1076.74
634.42	1078.33
634.76	1078.21
635.11	1081.47
635.45	1081.87
635.79	1079.83
636.14	1077.21
636.48	1078.75
636.83	1070.98
637.17	1071.80
637.52	1071.15
637.86	1073.37
638.21	1067.33
638.55	1070.87
638.89	1071.73
639.24	1072.50
639.58	1070.26
639.93	1076.27
640.27	1076.76
640.61	1074.54
640.96	1075.71
641.30	1076.11
641.65	1072.74
641.99	1075.13
642.33	1073.07
642.68	1076.01
643.02	1074.14
643.37	1077.42
643.71	1074.10
644.05	1074.40
644.40	1071.82
644.74	1073.70
645.08	1072.88
645.43	1076.27
645.77	1074.21
646.11	1074.89
646.46	1074.00
646.80	1075.41
647.14	1073.23
647.49	1075.27
647.83	1070.19
648.17	1071.31
648.52	1067.89
648.86	1065.90
649.20	1064.57
649.55	1068.78
649.89	1066.75
650.23	1069.30
650.57	1070.12
650.92	1074.17
651.26	1076.95
651.60	1075.17
651.95	1072.22
652.29	1073.98
652.63	1071.61
652.97	1067.96
653.32	1069.86
653.66	1070.94
654.00	1071.38
654.34	1071.45
654.69	1070.96
655.03	1071.08
655.37	1070.49
655.71	1068.24
656.05	1069.55
656.40	1070.58
656.74	1071.03
657.08	1073.81
657.42	1074.17
657.76	1071.08
658.11	1073.21
658.45	1072.95
658.79	1071.26
659.13	1072.04
659.47	1076.97
659.82	1073.35
660.16	1072.67
660.50	1072.08
660.84	1070.49
661.18	1067.45
661.52	1070.84
661.87	1072.43
662.21	1070.96
662.55	1072.06
662.89	1072.53
663.23	1070.77
663.57	1069.70
663.91	1073.35
664.25	1073.04
664.60	1076.72
664.94	1077.23
665.28	1076.81
665.62	1072.88
665.96	1072.20
666.30	1067.31
666.64	1067.33
666.98	1069.48
667.32	1074.33
667.66	1074.96
668.01	1075.31
668.35	1073.98
668.69	1070.84
669.03	1069.32
669.37	1071.22
669.71	1069.98
670.05	1071.57
670.39	1074.07
670.73	1071.47
671.07	1070.37
671.41	1074.40
671.75	1072.32
672.09	1072.06
672.43	1072.92
672.77	1075.83
673.11	1072.69
673.45	1075.38
673.79	1075.92
674.13	1075.90
674.47	1076.39
674.81	1078.38
675.15	1079.29
675.49	1081.00
675.83	1079.81
676.17	1077.51
676.51	1077.00
676.85	1077.82
677.19	1077.58
677.53	1080.13
677.87	1079.06
678.21	1076.48
678.55	1072.85
678.89	1073.95
679.23	1074.07
679.57	1075.71
679.90	1078.61
680.24	1076.90
680.58	1072.97
680.92	1071.85
681.26	1068.69
681.60	1068.29
681.94	1071.24
682.28	1070.65
682.62	1071.90
682.96	1073.58
683.29	1073.28
683.63	1074.07
683.97	1073.28
684.31	1072.64
684.65	1070.40
684.99	1072.69
685.33	1071.61
685.67	1074.80
686.00	1072.62
686.34	1073.86
686.68	1072.08
687.02	1069.23
687.36	1069.16
687.70	1070.30
688.03	1070.44
688.37	1071.71
688.71	1073.35
689.05	1072.50
689.39	1073.23
689.72	1073.37
690.06	1075.66
690.40	1077.16
690.74	1079.27
691.08	1079.03
691.41	1078.75
691.75	1077.00
692.09	1076.79
692.43	1069.65
692.76	1068.81
693.10	1069.67
693.44	1068.99
693.78	1066.49
694.11	1071.90
694.45	1072.53
694.79	1072.62
695.13	1072.41
695.46	1076.90
695.80	1077.98
696.14	1080.09
696.48	1079.62
696.81	1075.15
697.15	1071.36
697.49	1070.84
697.82	1068.52
698.16	1069.72
698.50	1074.70
698.83	1075.17
699.17	1073.86
699.51	1072.29
699.84	1071.50
700.18	1071.03
700.52	1072.83
700.85	1073.72
701.19	1077.42
701.53	1075.22
701.86	1072.36
702.20	1073.91
702.54	1071.03
702.87	1067.42
703.21	1069.95
703.55	1070.65
703.88	1068.22
704.22	1070.98
704.55	1069.65
704.89	1068.90
705.23	1069.41
705.56	1071.15
705.90	1070.96
706.23	1077.18
706.57	1080.23
706.91	1081.44
707.24	1081.37
707.58	1079.50
707.91	1078.14
708.25	1076.65
708.58	1077.86
708.92	1078.87
709.26	1078.07
709.59	1078.21
709.93	1076.88
710.26	1074.47
710.60	1072.15
710.93	1072.85
711.27	1071.36
711.60	1073.88
711.94	1076.65
712.27	1077.65
712.61	1078.64
712.94	1078.73
713.28	1077.91
713.61	1074.59
713.95	1073.25
714.28	1074.38
714.62	1074.17
714.95	1072.64
715.29	1075.55
715.62	1074.75
715.96	1071.78
716.29	1071.29
716.63	1070.37
716.96	1068.45
717.29	1070.91
717.63	1071.85
717.96	1072.18
718.30	1074.96
718.63	1074.61
718.97	1071.40
719.30	1075.43
719.63	1074.70
719.97	1072.22
720.30	1073.37
720.64	1074.73
720.97	1070.96
721.30	1071.10
721.64	1073.79
721.97	1071.40
722.31	1073.79
722.64	1073.39
722.97	1073.49
723.31	1072.71
723.64	1074.33
723.97	1074.91
724.31	1077.49
724.64	1078.43
724.98	1076.13
725.31	1075.20
725.64	1072.57
725.98	1071.92
726.31	1071.64
726.64	1071.12
726.97	1069.27
727.31	1067.00
727.64	1064.80
727.97	1061.83
728.31	1061.95
728.64	1064.03
728.97	1064.90
729.31	1065.58
729.64	1067.64
729.97	1068.38
730.30	1070.75
730.64	1074.00
730.97	1075.55
731.30	1077.21
731.63	1075.36
731.97	1072.25
732.30	1070.30
732.63	1072.01
732.96	1072.18
733.30	1073.84
733.63	1074.21
733.96	1074.12
734.29	1071.05
734.63	1068.52
734.96	1067.33
735.29	1068.88
735.62	1067.92
735.95	1070.63
736.29	1072.57
736.62	1074.12
736.95	1076.27
737.28	1079.62
737.61	1077.72
737.94	1077.07
738.28	1079.08
738.61	1077.28
738.94	1077.14
739.27	1079.22
739.60	1080.79
739.93	1080.46
740.27	1081.63
740.60	1082.29
740.93	1082.45
741.26	1083.62
741.59	1081.98
741.92	1081.07
742.25	1077.93
742.58	1075.73
742.91	1070.61
743.25	1069.79
743.58	1067.47
743.91	1067.85
744.24	1070.56
744.57	1069.11
744.90	1071.82
745.23	1073.98
745.56	1073.49
745.89	1070.70
746.22	1073.77
746.55	1072.78
746.88	1074.26
747.21	1076.55
747.54	1073.81
747.87	1075.80
748.20	1076.72
748.53	1076.60
748.87	1075.31
749.20	1078.52
749.53	1077.44
749.86	1077.75
750.19	1076.88
750.52	1076.08
750.85	1074.87
751.18	1075.94
751.51	1077.28
751.84	1077.21
752.16	1078.31
752.49	1079.99
752.82	1078.59
753.15	1074.24
753.48	1073.09
753.81	1072.83
754.14	1072.76
754.47	1074.05
754.80	1076.60
755.13	1076.55
755.46	1077.30
755.79	1078.14
756.12	1079.15
756.45	1077.47
756.78	1078.78
757.11	1077.11
757.43	1076.55
757.76	1074.47
758.09	1074.84
758.42	1072.90
758.75	1071.08
759.08	1069.44
759.41	1070.14
759.74	1069.77
760.07	1071.43
760.39	1072.90
760.72	1074.56
761.05	1072.88
761.38	1072.27
761.71	1072.18
762.04	1074.73
762.36	1075.50
762.69	1078.82
763.02	1079.06
763.35	1076.53
763.68	1073.67
764.01	1070.80
764.33	1070.87
764.66	1073.23
764.99	1075.71
765.32	1075.97
765.65	1078.66
765.97	1075.92
766.30	1075.38
766.63	1074.56
766.96	1073.81
767.28	1074.68
767.61	1076.76
767.94	1076.30
768.27	1076.55
768.59	1074.26
768.92	1071.26
769.25	1070.70
769.58	1068.08
769.90	1067.14
770.23	1071.64
770.56	1073.65
770.89	1072.18
771.21	1073.51
771.54	1075.31
771.87	1075.55
772.19	1074.31
772.52	1072.62
772.85	1072.50
773.17	1069.91
773.50	1071.94
773.83	1074.07
774.15	1075.64
774.48	1077.14
774.81	1081.09
775.13	1079.15
775.46	1078.92
775.79	1081.91
776.11	1080.25
776.44	1081.47
776.77	1079.62
777.09	1078.52
777.42	1076.06
777.74	1076.76
778.07	1072.46
778.40	1073.70
778.72	1074.98
779.05	1073.60
779.37	1073.70
779.70	1073.37
780.03	1073.58
780.35	1072.78
780.68	1073.37
781.00	1072.62
781.33	1075.69
781.65	1074.07
781.98	1071.26
782.31	1070.75
782.63	1069.44
782.96	1067.82
783.28	1066.86
783.61	1065.93
783.93	1067.87
784.26	1066.56
784.58	1067.26
784.91	1072.27
785.23	1074.70
785.56	1072.95
785.88	1074.89
786.21	1072.92
786.53	1068.50
786.86	1072.04
787.18	1072.06
787.51	1077.63
787.83	1078.68
788.16	1076.60
788.48	1074.05
788.81	1075.97
789.13	1073.04
789.46	1072.95
789.78	1079.20
790.10	1078.64
790.43	1076.30
790.75	1072.34
791.08	1071.75
791.40	1067.61
791.73	1067.89
792.05	1068.69
792.37	1074.17
792.70	1074.49
793.02	1073.84
793.35	1073.11
793.67	1072.88
793.99	1071.71
794.32	1072.67
794.64	1073.00
794.96	1071.52
795.29	1072.46
795.61	1069.18
795.93	1069.53
796.26	1071.15
796.58	1072.64
796.91	1073.93
797.23	1075.87
797.55	1073.70
797.87	1073.28
798.20	1070.09
798.52	1069.88
798.84	1069.37
799.17	1068.69
799.49	1068.81
799.81	1072.08
800.14	1070.35
800.46	1070.40
800.78	1071.36
801.10	1071.05
801.43	1070.14
801.75	1073.84
802.07	1076.30
802.40	1075.64
802.72	1075.15
803.04	1075.87
803.36	1076.25
803.69	1074.33
804.01	1075.38
804.33	1077.18
804.65	1079.50
804.97	1078.50
805.30	1077.89
805.62	1076.69
805.94	1074.73
806.26	1073.04
806.58	1071.03
806.91	1072.06
807.23	1073.56
807.55	1073.79
807.87	1071.64
808.19	1070.19
808.52	1069.81
808.84	1070.09
809.16	1072.32
809.48	1073.00
809.80	1073.21
810.12	1074.98
810.44	1072.85
810.77	1071.43
811.09	1073.28
811.41	1074.10
811.73	1073.79
812.05	1077.11
812.37	1078.05
812.69	1076.23
813.01	1074.59
813.33	1073.91
813.66	1072.13
813.98	1073.53
814.30	1071.97
814.62	1071.47
814.94	1070.98
815.26	1074.21
815.58	1072.01
815.90	1075.29
816.22	1074.45
816.54	1075.29
816.86	1070.96
817.18	1069.98
817.50	1069.41
817.82	1070.58
818.14	1070.65
818.46	1073.81
818.78	1075.66
819.10	1074.82
819.42	1075.64
819.74	1074.03
820.06	1070.49
820.38	1068.41
820.70	1069.55
821.02	1071.36
821.34	1071.29
821.66	1072.88
821.98	1073.74
822.30	1070.14
822.62	1066.70
822.94	1068.29
823.26	1069.27
823.58	1070.09
823.90	1073.18
824.22	1073.95
824.54	1072.43
824.86	1073.09
825.18	1073.09
825.50	1071.08
825.81	1072.46
826.13	1073.04
826.45	1071.54
826.77	1073.56
827.09	1074.05
827.41	1074.00
827.73	1078.54
828.05	1079.31
828.36	1075.83
828.68	1076.86
829.00	1077.21
829.32	1072.81
829.64	1072.01
829.96	1067.28
830.28	1068.15
830.59	1069.32
830.91	1069.27
831.23	1068.10
831.55	1072.60
831.87	1072.67
832.19	1071.71
832.50	1072.32
832.82	1074.84
833.14	1076.51
833.46	1075.97
833.78	1076.08
834.09	1072.08
834.41	1067.96
834.73	1065.04
835.05	1064.52
835.36	1061.57
835.68	1066.91
836.00	1070.65
836.32	1071.78
836.63	1074.47
836.95	1078.12
837.27	1077.91
837.59	1073.49
837.90	1075.73
838.22	1076.27
838.54	1073.02
838.85	1072.20
839.17	1074.49
839.49	1072.06
839.80	1068.69
840.12	1072.46
840.44	1072.32
840.76	1073.46
841.07	1073.04
841.39	1074.75
841.71	1073.88
842.02	1074.35
842.34	1075.05
842.65	1077.79
842.97	1080.30
843.29	1080.77
843.60	1079.81
843.92	1081.35
844.24	1082.08
844.55	1078.78
844.87	1078.24
845.18	1078.92
845.50	1078.07
845.82	1075.59
846.13	1078.43
846.45	1079.88
846.76	1076.48
847.08	1072.81
847.40	1074.05
847.71	1070.14
848.03	1067.24
848.34	1065.34
848.66	1068.27
848.97	1068.22
849.29	1070.96
849.60	1073.98
849.92	1078.73
850.24	1079.13
850.55	1079.85
850.87	1077.23
851.18	1073.70
851.50	1073.42
851.81	1071.47
852.13	1068.71
852.44	1072.04
852.76	1074.84
853.07	1074.59
853.39	1076.81
853.70	1078.43
854.01	1074.91
854.33	1073.49
854.64	1074.03
854.96	1074.56
855.27	1074.66
855.59	1072.90
855.90	1070.70
856.22	1071.15
856.53	1070.70
856.84	1068.69
857.16	1070.91
857.47	1075.03
857.79	1072.46
858.10	1069.25
858.41	1070.21
858.73	1069.27
859.04	1069.48
859.36	1070.54
859.67	1069.20
859.98	1069.34
860.30	1071.59
860.61	1070.44
860.92	1067.40
861.24	1071.78
861.55	1072.11
861.87	1069.53
862.18	1068.27
862.49	1070.61
862.81	1070.00
863.12	1071.33
863.43	1073.70
863.74	1073.63
864.06	1077.75
864.37	1074.35
864.68	1070.80
865.00	1068.92
865.31	1065.15
865.62	1060.68
865.94	1062.23
866.25	1063.70
866.56	1064.26
866.87	1070.87
867.19	1070.49
867.50	1070.47
867.81	1069.72
868.12	1070.44
868.44	1068.15
868.75	1071.08
869.06	1070.82
869.37	1073.25
869.68	1074.45
870.00	1077.14
870.31	1076.97
870.62	1078.78
870.93	1077.89
871.24	1076.67
871.56	1074.77
871.87	1072.46
872.18	1071.59
872.49	1071.08
872.80	1070.16
873.12	1074.45
873.43	1078.61
873.74	1077.16
874.05	1079.60
874.36	1077.11
874.67	1072.04
874.98	1067.10
875.29	1072.04
875.61	1070.51
875.92	1074.03
876.23	1070.35
876.54	1071.82
876.85	1069.70
877.16	1069.02
877.47	1069.41
877.78	1073.39
878.09	1075.31
878.40	1074.05
878.72	1076.86
879.03	1075.99
879.34	1077.98
879.65	1075.62
879.96	1077.18
880.27	1076.11
880.58	1076.48
880.89	1077.51
881.20	1081.66
881.51	1079.53
881.82	1079.43
882.13	1078.24
882.44	1076.55
882.75	1077.16
883.06	1076.81
883.37	1076.53
883.68	1078.19
883.99	1079.55
884.30	1073.84
884.61	1074.19
884.92	1072.11
885.23	1071.40
885.54	1069.04
885.85	1072.90
886.16	1070.37
886.47	1070.89
886.78	1071.75
887.08	1071.40
887.39	1074.26
887.70	1080.23
888.01	1081.63
888.32	1078.07
888.63	1077.42
888.94	1073.74
889.25	1072.27
889.56	1070.37
889.87	1071.92
890.17	1071.12
890.48	1068.50
890.79	1066.70
891.10	1067.49
891.41	1067.92
891.72	1070.28
892.03	1073.51
892.34	1077.30
892.64	1076.79
892.95	1077.18
893.26	1075.62
893.57	1071.31
893.88	1064.92
894.18	1064.97
894.49	1064.62
894.80	1064.78
895.11	1068.15
895.42	1069.55
895.72	1069.48
896.03	1069.91
896.34	1069.60
896.65	1069.11
896.96	1071.24
897.26	1072.76
897.57	1073.09
897.88	1074.17
898.19	1075.27
898.49	1076.81
898.80	1075.48
899.11	1072.29
899.41	1074.12
899.72	1074.38
900.03	1073.21
900.34	1076.86
900.64	1081.66
900.95	1078.03
901.26	1077.51
901.56	1077.16
901.87	1075.59
902.18	1074.00
902.48	1074.07
902.79	1074.63
903.10	1073.53
903.40	1073.02
903.71	1071.94
904.02	1070.96
904.32	1069.88
904.63	1072.36
904.94	1074.14
905.24	1077.21
905.55	1079.88
905.85	1078.61
906.16	1077.04
906.47	1071.68
906.77	1070.56
907.08	1071.29
907.38	1071.54
907.69	1070.96
908.00	1075.41
908.30	1074.70
908.61	1074.19
908.91	1077.21
909.22	1075.52
909.52	1071.82
909.83	1070.94
910.14	1069.65
910.44	1066.07
910.75	1070.82
911.05	1074.19
911.36	1072.08
911.66	1074.96
911.97	1076.55
912.27	1072.83
912.58	1071.26
912.88	1075.41
913.19	1074.77
913.49	1074.17
913.80	1078.43
914.10	1081.26
914.41	1079.50
914.71	1078.82
915.01	1083.95
915.32	1080.20
915.62	1076.60
915.93	1076.53
916.23	1075.43
916.54	1068.31
916.84	1068.41
917.15	1069.88
917.45	1070.61
917.75	1071.80
918.06	1073.44
918.36	1072.67
918.67	1075.83
918.97	1076.55
919.27	1074.61
919.58	1076.27
919.88	1077.07
920.18	1072.95
920.49	1071.36
920.79	1072.55
921.10	1072.13
921.40	1076.25
921.70	1077.42
922.01	1081.12
922.31	1082.19
922.61	1080.18
922.92	1074.75
923.22	1071.17
923.52	1068.01
923.82	1068.83
924.13	1066.51
924.43	1072.32
924.73	1078.43
925.04	1079.92
925.34	1076.88
925.64	1080.65
925.94	1077.96
926.25	1076.06
926.55	1074.19
926.85	1074.91
927.15	1072.04
927.46	1067.92
927.76	1067.82
928.06	1068.59
928.36	1070.42
928.67	1072.71
928.97	1074.68
929.27	1072.97
929.57	1075.57
929.87	1074.66
930.18	1072.76
930.48	1070.80
930.78	1069.98
931.08	1066.21
931.38	1068.06
931.69	1069.72
931.99	1072.85
932.29	1077.02
932.59	1079.20
932.89	1075.66
933.19	1078.87
933.49	1080.56
933.80	1077.21
934.10	1075.27
934.40	1076.37
934.70	1073.02
935.00	1070.44
935.30	1071.97
935.60	1072.36
935.90	1072.04
936.20	1069.46
936.50	1069.67
936.81	1067.07
937.11	1068.45
937.41	1069.39
937.71	1075.41
938.01	1076.11
938.31	1078.68
938.61	1079.48
938.91	1077.00
939.21	1074.59
939.51	1073.37
939.81	1069.95
940.11	1067.00
940.41	1067.94
940.71	1067.28
941.01	1068.27
941.31	1071.29
941.61	1073.65
941.91	1077.00
942.21	1078.75
942.51	1078.87
942.81	1079.83
943.11	1078.17
943.41	1076.15
943.71	1071.66
944.01	1068.43
944.31	1069.34
944.61	1067.64
944.90	1068.31
945.20	1069.44
945.50	1072.85
945.80	1069.39
946.10	1070.75
946.40	1071.15
946.70	1074.73
947.00	1074.49
947.30	1075.22
947.60	1075.43
947.89	1072.18
948.19	1070.51
948.49	1070.87
948.79	1070.07
949.09	1070.96
949.39	1068.69
949.69	1071.12
949.98	1069.67
950.28	1069.44
950.58	1069.16
950.88	1073.46
951.18	1071.24
951.48	1073.02
951.77	1074.98
952.07	1075.22
952.37	1076.34
952.67	1077.28
952.97	1077.11
953.26	1078.14
953.56	1075.83
953.86	1072.55
954.16	1067.47
954.45	1064.10
954.75	1064.15
955.05	1066.89
955.35	1068.55
955.64	1075.31
955.94	1079.85
956.24	1078.31
956.54	1081.09
956.83	1082.19
957.13	1080.02
957.43	1077.98
957.72	1077.61
958.02	1075.48
958.32	1077.37
958.61	1076.32
958.91	1076.18
959.21	1078.21
959.50	1078.68
959.80	1074.49
960.10	1071.75
960.39	1073.77
960.69	1072.88
960.99	1070.96
961.28	1073.53
961.58	1077.18
961.87	1075.15
962.17	1074.77
962.47	1075.03
962.76	1072.08
963.06	1073.11
963.36	1075.73
963.65	1077.07
963.95	1079.15
964.24	1080.46
964.54	1079.48
964.83	1078.78
965.13	1077.35
965.42	1073.88
965.72	1073.98
966.02	1073.95
966.31	1072.55
966.61	1070.89
966.90	1073.39
967.20	1074.61
967.49	1074.42
967.79	1075.41
968.08	1079.15
968.38	1077.35
968.67	1075.48
968.97	1074.75
969.26	1073.44
969.56	1071.66
969.85	1069.27
970.15	1072.95
970.44	1073.07
970.74	1071.87
971.03	1071.61
971.32	1071.50
971.62	1067.68
971.91	1068.95
972.21	1070.42
972.50	1068.71
972.80	1071.80
973.09	1071.66
973.38	1068.36
973.68	1068.24
973.97	1069.04
974.27	1068.69
974.56	1071.24
974.85	1074.68
975.15	1075.59
975.44	1076.27
975.73	1077.77
976.03	1075.20
976.32	1075.01
976.61	1076.55
976.91	1074.75
977.20	1071.38
977.49	1073.67
977.79	1072.88
978.08	1068.45
978.37	1067.19
978.67	1071.59
978.96	1071.64
979.25	1071.45
979.55	1076.30
979.84	1077.56
980.13	1074.54
980.42	1072.62
980.72	1073.95
981.01	1070.09
981.30	1073.46
981.59	1073.65
981.89	1078.85
982.18	1079.29
982.47	1083.13
982.76	1077.54
983.06	1079.22
983.35	1073.14
983.64	1072.46
983.93	1068.78
984.22	1070.82
984.52	1069.74
984.81	1070.28
985.10	1070.28
985.39	1067.45
985.68	1068.01
985.97	1067.40
986.27	1070.91
986.56	1072.18
986.85	1076.08
987.14	1077.77
987.43	1078.80
987.72	1076.55
988.01	1074.73
988.31	1078.03
988.60	1077.21
988.89	1075.94
989.18	1076.37
989.47	1073.37
989.76	1068.41
990.05	1068.62
990.34	1069.67
990.63	1068.10
990.92	1071.08
991.21	1074.49
991.51	1074.28
991.80	1074.35
992.09	1076.46
992.38	1075.38
992.67	1074.63
992.96	1075.78
993.25	1076.04
993.54	1074.28
993.83	1073.81
994.12	1071.59
994.41	1071.64
994.70	1072.78
994.99	1073.60
995.28	1076.18
995.57	1078.19
995.86	1076.13
996.15	1074.94
996.44	1074.87
996.73	1072.11
997.02	1070.30
997.31	1070.91
997.59	1069.60
997.88	1070.35
998.17	1071.73
998.46	1072.53
998.75	1074.87
999.04	1074.00
999.33	1073.84
999.62	1075.66
999.91	1078.50
1000.20	1075.50
1000.49	1077.91
1000.77	1074.47
1001.06	1070.80
1001.35	1066.18
1001.64	1069.32
1001.93	1070.49
1002.22	1074.24
1002.51	1076.48
1002.79	1077.96
1003.08	1076.74
1003.37	1077.44
1003.66	1075.92
1003.95	1076.11
1004.23	1075.36
1004.52	1073.93
1004.81	1069.34
1005.10	1070.82
1005.39	1072.67
1005.67	1072.48
1005.96	1074.89
1006.25	1077.54
1006.54	1075.62
1006.83	1076.18
1007.11	1077.51
1007.40	1077.30
1007.69	1075.05
1007.97	1077.86
1008.26	1075.97
1008.55	1076.15
1008.84	1072.50
1009.12	1072.71
1009.41	1070.61
1009.70	1068.31
1009.98	1068.34
1010.27	1070.65
1010.56	1071.01
1010.85	1071.57
1011.13	1075.05
1011.42	1073.44
1011.71	1072.36
1011.99	1073.42
1012.28	1074.80
1012.56	1071.99
1012.85	1074.24
1013.14	1075.69
1013.42	1077.11
1013.71	1077.00
1014.00	1077.58
1014.28	1078.38
1014.57	1081.35
1014.85	1078.33
1015.14	1077.58
1015.43	1079.38
1015.71	1077.07
1016.00	1075.17
1016.28	1077.56
1016.57	1075.94
1016.85	1073.35
1017.14	1073.30
1017.43	1073.65
1017.71	1072.85
1018.00	1075.41
1018.28	1075.45
1018.57	1075.22
1018.85	1069.62
1019.14	1068.01
1019.42	1068.36
1019.71	1071.92
1019.99	1075.69
1020.28	1080.23
1020.56	1081.63
1020.85	1081.07
1021.13	1077.37
1021.42	1076.72
1021.70	1076.53
1021.99	1078.82
1022.27	1077.25
1022.55	1083.90
1022.84	1072.78
>>>>>End Processed Spectral Data<<<<<
