SpectraSuite Data File
++++++++++++++++++++++++++++++++++++
Date: Mon Aug 26 10:22:19 PDT 2019
User: corrico
Dark Spectrum Present: No
Reference Spectrum Present: No
Number of Sampled Component Spectra: 1
Spectrometers: USB2+H06089
Integration Time (usec): 2000 (USB2+H06089)
Spectra Averaged: 20 (USB2+H06089)
Boxcar Smoothing: 2 (USB2+H06089)
Correct for Electrical Dark: No (USB2+H06089)
Strobe/Lamp Enabled: No (USB2+H06089)
Correct for Detector Non-linearity: No (USB2+H06089)
Correct for Stray Light: No (USB2+H06089)
Number of Pixels in Processed Spectrum: 2048
>>>>>Begin Processed Spectral Data<<<<<
339.70	1018.60
340.07	1018.60
340.45	987.12
340.82	967.62
341.19	946.04
341.57	922.22
341.94	910.21
342.31	902.42
342.69	895.98
343.06	893.92
343.43	893.01
343.81	895.44
344.18	900.50
344.55	904.15
344.93	909.93
345.30	917.28
345.67	925.38
346.04	931.65
346.42	941.36
346.79	946.58
347.16	955.41
347.54	962.36
347.91	970.25
348.28	979.51
348.65	991.99
349.03	999.97
349.40	1008.63
349.77	1015.70
350.14	1023.80
350.52	1031.61
350.89	1039.22
351.26	1046.10
351.63	1051.44
352.01	1054.22
352.38	1055.61
352.75	1057.85
353.12	1057.62
353.50	1060.61
353.87	1065.27
354.24	1068.20
354.61	1072.08
354.98	1076.18
355.36	1080.41
355.73	1079.38
356.10	1080.86
356.47	1082.26
356.84	1083.48
357.22	1083.27
357.59	1084.96
357.96	1083.71
358.33	1080.72
358.70	1078.54
359.08	1078.33
359.45	1076.93
359.82	1076.67
360.19	1079.01
360.56	1081.37
360.94	1079.41
361.31	1080.18
361.68	1078.82
362.05	1077.96
362.42	1076.48
362.79	1075.76
363.16	1076.58
363.54	1078.17
363.91	1075.99
364.28	1074.14
364.65	1075.03
365.02	1072.43
365.39	1072.13
365.76	1070.35
366.14	1070.77
366.51	1070.84
366.88	1071.38
367.25	1071.59
367.62	1072.78
367.99	1072.71
368.36	1072.06
368.73	1071.12
369.10	1070.42
369.48	1074.68
369.85	1076.08
370.22	1076.76
370.59	1080.27
370.96	1081.96
371.33	1079.36
371.70	1081.54
372.07	1081.21
372.44	1078.12
372.81	1076.81
373.18	1077.42
373.55	1075.71
373.93	1074.00
374.30	1076.37
374.67	1076.69
375.04	1075.34
375.41	1078.05
375.78	1079.67
376.15	1079.71
376.52	1082.26
376.89	1083.48
377.26	1082.47
377.63	1082.61
378.00	1081.28
378.37	1078.75
378.74	1079.08
379.11	1078.07
379.48	1081.12
379.85	1081.51
380.22	1083.20
380.59	1081.16
380.96	1080.39
381.33	1077.75
381.70	1078.07
382.07	1079.34
382.44	1082.26
382.81	1082.43
383.18	1083.29
383.55	1085.33
383.92	1083.71
384.29	1081.96
384.66	1081.54
385.03	1084.56
385.40	1083.08
385.77	1084.00
386.14	1082.05
386.51	1083.76
386.88	1083.71
387.25	1085.38
387.62	1085.68
387.99	1089.10
388.36	1087.90
388.73	1085.82
389.10	1085.33
389.46	1083.41
389.83	1083.08
390.20	1081.56
390.57	1078.40
390.94	1076.69
391.31	1078.33
391.68	1077.96
392.05	1081.37
392.42	1085.42
392.79	1088.91
393.16	1086.29
393.53	1087.83
393.89	1088.98
394.26	1082.78
394.63	1080.63
395.00	1079.92
395.37	1076.88
395.74	1075.55
396.11	1079.10
396.48	1078.78
396.84	1082.85
397.21	1082.19
397.58	1080.86
397.95	1085.03
398.32	1085.42
398.69	1084.86
399.06	1088.40
399.42	1090.97
399.79	1089.59
400.16	1089.07
400.53	1087.88
400.90	1087.37
401.27	1088.02
401.64	1087.60
402.00	1090.71
402.37	1090.36
402.74	1090.71
403.11	1090.10
403.48	1092.54
403.84	1090.85
404.21	1092.05
404.58	1093.87
404.95	1096.54
405.32	1095.53
405.68	1097.50
406.05	1097.06
406.42	1093.45
406.79	1091.67
407.16	1090.22
407.52	1086.94
407.89	1087.95
408.26	1090.69
408.63	1091.93
408.99	1094.43
409.36	1096.78
409.73	1097.62
410.10	1099.16
410.47	1100.10
410.83	1102.60
411.20	1104.36
411.57	1103.66
411.94	1106.93
412.30	1106.04
412.67	1104.85
413.04	1104.36
413.40	1107.38
413.77	1103.09
414.14	1102.13
414.51	1099.14
414.87	1100.50
415.24	1102.28
415.61	1104.92
415.97	1102.18
416.34	1104.05
416.71	1100.33
417.08	1099.02
417.44	1097.08
417.81	1099.96
418.18	1102.16
418.54	1103.75
418.91	1102.16
419.28	1104.36
419.64	1106.63
420.01	1105.67
420.38	1110.30
420.74	1112.57
421.11	1114.05
421.48	1117.44
421.84	1121.23
422.21	1121.96
422.58	1124.81
422.94	1127.01
423.31	1126.85
423.68	1128.21
424.04	1130.13
424.41	1133.69
424.77	1137.69
425.14	1145.41
425.51	1149.76
425.87	1153.11
426.24	1159.10
426.61	1161.02
426.97	1164.04
427.34	1167.72
427.70	1177.50
428.07	1183.75
428.44	1194.00
428.80	1203.25
429.17	1212.44
429.53	1218.67
429.90	1226.89
430.27	1236.93
430.63	1246.45
431.00	1258.81
431.36	1269.16
431.73	1280.58
432.09	1292.94
432.46	1310.26
432.83	1326.10
433.19	1345.22
433.56	1365.59
433.92	1387.94
434.29	1401.65
434.65	1423.33
435.02	1444.32
435.38	1472.76
435.75	1495.51
436.11	1529.77
436.48	1566.99
436.84	1608.42
437.21	1637.88
437.57	1680.55
437.94	1724.60
438.30	1764.27
438.67	1807.01
439.03	1865.08
439.40	1922.98
439.76	1978.38
440.13	2042.28
440.49	2105.43
440.86	2164.06
441.22	2234.51
441.59	2309.66
441.95	2391.98
442.32	2485.44
442.68	2590.69
443.05	2686.91
443.41	2791.16
443.78	2896.16
444.14	2999.61
444.51	3109.40
444.87	3251.10
445.24	3390.29
445.60	3546.50
445.96	3712.14
446.33	3882.43
446.69	4049.90
447.06	4231.83
447.42	4421.25
447.79	4611.58
448.15	4838.78
448.51	5064.03
448.88	5329.33
449.24	5572.65
449.61	5857.96
449.97	6144.07
450.33	6440.76
450.70	6712.09
451.06	7050.14
451.43	7363.44
451.79	7728.61
452.15	8144.17
452.52	8606.38
452.88	9095.02
453.24	9663.88
453.61	10264.79
453.97	10839.30
454.34	11405.97
454.70	12041.21
455.06	12681.35
455.43	13321.44
455.79	13920.71
456.15	14642.04
456.52	15321.99
456.88	16097.32
457.24	16835.99
457.61	17720.59
457.97	18521.29
458.33	19335.61
458.70	20146.72
459.06	20929.63
459.42	21783.69
459.79	22570.07
460.15	23493.90
460.51	24372.58
460.88	25310.60
461.24	26127.35
461.60	27126.67
461.96	28032.78
462.33	28888.25
462.69	29719.12
463.05	30608.52
463.42	31345.95
463.78	32008.37
464.14	32566.00
464.50	33186.13
464.87	33642.13
465.23	33970.79
465.59	34297.13
465.95	34628.69
466.32	34875.08
466.68	35134.37
467.04	35303.61
467.40	35485.35
467.77	35628.92
468.13	35610.99
468.49	35500.75
468.85	35419.51
469.22	35230.47
469.58	34892.89
469.94	34625.89
470.30	34318.67
470.66	33910.85
471.03	33299.25
471.39	32904.66
471.75	32285.61
472.11	31698.79
472.47	31347.10
472.84	31063.50
473.20	30562.13
473.56	30284.87
473.92	29834.41
474.28	29285.84
474.65	28765.00
475.01	28287.53
475.37	27713.07
475.73	27246.93
476.09	26734.21
476.45	26210.84
476.81	25688.01
477.18	25136.46
477.54	24666.11
477.90	24276.83
478.26	23830.56
478.62	23474.26
478.98	23157.96
479.34	22800.82
479.71	22367.68
480.07	21991.16
480.43	21589.99
480.79	21175.58
481.15	20816.05
481.51	20479.08
481.87	20234.63
482.23	19941.83
482.59	19702.00
482.96	19433.70
483.32	19150.82
483.68	18763.21
484.04	18414.68
484.40	18031.44
484.76	17642.70
485.12	17258.95
485.48	16934.43
485.84	16578.20
486.20	16204.77
486.56	15825.39
486.92	15529.29
487.28	15176.97
487.64	14811.59
488.00	14486.63
488.37	14160.85
488.73	13769.32
489.09	13387.07
489.45	13071.61
489.81	12744.05
490.17	12433.44
490.53	12147.57
490.89	11847.65
491.25	11532.05
491.61	11204.47
491.97	10885.11
492.33	10551.70
492.69	10247.47
493.05	9944.94
493.41	9670.67
493.77	9392.87
494.13	9128.04
494.49	8879.01
494.85	8622.16
495.21	8383.03
495.57	8152.69
495.93	7933.62
496.29	7719.27
496.64	7538.87
497.00	7334.49
497.36	7140.18
497.72	6952.23
498.08	6764.29
498.44	6580.07
498.80	6411.66
499.16	6249.14
499.52	6088.81
499.88	5949.97
500.24	5815.79
500.60	5691.06
500.96	5566.85
501.32	5440.34
501.68	5318.84
502.03	5189.30
502.39	5053.64
502.75	4916.95
503.11	4791.10
503.47	4664.97
503.83	4542.65
504.19	4423.78
504.55	4314.66
504.91	4216.83
505.26	4126.18
505.62	4035.74
505.98	3944.67
506.34	3849.62
506.70	3755.51
507.06	3662.28
507.42	3579.40
507.78	3501.96
508.13	3426.38
508.49	3346.15
508.85	3272.35
509.21	3198.06
509.57	3128.62
509.93	3065.91
510.28	3003.87
510.64	2941.14
511.00	2877.24
511.36	2818.66
511.72	2758.11
512.07	2705.07
512.43	2648.34
512.79	2592.61
513.15	2542.20
513.51	2498.52
513.86	2453.56
514.22	2414.52
514.58	2380.49
514.94	2343.13
515.30	2304.75
515.65	2272.78
516.01	2237.25
516.37	2199.82
516.73	2164.97
517.08	2134.76
517.44	2099.23
517.80	2072.68
518.16	2046.99
518.51	2017.75
518.87	1989.48
519.23	1966.85
519.59	1941.29
519.94	1914.37
520.30	1892.93
520.66	1864.85
521.01	1839.64
521.37	1814.38
521.73	1794.30
522.09	1772.44
522.44	1756.48
522.80	1733.00
523.16	1713.16
523.51	1687.81
523.87	1668.33
524.23	1645.12
524.58	1630.28
524.94	1610.27
525.30	1592.52
525.65	1575.30
526.01	1562.78
526.37	1544.31
526.72	1533.96
527.08	1524.27
527.44	1514.54
527.79	1499.39
528.15	1484.74
528.51	1471.03
528.86	1460.78
529.22	1443.76
529.58	1429.29
529.93	1419.35
530.29	1408.02
530.65	1394.37
531.00	1387.35
531.36	1378.72
531.71	1370.85
532.07	1359.69
532.43	1350.84
532.78	1340.85
533.14	1335.95
533.49	1329.47
533.85	1325.16
534.21	1320.93
534.56	1316.25
534.92	1312.36
535.27	1306.04
535.63	1296.56
535.98	1289.96
536.34	1281.54
536.69	1272.83
537.05	1264.26
537.41	1265.55
537.76	1258.69
538.12	1254.01
538.47	1250.03
538.83	1248.51
539.18	1239.22
539.54	1233.16
539.89	1231.38
540.25	1230.00
540.60	1221.90
540.96	1217.17
541.31	1218.51
541.67	1215.28
542.02	1207.72
542.38	1205.75
542.73	1200.93
543.09	1194.89
543.44	1192.11
543.80	1190.84
544.15	1188.66
544.51	1189.32
544.86	1187.38
545.22	1184.92
545.57	1183.61
545.93	1182.63
546.28	1181.27
546.64	1179.14
546.99	1175.09
547.35	1170.01
547.70	1166.59
548.05	1163.22
548.41	1162.82
548.76	1162.36
549.12	1160.55
549.47	1164.65
549.83	1160.67
550.18	1159.43
550.53	1154.84
550.89	1154.47
551.24	1144.69
551.60	1145.25
551.95	1140.80
552.30	1136.75
552.66	1133.73
553.01	1133.97
553.37	1135.89
553.72	1134.88
554.07	1138.46
554.43	1136.35
554.78	1135.35
555.13	1129.33
555.49	1129.75
555.84	1129.19
556.19	1126.43
556.55	1124.51
556.90	1123.34
557.26	1122.66
557.61	1120.11
557.96	1121.14
558.32	1122.08
558.67	1124.11
559.02	1122.50
559.37	1121.00
559.73	1121.26
560.08	1119.50
560.43	1117.11
560.79	1112.81
561.14	1109.72
561.49	1108.43
561.85	1108.92
562.20	1108.31
562.55	1110.05
562.90	1110.56
563.26	1113.42
563.61	1109.74
563.96	1108.57
564.32	1107.64
564.67	1109.91
565.02	1107.49
565.37	1109.11
565.73	1107.28
566.08	1104.94
566.43	1100.38
566.78	1098.62
567.14	1099.98
567.49	1099.68
567.84	1102.60
568.19	1105.01
568.54	1106.32
568.90	1103.05
569.25	1103.94
569.60	1103.07
569.95	1102.46
570.31	1101.78
570.66	1100.64
571.01	1098.16
571.36	1096.85
571.71	1097.88
572.06	1098.23
572.42	1097.20
572.77	1102.09
573.12	1101.18
573.47	1102.74
573.82	1099.65
574.18	1102.49
574.53	1101.29
574.88	1103.00
575.23	1099.58
575.58	1100.03
575.93	1099.61
576.28	1094.01
576.64	1093.90
576.99	1093.52
577.34	1092.68
577.69	1092.54
578.04	1095.23
578.39	1093.90
578.74	1091.98
579.09	1092.89
579.44	1090.29
579.80	1089.26
580.15	1088.89
580.50	1092.84
580.85	1091.30
581.20	1093.03
581.55	1097.38
581.90	1098.95
582.25	1093.87
582.60	1095.23
582.95	1092.37
583.30	1089.85
583.65	1089.14
584.00	1088.51
584.35	1088.47
584.71	1091.42
585.06	1092.02
585.41	1091.11
585.76	1094.22
586.11	1093.36
586.46	1092.73
586.81	1090.10
587.16	1090.34
587.51	1088.58
587.86	1089.14
588.21	1088.28
588.56	1089.36
588.91	1087.86
589.26	1086.62
589.61	1088.82
589.96	1089.47
590.31	1090.32
590.66	1089.71
591.01	1092.21
591.36	1089.26
591.71	1089.33
592.06	1089.14
592.41	1088.26
592.76	1087.18
593.10	1087.37
593.45	1085.54
593.80	1085.00
594.15	1086.20
594.50	1087.55
594.85	1090.01
595.20	1088.23
595.55	1085.21
595.90	1086.31
596.25	1084.02
596.60	1079.99
596.95	1082.22
597.30	1084.49
597.64	1095.09
597.99	1096.14
598.34	1095.16
598.69	1098.09
599.04	1096.68
599.39	1087.62
599.74	1089.38
600.09	1089.17
600.44	1084.53
600.78	1087.41
601.13	1085.73
601.48	1083.41
601.83	1085.10
602.18	1089.64
602.53	1088.93
602.88	1087.62
603.22	1091.18
603.57	1090.17
603.92	1088.33
604.27	1087.74
604.62	1088.79
604.97	1084.23
605.31	1087.51
605.66	1085.47
606.01	1083.32
606.36	1081.94
606.71	1083.83
607.05	1085.12
607.40	1085.73
607.75	1090.36
608.10	1092.52
608.44	1090.53
608.79	1089.05
609.14	1088.56
609.49	1085.10
609.84	1085.82
610.18	1087.11
610.53	1088.21
610.88	1090.97
611.23	1092.84
611.57	1091.37
611.92	1093.03
612.27	1090.99
612.62	1091.32
612.96	1089.45
613.31	1088.91
613.66	1085.35
614.00	1083.01
614.35	1081.70
614.70	1082.05
615.05	1082.94
615.39	1085.03
615.74	1085.00
616.09	1083.81
616.43	1083.62
616.78	1081.84
617.13	1083.88
617.47	1086.64
617.82	1086.20
618.17	1085.99
618.51	1085.59
618.86	1083.71
619.21	1080.95
619.55	1080.95
619.90	1080.23
620.25	1077.96
620.59	1076.01
620.94	1074.24
621.29	1073.79
621.63	1076.06
621.98	1078.14
622.32	1082.08
622.67	1086.66
623.02	1087.34
623.36	1086.57
623.71	1087.53
624.05	1083.01
624.40	1082.78
624.75	1082.71
625.09	1083.46
625.44	1086.52
625.78	1085.52
626.13	1083.55
626.48	1084.89
626.82	1080.74
627.17	1078.61
627.51	1083.55
627.86	1081.54
628.20	1081.44
628.55	1081.54
628.89	1080.91
629.24	1078.21
629.58	1081.89
629.93	1081.75
630.28	1084.49
630.62	1085.56
630.97	1083.41
631.31	1081.73
631.66	1079.57
632.00	1077.09
632.35	1078.40
632.69	1082.69
633.04	1082.94
633.38	1085.45
633.73	1088.54
634.07	1087.30
634.42	1086.03
634.76	1088.70
635.11	1088.23
635.45	1088.86
635.79	1088.89
636.14	1091.27
636.48	1089.40
636.83	1085.35
637.17	1083.81
637.52	1084.28
637.86	1082.26
638.21	1082.17
638.55	1086.45
638.89	1083.81
639.24	1081.09
639.58	1077.86
639.93	1080.27
640.27	1081.56
640.61	1086.78
640.96	1087.11
641.30	1089.12
641.65	1084.86
641.99	1082.10
642.33	1081.61
642.68	1083.90
643.02	1084.42
643.37	1086.06
643.71	1084.37
644.05	1079.71
644.40	1079.10
644.74	1081.73
645.08	1079.78
645.43	1079.92
645.77	1082.97
646.11	1080.48
646.46	1078.96
646.80	1081.07
647.14	1083.15
647.49	1081.51
647.83	1083.20
648.17	1080.39
648.52	1081.05
648.86	1080.13
649.20	1080.77
649.55	1081.09
649.89	1083.15
650.23	1082.10
650.57	1083.90
650.92	1085.33
651.26	1084.91
651.60	1083.62
651.95	1080.32
652.29	1079.85
652.63	1078.10
652.97	1076.53
653.32	1077.58
653.66	1079.83
654.00	1081.56
654.34	1082.36
654.69	1084.28
655.03	1083.50
655.37	1082.52
655.71	1080.58
656.05	1084.37
656.40	1081.19
656.74	1082.38
657.08	1084.56
657.42	1082.29
657.76	1078.10
658.11	1081.58
658.45	1082.12
658.79	1082.26
659.13	1083.79
659.47	1083.25
659.82	1082.66
660.16	1083.60
660.50	1084.84
660.84	1084.77
661.18	1087.09
661.52	1086.90
661.87	1084.96
662.21	1084.60
662.55	1085.14
662.89	1082.85
663.23	1081.44
663.57	1080.72
663.91	1079.22
664.25	1077.02
664.60	1078.66
664.94	1080.98
665.28	1079.60
665.62	1080.74
665.96	1083.90
666.30	1079.88
666.64	1077.44
666.98	1077.61
667.32	1073.93
667.66	1072.64
668.01	1071.99
668.35	1075.36
668.69	1078.07
669.03	1080.41
669.37	1081.63
669.71	1085.61
670.05	1084.56
670.39	1083.11
670.73	1080.74
671.07	1079.55
671.41	1080.20
671.75	1078.82
672.09	1079.13
672.43	1083.29
672.77	1081.87
673.11	1081.80
673.45	1083.60
673.79	1084.00
674.13	1083.86
674.47	1084.84
674.81	1084.02
675.15	1084.70
675.49	1083.86
675.83	1083.69
676.17	1086.15
676.51	1084.96
676.85	1080.72
677.19	1080.81
677.53	1079.92
677.87	1075.64
678.21	1076.86
678.55	1077.63
678.89	1080.41
679.23	1078.33
679.57	1078.66
679.90	1078.57
680.24	1080.18
680.58	1078.94
680.92	1082.10
681.26	1084.96
681.60	1082.87
681.94	1081.51
682.28	1080.98
682.62	1078.45
682.96	1074.52
683.29	1075.90
683.63	1076.83
683.97	1075.66
684.31	1078.40
684.65	1080.51
684.99	1081.47
685.33	1079.71
685.67	1080.16
686.00	1075.17
686.34	1077.96
686.68	1074.87
687.02	1078.07
687.36	1078.78
687.70	1079.17
688.03	1078.40
688.37	1080.67
688.71	1078.96
689.05	1077.84
689.39	1081.00
689.72	1080.74
690.06	1081.42
690.40	1080.72
690.74	1078.43
691.08	1080.60
691.41	1080.37
691.75	1078.05
692.09	1078.14
692.43	1082.24
692.76	1080.06
693.10	1081.07
693.44	1078.89
693.78	1079.95
694.11	1076.90
694.45	1077.37
694.79	1077.04
695.13	1080.74
695.46	1080.95
695.80	1085.49
696.14	1085.03
696.48	1081.70
696.81	1082.10
697.15	1081.49
697.49	1077.98
697.82	1076.55
698.16	1077.61
698.50	1077.84
698.83	1075.80
699.17	1077.11
699.51	1080.63
699.84	1082.08
700.18	1082.97
700.52	1084.60
700.85	1083.22
701.19	1081.66
701.53	1080.16
701.86	1079.67
702.20	1079.55
702.54	1078.75
702.87	1079.78
703.21	1079.83
703.55	1078.92
703.88	1078.80
704.22	1079.90
704.55	1076.58
704.89	1078.38
705.23	1078.47
705.56	1079.13
705.90	1078.00
706.23	1080.86
706.57	1078.85
706.91	1080.04
707.24	1081.44
707.58	1083.20
707.91	1081.23
708.25	1082.47
708.58	1081.21
708.92	1080.41
709.26	1079.01
709.59	1077.89
709.93	1077.18
710.26	1078.19
710.60	1075.87
710.93	1075.43
711.27	1077.56
711.60	1074.40
711.94	1072.41
712.27	1073.77
712.61	1077.07
712.94	1075.48
713.28	1076.97
713.61	1077.82
713.95	1073.60
714.28	1070.23
714.62	1072.32
714.95	1073.84
715.29	1073.86
715.62	1077.93
715.96	1079.34
716.29	1077.58
716.63	1079.95
716.96	1080.63
717.29	1083.22
717.63	1084.09
717.96	1084.16
718.30	1082.24
718.63	1081.77
718.97	1079.17
719.30	1080.74
719.63	1080.18
719.97	1080.86
720.30	1082.10
720.64	1080.63
720.97	1078.03
721.30	1079.85
721.64	1081.63
721.97	1080.95
722.31	1084.67
722.64	1084.81
722.97	1085.47
723.31	1084.81
723.64	1086.57
723.97	1087.67
724.31	1088.79
724.64	1086.66
724.98	1084.44
725.31	1084.91
725.64	1083.39
725.98	1083.46
726.31	1084.44
726.64	1084.70
726.97	1082.50
727.31	1079.48
727.64	1079.41
727.97	1078.61
728.31	1081.07
728.64	1079.78
728.97	1079.29
729.31	1075.59
729.64	1078.07
729.97	1076.44
730.30	1077.68
730.64	1081.26
730.97	1084.89
731.30	1085.19
731.63	1087.62
731.97	1085.82
732.30	1085.49
732.63	1086.69
732.96	1087.02
733.30	1084.28
733.63	1083.29
733.96	1079.55
734.29	1081.30
734.63	1080.44
734.96	1079.06
735.29	1082.90
735.62	1082.92
735.95	1080.77
736.29	1081.98
736.62	1083.62
736.95	1079.53
737.28	1079.64
737.61	1076.55
737.94	1075.10
738.28	1074.26
738.61	1076.41
738.94	1078.89
739.27	1081.96
739.60	1081.47
739.93	1081.42
740.27	1082.22
740.60	1080.63
740.93	1079.10
741.26	1079.36
741.59	1082.31
741.92	1078.17
742.25	1077.77
742.58	1075.94
742.91	1074.68
743.25	1071.82
743.58	1073.42
743.91	1074.52
744.24	1078.47
744.57	1079.34
744.90	1079.74
745.23	1083.60
745.56	1083.76
745.89	1081.96
746.22	1082.05
746.55	1082.99
746.88	1079.50
747.21	1081.19
747.54	1081.47
747.87	1081.07
748.20	1079.85
748.53	1082.52
748.87	1080.41
749.20	1081.19
749.53	1081.49
749.86	1083.32
750.19	1080.93
750.52	1082.57
750.85	1080.13
751.18	1078.40
751.51	1075.38
751.84	1075.99
752.16	1077.65
752.49	1079.92
752.82	1080.13
753.15	1082.15
753.48	1082.71
753.81	1079.92
754.14	1080.18
754.47	1081.16
754.80	1078.33
755.13	1079.36
755.46	1080.63
755.79	1079.57
756.12	1077.14
756.45	1077.09
756.78	1075.64
757.11	1074.21
757.43	1073.35
757.76	1076.27
758.09	1077.61
758.42	1076.58
758.75	1078.68
759.08	1079.01
759.41	1074.31
759.74	1074.96
760.07	1077.18
760.39	1074.91
760.72	1075.99
761.05	1079.74
761.38	1081.00
761.71	1081.16
762.04	1083.34
762.36	1079.55
762.69	1080.81
763.02	1081.19
763.35	1079.06
763.68	1077.33
764.01	1080.74
764.33	1081.07
764.66	1079.48
764.99	1078.75
765.32	1079.38
765.65	1077.61
765.97	1075.64
766.30	1078.73
766.63	1082.01
766.96	1077.86
767.28	1078.57
767.61	1078.68
767.94	1077.56
768.27	1072.78
768.59	1075.22
768.92	1077.42
769.25	1076.15
769.58	1075.64
769.90	1076.83
770.23	1076.65
770.56	1072.48
770.89	1072.57
771.21	1069.55
771.54	1072.85
771.87	1074.33
772.19	1075.76
772.52	1079.24
772.85	1082.31
773.17	1081.21
773.50	1081.40
773.83	1080.32
774.15	1078.50
774.48	1078.14
774.81	1079.99
775.13	1081.23
775.46	1083.39
775.79	1085.94
776.11	1084.23
776.44	1082.22
776.77	1079.95
777.09	1077.84
777.42	1075.27
777.74	1074.70
778.07	1077.35
778.40	1079.36
778.72	1080.63
779.05	1078.94
779.37	1082.05
779.70	1078.64
780.03	1079.13
780.35	1079.24
780.68	1081.91
781.00	1078.59
781.33	1078.07
781.65	1075.71
781.98	1076.01
782.31	1074.38
782.63	1075.99
782.96	1077.18
783.28	1076.93
783.61	1075.99
783.93	1074.94
784.26	1073.67
784.58	1072.25
784.91	1071.68
785.23	1071.05
785.56	1073.32
785.88	1070.72
786.21	1071.73
786.53	1072.18
786.86	1073.16
787.18	1070.75
787.51	1074.24
787.83	1071.50
788.16	1071.97
788.48	1074.89
788.81	1077.56
789.13	1078.07
789.46	1079.60
789.78	1082.05
790.10	1080.79
790.43	1080.06
790.75	1081.47
791.08	1082.80
791.40	1080.32
791.73	1080.06
792.05	1081.87
792.37	1083.04
792.70	1085.59
793.02	1085.47
793.35	1084.32
793.67	1082.38
793.99	1078.40
794.32	1078.45
794.64	1078.19
794.96	1079.81
795.29	1082.08
795.61	1083.71
795.93	1082.52
796.26	1083.06
796.58	1081.73
796.91	1077.49
797.23	1074.82
797.55	1071.31
797.87	1069.79
798.20	1068.10
798.52	1069.39
798.84	1071.82
799.17	1073.91
799.49	1075.41
799.81	1076.25
800.14	1076.08
800.46	1074.61
800.78	1072.88
801.10	1075.08
801.43	1074.75
801.75	1075.38
802.07	1076.30
802.40	1078.87
802.72	1074.75
803.04	1075.66
803.36	1075.94
803.69	1073.39
804.01	1071.33
804.33	1075.50
804.65	1077.40
804.97	1075.80
805.30	1080.48
805.62	1083.48
805.94	1080.98
806.26	1082.57
806.58	1086.38
806.91	1084.86
807.23	1086.06
807.55	1082.71
807.87	1078.94
808.19	1075.13
808.52	1073.02
808.84	1071.82
809.16	1078.21
809.48	1079.67
809.80	1081.33
810.12	1081.21
810.44	1078.59
810.77	1074.94
811.09	1074.54
811.41	1075.20
811.73	1074.75
812.05	1072.76
812.37	1074.05
812.69	1073.93
813.01	1075.43
813.33	1077.47
813.66	1081.33
813.98	1080.72
814.30	1078.40
814.62	1076.25
814.94	1079.92
815.26	1078.24
815.58	1079.83
815.90	1081.21
816.22	1080.02
816.54	1077.84
816.86	1077.86
817.18	1076.18
817.50	1076.97
817.82	1076.76
818.14	1076.74
818.46	1078.21
818.78	1077.75
819.10	1079.27
819.42	1081.02
819.74	1080.32
820.06	1081.91
820.38	1083.20
820.70	1080.27
821.02	1079.74
821.34	1078.52
821.66	1074.45
821.98	1074.73
822.30	1076.81
822.62	1077.93
822.94	1078.28
823.26	1081.61
823.58	1079.55
823.90	1078.89
824.22	1081.02
824.54	1081.49
824.86	1081.87
825.18	1082.54
825.50	1081.35
825.81	1078.47
826.13	1079.36
826.45	1077.44
826.77	1081.19
827.09	1082.94
827.41	1079.92
827.73	1077.18
828.05	1078.66
828.36	1075.27
828.68	1074.00
829.00	1076.27
829.32	1079.06
829.64	1081.12
829.96	1081.96
830.28	1083.36
830.59	1085.33
830.91	1083.13
831.23	1079.95
831.55	1078.80
831.87	1078.47
832.19	1077.35
832.50	1077.72
832.82	1076.46
833.14	1075.80
833.46	1074.80
833.78	1076.37
834.09	1075.34
834.41	1076.55
834.73	1075.76
835.05	1074.54
835.36	1074.00
835.68	1076.15
836.00	1077.33
836.32	1076.95
836.63	1077.18
836.95	1073.44
837.27	1073.81
837.59	1074.12
837.90	1076.08
838.22	1079.74
838.54	1083.01
838.85	1081.96
839.17	1079.71
839.49	1081.40
839.80	1079.29
840.12	1079.50
840.44	1081.14
840.76	1081.89
841.07	1081.54
841.39	1086.99
841.71	1084.89
842.02	1081.44
842.34	1080.81
842.65	1082.12
842.97	1078.14
843.29	1080.32
843.60	1081.28
843.92	1080.09
844.24	1078.87
844.55	1078.00
844.87	1076.01
845.18	1077.51
845.50	1078.26
845.82	1076.39
846.13	1072.15
846.45	1073.56
846.76	1074.77
847.08	1075.45
847.40	1075.94
847.71	1076.55
848.03	1073.95
848.34	1071.75
848.66	1073.77
848.97	1074.59
849.29	1080.34
849.60	1081.35
849.92	1080.39
850.24	1079.83
850.55	1079.08
850.87	1075.78
851.18	1078.57
851.50	1082.52
851.81	1080.60
852.13	1081.47
852.44	1081.54
852.76	1079.88
853.07	1075.99
853.39	1078.80
853.70	1080.34
854.01	1082.76
854.33	1084.74
854.64	1088.47
854.96	1088.12
855.27	1082.40
855.59	1081.23
855.90	1079.17
856.22	1076.39
856.53	1073.00
856.84	1075.99
857.16	1073.84
857.47	1070.61
857.79	1070.37
858.10	1072.90
858.41	1073.60
858.73	1072.81
859.04	1074.54
859.36	1075.62
859.67	1074.28
859.98	1073.56
860.30	1078.50
860.61	1081.26
860.92	1078.36
861.24	1077.40
861.55	1078.43
861.87	1078.05
862.18	1075.08
862.49	1076.97
862.81	1076.11
863.12	1076.15
863.43	1073.53
863.74	1072.76
864.06	1073.53
864.37	1076.76
864.68	1078.45
865.00	1081.16
865.31	1082.12
865.62	1083.95
865.94	1082.31
866.25	1080.95
866.56	1081.28
866.87	1083.60
867.19	1082.50
867.50	1084.00
867.81	1079.76
868.12	1075.83
868.44	1074.21
868.75	1072.36
869.06	1070.28
869.37	1074.59
869.68	1074.42
870.00	1075.15
870.31	1076.65
870.62	1077.54
870.93	1074.45
871.24	1075.27
871.56	1074.52
871.87	1075.03
872.18	1074.68
872.49	1078.36
872.80	1077.54
873.12	1075.43
873.43	1072.20
873.74	1072.11
874.05	1068.71
874.36	1067.26
874.67	1069.98
874.98	1070.37
875.29	1071.66
875.61	1075.71
875.92	1079.60
876.23	1083.74
876.54	1085.82
876.85	1084.91
877.16	1083.81
877.47	1079.95
877.78	1076.79
878.09	1077.33
878.40	1078.24
878.72	1077.04
879.03	1078.94
879.34	1074.77
879.65	1075.59
879.96	1076.67
880.27	1077.54
880.58	1075.92
880.89	1078.52
881.20	1076.23
881.51	1074.17
881.82	1077.14
882.13	1080.58
882.44	1078.92
882.75	1080.48
883.06	1079.55
883.37	1076.55
883.68	1074.17
883.99	1079.29
884.30	1076.83
884.61	1079.83
884.92	1079.34
885.23	1080.81
885.54	1077.16
885.85	1078.52
886.16	1074.94
886.47	1074.14
886.78	1070.42
887.08	1072.69
887.39	1069.84
887.70	1071.31
888.01	1071.54
888.32	1073.21
888.63	1071.78
888.94	1074.05
889.25	1076.72
889.56	1075.73
889.87	1077.42
890.17	1079.81
890.48	1078.75
890.79	1076.72
891.10	1078.00
891.41	1075.64
891.72	1072.64
892.03	1073.63
892.34	1073.02
892.64	1071.05
892.95	1076.76
893.26	1075.92
893.57	1077.21
893.88	1076.34
894.18	1079.29
894.49	1078.10
894.80	1078.47
895.11	1077.49
895.42	1079.85
895.72	1076.69
896.03	1075.45
896.34	1072.01
896.65	1074.40
896.96	1072.97
897.26	1076.15
897.57	1071.80
897.88	1078.99
898.19	1077.79
898.49	1078.68
898.80	1078.38
899.11	1081.66
899.41	1080.41
899.72	1079.03
900.03	1079.13
900.34	1077.14
900.64	1075.87
900.95	1073.58
901.26	1072.69
901.56	1076.86
901.87	1078.19
902.18	1078.26
902.48	1080.98
902.79	1083.50
903.10	1078.47
903.40	1080.44
903.71	1084.02
904.02	1082.87
904.32	1081.56
904.63	1081.77
904.94	1080.93
905.24	1079.36
905.55	1077.86
905.85	1077.25
906.16	1076.93
906.47	1077.75
906.77	1078.14
907.08	1078.14
907.38	1079.22
907.69	1083.76
908.00	1083.43
908.30	1080.98
908.61	1079.43
908.91	1079.20
909.22	1076.62
909.52	1073.35
909.83	1074.66
910.14	1077.28
910.44	1072.25
910.75	1069.81
911.05	1073.32
911.36	1071.87
911.66	1073.02
911.97	1076.65
912.27	1077.58
912.58	1077.02
912.88	1078.89
913.19	1077.07
913.49	1076.69
913.80	1074.63
914.10	1075.45
914.41	1074.31
914.71	1075.59
915.01	1076.93
915.32	1078.61
915.62	1077.02
915.93	1079.01
916.23	1078.00
916.54	1078.94
916.84	1080.06
917.15	1078.85
917.45	1076.34
917.75	1076.23
918.06	1076.11
918.36	1073.74
918.67	1074.89
918.97	1075.94
919.27	1077.86
919.58	1078.47
919.88	1078.26
920.18	1077.58
920.49	1077.16
920.79	1074.07
921.10	1072.60
921.40	1074.98
921.70	1075.76
922.01	1075.31
922.31	1075.24
922.61	1074.12
922.92	1073.60
923.22	1072.83
923.52	1072.08
923.82	1073.49
924.13	1075.36
924.43	1075.73
924.73	1075.97
925.04	1078.10
925.34	1073.67
925.64	1071.45
925.94	1070.54
926.25	1070.00
926.55	1073.49
926.85	1078.94
927.15	1080.02
927.46	1078.19
927.76	1079.99
928.06	1078.14
928.36	1074.68
928.67	1075.87
928.97	1080.63
929.27	1082.64
929.57	1080.84
929.87	1083.39
930.18	1083.74
930.48	1080.48
930.78	1077.35
931.08	1077.98
931.38	1076.93
931.69	1077.70
931.99	1075.69
932.29	1075.05
932.59	1071.66
932.89	1073.67
933.19	1070.94
933.49	1074.75
933.80	1076.25
934.10	1077.51
934.40	1076.34
934.70	1075.99
935.00	1077.47
935.30	1078.31
935.60	1078.82
935.90	1080.18
936.20	1081.44
936.50	1077.23
936.81	1073.95
937.11	1073.95
937.41	1071.50
937.71	1073.30
938.01	1076.83
938.31	1078.96
938.61	1078.45
938.91	1079.85
939.21	1077.56
939.51	1075.71
939.81	1075.78
940.11	1077.09
940.41	1077.98
940.71	1076.32
941.01	1076.76
941.31	1075.52
941.61	1079.29
941.91	1077.96
942.21	1079.78
942.51	1079.13
942.81	1077.98
943.11	1073.07
943.41	1074.84
943.71	1073.39
944.01	1072.18
944.31	1072.71
944.61	1073.07
944.90	1071.22
945.20	1071.52
945.50	1072.39
945.80	1077.33
946.10	1079.46
946.40	1078.80
946.70	1081.12
947.00	1080.81
947.30	1075.41
947.60	1073.44
947.89	1074.21
948.19	1073.56
948.49	1076.48
948.79	1075.78
949.09	1074.07
949.39	1074.61
949.69	1075.01
949.98	1072.62
950.28	1073.56
950.58	1074.73
950.88	1074.94
951.18	1074.33
951.48	1075.52
951.77	1075.34
952.07	1076.04
952.37	1074.07
952.67	1075.99
952.97	1075.15
953.26	1074.68
953.56	1073.42
953.86	1073.42
954.16	1076.15
954.45	1074.21
954.75	1075.50
955.05	1076.15
955.35	1076.55
955.64	1074.47
955.94	1077.28
956.24	1077.14
956.54	1077.54
956.83	1078.54
957.13	1077.02
957.43	1077.33
957.72	1079.88
958.02	1079.13
958.32	1078.85
958.61	1079.90
958.91	1076.41
959.21	1076.76
959.50	1075.71
959.80	1074.35
960.10	1074.47
960.39	1078.28
960.69	1074.84
960.99	1075.38
961.28	1072.71
961.58	1071.90
961.87	1070.47
962.17	1068.69
962.47	1069.95
962.76	1071.15
963.06	1071.03
963.36	1070.44
963.65	1071.75
963.95	1070.61
964.24	1073.56
964.54	1074.70
964.83	1077.35
965.13	1079.92
965.42	1082.38
965.72	1083.01
966.02	1081.73
966.31	1078.05
966.61	1076.81
966.90	1075.76
967.20	1074.45
967.49	1073.58
967.79	1072.92
968.08	1075.17
968.38	1075.66
968.67	1073.77
968.97	1072.06
969.26	1074.75
969.56	1075.62
969.85	1076.06
970.15	1078.85
970.44	1083.18
970.74	1082.31
971.03	1080.11
971.32	1078.96
971.62	1080.11
971.91	1078.31
972.21	1078.19
972.50	1081.30
972.80	1083.71
973.09	1084.89
973.38	1084.25
973.68	1085.17
973.97	1081.73
974.27	1079.36
974.56	1076.53
974.85	1075.87
975.15	1076.34
975.44	1076.51
975.73	1079.17
976.03	1081.87
976.32	1081.63
976.61	1082.52
976.91	1082.17
977.20	1076.65
977.49	1072.57
977.79	1074.19
978.08	1073.14
978.37	1074.77
978.67	1080.88
978.96	1082.87
979.25	1081.30
979.55	1078.66
979.84	1075.45
980.13	1073.49
980.42	1073.51
980.72	1077.33
981.01	1081.23
981.30	1084.96
981.59	1083.25
981.89	1080.98
982.18	1075.36
982.47	1074.87
982.76	1073.86
983.06	1077.37
983.35	1076.51
983.64	1079.62
983.93	1076.11
984.22	1077.75
984.52	1076.95
984.81	1078.68
985.10	1079.17
985.39	1080.53
985.68	1077.89
985.97	1076.41
986.27	1075.85
986.56	1075.34
986.85	1076.90
987.14	1076.88
987.43	1077.75
987.72	1079.34
988.01	1080.65
988.31	1079.01
988.60	1078.80
988.89	1074.91
989.18	1075.97
989.47	1073.63
989.76	1075.85
990.05	1074.54
990.34	1078.64
990.63	1077.75
990.92	1081.26
991.21	1078.52
991.51	1080.27
991.80	1076.15
992.09	1074.47
992.38	1071.87
992.67	1071.87
992.96	1074.77
993.25	1078.47
993.54	1079.62
993.83	1079.31
994.12	1080.13
994.41	1074.96
994.70	1074.63
994.99	1077.09
995.28	1076.86
995.57	1078.50
995.86	1080.56
996.15	1079.03
996.44	1074.68
996.73	1074.49
997.02	1076.20
997.31	1076.15
997.59	1077.65
997.88	1081.89
998.17	1082.19
998.46	1080.02
998.75	1080.98
999.04	1082.83
999.33	1082.50
999.62	1082.33
999.91	1081.37
1000.20	1079.48
1000.49	1077.70
1000.77	1076.72
1001.06	1076.51
1001.35	1078.24
1001.64	1081.89
1001.93	1080.41
1002.22	1078.33
1002.51	1080.60
1002.79	1077.51
1003.08	1072.01
1003.37	1072.57
1003.66	1076.46
1003.95	1075.43
1004.23	1076.11
1004.52	1078.89
1004.81	1078.14
1005.10	1072.97
1005.39	1071.43
1005.67	1069.74
1005.96	1069.88
1006.25	1072.29
1006.54	1075.17
1006.83	1075.48
1007.11	1076.37
1007.40	1075.66
1007.69	1074.38
1007.97	1070.70
1008.26	1074.56
1008.55	1077.89
1008.84	1079.62
1009.12	1081.35
1009.41	1083.32
1009.70	1078.17
1009.98	1078.28
1010.27	1077.21
1010.56	1076.48
1010.85	1077.65
1011.13	1080.98
1011.42	1081.05
1011.71	1079.76
1011.99	1079.36
1012.28	1079.41
1012.56	1078.00
1012.85	1078.45
1013.14	1077.75
1013.42	1079.38
1013.71	1079.57
1014.00	1078.99
1014.28	1075.80
1014.57	1079.90
1014.85	1075.92
1015.14	1075.20
1015.43	1074.33
1015.71	1077.89
1016.00	1074.70
1016.28	1073.63
1016.57	1074.96
1016.85	1077.98
1017.14	1076.08
1017.43	1075.17
1017.71	1078.47
1018.00	1078.64
1018.28	1076.30
1018.57	1076.62
1018.85	1077.98
1019.14	1076.93
1019.42	1074.33
1019.71	1075.01
1019.99	1074.59
1020.28	1076.27
1020.56	1076.74
1020.85	1078.61
1021.13	1079.81
1021.42	1078.99
1021.70	1078.54
1021.99	1079.20
1022.27	1079.99
1022.55	1080.16
1022.84	1080.39
>>>>>End Processed Spectral Data<<<<<
