SpectraSuite Data File
++++++++++++++++++++++++++++++++++++
Date: Mon Aug 26 10:21:56 PDT 2019
User: corrico
Dark Spectrum Present: No
Reference Spectrum Present: No
Number of Sampled Component Spectra: 1
Spectrometers: USB2+H06089
Integration Time (usec): 2000 (USB2+H06089)
Spectra Averaged: 20 (USB2+H06089)
Boxcar Smoothing: 2 (USB2+H06089)
Correct for Electrical Dark: No (USB2+H06089)
Strobe/Lamp Enabled: No (USB2+H06089)
Correct for Detector Non-linearity: No (USB2+H06089)
Correct for Stray Light: No (USB2+H06089)
Number of Pixels in Processed Spectrum: 2048
>>>>>Begin Processed Spectral Data<<<<<
339.70	1036.51
340.07	1036.51
340.45	997.30
340.82	973.99
341.19	947.78
341.57	920.32
341.94	910.35
342.31	901.69
342.69	895.89
343.06	892.10
343.43	892.77
343.81	896.96
344.18	899.40
344.55	905.62
344.93	914.24
345.30	919.71
345.67	926.45
346.04	933.34
346.42	941.69
346.79	947.38
347.16	954.42
347.54	957.16
347.91	964.30
348.28	971.30
348.65	982.53
349.03	992.90
349.40	1004.32
349.77	1013.80
350.14	1019.33
350.52	1022.63
350.89	1029.27
351.26	1037.00
351.63	1041.75
352.01	1050.27
352.38	1057.57
352.75	1063.31
353.12	1064.41
353.50	1066.82
353.87	1069.32
354.24	1072.11
354.61	1070.16
354.98	1071.75
355.36	1074.00
355.73	1074.45
356.10	1074.19
356.47	1077.16
356.84	1080.86
357.22	1082.87
357.59	1082.90
357.96	1080.11
358.33	1078.59
358.70	1077.96
359.08	1074.84
359.45	1073.23
359.82	1073.65
360.19	1073.65
360.56	1071.15
360.94	1072.13
361.31	1071.10
361.68	1072.36
362.05	1071.54
362.42	1073.07
362.79	1072.08
363.16	1072.39
363.54	1071.45
363.91	1072.41
364.28	1070.94
364.65	1070.23
365.02	1068.13
365.39	1066.63
365.76	1064.64
366.14	1065.95
366.51	1066.09
366.88	1065.86
367.25	1063.98
367.62	1061.92
367.99	1059.26
368.36	1058.20
368.73	1061.43
369.10	1065.29
369.48	1066.82
369.85	1067.19
370.22	1066.37
370.59	1065.13
370.96	1066.23
371.33	1068.85
371.70	1067.80
372.07	1071.08
372.44	1069.13
372.81	1068.43
373.18	1064.55
373.55	1064.19
373.93	1061.34
374.30	1063.47
374.67	1064.29
375.04	1065.20
375.41	1066.28
375.78	1068.81
376.15	1068.85
376.52	1068.74
376.89	1070.49
377.26	1074.33
377.63	1071.80
378.00	1070.35
378.37	1067.28
378.74	1066.16
379.11	1062.58
379.48	1066.25
379.85	1068.06
380.22	1069.09
380.59	1069.72
380.96	1070.65
381.33	1070.07
381.70	1067.45
382.07	1065.60
382.44	1065.58
382.81	1067.96
383.18	1065.62
383.55	1065.88
383.92	1067.80
384.29	1070.37
384.66	1067.82
385.03	1069.25
385.40	1071.29
385.77	1071.08
386.14	1068.29
386.51	1070.28
386.88	1070.49
387.25	1070.49
387.62	1071.64
387.99	1072.46
388.36	1071.68
388.73	1070.70
389.10	1070.82
389.46	1071.50
389.83	1071.71
390.20	1069.86
390.57	1075.73
390.94	1076.55
391.31	1075.52
391.68	1075.73
392.05	1078.96
392.42	1076.72
392.79	1077.23
393.16	1077.89
393.53	1079.50
393.89	1076.34
394.26	1072.60
394.63	1070.75
395.00	1071.19
395.37	1070.47
395.74	1073.28
396.11	1073.53
396.48	1075.92
396.84	1073.70
397.21	1070.05
397.58	1069.04
397.95	1071.05
398.32	1069.91
398.69	1072.04
399.06	1072.92
399.42	1074.38
399.79	1071.59
400.16	1072.74
400.53	1073.46
400.90	1077.07
401.27	1074.00
401.64	1078.99
402.00	1076.55
402.37	1076.83
402.74	1071.52
403.11	1075.83
403.48	1072.69
403.84	1072.71
404.21	1070.14
404.58	1071.36
404.95	1068.29
405.32	1069.23
405.68	1068.74
406.05	1070.33
406.42	1073.46
406.79	1073.95
407.16	1073.46
407.52	1075.66
407.89	1075.17
408.26	1075.50
408.63	1077.09
408.99	1078.94
409.36	1080.18
409.73	1083.36
410.10	1082.38
410.47	1079.15
410.83	1075.48
411.20	1071.66
411.57	1069.48
411.94	1066.42
412.30	1071.71
412.67	1073.88
413.04	1078.89
413.40	1076.23
413.77	1082.15
414.14	1080.27
414.51	1079.22
414.87	1077.91
415.24	1082.45
415.61	1080.79
415.97	1081.75
416.34	1084.46
416.71	1087.18
417.08	1085.21
417.44	1083.18
417.81	1080.77
418.18	1080.30
418.54	1075.64
418.91	1077.02
419.28	1080.91
419.64	1084.11
420.01	1084.60
420.38	1084.25
420.74	1083.34
421.11	1081.21
421.48	1078.66
421.84	1079.27
422.21	1078.24
422.58	1080.58
422.94	1081.80
423.31	1082.97
423.68	1082.50
424.04	1086.50
424.41	1085.05
424.77	1090.64
425.14	1091.34
425.51	1092.12
425.87	1091.56
426.24	1094.95
426.61	1092.73
426.97	1095.67
427.34	1095.51
427.70	1099.42
428.07	1094.65
428.44	1094.11
428.80	1094.86
429.17	1098.51
429.53	1096.66
429.90	1098.93
430.27	1102.65
430.63	1104.10
431.00	1105.36
431.36	1112.29
431.73	1117.58
432.09	1118.19
432.46	1119.22
432.83	1126.80
433.19	1132.68
433.56	1139.96
433.92	1141.39
434.29	1147.56
434.65	1147.05
435.02	1147.21
435.38	1150.05
435.75	1158.07
436.11	1165.03
436.48	1175.44
436.84	1183.89
437.21	1190.07
437.57	1198.28
437.94	1208.14
438.30	1215.72
438.67	1223.05
439.03	1237.39
439.40	1250.52
439.76	1259.68
440.13	1272.10
440.49	1287.65
440.86	1300.99
441.22	1314.73
441.59	1333.82
441.95	1352.17
442.32	1369.89
442.68	1385.46
443.05	1405.56
443.41	1425.25
443.78	1446.90
444.14	1470.84
444.51	1497.90
444.87	1529.68
445.24	1555.99
445.60	1583.79
445.96	1614.90
446.33	1649.05
446.69	1680.74
447.06	1716.17
447.42	1753.18
447.79	1795.64
448.15	1840.95
448.51	1884.44
448.88	1944.17
449.24	1995.94
449.61	2044.39
449.97	2099.30
450.33	2162.58
450.70	2216.18
451.06	2283.31
451.43	2355.84
451.79	2432.50
452.15	2514.16
452.52	2603.64
452.88	2695.55
453.24	2789.59
453.61	2896.44
453.97	2996.92
454.34	3095.99
454.70	3215.10
455.06	3334.70
455.43	3462.47
455.79	3583.29
456.15	3717.54
456.52	3846.44
456.88	4001.66
457.24	4139.05
457.61	4319.62
457.97	4493.06
458.33	4671.03
458.70	4851.30
459.06	5037.25
459.42	5203.90
459.79	5361.56
460.15	5537.40
460.51	5701.15
460.88	5860.56
461.24	6012.27
461.60	6183.63
461.96	6351.77
462.33	6510.32
462.69	6696.34
463.05	6893.06
463.42	7089.23
463.78	7284.54
464.14	7459.94
464.50	7610.46
464.87	7721.68
465.23	7807.42
465.59	7888.33
465.95	7966.20
466.32	8035.97
466.68	8130.93
467.04	8194.17
467.40	8208.70
467.77	8219.68
468.13	8195.18
468.49	8179.84
468.85	8169.73
469.22	8166.76
469.58	8152.39
469.94	8151.43
470.30	8081.52
470.66	7999.44
471.03	7893.15
471.39	7818.00
471.75	7693.06
472.11	7592.30
472.47	7514.17
472.84	7422.21
473.20	7296.97
473.56	7218.28
473.92	7125.36
474.28	7043.47
474.65	6968.76
475.01	6879.09
475.37	6780.32
475.73	6680.47
476.09	6559.16
476.45	6447.75
476.81	6358.56
477.18	6261.33
477.54	6172.98
477.90	6095.57
478.26	6015.86
478.62	5928.58
478.98	5842.66
479.34	5777.14
479.71	5687.95
480.07	5614.31
480.43	5565.30
480.79	5515.64
481.15	5454.43
481.51	5414.67
481.87	5360.53
482.23	5270.75
482.59	5191.73
482.96	5120.76
483.32	5058.32
483.68	4992.57
484.04	4931.51
484.40	4862.74
484.76	4794.99
485.12	4716.55
485.48	4634.94
485.84	4550.49
486.20	4466.40
486.56	4373.97
486.92	4295.26
487.28	4223.50
487.64	4158.22
488.00	4088.64
488.37	4026.17
488.73	3940.03
489.09	3859.80
489.45	3788.77
489.81	3714.73
490.17	3644.78
490.53	3587.76
490.89	3518.78
491.25	3447.40
491.61	3391.76
491.97	3322.32
492.33	3249.46
492.69	3180.13
493.05	3118.60
493.41	3052.76
493.77	2993.31
494.13	2938.40
494.49	2892.15
494.85	2836.66
495.21	2788.47
495.57	2734.21
495.93	2684.29
496.29	2630.62
496.64	2586.60
497.00	2536.77
497.36	2498.12
497.72	2450.21
498.08	2415.88
498.44	2376.16
498.80	2338.15
499.16	2302.62
499.52	2269.69
499.88	2231.51
500.24	2195.94
500.60	2163.83
500.96	2126.10
501.32	2094.64
501.68	2061.36
502.03	2027.47
502.39	1996.87
502.75	1966.92
503.11	1937.59
503.47	1917.30
503.83	1895.90
504.19	1869.99
504.55	1847.31
504.91	1824.87
505.26	1796.06
505.62	1773.89
505.98	1755.33
506.34	1734.85
506.70	1715.19
507.06	1698.48
507.42	1678.59
507.78	1661.57
508.13	1645.26
508.49	1628.47
508.85	1610.10
509.21	1591.63
509.57	1570.69
509.93	1548.73
510.28	1529.52
510.64	1513.13
511.00	1496.12
511.36	1481.89
511.72	1469.74
512.07	1458.97
512.43	1445.40
512.79	1432.48
513.15	1422.06
513.51	1411.34
513.86	1400.01
514.22	1390.18
514.58	1383.19
514.94	1372.49
515.30	1366.19
515.65	1352.62
516.01	1345.62
516.37	1340.35
516.73	1332.75
517.08	1322.15
517.44	1313.49
517.80	1304.40
518.16	1292.30
518.51	1285.00
518.87	1279.22
519.23	1276.41
519.59	1270.79
519.94	1268.17
520.30	1264.10
520.66	1259.84
521.01	1255.70
521.37	1250.01
521.73	1240.86
522.09	1232.55
522.44	1227.28
522.80	1219.65
523.16	1214.18
523.51	1210.17
523.87	1211.04
524.23	1206.99
524.58	1204.42
524.94	1201.28
525.30	1196.90
525.65	1186.46
526.01	1181.50
526.37	1179.14
526.72	1177.20
527.08	1175.11
527.44	1176.47
527.79	1173.71
528.15	1170.71
528.51	1167.60
528.86	1165.45
529.22	1162.54
529.58	1157.39
529.93	1155.87
530.29	1154.80
530.65	1152.48
531.00	1149.02
531.36	1151.80
531.71	1150.35
532.07	1145.13
532.43	1140.07
532.78	1137.99
533.14	1134.72
533.49	1130.10
533.85	1129.36
534.21	1132.84
534.56	1131.91
534.92	1126.80
535.27	1128.47
535.63	1126.24
535.98	1121.51
536.34	1120.86
536.69	1123.22
537.05	1119.34
537.41	1118.17
537.76	1116.18
538.12	1113.16
538.47	1110.79
538.83	1109.65
539.18	1112.97
539.54	1116.58
539.89	1115.83
540.25	1114.73
540.60	1115.12
540.96	1110.94
541.31	1108.59
541.67	1108.38
542.02	1108.74
542.38	1106.91
542.73	1105.22
543.09	1103.26
543.44	1103.07
543.80	1101.53
544.15	1104.19
544.51	1105.65
544.86	1104.24
545.22	1103.05
545.57	1103.47
545.93	1100.87
546.28	1096.92
546.64	1097.57
546.99	1097.38
547.35	1097.90
547.70	1095.30
548.05	1095.25
548.41	1093.76
548.76	1092.61
549.12	1092.77
549.47	1095.63
549.83	1097.17
550.18	1098.18
550.53	1096.68
550.89	1093.76
551.24	1092.75
551.60	1092.28
551.95	1089.03
552.30	1089.87
552.66	1089.36
553.01	1087.34
553.37	1085.24
553.72	1085.28
554.07	1083.76
554.43	1084.63
554.78	1084.07
555.13	1084.98
555.49	1088.30
555.84	1090.08
556.19	1090.48
556.55	1086.15
556.90	1087.44
557.26	1085.26
557.61	1085.38
557.96	1086.62
558.32	1091.02
558.67	1090.01
559.02	1089.38
559.37	1088.04
559.73	1081.75
560.08	1082.33
560.43	1080.88
560.79	1081.80
561.14	1083.32
561.49	1085.91
561.85	1085.07
562.20	1082.54
562.55	1083.29
562.90	1080.93
563.26	1080.95
563.61	1079.85
563.96	1082.64
564.32	1080.53
564.67	1083.20
565.02	1079.69
565.37	1078.75
565.73	1079.97
566.08	1079.27
566.43	1076.06
566.78	1082.52
567.14	1083.04
567.49	1080.48
567.84	1084.09
568.19	1086.64
568.54	1085.05
568.90	1081.98
569.25	1080.58
569.60	1077.65
569.95	1072.69
570.31	1072.20
570.66	1078.33
571.01	1078.73
571.36	1080.51
571.71	1083.04
572.06	1080.51
572.42	1079.67
572.77	1081.30
573.12	1081.12
573.47	1080.77
573.82	1079.71
574.18	1077.54
574.53	1077.44
574.88	1076.23
575.23	1078.85
575.58	1080.81
575.93	1080.34
576.28	1079.62
576.64	1077.84
576.99	1077.63
577.34	1079.76
577.69	1080.13
578.04	1079.29
578.39	1080.63
578.74	1079.20
579.09	1079.78
579.44	1082.40
579.80	1082.52
580.15	1082.76
580.50	1083.36
580.85	1080.23
581.20	1076.01
581.55	1076.65
581.90	1075.76
582.25	1076.72
582.60	1079.38
582.95	1083.76
583.30	1083.43
583.65	1086.76
584.00	1084.11
584.35	1080.20
584.71	1076.01
585.06	1077.58
585.41	1073.58
585.76	1076.69
586.11	1077.51
586.46	1080.41
586.81	1078.43
587.16	1081.70
587.51	1078.38
587.86	1078.59
588.21	1077.63
588.56	1080.04
588.91	1075.22
589.26	1075.85
589.61	1073.14
589.96	1069.62
590.31	1068.38
590.66	1071.45
591.01	1071.12
591.36	1073.37
591.71	1073.98
592.06	1074.31
592.41	1073.39
592.76	1073.86
593.10	1074.35
593.45	1074.00
593.80	1074.91
594.15	1074.87
594.50	1076.67
594.85	1077.75
595.20	1082.19
595.55	1081.33
595.90	1083.11
596.25	1078.59
596.60	1078.99
596.95	1077.23
597.30	1076.13
597.64	1085.70
597.99	1085.99
598.34	1083.25
598.69	1081.58
599.04	1078.45
599.39	1066.09
599.74	1068.85
600.09	1070.84
600.44	1072.34
600.78	1077.02
601.13	1079.27
601.48	1077.33
601.83	1078.99
602.18	1075.85
602.53	1075.15
602.88	1074.14
603.22	1073.18
603.57	1071.19
603.92	1071.26
604.27	1070.82
604.62	1071.85
604.97	1075.36
605.31	1072.36
605.66	1074.07
606.01	1075.22
606.36	1077.37
606.71	1078.12
607.05	1082.29
607.40	1084.35
607.75	1084.60
608.10	1080.34
608.44	1077.86
608.79	1075.69
609.14	1075.31
609.49	1073.79
609.84	1072.76
610.18	1072.22
610.53	1074.35
610.88	1073.30
611.23	1072.57
611.57	1076.39
611.92	1076.37
612.27	1075.73
612.62	1080.60
612.96	1084.11
613.31	1081.49
613.66	1081.73
614.00	1082.29
614.35	1078.57
614.70	1076.90
615.05	1078.75
615.39	1080.30
615.74	1078.47
616.09	1079.27
616.43	1081.54
616.78	1083.71
617.13	1082.87
617.47	1082.78
617.82	1081.82
618.17	1077.18
618.51	1074.61
618.86	1074.42
619.21	1073.07
619.55	1071.92
619.90	1070.98
620.25	1071.94
620.59	1073.42
620.94	1076.62
621.29	1076.72
621.63	1081.56
621.98	1083.15
622.32	1082.15
622.67	1081.05
623.02	1080.46
623.36	1078.57
623.71	1074.52
624.05	1073.88
624.40	1073.46
624.75	1076.58
625.09	1075.48
625.44	1077.58
625.78	1076.83
626.13	1075.90
626.48	1073.79
626.82	1071.71
627.17	1071.33
627.51	1071.85
627.86	1072.50
628.20	1073.42
628.55	1076.39
628.89	1076.76
629.24	1076.81
629.58	1075.15
629.93	1076.44
630.28	1075.34
630.62	1074.49
630.97	1075.71
631.31	1080.56
631.66	1077.35
632.00	1077.33
632.35	1077.82
632.69	1079.29
633.04	1077.18
633.38	1079.69
633.73	1080.18
634.07	1078.68
634.42	1077.84
634.76	1076.58
635.11	1073.32
635.45	1075.57
635.79	1074.94
636.14	1076.37
636.48	1074.61
636.83	1077.72
637.17	1076.46
637.52	1076.18
637.86	1071.40
638.21	1073.35
638.55	1073.07
638.89	1072.18
639.24	1077.56
639.58	1078.89
639.93	1079.22
640.27	1077.16
640.61	1078.57
640.96	1074.73
641.30	1074.47
641.65	1076.30
641.99	1074.56
642.33	1075.10
642.68	1074.47
643.02	1075.17
643.37	1073.35
643.71	1078.17
644.05	1076.51
644.40	1078.33
644.74	1079.90
645.08	1077.70
645.43	1077.02
645.77	1077.98
646.11	1074.68
646.46	1074.87
646.80	1078.87
647.14	1077.89
647.49	1076.67
647.83	1080.65
648.17	1079.55
648.52	1075.36
648.86	1072.29
649.20	1071.66
649.55	1070.00
649.89	1071.17
650.23	1075.69
650.57	1078.43
650.92	1077.21
651.26	1078.24
651.60	1076.69
651.95	1074.70
652.29	1075.83
652.63	1073.77
652.97	1071.33
653.32	1074.70
653.66	1074.21
654.00	1073.11
654.34	1073.60
654.69	1072.50
655.03	1067.73
655.37	1069.48
655.71	1069.86
656.05	1074.52
656.40	1077.68
656.74	1077.21
657.08	1074.77
657.42	1073.35
657.76	1075.64
658.11	1076.83
658.45	1079.34
658.79	1080.04
659.13	1081.66
659.47	1076.44
659.82	1075.73
660.16	1076.11
660.50	1080.79
660.84	1082.90
661.18	1084.11
661.52	1084.37
661.87	1085.68
662.21	1080.79
662.55	1079.46
662.89	1078.31
663.23	1076.18
663.57	1074.45
663.91	1075.92
664.25	1073.77
664.60	1075.03
664.94	1078.00
665.28	1077.02
665.62	1076.60
665.96	1076.69
666.30	1079.08
666.64	1075.13
666.98	1075.15
667.32	1073.49
667.66	1075.66
668.01	1073.18
668.35	1076.81
668.69	1078.10
669.03	1079.55
669.37	1079.83
669.71	1081.00
670.05	1076.08
670.39	1076.23
670.73	1073.93
671.07	1070.54
671.41	1067.68
671.75	1067.24
672.09	1069.74
672.43	1073.02
672.77	1073.88
673.11	1075.59
673.45	1075.62
673.79	1076.37
674.13	1077.77
674.47	1079.83
674.81	1079.55
675.15	1081.44
675.49	1079.08
675.83	1075.01
676.17	1074.80
676.51	1078.96
676.85	1079.74
677.19	1078.10
677.53	1082.61
677.87	1083.62
678.21	1079.48
678.55	1080.88
678.89	1077.11
679.23	1073.81
679.57	1074.19
679.90	1075.45
680.24	1075.66
680.58	1080.98
680.92	1078.61
681.26	1073.30
681.60	1073.72
681.94	1070.98
682.28	1069.13
682.62	1072.92
682.96	1074.42
683.29	1072.20
683.63	1076.13
683.97	1075.87
684.31	1074.89
684.65	1076.51
684.99	1076.97
685.33	1076.88
685.67	1077.21
686.00	1076.44
686.34	1076.06
686.68	1078.50
687.02	1076.44
687.36	1073.81
687.70	1075.03
688.03	1075.38
688.37	1073.37
688.71	1074.87
689.05	1078.50
689.39	1075.38
689.72	1075.41
690.06	1075.45
690.40	1073.46
690.74	1072.48
691.08	1074.75
691.41	1073.70
691.75	1075.17
692.09	1077.47
692.43	1078.66
692.76	1074.96
693.10	1073.16
693.44	1073.88
693.78	1072.27
694.11	1070.33
694.45	1071.59
694.79	1074.42
695.13	1072.36
695.46	1072.20
695.80	1074.10
696.14	1073.74
696.48	1075.43
696.81	1075.73
697.15	1077.21
697.49	1075.73
697.82	1080.37
698.16	1078.00
698.50	1079.13
698.83	1080.13
699.17	1081.98
699.51	1081.68
699.84	1080.18
700.18	1077.82
700.52	1073.77
700.85	1069.04
701.19	1067.47
701.53	1068.15
701.86	1068.74
702.20	1070.44
702.54	1073.25
702.87	1072.04
703.21	1074.33
703.55	1079.36
703.88	1078.52
704.22	1077.09
704.55	1078.50
704.89	1073.56
705.23	1068.29
705.56	1069.67
705.90	1072.25
706.23	1072.64
706.57	1075.66
706.91	1076.51
707.24	1077.82
707.58	1075.20
707.91	1073.42
708.25	1076.34
708.58	1077.30
708.92	1075.99
709.26	1079.60
709.59	1079.97
709.93	1081.35
710.26	1081.33
710.60	1080.16
710.93	1077.58
711.27	1078.38
711.60	1073.23
711.94	1072.43
712.27	1075.10
712.61	1077.28
712.94	1076.60
713.28	1079.74
713.61	1077.14
713.95	1074.42
714.28	1071.29
714.62	1073.00
714.95	1073.49
715.29	1079.13
715.62	1079.69
715.96	1079.34
716.29	1078.43
716.63	1077.40
716.96	1073.23
717.29	1071.97
717.63	1075.80
717.96	1075.31
718.30	1073.74
718.63	1076.11
718.97	1079.90
719.30	1078.21
719.63	1081.56
719.97	1083.04
720.30	1080.20
720.64	1079.92
720.97	1077.58
721.30	1073.79
721.64	1069.11
721.97	1069.74
722.31	1069.32
722.64	1070.72
722.97	1069.04
723.31	1071.03
723.64	1070.19
723.97	1066.84
724.31	1068.57
724.64	1071.43
724.98	1073.60
725.31	1072.43
725.64	1074.59
725.98	1072.25
726.31	1070.49
726.64	1069.88
726.97	1073.04
727.31	1072.71
727.64	1074.33
727.97	1077.49
728.31	1075.45
728.64	1077.00
728.97	1076.81
729.31	1076.74
729.64	1076.15
729.97	1078.31
730.30	1078.87
730.64	1075.99
730.97	1076.25
731.30	1074.40
731.63	1076.37
731.97	1075.31
732.30	1078.26
732.63	1080.46
732.96	1079.22
733.30	1074.61
733.63	1073.74
733.96	1073.70
734.29	1072.18
734.63	1073.42
734.96	1075.94
735.29	1078.28
735.62	1077.42
735.95	1077.77
736.29	1077.49
736.62	1078.61
736.95	1075.99
737.28	1074.19
737.61	1072.88
737.94	1075.87
738.28	1075.13
738.61	1073.39
738.94	1075.45
739.27	1077.18
739.60	1074.82
739.93	1073.56
740.27	1075.52
740.60	1078.59
740.93	1074.14
741.26	1075.83
741.59	1074.98
741.92	1074.87
742.25	1072.81
742.58	1073.63
742.91	1070.54
743.25	1072.71
743.58	1074.05
743.91	1072.60
744.24	1073.84
744.57	1075.31
744.90	1073.86
745.23	1072.08
745.56	1074.84
745.89	1077.02
746.22	1075.05
746.55	1077.93
746.88	1078.80
747.21	1074.38
747.54	1069.67
747.87	1072.08
748.20	1072.25
748.53	1068.48
748.87	1069.58
749.20	1072.18
749.53	1070.87
749.86	1069.62
750.19	1074.26
750.52	1075.22
750.85	1077.65
751.18	1079.29
751.51	1079.64
751.84	1075.22
752.16	1076.25
752.49	1076.30
752.82	1073.42
753.15	1071.71
753.48	1076.20
753.81	1075.41
754.14	1073.79
754.47	1077.30
754.80	1078.19
755.13	1075.45
755.46	1077.11
755.79	1077.93
756.12	1077.98
756.45	1077.72
756.78	1079.13
757.11	1076.74
757.43	1074.56
757.76	1072.97
758.09	1072.85
758.42	1073.07
758.75	1074.77
759.08	1077.89
759.41	1075.48
759.74	1075.36
760.07	1071.94
760.39	1069.84
760.72	1068.69
761.05	1071.26
761.38	1074.14
761.71	1078.33
762.04	1078.71
762.36	1078.36
762.69	1080.13
763.02	1078.99
763.35	1076.79
763.68	1074.98
764.01	1074.42
764.33	1075.45
764.66	1071.87
764.99	1075.29
765.32	1080.98
765.65	1077.86
765.97	1075.73
766.30	1079.15
766.63	1076.25
766.96	1074.17
767.28	1078.50
767.61	1078.07
767.94	1074.59
768.27	1078.26
768.59	1076.58
768.92	1076.06
769.25	1077.51
769.58	1079.57
769.90	1077.89
770.23	1076.76
770.56	1073.86
770.89	1071.12
771.21	1070.56
771.54	1066.49
771.87	1066.23
772.19	1069.60
772.52	1070.37
772.85	1072.29
773.17	1074.80
773.50	1074.61
773.83	1072.43
774.15	1072.48
774.48	1070.51
774.81	1071.99
775.13	1073.44
775.46	1072.48
775.79	1074.42
776.11	1077.30
776.44	1073.81
776.77	1075.08
777.09	1077.82
777.42	1074.61
777.74	1075.48
778.07	1076.76
778.40	1077.93
778.72	1076.15
779.05	1077.51
779.37	1070.96
779.70	1072.83
780.03	1074.47
780.35	1075.80
780.68	1075.90
781.00	1080.77
781.33	1080.60
781.65	1079.20
781.98	1080.39
782.31	1080.77
782.63	1080.06
782.96	1080.39
783.28	1078.28
783.61	1076.53
783.93	1074.42
784.26	1075.22
784.58	1071.90
784.91	1071.38
785.23	1069.25
785.56	1069.60
785.88	1069.04
786.21	1072.11
786.53	1069.81
786.86	1074.91
787.18	1077.49
787.51	1075.64
787.83	1071.64
788.16	1073.46
788.48	1070.61
788.81	1069.27
789.13	1068.83
789.46	1069.86
789.78	1074.07
790.10	1074.10
790.43	1073.74
790.75	1075.38
791.08	1077.51
791.40	1073.63
791.73	1073.63
792.05	1073.88
792.37	1074.47
792.70	1073.02
793.02	1071.85
793.35	1072.85
793.67	1074.73
793.99	1073.81
794.32	1075.59
794.64	1075.05
794.96	1075.01
795.29	1072.69
795.61	1070.23
795.93	1070.54
796.26	1074.73
796.58	1076.60
796.91	1079.31
797.23	1080.34
797.55	1079.90
797.87	1078.54
798.20	1075.97
798.52	1074.61
798.84	1076.88
799.17	1075.97
799.49	1074.38
799.81	1070.96
800.14	1070.19
800.46	1070.12
800.78	1071.01
801.10	1072.20
801.43	1075.22
801.75	1074.24
802.07	1075.97
802.40	1073.95
802.72	1077.44
803.04	1081.66
803.36	1083.71
803.69	1078.50
804.01	1079.24
804.33	1072.41
804.65	1068.57
804.97	1067.26
805.30	1069.02
805.62	1068.43
805.94	1071.10
806.26	1071.43
806.58	1071.61
806.91	1071.94
807.23	1072.41
807.55	1071.80
807.87	1075.31
808.19	1074.52
808.52	1074.73
808.84	1074.96
809.16	1075.38
809.48	1072.74
809.80	1073.93
810.12	1076.37
810.44	1075.85
810.77	1077.28
811.09	1075.13
811.41	1072.50
811.73	1070.16
812.05	1070.49
812.37	1070.33
812.69	1070.65
813.01	1073.51
813.33	1073.23
813.66	1074.00
813.98	1076.58
814.30	1076.74
814.62	1073.81
814.94	1072.76
815.26	1070.54
815.58	1069.04
815.90	1068.74
816.22	1072.11
816.54	1074.84
816.86	1079.97
817.18	1077.58
817.50	1078.12
817.82	1074.73
818.14	1075.13
818.46	1071.59
818.78	1074.00
819.10	1073.74
819.42	1070.49
819.74	1068.22
820.06	1065.95
820.38	1066.54
820.70	1064.94
821.02	1069.32
821.34	1071.82
821.66	1074.54
821.98	1072.29
822.30	1071.01
822.62	1071.85
822.94	1073.30
823.26	1073.72
823.58	1074.91
823.90	1076.23
824.22	1077.30
824.54	1075.45
824.86	1070.12
825.18	1070.47
825.50	1072.83
825.81	1070.33
826.13	1069.25
826.45	1073.95
826.77	1071.61
827.09	1072.92
827.41	1075.90
827.73	1074.24
828.05	1072.39
828.36	1073.98
828.68	1072.43
829.00	1072.41
829.32	1073.74
829.64	1073.93
829.96	1073.04
830.28	1069.58
830.59	1067.85
830.91	1069.34
831.23	1069.72
831.55	1069.98
831.87	1071.24
832.19	1070.61
832.50	1069.84
832.82	1074.24
833.14	1076.62
833.46	1079.36
833.78	1082.43
834.09	1078.82
834.41	1077.02
834.73	1073.60
835.05	1072.83
835.36	1071.33
835.68	1073.30
836.00	1071.29
836.32	1071.08
836.63	1074.03
836.95	1073.60
837.27	1073.30
837.59	1072.67
837.90	1073.37
838.22	1069.25
838.54	1069.16
838.85	1073.18
839.17	1073.65
839.49	1074.21
839.80	1076.48
840.12	1075.41
840.44	1072.48
840.76	1074.98
841.07	1075.43
841.39	1074.40
841.71	1079.41
842.02	1081.44
842.34	1081.37
842.65	1080.09
842.97	1080.18
843.29	1073.84
843.60	1071.99
843.92	1072.01
844.24	1070.82
844.55	1072.81
844.87	1074.03
845.18	1072.88
845.50	1072.32
845.82	1077.28
846.13	1073.60
846.45	1074.49
846.76	1073.91
847.08	1074.96
847.40	1072.57
847.71	1077.00
848.03	1078.68
848.34	1080.84
848.66	1077.84
848.97	1078.92
849.29	1076.08
849.60	1076.53
849.92	1075.62
850.24	1077.40
850.55	1075.48
850.87	1075.73
851.18	1073.11
851.50	1074.31
851.81	1070.49
852.13	1070.77
852.44	1069.23
852.76	1068.48
853.07	1067.47
853.39	1074.70
853.70	1072.11
854.01	1071.54
854.33	1069.81
854.64	1070.37
854.96	1066.23
855.27	1070.19
855.59	1068.29
855.90	1069.62
856.22	1070.75
856.53	1070.63
856.84	1071.50
857.16	1077.70
857.47	1081.42
857.79	1081.19
858.10	1079.43
858.41	1076.60
858.73	1078.05
859.04	1078.12
859.36	1077.42
859.67	1078.10
859.98	1079.36
860.30	1075.62
860.61	1075.08
860.92	1075.01
861.24	1075.87
861.55	1076.69
861.87	1078.03
862.18	1080.09
862.49	1080.34
862.81	1082.19
863.12	1079.90
863.43	1076.69
863.74	1075.17
864.06	1076.58
864.37	1072.22
864.68	1074.49
865.00	1076.55
865.31	1075.83
865.62	1073.42
865.94	1078.78
866.25	1075.52
866.56	1077.61
866.87	1078.92
867.19	1078.17
867.50	1075.66
867.81	1076.95
868.12	1073.86
868.44	1071.87
868.75	1071.38
869.06	1070.42
869.37	1069.37
869.68	1069.74
870.00	1072.39
870.31	1072.74
870.62	1073.74
870.93	1076.95
871.24	1078.47
871.56	1078.21
871.87	1078.31
872.18	1080.81
872.49	1078.87
872.80	1077.82
873.12	1077.21
873.43	1078.12
873.74	1075.29
874.05	1078.21
874.36	1078.26
874.67	1075.92
874.98	1076.01
875.29	1076.37
875.61	1069.65
875.92	1067.57
876.23	1070.82
876.54	1071.12
876.85	1067.59
877.16	1073.67
877.47	1073.44
877.78	1071.15
878.09	1070.80
878.40	1073.81
878.72	1072.62
879.03	1075.05
879.34	1075.50
879.65	1077.40
879.96	1079.48
880.27	1077.86
880.58	1076.20
880.89	1073.93
881.20	1074.35
881.51	1071.10
881.82	1072.43
882.13	1074.05
882.44	1075.85
882.75	1075.90
883.06	1079.55
883.37	1081.37
883.68	1079.95
883.99	1079.76
884.30	1075.27
884.61	1067.68
884.92	1065.11
885.23	1065.62
885.54	1064.85
885.85	1066.56
886.16	1071.99
886.47	1074.70
886.78	1074.10
887.08	1073.14
887.39	1070.47
887.70	1071.01
888.01	1070.98
888.32	1072.01
888.63	1072.41
888.94	1075.36
889.25	1074.38
889.56	1073.49
889.87	1075.01
890.17	1076.08
890.48	1077.47
890.79	1077.54
891.10	1072.64
891.41	1073.00
891.72	1075.34
892.03	1076.72
892.34	1077.89
892.64	1080.93
892.95	1077.30
893.26	1073.11
893.57	1070.96
893.88	1071.99
894.18	1071.43
894.49	1073.07
894.80	1078.17
895.11	1080.04
895.42	1078.78
895.72	1079.81
896.03	1077.82
896.34	1075.97
896.65	1072.71
896.96	1073.60
897.26	1072.22
897.57	1078.33
897.88	1079.55
898.19	1082.69
898.49	1079.83
898.80	1079.13
899.11	1072.55
899.41	1070.02
899.72	1066.07
900.03	1066.28
900.34	1067.33
900.64	1070.56
900.95	1071.90
901.26	1072.48
901.56	1072.62
901.87	1074.56
902.18	1072.39
902.48	1072.41
902.79	1075.50
903.10	1077.75
903.40	1077.82
903.71	1084.81
904.02	1081.61
904.32	1080.41
904.63	1080.16
904.94	1079.38
905.24	1075.27
905.55	1078.28
905.85	1077.84
906.16	1076.48
906.47	1077.18
906.77	1073.00
907.08	1071.31
907.38	1071.97
907.69	1073.84
908.00	1073.44
908.30	1075.05
908.61	1075.15
908.91	1074.03
909.22	1071.43
909.52	1068.27
909.83	1068.59
910.14	1068.64
910.44	1070.00
910.75	1071.80
911.05	1073.77
911.36	1077.14
911.66	1077.63
911.97	1077.16
912.27	1077.23
912.58	1075.41
912.88	1070.75
913.19	1070.68
913.49	1070.09
913.80	1070.72
914.10	1073.95
914.41	1075.43
914.71	1076.37
915.01	1077.42
915.32	1078.40
915.62	1076.20
915.93	1075.92
916.23	1075.62
916.54	1075.85
916.84	1075.17
917.15	1079.34
917.45	1077.79
917.75	1076.23
918.06	1075.94
918.36	1074.89
918.67	1075.45
918.97	1079.22
919.27	1081.02
919.58	1081.68
919.88	1080.95
920.18	1077.07
920.49	1077.30
920.79	1076.65
921.10	1075.57
921.40	1076.51
921.70	1079.17
922.01	1078.28
922.31	1079.99
922.61	1080.58
922.92	1081.26
923.22	1079.03
923.52	1076.74
923.82	1074.56
924.13	1073.00
924.43	1071.19
924.73	1069.65
925.04	1073.16
925.34	1073.67
925.64	1074.54
925.94	1075.64
926.25	1074.89
926.55	1070.51
926.85	1070.96
927.15	1068.13
927.46	1067.66
927.76	1071.85
928.06	1076.06
928.36	1074.84
928.67	1077.54
928.97	1079.34
929.27	1077.37
929.57	1077.72
929.87	1083.62
930.18	1079.90
930.48	1078.50
930.78	1080.79
931.08	1076.60
931.38	1069.81
931.69	1071.85
931.99	1070.44
932.29	1065.39
932.59	1066.93
932.89	1069.77
933.19	1070.05
933.49	1070.49
933.80	1073.81
934.10	1075.22
934.40	1073.16
934.70	1073.79
935.00	1073.70
935.30	1073.42
935.60	1074.14
935.90	1073.02
936.20	1074.17
936.50	1073.58
936.81	1074.80
937.11	1074.94
937.41	1075.13
937.71	1072.81
938.01	1072.04
938.31	1069.70
938.61	1066.63
938.91	1069.77
939.21	1071.40
939.51	1074.07
939.81	1073.77
940.11	1074.98
940.41	1071.59
940.71	1071.66
941.01	1072.53
941.31	1070.82
941.61	1070.42
941.91	1070.19
942.21	1071.45
942.51	1068.36
942.81	1070.23
943.11	1069.60
943.41	1072.97
943.71	1072.06
944.01	1073.28
944.31	1075.45
944.61	1073.51
944.90	1071.61
945.20	1072.78
945.50	1073.37
945.80	1070.77
946.10	1074.98
946.40	1077.47
946.70	1078.54
947.00	1079.83
947.30	1079.83
947.60	1079.95
947.89	1081.58
948.19	1082.24
948.49	1081.58
948.79	1081.44
949.09	1080.18
949.39	1077.63
949.69	1076.51
949.98	1075.50
950.28	1077.16
950.58	1077.91
950.88	1075.38
951.18	1073.53
951.48	1071.71
951.77	1069.39
952.07	1071.59
952.37	1073.67
952.67	1071.59
952.97	1074.12
953.26	1076.27
953.56	1072.34
953.86	1072.92
954.16	1075.03
954.45	1074.68
954.75	1077.16
955.05	1077.75
955.35	1074.87
955.64	1072.41
955.94	1072.64
956.24	1071.17
956.54	1074.80
956.83	1076.18
957.13	1077.79
957.43	1075.38
957.72	1071.31
958.02	1068.22
958.32	1066.39
958.61	1069.77
958.91	1069.98
959.21	1074.07
959.50	1078.99
959.80	1079.88
960.10	1079.81
960.39	1080.06
960.69	1075.55
960.99	1072.22
961.28	1074.12
961.58	1070.56
961.87	1069.77
962.17	1073.07
962.47	1069.98
962.76	1068.67
963.06	1071.90
963.36	1073.84
963.65	1075.52
963.95	1076.58
964.24	1078.99
964.54	1078.00
964.83	1083.18
965.13	1083.46
965.42	1081.63
965.72	1077.42
966.02	1075.90
966.31	1071.59
966.61	1071.87
966.90	1078.28
967.20	1082.45
967.49	1084.07
967.79	1083.79
968.08	1080.30
968.38	1075.27
968.67	1073.49
968.97	1072.36
969.26	1069.62
969.56	1070.40
969.85	1072.64
970.15	1069.60
970.44	1069.98
970.74	1072.88
971.03	1071.24
971.32	1069.46
971.62	1071.24
971.91	1072.01
972.21	1071.19
972.50	1074.52
972.80	1072.71
973.09	1070.09
973.38	1066.49
973.68	1066.72
973.97	1067.14
974.27	1068.36
974.56	1070.02
974.85	1069.25
975.15	1070.23
975.44	1069.60
975.73	1072.13
976.03	1071.40
976.32	1071.47
976.61	1070.75
976.91	1071.59
977.20	1067.03
977.49	1069.74
977.79	1072.88
978.08	1075.13
978.37	1075.48
978.67	1078.66
978.96	1078.54
979.25	1076.06
979.55	1074.54
979.84	1070.44
980.13	1068.83
980.42	1068.41
980.72	1069.62
981.01	1067.28
981.30	1068.67
981.59	1070.09
981.89	1071.15
982.18	1071.08
982.47	1072.34
982.76	1072.06
983.06	1072.34
983.35	1072.83
983.64	1072.48
983.93	1070.09
984.22	1073.67
984.52	1072.81
984.81	1075.05
985.10	1075.64
985.39	1076.41
985.68	1073.63
985.97	1074.03
986.27	1071.31
986.56	1074.45
986.85	1074.68
987.14	1073.70
987.43	1075.01
987.72	1076.86
988.01	1073.70
988.31	1073.23
988.60	1072.83
988.89	1072.27
989.18	1070.75
989.47	1070.84
989.76	1073.35
990.05	1074.84
990.34	1073.72
990.63	1072.81
990.92	1077.07
991.21	1076.58
991.51	1078.00
991.80	1078.73
992.09	1077.79
992.38	1074.31
992.67	1077.82
992.96	1077.35
993.25	1080.23
993.54	1080.84
993.83	1080.44
994.12	1077.00
994.41	1076.13
994.70	1074.19
994.99	1071.59
995.28	1071.75
995.57	1073.74
995.86	1074.10
996.15	1072.67
996.44	1077.79
996.73	1079.06
997.02	1076.55
997.31	1073.81
997.59	1075.87
997.88	1073.98
998.17	1072.48
998.46	1071.26
998.75	1072.01
999.04	1070.09
999.33	1069.06
999.62	1067.45
999.91	1068.03
1000.20	1066.25
1000.49	1064.76
1000.77	1067.71
1001.06	1069.23
1001.35	1070.63
1001.64	1074.38
1001.93	1075.48
1002.22	1074.66
1002.51	1074.70
1002.79	1075.45
1003.08	1075.57
1003.37	1076.88
1003.66	1076.97
1003.95	1075.90
1004.23	1076.08
1004.52	1076.65
1004.81	1076.41
1005.10	1076.39
1005.39	1079.99
1005.67	1078.38
1005.96	1077.16
1006.25	1077.18
1006.54	1077.96
1006.83	1075.38
1007.11	1076.76
1007.40	1073.91
1007.69	1071.54
1007.97	1068.67
1008.26	1066.96
1008.55	1064.78
1008.84	1069.84
1009.12	1072.48
1009.41	1074.24
1009.70	1075.71
1009.98	1075.41
1010.27	1072.34
1010.56	1071.29
1010.85	1069.70
1011.13	1071.24
1011.42	1073.46
1011.71	1073.28
1011.99	1076.90
1012.28	1075.78
1012.56	1076.27
1012.85	1072.64
1013.14	1074.31
1013.42	1071.29
1013.71	1071.68
1014.00	1069.77
1014.28	1072.11
1014.57	1074.07
1014.85	1073.84
1015.14	1076.11
1015.43	1076.11
1015.71	1078.19
1016.00	1072.95
1016.28	1071.10
1016.57	1069.06
1016.85	1071.08
1017.14	1068.59
1017.43	1072.71
1017.71	1076.20
1018.00	1077.77
1018.28	1076.81
1018.57	1077.00
1018.85	1077.14
1019.14	1074.56
1019.42	1075.03
1019.71	1077.11
1019.99	1078.57
1020.28	1074.12
1020.56	1074.84
1020.85	1075.62
1021.13	1072.32
1021.42	1067.87
1021.70	1069.48
1021.99	1069.60
1022.27	1069.58
1022.55	1073.84
1022.84	1082.26
>>>>>End Processed Spectral Data<<<<<
