SpectraSuite Data File
++++++++++++++++++++++++++++++++++++
Date: Mon Aug 26 10:21:51 PDT 2019
User: corrico
Dark Spectrum Present: No
Reference Spectrum Present: No
Number of Sampled Component Spectra: 1
Spectrometers: USB2+H06089
Integration Time (usec): 2000 (USB2+H06089)
Spectra Averaged: 20 (USB2+H06089)
Boxcar Smoothing: 2 (USB2+H06089)
Correct for Electrical Dark: No (USB2+H06089)
Strobe/Lamp Enabled: No (USB2+H06089)
Correct for Detector Non-linearity: No (USB2+H06089)
Correct for Stray Light: No (USB2+H06089)
Number of Pixels in Processed Spectrum: 2048
>>>>>Begin Processed Spectral Data<<<<<
339.70	1026.68
340.07	1026.68
340.45	989.65
340.82	965.54
341.19	943.40
341.57	917.00
341.94	905.72
342.31	899.09
342.69	898.34
343.06	893.36
343.43	893.76
343.81	897.22
344.18	901.27
344.55	903.40
344.93	910.49
345.30	921.19
345.67	927.81
346.04	936.89
346.42	942.98
346.79	947.12
347.16	950.16
347.54	960.04
347.91	967.37
348.28	978.02
348.65	992.25
349.03	1000.02
349.40	1005.89
349.77	1013.52
350.14	1021.20
350.52	1025.74
350.89	1033.18
351.26	1036.34
351.63	1041.96
352.01	1046.83
352.38	1050.85
352.75	1054.15
353.12	1062.70
353.50	1062.95
353.87	1065.81
354.24	1066.93
354.61	1070.54
354.98	1070.26
355.36	1071.82
355.73	1074.54
356.10	1077.82
356.47	1079.88
356.84	1080.18
357.22	1080.77
357.59	1078.17
357.96	1076.60
358.33	1075.38
358.70	1076.76
359.08	1077.79
359.45	1078.31
359.82	1079.13
360.19	1076.44
360.56	1076.79
360.94	1076.01
361.31	1078.47
361.68	1078.43
362.05	1077.25
362.42	1072.11
362.79	1072.46
363.16	1067.54
363.54	1064.69
363.91	1065.69
364.28	1068.15
364.65	1067.07
365.02	1067.75
365.39	1069.18
365.76	1072.22
366.14	1071.10
366.51	1072.78
366.88	1073.42
367.25	1070.21
367.62	1069.02
367.99	1070.40
368.36	1069.18
368.73	1067.05
369.10	1067.68
369.48	1067.87
369.85	1067.00
370.22	1066.61
370.59	1068.59
370.96	1069.88
371.33	1069.18
371.70	1069.46
372.07	1067.80
372.44	1067.42
372.81	1066.37
373.18	1064.78
373.55	1063.59
373.93	1065.11
374.30	1065.74
374.67	1066.77
375.04	1064.83
375.41	1067.54
375.78	1066.47
376.15	1066.11
376.52	1066.84
376.89	1070.40
377.26	1067.28
377.63	1067.45
378.00	1067.80
378.37	1067.21
378.74	1066.58
379.11	1068.97
379.48	1067.85
379.85	1067.12
380.22	1067.80
380.59	1066.23
380.96	1063.96
381.33	1064.94
381.70	1063.66
382.07	1062.65
382.44	1063.38
382.81	1063.73
383.18	1065.13
383.55	1069.25
383.92	1072.39
384.29	1072.88
384.66	1073.11
385.03	1074.00
385.40	1072.55
385.77	1071.94
386.14	1071.22
386.51	1071.54
386.88	1071.08
387.25	1076.34
387.62	1073.77
387.99	1074.80
388.36	1077.00
388.73	1077.25
389.10	1068.36
389.46	1069.20
389.83	1068.43
390.20	1069.86
390.57	1068.38
390.94	1071.66
391.31	1072.11
391.68	1073.67
392.05	1074.45
392.42	1074.56
392.79	1074.82
393.16	1074.87
393.53	1074.21
393.89	1069.51
394.26	1067.31
394.63	1066.14
395.00	1068.31
395.37	1068.85
395.74	1068.57
396.11	1073.18
396.48	1075.92
396.84	1073.25
397.21	1074.52
397.58	1079.22
397.95	1081.44
398.32	1077.96
398.69	1079.15
399.06	1080.09
399.42	1077.37
399.79	1072.74
400.16	1072.06
400.53	1073.09
400.90	1071.61
401.27	1072.64
401.64	1071.19
402.00	1071.05
402.37	1068.90
402.74	1069.55
403.11	1066.25
403.48	1070.84
403.84	1072.60
404.21	1076.86
404.58	1075.15
404.95	1079.97
405.32	1080.51
405.68	1080.41
406.05	1076.74
406.42	1076.46
406.79	1073.95
407.16	1074.38
407.52	1075.59
407.89	1075.36
408.26	1075.55
408.63	1076.34
408.99	1071.33
409.36	1069.79
409.73	1072.06
410.10	1074.82
410.47	1075.73
410.83	1078.40
411.20	1079.27
411.57	1078.31
411.94	1078.40
412.30	1078.14
412.67	1075.48
413.04	1075.29
413.40	1075.50
413.77	1074.05
414.14	1073.35
414.51	1074.07
414.87	1071.90
415.24	1071.90
415.61	1074.54
415.97	1073.95
416.34	1077.09
416.71	1082.19
417.08	1082.69
417.44	1080.32
417.81	1082.59
418.18	1081.44
418.54	1080.09
418.91	1081.91
419.28	1084.18
419.64	1083.93
420.01	1083.74
420.38	1081.44
420.74	1080.98
421.11	1077.04
421.48	1078.89
421.84	1079.62
422.21	1083.62
422.58	1085.17
422.94	1086.85
423.31	1082.69
423.68	1084.11
424.04	1084.44
424.41	1083.22
424.77	1085.26
425.14	1088.56
425.51	1089.05
425.87	1088.09
426.24	1089.64
426.61	1088.49
426.97	1090.95
427.34	1097.06
427.70	1101.83
428.07	1103.49
428.44	1106.98
428.80	1105.20
429.17	1103.09
429.53	1101.46
429.90	1100.96
430.27	1102.65
430.63	1108.81
431.00	1110.77
431.36	1114.45
431.73	1115.34
432.09	1119.15
432.46	1122.75
432.83	1126.17
433.19	1129.99
433.56	1139.05
433.92	1142.74
434.29	1141.90
434.65	1144.31
435.02	1147.14
435.38	1148.17
435.75	1151.82
436.11	1156.83
436.48	1165.35
436.84	1171.02
437.21	1179.12
437.57	1184.97
437.94	1197.25
438.30	1205.12
438.67	1214.78
439.03	1225.43
439.40	1239.06
439.76	1245.31
440.13	1256.49
440.49	1272.08
440.86	1282.19
441.22	1295.09
441.59	1310.21
441.95	1326.40
442.32	1341.48
442.68	1361.09
443.05	1378.55
443.41	1398.35
443.78	1415.37
444.14	1433.98
444.51	1450.71
444.87	1475.78
445.24	1501.76
445.60	1527.08
445.96	1549.25
446.33	1581.97
446.69	1609.91
447.06	1641.46
447.42	1674.49
447.79	1718.59
448.15	1759.52
448.51	1796.06
448.88	1841.74
449.24	1884.46
449.61	1932.02
449.97	1981.66
450.33	2041.58
450.70	2095.58
451.06	2158.58
451.43	2213.66
451.79	2277.53
452.15	2344.07
452.52	2413.47
452.88	2489.16
453.24	2571.55
453.61	2664.96
453.97	2767.05
454.34	2872.70
454.70	2987.72
455.06	3096.04
455.43	3191.86
455.79	3281.10
456.15	3381.54
456.52	3472.70
456.88	3601.48
457.24	3743.10
457.61	3895.54
457.97	4034.57
458.33	4190.99
458.70	4325.24
459.06	4461.04
459.42	4617.39
459.79	4765.47
460.15	4921.28
460.51	5079.69
460.88	5234.23
461.24	5377.17
461.60	5547.56
461.96	5706.83
462.33	5869.71
462.69	6016.77
463.05	6165.95
463.42	6304.86
463.78	6442.16
464.14	6553.10
464.50	6693.63
464.87	6788.26
465.23	6850.65
465.59	6910.78
465.95	6989.54
466.32	7030.92
466.68	7090.79
467.04	7139.73
467.40	7174.19
467.77	7180.58
468.13	7187.41
468.49	7186.76
468.85	7189.49
469.22	7178.49
469.58	7143.60
469.94	7122.60
470.30	7058.92
470.66	6979.76
471.03	6899.03
471.39	6849.62
471.75	6742.99
472.11	6659.74
472.47	6598.11
472.84	6521.27
473.20	6410.03
473.56	6331.52
473.92	6240.57
474.28	6159.42
474.65	6077.15
475.01	6009.84
475.37	5919.50
475.73	5838.37
476.09	5751.30
476.45	5666.53
476.81	5574.76
477.18	5500.75
477.54	5433.41
477.90	5362.82
478.26	5277.21
478.62	5207.65
478.98	5149.01
479.34	5086.59
479.71	5018.27
480.07	4970.36
480.43	4923.29
480.79	4864.45
481.15	4803.69
481.51	4753.75
481.87	4703.99
482.23	4639.25
482.59	4584.57
482.96	4532.47
483.32	4479.53
483.68	4425.30
484.04	4386.91
484.40	4339.40
484.76	4290.65
485.12	4230.26
485.48	4172.87
485.84	4102.70
486.20	4031.85
486.56	3957.49
486.92	3897.11
487.28	3829.49
487.64	3766.02
488.00	3709.21
488.37	3655.24
488.73	3598.76
489.09	3535.59
489.45	3480.91
489.81	3410.35
490.17	3351.95
490.53	3279.39
490.89	3222.52
491.25	3151.04
491.61	3097.46
491.97	3032.66
492.33	2985.92
492.69	2933.88
493.05	2891.92
493.41	2837.22
493.77	2789.94
494.13	2737.98
494.49	2689.53
494.85	2640.57
495.21	2601.15
495.57	2555.14
495.93	2513.27
496.29	2471.93
496.64	2430.20
497.00	2383.02
497.36	2346.36
497.72	2303.95
498.08	2269.29
498.44	2233.48
498.80	2206.68
499.16	2180.23
499.52	2154.21
499.88	2120.29
500.24	2094.17
500.60	2063.07
500.96	2033.36
501.32	2001.20
501.68	1974.59
502.03	1944.00
502.39	1917.69
502.75	1890.85
503.11	1870.65
503.47	1844.81
503.83	1825.31
504.19	1803.38
504.55	1786.13
504.91	1763.73
505.26	1746.51
505.62	1730.55
505.98	1715.14
506.34	1690.22
506.70	1667.96
507.06	1645.79
507.42	1624.99
507.78	1601.14
508.13	1582.86
508.49	1570.85
508.85	1556.20
509.21	1541.78
509.57	1529.33
509.93	1521.63
510.28	1503.91
510.64	1491.74
511.00	1476.74
511.36	1462.81
511.72	1446.61
512.07	1436.95
512.43	1424.40
512.79	1410.31
513.15	1400.97
513.51	1389.74
513.86	1379.79
514.22	1366.73
514.58	1358.42
514.94	1346.79
515.30	1338.90
515.65	1329.07
516.01	1324.93
516.37	1317.53
516.73	1310.63
517.08	1303.98
517.44	1294.85
517.80	1286.43
518.16	1280.04
518.51	1277.65
518.87	1268.62
519.23	1264.01
519.59	1259.56
519.94	1255.77
520.30	1246.24
520.66	1241.33
521.01	1238.78
521.37	1233.86
521.73	1224.43
522.09	1222.91
522.44	1218.93
522.80	1214.62
523.16	1208.18
523.51	1205.00
523.87	1201.65
524.23	1194.21
524.58	1187.96
524.94	1185.46
525.30	1182.42
525.65	1176.17
526.01	1176.70
526.37	1174.22
526.72	1170.01
527.08	1169.78
527.44	1165.31
527.79	1162.99
528.15	1162.61
528.51	1162.73
528.86	1159.92
529.22	1163.74
529.58	1163.78
529.93	1159.76
530.29	1156.41
530.65	1156.53
531.00	1149.65
531.36	1144.85
531.71	1142.20
532.07	1142.63
532.43	1139.23
532.78	1137.80
533.14	1136.40
533.49	1138.48
533.85	1133.10
534.21	1130.31
534.56	1126.85
534.92	1126.62
535.27	1122.50
535.63	1123.76
535.98	1124.35
536.34	1124.67
536.69	1120.91
537.05	1119.88
537.41	1118.07
537.76	1115.38
538.12	1116.95
538.47	1117.14
538.83	1116.27
539.18	1113.86
539.54	1112.29
539.89	1108.50
540.25	1107.59
540.60	1107.21
540.96	1107.24
541.31	1106.68
541.67	1107.64
542.02	1103.87
542.38	1099.91
542.73	1100.43
543.09	1097.41
543.44	1094.97
543.80	1096.92
544.15	1096.52
544.51	1095.14
544.86	1098.23
545.22	1099.35
545.57	1097.08
545.93	1098.44
546.28	1098.27
546.64	1094.74
546.99	1092.09
547.35	1091.49
547.70	1089.75
548.05	1090.55
548.41	1092.09
548.76	1093.57
549.12	1095.18
549.47	1093.33
549.83	1090.85
550.18	1092.66
550.53	1092.73
550.89	1093.83
551.24	1093.03
551.60	1095.44
551.95	1092.63
552.30	1088.93
552.66	1088.47
553.01	1090.32
553.37	1086.73
553.72	1086.69
554.07	1093.33
554.43	1091.18
554.78	1091.27
555.13	1090.55
555.49	1089.80
555.84	1087.53
556.19	1085.80
556.55	1086.97
556.90	1086.57
557.26	1085.82
557.61	1085.56
557.96	1087.86
558.32	1087.09
558.67	1087.97
559.02	1087.27
559.37	1085.00
559.73	1082.01
560.08	1079.46
560.43	1079.24
560.79	1080.70
561.14	1081.56
561.49	1083.43
561.85	1087.67
562.20	1087.93
562.55	1084.96
562.90	1084.14
563.26	1083.60
563.61	1082.57
563.96	1081.12
564.32	1079.85
564.67	1078.38
565.02	1076.30
565.37	1077.11
565.73	1076.72
566.08	1080.67
566.43	1078.78
566.78	1081.47
567.14	1080.02
567.49	1080.60
567.84	1081.30
568.19	1083.55
568.54	1083.69
568.90	1081.68
569.25	1081.66
569.60	1079.15
569.95	1080.51
570.31	1081.51
570.66	1081.16
571.01	1078.40
571.36	1080.04
571.71	1077.93
572.06	1076.58
572.42	1075.57
572.77	1081.35
573.12	1080.53
573.47	1082.64
573.82	1084.49
574.18	1085.94
574.53	1084.56
574.88	1084.23
575.23	1082.31
575.58	1078.66
575.93	1078.21
576.28	1077.37
576.64	1077.14
576.99	1078.82
577.34	1079.92
577.69	1082.29
578.04	1081.96
578.39	1081.00
578.74	1077.11
579.09	1077.16
579.44	1073.44
579.80	1072.39
580.15	1074.45
580.50	1076.32
580.85	1076.30
581.20	1079.85
581.55	1082.26
581.90	1081.07
582.25	1082.15
582.60	1081.44
582.95	1080.18
583.30	1077.61
583.65	1077.04
584.00	1076.83
584.35	1078.43
584.71	1077.25
585.06	1079.48
585.41	1081.68
585.76	1081.07
586.11	1077.82
586.46	1079.92
586.81	1076.69
587.16	1074.49
587.51	1074.66
587.86	1077.47
588.21	1075.64
588.56	1076.97
588.91	1078.61
589.26	1079.62
589.61	1079.01
589.96	1079.76
590.31	1082.99
590.66	1082.40
591.01	1081.14
591.36	1082.05
591.71	1082.66
592.06	1078.66
592.41	1076.72
592.76	1076.93
593.10	1075.45
593.45	1072.39
593.80	1073.46
594.15	1073.74
594.50	1070.40
594.85	1068.22
595.20	1071.64
595.55	1075.41
595.90	1075.62
596.25	1077.51
596.60	1080.88
596.95	1080.09
597.30	1076.44
597.64	1087.04
597.99	1089.61
598.34	1090.13
598.69	1091.13
599.04	1092.02
599.39	1081.33
599.74	1078.31
600.09	1078.82
600.44	1079.01
600.78	1077.11
601.13	1080.84
601.48	1080.46
601.83	1077.82
602.18	1076.81
602.53	1078.07
602.88	1074.56
603.22	1076.90
603.57	1074.66
603.92	1075.41
604.27	1075.66
604.62	1078.05
604.97	1077.63
605.31	1080.18
605.66	1077.21
606.01	1075.99
606.36	1076.30
606.71	1078.36
607.05	1079.55
607.40	1080.27
607.75	1084.65
608.10	1082.10
608.44	1080.72
608.79	1079.31
609.14	1079.57
609.49	1079.24
609.84	1081.94
610.18	1080.44
610.53	1082.17
610.88	1083.64
611.23	1080.41
611.57	1078.89
611.92	1080.58
612.27	1080.56
612.62	1079.08
612.96	1075.99
613.31	1075.57
613.66	1077.65
614.00	1077.70
614.35	1078.59
614.70	1081.70
615.05	1081.49
615.39	1078.73
615.74	1078.99
616.09	1081.21
616.43	1082.94
616.78	1082.45
617.13	1082.97
617.47	1081.00
617.82	1079.29
618.17	1075.59
618.51	1076.18
618.86	1074.98
619.21	1073.88
619.55	1073.81
619.90	1075.87
620.25	1075.20
620.59	1074.54
620.94	1076.34
621.29	1072.34
621.63	1071.22
621.98	1071.66
622.32	1074.12
622.67	1075.27
623.02	1077.61
623.36	1078.07
623.71	1080.51
624.05	1081.84
624.40	1081.05
624.75	1081.80
625.09	1082.31
625.44	1081.23
625.78	1076.25
626.13	1077.51
626.48	1075.27
626.82	1073.51
627.17	1074.33
627.51	1075.55
627.86	1075.01
628.20	1079.43
628.55	1080.30
628.89	1078.75
629.24	1076.83
629.58	1072.92
629.93	1070.72
630.28	1071.38
630.62	1072.20
630.97	1076.81
631.31	1080.70
631.66	1081.02
632.00	1081.37
632.35	1077.54
632.69	1073.79
633.04	1073.11
633.38	1074.56
633.73	1075.85
634.07	1076.53
634.42	1080.16
634.76	1079.01
635.11	1076.15
635.45	1075.20
635.79	1077.35
636.14	1076.62
636.48	1077.14
636.83	1081.23
637.17	1079.67
637.52	1081.42
637.86	1080.34
638.21	1082.97
638.55	1078.68
638.89	1080.20
639.24	1077.98
639.58	1078.45
639.93	1072.64
640.27	1074.17
640.61	1074.03
640.96	1075.94
641.30	1075.48
641.65	1078.12
641.99	1077.33
642.33	1077.96
642.68	1076.20
643.02	1076.18
643.37	1076.11
643.71	1078.07
644.05	1077.44
644.40	1080.70
644.74	1081.96
645.08	1082.90
645.43	1083.41
645.77	1083.57
646.11	1080.27
646.46	1078.89
646.80	1081.09
647.14	1080.84
647.49	1078.82
647.83	1080.67
648.17	1079.10
648.52	1075.48
648.86	1072.67
649.20	1074.10
649.55	1071.82
649.89	1072.60
650.23	1076.08
650.57	1075.57
650.92	1075.48
651.26	1074.66
651.60	1075.05
651.95	1071.73
652.29	1074.98
652.63	1074.52
652.97	1077.70
653.32	1078.64
653.66	1077.89
654.00	1075.52
654.34	1077.72
654.69	1074.84
655.03	1074.66
655.37	1074.19
655.71	1076.67
656.05	1075.22
656.40	1076.83
656.74	1078.31
657.08	1081.49
657.42	1079.17
657.76	1076.69
658.11	1076.55
658.45	1075.15
658.79	1072.22
659.13	1073.58
659.47	1076.15
659.82	1075.31
660.16	1075.15
660.50	1076.06
660.84	1074.84
661.18	1073.28
661.52	1071.80
661.87	1072.69
662.21	1073.00
662.55	1073.65
662.89	1074.68
663.23	1075.29
663.57	1074.03
663.91	1072.55
664.25	1071.03
664.60	1072.43
664.94	1073.28
665.28	1072.18
665.62	1074.17
665.96	1075.80
666.30	1075.31
666.64	1077.72
666.98	1078.68
667.32	1080.27
667.66	1078.66
668.01	1080.86
668.35	1078.07
668.69	1078.59
669.03	1078.96
669.37	1079.50
669.71	1076.72
670.05	1079.69
670.39	1080.23
670.73	1078.31
671.07	1076.15
671.41	1074.73
671.75	1070.16
672.09	1068.64
672.43	1065.04
672.77	1068.76
673.11	1070.75
673.45	1075.20
673.79	1075.83
674.13	1080.13
674.47	1078.92
674.81	1076.08
675.15	1073.51
675.49	1072.27
675.83	1072.67
676.17	1073.07
676.51	1075.13
676.85	1073.23
677.19	1075.85
677.53	1075.50
677.87	1076.53
678.21	1074.87
678.55	1079.15
678.89	1079.85
679.23	1079.46
679.57	1075.85
679.90	1076.60
680.24	1076.95
680.58	1073.02
680.92	1074.42
681.26	1075.83
681.60	1078.33
681.94	1074.59
682.28	1078.54
682.62	1076.53
682.96	1080.95
683.29	1080.16
683.63	1082.80
683.97	1082.36
684.31	1083.93
684.65	1084.60
684.99	1082.40
685.33	1079.46
685.67	1076.25
686.00	1075.83
686.34	1072.08
686.68	1074.45
687.02	1077.75
687.36	1078.21
687.70	1075.34
688.03	1076.48
688.37	1074.89
688.71	1074.14
689.05	1075.15
689.39	1075.64
689.72	1074.40
690.06	1075.73
690.40	1075.41
690.74	1076.53
691.08	1076.41
691.41	1077.23
691.75	1078.54
692.09	1079.17
692.43	1079.69
692.76	1083.22
693.10	1082.45
693.44	1080.53
693.78	1080.37
694.11	1076.55
694.45	1075.27
694.79	1075.43
695.13	1078.00
695.46	1076.97
695.80	1080.34
696.14	1079.48
696.48	1078.00
696.81	1073.95
697.15	1073.46
697.49	1074.54
697.82	1072.22
698.16	1072.25
698.50	1072.08
698.83	1071.38
699.17	1066.35
699.51	1069.27
699.84	1072.34
700.18	1073.70
700.52	1076.72
700.85	1079.03
701.19	1076.79
701.53	1077.61
701.86	1077.98
702.20	1075.90
702.54	1077.07
702.87	1073.35
703.21	1069.32
703.55	1066.07
703.88	1066.21
704.22	1067.82
704.55	1074.33
704.89	1074.24
705.23	1075.64
705.56	1076.97
705.90	1077.25
706.23	1076.06
706.57	1076.27
706.91	1079.43
707.24	1077.33
707.58	1075.80
707.91	1075.85
708.25	1076.41
708.58	1076.86
708.92	1079.20
709.26	1077.42
709.59	1078.21
709.93	1079.13
710.26	1079.17
710.60	1077.54
710.93	1079.88
711.27	1079.29
711.60	1079.69
711.94	1078.66
712.27	1076.30
712.61	1076.74
712.94	1077.68
713.28	1075.55
713.61	1074.26
713.95	1079.90
714.28	1076.44
714.62	1074.26
714.95	1075.38
715.29	1073.67
715.62	1068.78
715.96	1071.92
716.29	1071.99
716.63	1070.12
716.96	1071.92
717.29	1073.60
717.63	1073.07
717.96	1071.50
718.30	1073.74
718.63	1075.66
718.97	1077.16
719.30	1073.35
719.63	1077.09
719.97	1079.67
720.30	1074.61
720.64	1073.79
720.97	1075.43
721.30	1076.69
721.64	1072.36
721.97	1074.66
722.31	1073.79
722.64	1072.60
722.97	1071.71
723.31	1074.21
723.64	1076.76
723.97	1078.40
724.31	1080.04
724.64	1077.63
724.98	1076.93
725.31	1077.47
725.64	1074.07
725.98	1074.52
726.31	1075.41
726.64	1075.92
726.97	1075.01
727.31	1078.71
727.64	1076.79
727.97	1077.84
728.31	1077.79
728.64	1073.77
728.97	1074.35
729.31	1077.09
729.64	1077.21
729.97	1076.81
730.30	1083.34
730.64	1082.31
730.97	1080.98
731.30	1081.16
731.63	1080.04
731.97	1077.61
732.30	1079.92
732.63	1080.46
732.96	1079.06
733.30	1075.52
733.63	1071.80
733.96	1069.30
734.29	1070.35
734.63	1070.56
734.96	1074.49
735.29	1075.48
735.62	1074.19
735.95	1072.88
736.29	1073.21
736.62	1074.73
736.95	1076.53
737.28	1077.51
737.61	1077.65
737.94	1078.00
738.28	1075.66
738.61	1075.29
738.94	1074.63
739.27	1075.94
739.60	1077.47
739.93	1079.60
740.27	1079.78
740.60	1080.67
740.93	1080.04
741.26	1079.13
741.59	1081.77
741.92	1079.17
742.25	1077.96
742.58	1077.58
742.91	1077.44
743.25	1073.25
743.58	1079.06
743.91	1080.95
744.24	1080.16
744.57	1078.31
744.90	1077.49
745.23	1075.34
745.56	1074.61
745.89	1071.61
746.22	1072.53
746.55	1073.88
746.88	1073.09
747.21	1072.06
747.54	1075.52
747.87	1075.85
748.20	1078.03
748.53	1079.97
748.87	1081.82
749.20	1083.08
749.53	1080.30
749.86	1077.63
750.19	1074.80
750.52	1071.43
750.85	1070.44
751.18	1071.43
751.51	1072.48
751.84	1073.58
752.16	1077.02
752.49	1074.26
752.82	1075.80
753.15	1075.69
753.48	1072.29
753.81	1070.87
754.14	1071.57
754.47	1071.29
754.80	1072.08
755.13	1073.18
755.46	1072.62
755.79	1077.28
756.12	1075.05
756.45	1071.12
756.78	1072.20
757.11	1073.07
757.43	1069.93
757.76	1070.68
758.09	1074.40
758.42	1075.71
758.75	1073.63
759.08	1073.44
759.41	1076.11
759.74	1074.84
760.07	1072.97
760.39	1070.33
760.72	1072.08
761.05	1066.51
761.38	1065.97
761.71	1068.85
762.04	1072.48
762.36	1071.99
762.69	1076.81
763.02	1079.57
763.35	1075.85
763.68	1073.63
764.01	1070.94
764.33	1071.40
764.66	1068.17
764.99	1072.29
765.32	1076.76
765.65	1081.33
765.97	1079.81
766.30	1079.29
766.63	1077.28
766.96	1076.48
767.28	1074.66
767.61	1074.07
767.94	1076.41
768.27	1076.76
768.59	1077.37
768.92	1075.15
769.25	1075.92
769.58	1075.34
769.90	1077.23
770.23	1077.18
770.56	1080.13
770.89	1082.59
771.21	1082.31
771.54	1078.19
771.87	1073.35
772.19	1072.67
772.52	1072.64
772.85	1076.13
773.17	1076.86
773.50	1080.39
773.83	1079.01
774.15	1077.16
774.48	1072.81
774.81	1074.59
775.13	1074.24
775.46	1074.94
775.79	1075.66
776.11	1076.53
776.44	1075.38
776.77	1074.77
777.09	1075.03
777.42	1074.10
777.74	1079.83
778.07	1079.13
778.40	1079.53
778.72	1079.90
779.05	1080.18
779.37	1073.21
779.70	1073.28
780.03	1075.34
780.35	1076.74
780.68	1076.18
781.00	1080.18
781.33	1084.11
781.65	1079.88
781.98	1079.38
782.31	1077.07
782.63	1076.41
782.96	1073.42
783.28	1073.39
783.61	1072.69
783.93	1075.05
784.26	1074.75
784.58	1075.10
784.91	1075.90
785.23	1076.95
785.56	1077.04
785.88	1076.48
786.21	1074.17
786.53	1075.34
786.86	1072.15
787.18	1071.68
787.51	1068.74
787.83	1072.08
788.16	1073.21
788.48	1075.22
788.81	1078.24
789.13	1081.44
789.46	1082.47
789.78	1083.74
790.10	1084.46
790.43	1080.48
790.75	1077.33
791.08	1074.61
791.40	1074.75
791.73	1077.30
792.05	1077.44
792.37	1079.62
792.70	1080.18
793.02	1076.93
793.35	1074.63
793.67	1075.05
793.99	1075.34
794.32	1078.10
794.64	1079.48
794.96	1076.67
795.29	1078.21
795.61	1080.18
795.93	1078.12
796.26	1078.99
796.58	1080.77
796.91	1078.52
797.23	1076.20
797.55	1076.41
797.87	1075.05
798.20	1075.22
798.52	1078.68
798.84	1075.85
799.17	1074.33
799.49	1073.44
799.81	1071.24
800.14	1069.51
800.46	1070.87
800.78	1071.03
801.10	1073.79
801.43	1075.62
801.75	1077.18
802.07	1076.95
802.40	1075.36
802.72	1073.49
803.04	1072.11
803.36	1069.44
803.69	1070.42
804.01	1071.33
804.33	1070.23
804.65	1070.75
804.97	1072.78
805.30	1072.50
805.62	1071.45
805.94	1068.76
806.26	1068.29
806.58	1066.25
806.91	1068.64
807.23	1073.25
807.55	1078.24
807.87	1078.73
808.19	1081.02
808.52	1080.25
808.84	1076.62
809.16	1074.75
809.48	1074.89
809.80	1071.90
810.12	1070.44
810.44	1072.39
810.77	1075.43
811.09	1074.12
811.41	1075.15
811.73	1077.02
812.05	1077.79
812.37	1074.28
812.69	1074.66
813.01	1074.45
813.33	1073.95
813.66	1071.54
813.98	1073.65
814.30	1075.20
814.62	1077.04
814.94	1074.94
815.26	1073.84
815.58	1075.13
815.90	1076.34
816.22	1075.99
816.54	1078.19
816.86	1080.18
817.18	1077.70
817.50	1076.27
817.82	1076.55
818.14	1074.05
818.46	1073.74
818.78	1075.62
819.10	1077.33
819.42	1076.81
819.74	1078.96
820.06	1080.32
820.38	1075.76
820.70	1072.41
821.02	1072.76
821.34	1072.13
821.66	1072.34
821.98	1079.46
822.30	1082.24
822.62	1080.51
822.94	1081.30
823.26	1079.97
823.58	1075.48
823.90	1073.56
824.22	1072.92
824.54	1071.12
824.86	1072.69
825.18	1072.76
825.50	1072.88
825.81	1073.60
826.13	1073.51
826.45	1071.43
826.77	1073.44
827.09	1074.68
827.41	1076.37
827.73	1077.84
828.05	1079.22
828.36	1078.68
828.68	1079.36
829.00	1076.83
829.32	1079.36
829.64	1079.55
829.96	1077.40
830.28	1077.77
830.59	1077.75
830.91	1075.94
831.23	1074.17
831.55	1072.43
831.87	1072.25
832.19	1075.20
832.50	1075.80
832.82	1075.64
833.14	1081.05
833.46	1082.36
833.78	1080.65
834.09	1077.86
834.41	1079.22
834.73	1075.83
835.05	1069.60
835.36	1070.09
835.68	1072.18
836.00	1071.47
836.32	1073.63
836.63	1077.68
836.95	1076.44
837.27	1076.69
837.59	1074.77
837.90	1072.60
838.22	1069.86
838.54	1071.40
838.85	1071.38
839.17	1070.07
839.49	1067.28
839.80	1069.84
840.12	1069.91
840.44	1069.02
840.76	1069.30
841.07	1069.04
841.39	1068.38
841.71	1067.03
842.02	1064.66
842.34	1069.27
842.65	1072.74
842.97	1073.74
843.29	1073.18
843.60	1072.76
843.92	1072.04
844.24	1074.63
844.55	1073.14
844.87	1073.77
845.18	1077.28
845.50	1078.24
845.82	1078.14
846.13	1077.09
846.45	1078.71
846.76	1075.85
847.08	1074.03
847.40	1072.50
847.71	1070.75
848.03	1068.71
848.34	1072.36
848.66	1071.01
848.97	1068.34
849.29	1072.41
849.60	1073.79
849.92	1074.26
850.24	1076.53
850.55	1077.89
850.87	1078.03
851.18	1077.91
851.50	1079.60
851.81	1078.54
852.13	1078.40
852.44	1075.13
852.76	1074.10
853.07	1070.61
853.39	1070.23
853.70	1072.15
854.01	1073.88
854.33	1074.59
854.64	1074.31
854.96	1075.38
855.27	1075.20
855.59	1076.01
855.90	1074.26
856.22	1075.22
856.53	1075.22
856.84	1074.54
857.16	1074.87
857.47	1078.14
857.79	1077.11
858.10	1077.49
858.41	1077.56
858.73	1080.02
859.04	1078.26
859.36	1075.90
859.67	1076.90
859.98	1076.74
860.30	1072.53
860.61	1070.70
860.92	1069.51
861.24	1068.15
861.55	1070.61
861.87	1073.02
862.18	1078.71
862.49	1081.84
862.81	1081.70
863.12	1078.78
863.43	1077.51
863.74	1073.60
864.06	1076.67
864.37	1075.55
864.68	1076.58
865.00	1076.18
865.31	1077.02
865.62	1075.64
865.94	1076.95
866.25	1078.33
866.56	1080.44
866.87	1081.00
867.19	1079.01
867.50	1077.51
867.81	1073.72
868.12	1076.37
868.44	1076.34
868.75	1078.64
869.06	1078.52
869.37	1082.17
869.68	1078.07
870.00	1074.77
870.31	1073.56
870.62	1074.87
870.93	1075.13
871.24	1076.55
871.56	1078.05
871.87	1075.92
872.18	1076.32
872.49	1078.59
872.80	1075.45
873.12	1076.23
873.43	1078.05
873.74	1076.79
874.05	1070.16
874.36	1073.79
874.67	1074.59
874.98	1074.49
875.29	1074.26
875.61	1075.57
875.92	1070.89
876.23	1074.40
876.54	1073.23
876.85	1073.09
877.16	1078.71
877.47	1080.98
877.78	1074.42
878.09	1073.49
878.40	1074.00
878.72	1070.58
879.03	1070.44
879.34	1074.12
879.65	1078.75
879.96	1078.71
880.27	1075.38
880.58	1077.49
880.89	1076.93
881.20	1072.92
881.51	1073.70
881.82	1078.17
882.13	1077.30
882.44	1076.53
882.75	1076.23
883.06	1077.21
883.37	1075.20
883.68	1077.18
883.99	1077.82
884.30	1079.50
884.61	1080.88
884.92	1082.43
885.23	1079.13
885.54	1080.56
885.85	1079.34
886.16	1077.02
886.47	1077.63
886.78	1078.73
887.08	1075.69
887.39	1078.00
887.70	1076.27
888.01	1072.32
888.32	1070.37
888.63	1071.31
888.94	1072.18
889.25	1073.14
889.56	1079.62
889.87	1080.18
890.17	1078.52
890.48	1072.15
890.79	1074.19
891.10	1069.48
891.41	1073.58
891.72	1073.72
892.03	1078.59
892.34	1076.86
892.64	1078.10
892.95	1073.84
893.26	1075.15
893.57	1074.89
893.88	1073.79
894.18	1075.08
894.49	1073.98
894.80	1074.03
895.11	1075.90
895.42	1080.06
895.72	1078.05
896.03	1079.64
896.34	1081.84
896.65	1078.17
896.96	1076.93
897.26	1076.72
897.57	1077.02
897.88	1074.61
898.19	1073.67
898.49	1069.16
898.80	1068.85
899.11	1068.92
899.41	1068.83
899.72	1069.67
900.03	1070.51
900.34	1069.84
900.64	1068.48
900.95	1071.43
901.26	1074.61
901.56	1080.13
901.87	1080.95
902.18	1080.11
902.48	1078.66
902.79	1078.26
903.10	1074.87
903.40	1071.50
903.71	1071.92
904.02	1072.25
904.32	1070.65
904.63	1071.52
904.94	1072.41
905.24	1072.04
905.55	1071.68
905.85	1072.41
906.16	1070.42
906.47	1071.73
906.77	1073.84
907.08	1071.85
907.38	1071.03
907.69	1071.01
908.00	1071.08
908.30	1071.38
908.61	1071.90
908.91	1071.17
909.22	1072.43
909.52	1073.04
909.83	1074.77
910.14	1071.92
910.44	1073.37
910.75	1073.14
911.05	1076.95
911.36	1075.41
911.66	1080.23
911.97	1083.20
912.27	1081.89
912.58	1078.12
912.88	1080.18
913.19	1079.95
913.49	1080.34
913.80	1082.26
914.10	1079.34
914.41	1076.27
914.71	1071.94
915.01	1065.18
915.32	1063.89
915.62	1067.40
915.93	1069.18
916.23	1070.82
916.54	1075.48
916.84	1079.88
917.15	1079.57
917.45	1078.96
917.75	1079.90
918.06	1080.53
918.36	1076.74
918.67	1075.73
918.97	1075.13
919.27	1075.94
919.58	1075.01
919.88	1076.53
920.18	1075.85
920.49	1074.17
920.79	1074.14
921.10	1072.34
921.40	1071.29
921.70	1072.46
922.01	1074.47
922.31	1075.17
922.61	1076.88
922.92	1077.96
923.22	1080.48
923.52	1078.28
923.82	1075.85
924.13	1073.53
924.43	1073.56
924.73	1071.75
925.04	1072.97
925.34	1076.58
925.64	1078.17
925.94	1077.58
926.25	1078.10
926.55	1081.42
926.85	1079.13
927.15	1077.16
927.46	1076.86
927.76	1074.03
928.06	1070.51
928.36	1070.30
928.67	1070.75
928.97	1068.95
929.27	1069.62
929.57	1071.54
929.87	1070.21
930.18	1071.26
930.48	1073.02
930.78	1073.39
931.08	1071.43
931.38	1073.58
931.69	1073.81
931.99	1073.72
932.29	1072.85
932.59	1072.97
932.89	1072.43
933.19	1071.45
933.49	1069.93
933.80	1071.12
934.10	1072.57
934.40	1072.22
934.70	1074.07
935.00	1074.35
935.30	1075.99
935.60	1073.70
935.90	1072.74
936.20	1075.15
936.50	1074.56
936.81	1071.54
937.11	1074.56
937.41	1075.36
937.71	1071.12
938.01	1070.47
938.31	1071.59
938.61	1071.17
938.91	1071.43
939.21	1070.98
939.51	1071.45
939.81	1074.84
940.11	1071.31
940.41	1069.25
940.71	1070.09
941.01	1071.45
941.31	1066.18
941.61	1072.83
941.91	1074.17
942.21	1074.49
942.51	1072.55
942.81	1073.63
943.11	1067.35
943.41	1067.38
943.71	1069.72
944.01	1072.67
944.31	1075.71
944.61	1079.53
944.90	1080.41
945.20	1077.23
945.50	1073.79
945.80	1073.72
946.10	1072.97
946.40	1071.68
946.70	1072.60
947.00	1074.12
947.30	1071.90
947.60	1071.31
947.89	1074.00
948.19	1075.92
948.49	1081.09
948.79	1081.73
949.09	1083.13
949.39	1081.19
949.69	1080.20
949.98	1077.33
950.28	1077.49
950.58	1074.70
950.88	1073.98
951.18	1074.63
951.48	1074.68
951.77	1075.31
952.07	1080.67
952.37	1083.32
952.67	1083.36
952.97	1080.88
953.26	1081.54
953.56	1077.82
953.86	1078.50
954.16	1075.69
954.45	1073.35
954.75	1071.24
955.05	1071.08
955.35	1067.03
955.64	1068.81
955.94	1072.60
956.24	1070.91
956.54	1069.60
956.83	1073.07
957.13	1074.87
957.43	1076.53
957.72	1077.16
958.02	1076.48
958.32	1076.48
958.61	1074.31
958.91	1070.37
959.21	1070.28
959.50	1074.80
959.80	1074.28
960.10	1074.28
960.39	1075.34
960.69	1079.20
960.99	1077.98
961.28	1078.00
961.58	1079.60
961.87	1084.72
962.17	1082.90
962.47	1079.03
962.76	1076.53
963.06	1073.84
963.36	1070.68
963.65	1070.26
963.95	1071.99
964.24	1073.86
964.54	1073.21
964.83	1070.91
965.13	1071.78
965.42	1073.72
965.72	1072.81
966.02	1074.31
966.31	1075.97
966.61	1075.64
966.90	1076.65
967.20	1077.40
967.49	1075.34
967.79	1075.97
968.08	1075.92
968.38	1075.05
968.67	1074.59
968.97	1075.05
969.26	1073.16
969.56	1073.30
969.85	1070.87
970.15	1073.77
970.44	1077.93
970.74	1077.82
971.03	1078.33
971.32	1077.30
971.62	1075.52
971.91	1072.15
972.21	1074.61
972.50	1074.98
972.80	1078.59
973.09	1077.37
973.38	1081.14
973.68	1077.96
973.97	1077.07
974.27	1074.59
974.56	1073.23
974.85	1069.32
975.15	1069.74
975.44	1070.91
975.73	1072.18
976.03	1070.98
976.32	1072.34
976.61	1071.17
976.91	1070.28
977.20	1070.63
977.49	1076.97
977.79	1075.71
978.08	1076.65
978.37	1075.38
978.67	1075.03
978.96	1072.71
979.25	1073.44
979.55	1075.13
979.84	1074.21
980.13	1070.12
980.42	1070.26
980.72	1070.82
981.01	1071.40
981.30	1074.66
981.59	1074.87
981.89	1071.08
982.18	1068.24
982.47	1067.24
982.76	1064.62
983.06	1068.52
983.35	1070.05
983.64	1073.28
983.93	1072.74
984.22	1073.53
984.52	1070.63
984.81	1072.46
985.10	1071.45
985.39	1071.85
985.68	1071.03
985.97	1072.36
986.27	1072.22
986.56	1073.70
986.85	1071.29
987.14	1071.94
987.43	1070.26
987.72	1068.95
988.01	1068.97
988.31	1068.45
988.60	1068.55
988.89	1070.77
989.18	1070.12
989.47	1069.34
989.76	1074.26
990.05	1073.07
990.34	1071.05
990.63	1074.70
990.92	1075.69
991.21	1072.29
991.51	1073.35
991.80	1075.20
992.09	1071.03
992.38	1068.69
992.67	1070.28
992.96	1073.79
993.25	1075.41
993.54	1076.55
993.83	1076.30
994.12	1074.75
994.41	1069.06
994.70	1068.34
994.99	1070.89
995.28	1074.59
995.57	1075.92
995.86	1078.00
996.15	1074.54
996.44	1073.46
996.73	1074.68
997.02	1075.50
997.31	1076.34
997.59	1076.01
997.88	1074.40
998.17	1067.14
998.46	1069.09
998.75	1068.27
999.04	1069.25
999.33	1073.63
999.62	1075.45
999.91	1074.28
1000.20	1076.74
1000.49	1080.39
1000.77	1076.86
1001.06	1074.68
1001.35	1073.95
1001.64	1073.79
1001.93	1074.47
1002.22	1072.34
1002.51	1075.43
1002.79	1075.17
1003.08	1072.01
1003.37	1071.24
1003.66	1073.23
1003.95	1074.66
1004.23	1072.20
1004.52	1073.44
1004.81	1072.50
1005.10	1074.26
1005.39	1074.07
1005.67	1075.08
1005.96	1073.95
1006.25	1072.46
1006.54	1072.41
1006.83	1069.81
1007.11	1068.97
1007.40	1073.02
1007.69	1076.11
1007.97	1077.16
1008.26	1080.51
1008.55	1084.93
1008.84	1082.03
1009.12	1079.06
1009.41	1074.10
1009.70	1071.94
1009.98	1066.28
1010.27	1064.71
1010.56	1069.32
1010.85	1071.82
1011.13	1072.67
1011.42	1075.08
1011.71	1075.55
1011.99	1074.38
1012.28	1074.35
1012.56	1075.08
1012.85	1075.48
1013.14	1074.52
1013.42	1073.37
1013.71	1073.18
1014.00	1072.83
1014.28	1074.91
1014.57	1078.57
1014.85	1076.86
1015.14	1075.85
1015.43	1074.07
1015.71	1071.64
1016.00	1071.15
1016.28	1071.24
1016.57	1071.66
1016.85	1073.37
1017.14	1075.17
1017.43	1073.70
1017.71	1074.54
1018.00	1076.93
1018.28	1077.86
1018.57	1078.78
1018.85	1081.37
1019.14	1083.20
1019.42	1082.66
1019.71	1080.30
1019.99	1077.47
1020.28	1077.93
1020.56	1078.59
1020.85	1076.41
1021.13	1075.22
1021.42	1078.38
1021.70	1078.82
1021.99	1076.53
1022.27	1081.47
1022.55	1075.36
1022.84	1093.62
>>>>>End Processed Spectral Data<<<<<
