SpectraSuite Data File
++++++++++++++++++++++++++++++++++++
Date: Mon Aug 26 10:22:17 PDT 2019
User: corrico
Dark Spectrum Present: No
Reference Spectrum Present: No
Number of Sampled Component Spectra: 1
Spectrometers: USB2+H06089
Integration Time (usec): 2000 (USB2+H06089)
Spectra Averaged: 20 (USB2+H06089)
Boxcar Smoothing: 2 (USB2+H06089)
Correct for Electrical Dark: No (USB2+H06089)
Strobe/Lamp Enabled: No (USB2+H06089)
Correct for Detector Non-linearity: No (USB2+H06089)
Correct for Stray Light: No (USB2+H06089)
Number of Pixels in Processed Spectrum: 2048
>>>>>Begin Processed Spectral Data<<<<<
339.70	1028.08
340.07	1028.08
340.45	990.49
340.82	967.32
341.19	942.60
341.57	916.06
341.94	907.12
342.31	901.53
342.69	900.03
343.06	899.49
343.43	896.40
343.81	896.59
344.18	897.83
344.55	898.93
344.93	901.62
345.30	913.04
345.67	918.08
346.04	927.58
346.42	937.36
346.79	947.10
347.16	953.46
347.54	960.79
347.91	968.54
348.28	975.28
348.65	983.26
349.03	995.20
349.40	1007.37
349.77	1016.21
350.14	1026.79
350.52	1038.96
350.89	1043.50
351.26	1048.84
351.63	1055.68
352.01	1062.21
352.38	1061.48
352.75	1062.02
353.12	1064.66
353.50	1066.39
353.87	1067.59
354.24	1072.13
354.61	1079.34
354.98	1081.98
355.36	1081.66
355.73	1079.57
356.10	1080.56
356.47	1077.84
356.84	1080.65
357.22	1082.10
357.59	1085.47
357.96	1084.79
358.33	1084.63
358.70	1082.29
359.08	1084.35
359.45	1083.11
359.82	1081.98
360.19	1080.93
360.56	1081.21
360.94	1077.00
361.31	1077.54
361.68	1076.34
362.05	1077.23
362.42	1075.41
362.79	1073.81
363.16	1073.00
363.54	1075.94
363.91	1076.01
364.28	1078.05
364.65	1078.87
365.02	1076.15
365.39	1074.54
365.76	1072.81
366.14	1071.01
366.51	1069.74
366.88	1070.84
367.25	1068.69
367.62	1070.02
367.99	1070.30
368.36	1075.55
368.73	1074.52
369.10	1077.16
369.48	1078.99
369.85	1078.89
370.22	1074.96
370.59	1074.77
370.96	1071.64
371.33	1071.15
371.70	1074.31
372.07	1077.49
372.44	1077.82
372.81	1078.33
373.18	1078.19
373.55	1074.07
373.93	1074.14
374.30	1075.05
374.67	1076.23
375.04	1075.97
375.41	1079.92
375.78	1077.86
376.15	1076.20
376.52	1074.59
376.89	1075.92
377.26	1072.71
377.63	1074.61
378.00	1077.14
378.37	1081.26
378.74	1081.47
379.11	1084.04
379.48	1083.11
379.85	1081.80
380.22	1078.10
380.59	1078.78
380.96	1077.33
381.33	1076.06
381.70	1076.30
382.07	1079.48
382.44	1074.12
382.81	1073.93
383.18	1076.90
383.55	1075.78
383.92	1072.08
384.29	1076.06
384.66	1075.50
385.03	1073.88
385.40	1074.19
385.77	1078.17
386.14	1076.48
386.51	1081.61
386.88	1083.34
387.25	1086.50
387.62	1087.60
387.99	1092.21
388.36	1086.50
388.73	1088.58
389.10	1088.35
389.46	1085.26
389.83	1084.11
390.20	1089.29
390.57	1088.28
390.94	1087.48
391.31	1088.30
391.68	1086.85
392.05	1082.26
392.42	1081.33
392.79	1081.35
393.16	1080.56
393.53	1081.42
393.89	1086.34
394.26	1085.87
394.63	1088.96
395.00	1088.23
395.37	1083.93
395.74	1082.73
396.11	1084.79
396.48	1082.66
396.84	1082.40
397.21	1086.17
397.58	1086.55
397.95	1083.97
398.32	1085.05
398.69	1090.88
399.06	1090.67
399.42	1092.14
399.79	1093.59
400.16	1092.54
400.53	1092.05
400.90	1091.20
401.27	1088.72
401.64	1086.03
402.00	1087.83
402.37	1086.36
402.74	1089.45
403.11	1090.39
403.48	1090.81
403.84	1089.50
404.21	1087.74
404.58	1086.45
404.95	1086.27
405.32	1089.57
405.68	1092.35
406.05	1097.88
406.42	1097.80
406.79	1097.92
407.16	1098.83
407.52	1096.80
407.89	1093.10
408.26	1093.99
408.63	1093.66
408.99	1093.57
409.36	1094.60
409.73	1094.62
410.10	1097.17
410.47	1100.40
410.83	1098.16
411.20	1096.10
411.57	1099.05
411.94	1097.31
412.30	1094.88
412.67	1096.75
413.04	1101.13
413.40	1099.40
413.77	1100.50
414.14	1102.16
414.51	1102.30
414.87	1104.08
415.24	1103.89
415.61	1104.03
415.97	1102.79
416.34	1101.60
416.71	1097.85
417.08	1097.62
417.44	1097.59
417.81	1100.99
418.18	1104.99
418.54	1107.17
418.91	1108.34
419.28	1109.34
419.64	1109.32
420.01	1112.34
420.38	1112.90
420.74	1116.55
421.11	1119.92
421.48	1122.50
421.84	1122.36
422.21	1124.37
422.58	1125.28
422.94	1126.90
423.31	1126.45
423.68	1127.04
424.04	1128.63
424.41	1129.87
424.77	1131.27
425.14	1137.78
425.51	1143.89
425.87	1150.37
426.24	1159.36
426.61	1165.19
426.97	1166.90
427.34	1171.16
427.70	1174.79
428.07	1177.76
428.44	1185.29
428.80	1191.85
429.17	1195.33
429.53	1203.18
429.90	1211.63
430.27	1216.49
430.63	1230.23
431.00	1244.30
431.36	1254.20
431.73	1268.27
432.09	1284.98
432.46	1298.22
432.83	1313.42
433.19	1334.55
433.56	1353.09
433.92	1373.31
434.29	1390.61
434.65	1417.64
435.02	1440.86
435.38	1465.13
435.75	1486.64
436.11	1520.04
436.48	1545.29
436.84	1576.61
437.21	1611.76
437.57	1653.94
437.94	1692.61
438.30	1735.55
438.67	1781.85
439.03	1830.70
439.40	1882.17
439.76	1937.99
440.13	2001.86
440.49	2066.11
440.86	2131.57
441.22	2202.91
441.59	2275.63
441.95	2350.53
442.32	2432.78
442.68	2525.70
443.05	2622.10
443.41	2722.14
443.78	2822.97
444.14	2934.49
444.51	3045.08
444.87	3178.70
445.24	3313.89
445.60	3467.20
445.96	3618.16
446.33	3788.70
446.69	3945.91
447.06	4121.15
447.42	4296.94
447.79	4478.22
448.15	4693.29
448.51	4922.61
448.88	5181.08
449.24	5423.30
449.61	5704.17
449.97	5971.64
450.33	6252.90
450.70	6509.71
451.06	6823.41
451.43	7125.78
451.79	7477.36
452.15	7874.73
452.52	8317.51
452.88	8782.35
453.24	9301.20
453.61	9874.58
453.97	10421.98
454.34	10953.64
454.70	11597.21
455.06	12234.64
455.43	12846.33
455.79	13424.56
456.15	14126.19
456.52	14760.00
456.88	15511.27
457.24	16234.33
457.61	17086.75
457.97	17846.30
458.33	18628.79
458.70	19386.40
459.06	20137.90
459.42	20965.56
459.79	21750.11
460.15	22637.05
460.51	23485.31
460.88	24379.58
461.24	25155.12
461.60	26095.33
461.96	26938.75
462.33	27777.10
462.69	28579.72
463.05	29442.93
463.42	30167.52
463.78	30826.42
464.14	31376.17
464.50	31972.44
464.87	32406.64
465.23	32777.77
465.59	33145.17
465.95	33471.88
466.32	33732.60
466.68	33982.87
467.04	34111.79
467.40	34245.48
467.77	34373.51
468.13	34350.33
468.49	34284.94
468.85	34206.81
469.22	34051.40
469.58	33725.74
469.94	33500.35
470.30	33182.92
470.66	32761.46
471.03	32160.11
471.39	31795.03
471.75	31169.31
472.11	30613.58
472.47	30283.54
472.84	29995.84
473.20	29499.25
473.56	29243.78
473.92	28814.19
474.28	28312.13
474.65	27822.42
475.01	27368.19
475.37	26804.54
475.73	26351.13
476.09	25813.91
476.45	25301.33
476.81	24793.62
477.18	24264.45
477.54	23811.84
477.90	23470.17
478.26	23053.04
478.62	22697.77
478.98	22387.60
479.34	22068.68
479.71	21643.05
480.07	21305.10
480.43	20938.95
480.79	20570.73
481.15	20192.55
481.51	19886.31
481.87	19625.20
482.23	19335.80
482.59	19055.54
482.96	18787.11
483.32	18496.95
483.68	18119.30
484.04	17789.03
484.40	17435.31
484.76	17089.87
485.12	16738.34
485.48	16425.41
485.84	16080.63
486.20	15738.58
486.56	15358.67
486.92	15047.77
487.28	14709.61
487.64	14370.68
488.00	14065.17
488.37	13748.89
488.73	13393.79
489.09	13055.18
489.45	12748.64
489.81	12424.06
490.17	12138.81
490.53	11873.02
490.89	11578.63
491.25	11273.99
491.61	10970.35
491.97	10654.35
492.33	10311.07
492.69	10007.87
493.05	9713.15
493.41	9427.47
493.77	9156.15
494.13	8909.41
494.49	8658.86
494.85	8412.63
495.21	8184.32
495.57	7962.46
495.93	7749.40
496.29	7551.29
496.64	7373.76
497.00	7177.70
497.36	6981.42
497.72	6799.35
498.08	6614.47
498.44	6429.24
498.80	6258.26
499.16	6096.09
499.52	5932.35
499.88	5798.86
500.24	5676.06
500.60	5560.34
500.96	5447.29
501.32	5333.43
501.68	5210.69
502.03	5083.36
502.39	4955.52
502.75	4821.46
503.11	4695.23
503.47	4579.28
503.83	4456.85
504.19	4344.53
504.55	4236.98
504.91	4141.37
505.26	4049.88
505.62	3966.34
505.98	3874.20
506.34	3782.94
506.70	3694.25
507.06	3602.83
507.42	3514.92
507.78	3439.74
508.13	3368.19
508.49	3295.57
508.85	3227.58
509.21	3158.86
509.57	3086.98
509.93	3018.57
510.28	2948.16
510.64	2878.44
511.00	2810.16
511.36	2751.72
511.72	2700.07
512.07	2649.81
512.43	2599.00
512.79	2552.99
513.15	2506.78
513.51	2458.01
513.86	2410.92
514.22	2371.95
514.58	2330.92
514.94	2293.91
515.30	2263.37
515.65	2224.82
516.01	2192.89
516.37	2164.74
516.73	2131.88
517.08	2097.63
517.44	2070.84
517.80	2040.55
518.16	2017.59
518.51	1989.90
518.87	1960.27
519.23	1934.52
519.59	1908.43
519.94	1879.92
520.30	1857.29
520.66	1831.77
521.01	1808.88
521.37	1786.53
521.73	1762.89
522.09	1742.34
522.44	1727.22
522.80	1711.24
523.16	1690.99
523.51	1671.77
523.87	1651.76
524.23	1635.68
524.58	1616.68
524.94	1599.83
525.30	1581.66
525.65	1566.66
526.01	1547.84
526.37	1533.57
526.72	1519.94
527.08	1507.16
527.44	1493.33
527.79	1480.72
528.15	1466.06
528.51	1451.83
528.86	1440.27
529.22	1429.46
529.58	1416.56
529.93	1408.39
530.29	1399.34
530.65	1389.65
531.00	1379.54
531.36	1369.92
531.71	1359.41
532.07	1350.14
532.43	1342.60
532.78	1335.79
533.14	1329.10
533.49	1323.71
533.85	1319.13
534.21	1311.66
534.56	1302.77
534.92	1295.77
535.27	1289.19
535.63	1281.02
535.98	1276.81
536.34	1273.86
536.69	1271.96
537.05	1267.49
537.41	1264.85
537.76	1257.71
538.12	1247.44
538.47	1242.54
538.83	1233.46
539.18	1224.26
539.54	1220.36
539.89	1219.04
540.25	1211.72
540.60	1210.95
540.96	1210.31
541.31	1205.96
541.67	1203.60
542.02	1202.43
542.38	1197.89
542.73	1197.75
543.09	1194.91
543.44	1190.26
543.80	1183.87
544.15	1181.69
544.51	1176.59
544.86	1176.40
545.22	1174.74
545.57	1177.22
545.93	1176.49
546.28	1174.69
546.64	1170.69
546.99	1168.51
547.35	1165.14
547.70	1162.22
548.05	1159.81
548.41	1159.03
548.76	1158.28
549.12	1156.06
549.47	1151.17
549.83	1151.50
550.18	1150.37
550.53	1147.94
550.89	1145.41
551.24	1145.79
551.60	1142.13
551.95	1139.79
552.30	1136.54
552.66	1135.56
553.01	1135.60
553.37	1137.90
553.72	1137.27
554.07	1140.71
554.43	1142.16
554.78	1140.10
555.13	1136.82
555.49	1135.63
555.84	1133.24
556.19	1130.67
556.55	1129.68
556.90	1126.43
557.26	1124.51
557.61	1119.48
557.96	1118.07
558.32	1116.55
558.67	1116.32
559.02	1113.21
559.37	1115.38
559.73	1112.39
560.08	1110.79
560.43	1109.91
560.79	1109.74
561.14	1106.21
561.49	1106.04
561.85	1107.19
562.20	1105.97
562.55	1108.43
562.90	1108.62
563.26	1109.60
563.61	1109.04
563.96	1106.39
564.32	1104.43
564.67	1104.71
565.02	1104.78
565.37	1101.78
565.73	1105.55
566.08	1105.88
566.43	1104.73
566.78	1103.98
567.14	1105.86
567.49	1102.28
567.84	1101.83
568.19	1103.21
568.54	1101.27
568.90	1099.72
569.25	1104.64
569.60	1102.39
569.95	1100.89
570.31	1101.43
570.66	1101.55
571.01	1097.01
571.36	1098.74
571.71	1099.47
572.06	1098.93
572.42	1098.20
572.77	1096.89
573.12	1096.10
573.47	1093.97
573.82	1093.87
574.18	1092.19
574.53	1095.28
574.88	1096.82
575.23	1097.06
575.58	1093.83
575.93	1093.80
576.28	1089.31
576.64	1088.77
576.99	1090.74
577.34	1092.68
577.69	1092.14
578.04	1094.43
578.39	1091.02
578.74	1091.77
579.09	1090.29
579.44	1091.20
579.80	1090.95
580.15	1091.30
580.50	1088.82
580.85	1089.78
581.20	1090.36
581.55	1089.03
581.90	1088.63
582.25	1085.56
582.60	1087.34
582.95	1086.43
583.30	1085.70
583.65	1085.94
584.00	1088.77
584.35	1089.12
584.71	1089.71
585.06	1092.80
585.41	1096.49
585.76	1097.41
586.11	1095.79
586.46	1091.74
586.81	1091.63
587.16	1088.19
587.51	1089.59
587.86	1089.29
588.21	1091.95
588.56	1091.56
588.91	1090.20
589.26	1086.50
589.61	1085.59
589.96	1085.14
590.31	1083.71
590.66	1085.03
591.01	1086.34
591.36	1089.64
591.71	1091.20
592.06	1090.85
592.41	1091.16
592.76	1092.42
593.10	1089.22
593.45	1087.13
593.80	1087.30
594.15	1087.58
594.50	1082.38
594.85	1082.87
595.20	1083.64
595.55	1084.00
595.90	1080.74
596.25	1081.73
596.60	1081.58
596.95	1082.99
597.30	1083.57
597.64	1092.37
597.99	1095.70
598.34	1096.54
598.69	1094.46
599.04	1092.63
599.39	1085.66
599.74	1085.24
600.09	1084.00
600.44	1083.79
600.78	1083.83
601.13	1084.63
601.48	1085.45
601.83	1085.52
602.18	1083.88
602.53	1086.08
602.88	1085.21
603.22	1084.16
603.57	1085.84
603.92	1088.44
604.27	1087.23
604.62	1088.77
604.97	1088.68
605.31	1087.95
605.66	1090.10
606.01	1090.99
606.36	1087.90
606.71	1085.96
607.05	1081.87
607.40	1075.41
607.75	1073.39
608.10	1072.29
608.44	1074.47
608.79	1079.85
609.14	1085.38
609.49	1086.20
609.84	1088.42
610.18	1084.91
610.53	1082.54
610.88	1080.84
611.23	1081.91
611.57	1080.77
611.92	1085.17
612.27	1086.10
612.62	1088.37
612.96	1089.89
613.31	1088.96
613.66	1085.59
614.00	1085.77
614.35	1081.54
614.70	1077.77
615.05	1078.03
615.39	1078.92
615.74	1077.04
616.09	1076.83
616.43	1077.33
616.78	1079.36
617.13	1082.22
617.47	1080.53
617.82	1082.05
618.17	1081.96
618.51	1083.60
618.86	1079.90
619.21	1086.36
619.55	1085.63
619.90	1086.06
620.25	1082.66
620.59	1083.29
620.94	1080.84
621.29	1081.91
621.63	1082.08
621.98	1084.30
622.32	1086.38
622.67	1085.99
623.02	1084.98
623.36	1085.31
623.71	1080.25
624.05	1076.27
624.40	1074.24
624.75	1076.20
625.09	1076.69
625.44	1078.57
625.78	1080.60
626.13	1080.67
626.48	1080.70
626.82	1077.70
627.17	1078.38
627.51	1077.86
627.86	1078.59
628.20	1079.08
628.55	1079.83
628.89	1080.81
629.24	1083.83
629.58	1084.51
629.93	1084.39
630.28	1082.40
630.62	1081.61
630.97	1079.71
631.31	1077.75
631.66	1077.42
632.00	1081.70
632.35	1082.40
632.69	1080.79
633.04	1082.12
633.38	1078.75
633.73	1078.99
634.07	1083.11
634.42	1082.80
634.76	1082.24
635.11	1083.86
635.45	1083.57
635.79	1083.57
636.14	1084.96
636.48	1084.86
636.83	1086.27
637.17	1084.60
637.52	1082.08
637.86	1083.20
638.21	1083.55
638.55	1083.46
638.89	1080.79
639.24	1080.98
639.58	1079.13
639.93	1076.72
640.27	1074.07
640.61	1076.30
640.96	1076.41
641.30	1077.28
641.65	1079.69
641.99	1080.13
642.33	1081.05
642.68	1082.47
643.02	1081.98
643.37	1085.52
643.71	1087.11
644.05	1087.65
644.40	1082.66
644.74	1087.39
645.08	1083.11
645.43	1084.18
645.77	1084.09
646.11	1086.24
646.46	1081.91
646.80	1084.65
647.14	1082.33
647.49	1077.98
647.83	1078.75
648.17	1077.72
648.52	1076.83
648.86	1078.33
649.20	1082.24
649.55	1079.48
649.89	1079.88
650.23	1077.91
650.57	1079.88
650.92	1081.51
651.26	1080.79
651.60	1081.26
651.95	1079.46
652.29	1077.37
652.63	1075.05
652.97	1076.46
653.32	1076.86
653.66	1080.79
654.00	1078.12
654.34	1076.60
654.69	1078.47
655.03	1080.37
655.37	1081.47
655.71	1085.52
656.05	1086.71
656.40	1085.68
656.74	1082.36
657.08	1079.41
657.42	1075.66
657.76	1075.97
658.11	1074.26
658.45	1072.41
658.79	1072.01
659.13	1072.53
659.47	1075.17
659.82	1076.97
660.16	1078.14
660.50	1079.57
660.84	1081.33
661.18	1080.81
661.52	1081.77
661.87	1084.89
662.21	1082.17
662.55	1082.24
662.89	1081.89
663.23	1080.02
663.57	1074.14
663.91	1072.71
664.25	1072.50
664.60	1073.32
664.94	1075.29
665.28	1081.98
665.62	1083.08
665.96	1084.02
666.30	1081.96
666.64	1079.20
666.98	1077.68
667.32	1079.90
667.66	1077.07
668.01	1073.79
668.35	1074.35
668.69	1073.84
669.03	1078.10
669.37	1079.10
669.71	1083.67
670.05	1087.41
670.39	1083.27
670.73	1081.40
671.07	1081.35
671.41	1078.31
671.75	1074.98
672.09	1076.62
672.43	1072.60
672.77	1072.22
673.11	1071.01
673.45	1070.61
673.79	1071.05
674.13	1072.53
674.47	1072.71
674.81	1073.18
675.15	1077.79
675.49	1081.49
675.83	1083.29
676.17	1082.50
676.51	1087.83
676.85	1083.15
677.19	1079.24
677.53	1078.47
677.87	1077.23
678.21	1072.85
678.55	1074.80
678.89	1075.01
679.23	1074.68
679.57	1077.25
679.90	1079.88
680.24	1078.36
680.58	1080.72
680.92	1084.49
681.26	1085.52
681.60	1083.95
681.94	1086.83
682.28	1084.67
682.62	1080.27
682.96	1079.81
683.29	1082.22
683.63	1082.92
683.97	1085.24
684.31	1083.93
684.65	1083.15
684.99	1081.19
685.33	1079.01
685.67	1075.36
686.00	1077.96
686.34	1077.18
686.68	1078.33
687.02	1079.13
687.36	1082.54
687.70	1082.59
688.03	1085.33
688.37	1084.53
688.71	1085.07
689.05	1086.48
689.39	1084.98
689.72	1083.22
690.06	1084.09
690.40	1083.06
690.74	1080.88
691.08	1083.76
691.41	1083.04
691.75	1080.65
692.09	1079.74
692.43	1081.89
692.76	1074.89
693.10	1075.78
693.44	1073.51
693.78	1075.99
694.11	1074.21
694.45	1077.37
694.79	1077.18
695.13	1084.02
695.46	1080.46
695.80	1082.38
696.14	1085.77
696.48	1089.29
696.81	1086.71
697.15	1089.78
697.49	1087.72
697.82	1088.84
698.16	1084.70
698.50	1081.30
698.83	1078.17
699.17	1078.57
699.51	1075.05
699.84	1078.52
700.18	1080.98
700.52	1081.56
700.85	1081.26
701.19	1079.78
701.53	1078.14
701.86	1078.99
702.20	1081.02
702.54	1081.19
702.87	1081.91
703.21	1078.99
703.55	1077.93
703.88	1078.66
704.22	1078.40
704.55	1078.85
704.89	1081.05
705.23	1083.36
705.56	1080.09
705.90	1079.81
706.23	1081.40
706.57	1079.81
706.91	1078.94
707.24	1079.78
707.58	1081.80
707.91	1078.21
708.25	1081.37
708.58	1082.38
708.92	1082.15
709.26	1079.03
709.59	1079.99
709.93	1079.48
710.26	1077.44
710.60	1077.56
710.93	1079.57
711.27	1081.87
711.60	1083.74
711.94	1083.08
712.27	1082.01
712.61	1082.10
712.94	1080.91
713.28	1077.07
713.61	1079.99
713.95	1080.65
714.28	1082.73
714.62	1081.21
714.95	1081.37
715.29	1078.21
715.62	1079.64
715.96	1076.90
716.29	1078.66
716.63	1079.03
716.96	1077.00
717.29	1078.59
717.63	1082.12
717.96	1081.30
718.30	1080.65
718.63	1086.92
718.97	1084.51
719.30	1080.46
719.63	1083.50
719.97	1086.29
720.30	1081.40
720.64	1079.64
720.97	1082.03
721.30	1080.39
721.64	1079.85
721.97	1078.45
722.31	1085.21
722.64	1082.90
722.97	1080.70
723.31	1080.98
723.64	1082.61
723.97	1079.50
724.31	1080.48
724.64	1081.98
724.98	1081.75
725.31	1082.50
725.64	1080.39
725.98	1078.47
726.31	1078.05
726.64	1078.21
726.97	1080.06
727.31	1081.70
727.64	1082.50
727.97	1083.04
728.31	1079.41
728.64	1082.36
728.97	1080.84
729.31	1082.85
729.64	1078.96
729.97	1079.88
730.30	1072.04
730.64	1073.11
730.97	1068.52
731.30	1073.11
731.63	1075.92
731.97	1077.63
732.30	1074.63
732.63	1079.29
732.96	1081.05
733.30	1078.57
733.63	1081.73
733.96	1085.73
734.29	1082.90
734.63	1078.47
734.96	1081.00
735.29	1078.07
735.62	1074.89
735.95	1077.09
736.29	1080.39
736.62	1077.89
736.95	1077.37
737.28	1075.99
737.61	1074.96
737.94	1073.09
738.28	1072.88
738.61	1077.47
738.94	1080.27
739.27	1081.19
739.60	1081.70
739.93	1082.10
740.27	1076.48
740.60	1077.61
740.93	1077.49
741.26	1077.28
741.59	1078.28
741.92	1079.43
742.25	1081.35
742.58	1079.69
742.91	1079.90
743.25	1078.52
743.58	1080.46
743.91	1077.23
744.24	1078.03
744.57	1079.41
744.90	1079.50
745.23	1082.03
745.56	1080.65
745.89	1081.63
746.22	1080.16
746.55	1080.44
746.88	1076.51
747.21	1078.31
747.54	1073.67
747.87	1074.94
748.20	1074.96
748.53	1075.31
748.87	1075.55
749.20	1079.34
749.53	1080.58
749.86	1082.52
750.19	1082.31
750.52	1079.43
750.85	1080.20
751.18	1077.09
751.51	1077.82
751.84	1079.71
752.16	1080.02
752.49	1080.27
752.82	1082.97
753.15	1078.99
753.48	1076.37
753.81	1079.48
754.14	1079.48
754.47	1076.18
754.80	1077.65
755.13	1074.80
755.46	1071.50
755.79	1073.02
756.12	1074.89
756.45	1076.48
756.78	1080.30
757.11	1081.61
757.43	1078.89
757.76	1079.67
758.09	1079.41
758.42	1080.44
758.75	1081.14
759.08	1081.75
759.41	1080.63
759.74	1078.10
760.07	1074.54
760.39	1073.49
760.72	1072.36
761.05	1073.42
761.38	1074.68
761.71	1076.60
762.04	1079.67
762.36	1079.29
762.69	1079.83
763.02	1079.88
763.35	1076.67
763.68	1073.35
764.01	1075.43
764.33	1073.65
764.66	1073.74
764.99	1077.82
765.32	1080.39
765.65	1080.98
765.97	1081.40
766.30	1083.36
766.63	1083.36
766.96	1081.89
767.28	1084.07
767.61	1085.42
767.94	1084.02
768.27	1082.26
768.59	1081.73
768.92	1079.06
769.25	1077.37
769.58	1074.42
769.90	1076.65
770.23	1078.21
770.56	1076.67
770.89	1078.99
771.21	1083.83
771.54	1081.68
771.87	1081.91
772.19	1081.23
772.52	1080.27
772.85	1075.59
773.17	1076.37
773.50	1073.81
773.83	1075.66
774.15	1076.65
774.48	1079.17
774.81	1080.81
775.13	1080.91
775.46	1078.26
775.79	1078.75
776.11	1080.23
776.44	1080.34
776.77	1080.02
777.09	1081.87
777.42	1078.78
777.74	1078.43
778.07	1079.46
778.40	1078.73
778.72	1080.16
779.05	1082.50
779.37	1081.66
779.70	1079.60
780.03	1079.69
780.35	1078.92
780.68	1078.36
781.00	1074.73
781.33	1075.85
781.65	1076.11
781.98	1078.24
782.31	1077.23
782.63	1078.03
782.96	1076.51
783.28	1078.17
783.61	1075.43
783.93	1074.12
784.26	1071.31
784.58	1070.98
784.91	1072.34
785.23	1071.75
785.56	1073.53
785.88	1079.71
786.21	1080.16
786.53	1078.94
786.86	1078.21
787.18	1077.56
787.51	1078.17
787.83	1079.64
788.16	1078.43
788.48	1079.78
788.81	1075.29
789.13	1073.49
789.46	1072.32
789.78	1071.24
790.10	1072.62
790.43	1076.04
790.75	1077.21
791.08	1075.90
791.40	1079.64
791.73	1080.30
792.05	1081.42
792.37	1079.10
792.70	1080.16
793.02	1081.19
793.35	1079.03
793.67	1076.97
793.99	1078.33
794.32	1079.03
794.64	1079.15
794.96	1078.68
795.29	1079.92
795.61	1080.09
795.93	1078.96
796.26	1076.23
796.58	1078.45
796.91	1079.48
797.23	1076.83
797.55	1075.87
797.87	1077.54
798.20	1072.88
798.52	1072.64
798.84	1073.37
799.17	1078.14
799.49	1077.65
799.81	1080.84
800.14	1078.71
800.46	1079.57
800.78	1074.24
801.10	1075.36
801.43	1075.13
801.75	1075.31
802.07	1075.05
802.40	1076.25
802.72	1074.96
803.04	1074.84
803.36	1075.48
803.69	1072.71
804.01	1073.51
804.33	1072.34
804.65	1072.69
804.97	1072.48
805.30	1075.80
805.62	1075.45
805.94	1077.21
806.26	1078.96
806.58	1080.20
806.91	1079.55
807.23	1077.68
807.55	1076.25
807.87	1076.15
808.19	1074.24
808.52	1074.94
808.84	1077.86
809.16	1076.93
809.48	1073.88
809.80	1077.11
810.12	1078.85
810.44	1081.00
810.77	1083.46
811.09	1084.77
811.41	1082.66
811.73	1081.75
812.05	1081.77
812.37	1081.33
812.69	1078.99
813.01	1078.07
813.33	1077.72
813.66	1072.69
813.98	1070.77
814.30	1071.31
814.62	1073.28
814.94	1071.87
815.26	1075.50
815.58	1078.26
815.90	1078.40
816.22	1078.31
816.54	1080.04
816.86	1080.79
817.18	1078.38
817.50	1081.26
817.82	1081.73
818.14	1079.24
818.46	1078.64
818.78	1078.40
819.10	1074.33
819.42	1072.01
819.74	1073.02
820.06	1069.18
820.38	1072.18
820.70	1073.32
821.02	1072.34
821.34	1072.71
821.66	1075.71
821.98	1076.01
822.30	1076.37
822.62	1080.25
822.94	1081.05
823.26	1081.84
823.58	1077.49
823.90	1078.64
824.22	1078.64
824.54	1078.00
824.86	1075.24
825.18	1074.54
825.50	1075.20
825.81	1073.77
826.13	1072.74
826.45	1073.93
826.77	1076.65
827.09	1074.59
827.41	1074.59
827.73	1073.93
828.05	1077.04
828.36	1076.65
828.68	1075.43
829.00	1072.60
829.32	1072.78
829.64	1070.19
829.96	1071.03
830.28	1071.61
830.59	1075.08
830.91	1076.90
831.23	1072.76
831.55	1072.85
831.87	1072.20
832.19	1071.66
832.50	1070.28
832.82	1073.67
833.14	1076.04
833.46	1079.64
833.78	1079.03
834.09	1080.81
834.41	1080.74
834.73	1077.61
835.05	1074.98
835.36	1076.39
835.68	1075.03
836.00	1076.44
836.32	1074.35
836.63	1076.93
836.95	1077.86
837.27	1079.97
837.59	1077.96
837.90	1077.51
838.22	1074.21
838.54	1072.55
838.85	1071.45
839.17	1071.99
839.49	1073.93
839.80	1076.95
840.12	1078.92
840.44	1076.32
840.76	1077.42
841.07	1078.80
841.39	1079.64
841.71	1078.78
842.02	1078.87
842.34	1078.78
842.65	1080.53
842.97	1081.02
843.29	1079.62
843.60	1082.59
843.92	1080.95
844.24	1074.66
844.55	1070.72
844.87	1069.91
845.18	1069.37
845.50	1071.40
845.82	1073.65
846.13	1073.58
846.45	1073.44
846.76	1072.18
847.08	1069.48
847.40	1071.10
847.71	1073.91
848.03	1075.36
848.34	1077.89
848.66	1080.44
848.97	1078.68
849.29	1078.24
849.60	1077.16
849.92	1075.29
850.24	1075.76
850.55	1077.54
850.87	1077.37
851.18	1075.80
851.50	1078.03
851.81	1075.38
852.13	1076.34
852.44	1075.36
852.76	1075.08
853.07	1073.88
853.39	1077.98
853.70	1076.97
854.01	1078.99
854.33	1082.43
854.64	1084.16
854.96	1082.90
855.27	1085.00
855.59	1084.72
855.90	1088.09
856.22	1085.82
856.53	1084.65
856.84	1082.71
857.16	1083.79
857.47	1081.61
857.79	1080.95
858.10	1081.28
858.41	1079.95
858.73	1075.57
859.04	1069.16
859.36	1069.72
859.67	1071.31
859.98	1074.31
860.30	1075.10
860.61	1078.24
860.92	1077.98
861.24	1075.80
861.55	1074.91
861.87	1074.38
862.18	1076.27
862.49	1076.55
862.81	1077.77
863.12	1074.38
863.43	1075.80
863.74	1074.91
864.06	1075.71
864.37	1076.83
864.68	1079.31
865.00	1080.93
865.31	1082.03
865.62	1079.74
865.94	1076.86
866.25	1080.77
866.56	1079.38
866.87	1077.93
867.19	1076.81
867.50	1076.67
867.81	1072.83
868.12	1073.14
868.44	1071.10
868.75	1073.63
869.06	1075.24
869.37	1073.02
869.68	1074.47
870.00	1077.44
870.31	1077.37
870.62	1078.00
870.93	1079.78
871.24	1078.66
871.56	1078.89
871.87	1079.46
872.18	1076.81
872.49	1080.09
872.80	1077.72
873.12	1076.88
873.43	1076.55
873.74	1079.17
874.05	1076.97
874.36	1078.07
874.67	1077.07
874.98	1078.75
875.29	1076.39
875.61	1070.96
875.92	1071.52
876.23	1073.25
876.54	1071.92
876.85	1074.07
877.16	1077.79
877.47	1076.27
877.78	1077.11
878.09	1075.94
878.40	1072.50
878.72	1073.07
879.03	1076.37
879.34	1074.28
879.65	1075.24
879.96	1076.95
880.27	1074.66
880.58	1073.56
880.89	1073.49
881.20	1071.38
881.51	1069.74
881.82	1071.78
882.13	1072.27
882.44	1073.53
882.75	1076.74
883.06	1077.77
883.37	1076.27
883.68	1073.86
883.99	1073.32
884.30	1070.35
884.61	1072.29
884.92	1075.99
885.23	1075.71
885.54	1073.32
885.85	1072.55
886.16	1072.62
886.47	1071.17
886.78	1073.46
887.08	1070.05
887.39	1072.97
887.70	1070.94
888.01	1072.22
888.32	1072.88
888.63	1079.03
888.94	1078.57
889.25	1079.10
889.56	1079.69
889.87	1076.79
890.17	1076.88
890.48	1075.78
890.79	1078.40
891.10	1078.07
891.41	1080.32
891.72	1081.28
892.03	1083.81
892.34	1079.43
892.64	1077.77
892.95	1074.40
893.26	1072.46
893.57	1070.68
893.88	1075.64
894.18	1073.65
894.49	1072.55
894.80	1072.34
895.11	1071.36
895.42	1067.35
895.72	1070.98
896.03	1074.77
896.34	1074.07
896.65	1075.34
896.96	1076.74
897.26	1074.87
897.57	1074.84
897.88	1076.88
898.19	1078.61
898.49	1077.98
898.80	1079.83
899.11	1078.24
899.41	1076.86
899.72	1074.31
900.03	1075.38
900.34	1073.23
900.64	1074.17
900.95	1075.71
901.26	1078.12
901.56	1078.43
901.87	1080.18
902.18	1078.52
902.48	1078.94
902.79	1076.79
903.10	1076.15
903.40	1076.34
903.71	1083.32
904.02	1082.31
904.32	1081.02
904.63	1081.75
904.94	1079.34
905.24	1073.74
905.55	1074.56
905.85	1078.82
906.16	1077.47
906.47	1078.07
906.77	1080.58
907.08	1079.50
907.38	1077.84
907.69	1075.94
908.00	1074.12
908.30	1074.54
908.61	1073.35
908.91	1074.73
909.22	1077.04
909.52	1078.43
909.83	1076.48
910.14	1075.73
910.44	1073.58
910.75	1076.20
911.05	1076.65
911.36	1076.44
911.66	1079.34
911.97	1078.61
912.27	1076.51
912.58	1072.27
912.88	1074.54
913.19	1072.18
913.49	1073.46
913.80	1072.39
914.10	1078.50
914.41	1079.76
914.71	1081.58
915.01	1081.82
915.32	1081.89
915.62	1080.98
915.93	1080.65
916.23	1079.60
916.54	1078.71
916.84	1081.19
917.15	1081.12
917.45	1077.77
917.75	1079.88
918.06	1077.35
918.36	1076.79
918.67	1075.10
918.97	1075.24
919.27	1073.53
919.58	1075.76
919.88	1072.27
920.18	1071.17
920.49	1071.75
920.79	1074.96
921.10	1076.13
921.40	1077.44
921.70	1075.71
922.01	1075.50
922.31	1073.93
922.61	1072.90
922.92	1074.56
923.22	1077.33
923.52	1075.05
923.82	1074.28
924.13	1073.63
924.43	1071.97
924.73	1070.87
925.04	1072.46
925.34	1073.23
925.64	1075.69
925.94	1077.16
926.25	1078.59
926.55	1079.36
926.85	1081.07
927.15	1077.02
927.46	1077.51
927.76	1079.60
928.06	1078.33
928.36	1076.39
928.67	1078.80
928.97	1075.71
929.27	1077.16
929.57	1078.57
929.87	1077.89
930.18	1078.40
930.48	1076.53
930.78	1073.98
931.08	1077.51
931.38	1079.27
931.69	1078.05
931.99	1082.19
932.29	1080.25
932.59	1076.58
932.89	1074.12
933.19	1073.07
933.49	1074.52
933.80	1078.19
934.10	1076.15
934.40	1077.51
934.70	1079.06
935.00	1076.08
935.30	1072.78
935.60	1075.87
935.90	1074.07
936.20	1075.78
936.50	1076.90
936.81	1081.89
937.11	1083.22
937.41	1084.35
937.71	1081.44
938.01	1081.63
938.31	1076.44
938.61	1073.81
938.91	1074.00
939.21	1070.80
939.51	1070.56
939.81	1071.36
940.11	1071.12
940.41	1067.24
940.71	1071.54
941.01	1073.21
941.31	1073.98
941.61	1076.46
941.91	1080.86
942.21	1080.91
942.51	1080.81
942.81	1079.55
943.11	1077.37
943.41	1076.11
943.71	1077.14
944.01	1078.05
944.31	1079.20
944.61	1079.64
944.90	1073.56
945.20	1070.96
945.50	1062.70
945.80	1061.62
946.10	1061.34
946.40	1066.91
946.70	1065.25
947.00	1071.61
947.30	1071.66
947.60	1070.30
947.89	1070.54
948.19	1073.44
948.49	1072.29
948.79	1074.03
949.09	1073.14
949.39	1073.51
949.69	1073.65
949.98	1074.38
950.28	1073.16
950.58	1075.31
950.88	1075.34
951.18	1076.32
951.48	1077.14
951.77	1078.59
952.07	1078.33
952.37	1080.79
952.67	1079.64
952.97	1078.07
953.26	1076.65
953.56	1076.67
953.86	1075.64
954.16	1080.39
954.45	1080.98
954.75	1082.59
955.05	1081.16
955.35	1078.78
955.64	1072.76
955.94	1068.41
956.24	1067.21
956.54	1068.50
956.83	1067.49
957.13	1071.33
957.43	1075.87
957.72	1075.97
958.02	1076.11
958.32	1075.66
958.61	1073.93
958.91	1070.72
959.21	1071.17
959.50	1072.22
959.80	1072.46
960.10	1072.32
960.39	1076.65
960.69	1075.03
960.99	1072.29
961.28	1077.51
961.58	1077.58
961.87	1075.83
962.17	1077.98
962.47	1079.64
962.76	1074.17
963.06	1075.90
963.36	1077.89
963.65	1076.93
963.95	1075.87
964.24	1077.51
964.54	1075.38
964.83	1072.83
965.13	1070.84
965.42	1070.77
965.72	1069.25
966.02	1072.60
966.31	1075.92
966.61	1078.78
966.90	1078.78
967.20	1080.58
967.49	1079.43
967.79	1077.75
968.08	1075.80
968.38	1079.22
968.67	1080.02
968.97	1076.25
969.26	1073.91
969.56	1073.67
969.85	1072.27
970.15	1071.12
970.44	1072.69
970.74	1074.14
971.03	1075.90
971.32	1074.73
971.62	1076.53
971.91	1076.01
972.21	1072.11
972.50	1069.74
972.80	1067.80
973.09	1067.05
973.38	1067.31
973.68	1072.69
973.97	1076.20
974.27	1077.42
974.56	1077.14
974.85	1078.00
975.15	1078.94
975.44	1077.47
975.73	1079.71
976.03	1083.04
976.32	1082.57
976.61	1079.55
976.91	1080.11
977.20	1075.59
977.49	1073.32
977.79	1073.21
978.08	1073.70
978.37	1075.03
978.67	1079.99
978.96	1081.14
979.25	1082.71
979.55	1080.20
979.84	1077.65
980.13	1075.50
980.42	1075.36
980.72	1075.90
981.01	1079.17
981.30	1081.51
981.59	1081.58
981.89	1078.73
982.18	1079.22
982.47	1078.05
982.76	1073.51
983.06	1072.69
983.35	1074.38
983.64	1071.17
983.93	1072.08
984.22	1073.74
984.52	1075.73
984.81	1073.77
985.10	1073.84
985.39	1072.62
985.68	1075.52
985.97	1073.49
986.27	1075.01
986.56	1075.69
986.85	1078.33
987.14	1077.21
987.43	1076.25
987.72	1074.75
988.01	1072.43
988.31	1073.14
988.60	1074.05
988.89	1078.73
989.18	1081.12
989.47	1084.11
989.76	1083.67
990.05	1082.90
990.34	1079.83
990.63	1079.50
990.92	1076.37
991.21	1076.30
991.51	1077.28
991.80	1076.65
992.09	1076.41
992.38	1077.63
992.67	1079.15
992.96	1076.37
993.25	1077.56
993.54	1076.88
993.83	1077.00
994.12	1074.73
994.41	1076.30
994.70	1076.01
994.99	1077.58
995.28	1079.34
995.57	1077.30
995.86	1077.35
996.15	1078.12
996.44	1075.92
996.73	1076.79
997.02	1077.14
997.31	1075.38
997.59	1075.36
997.88	1078.61
998.17	1076.72
998.46	1074.19
998.75	1076.62
999.04	1075.48
999.33	1072.69
999.62	1076.44
999.91	1078.05
1000.20	1074.35
1000.49	1074.82
1000.77	1074.45
1001.06	1071.82
1001.35	1076.44
1001.64	1077.61
1001.93	1078.96
1002.22	1079.36
1002.51	1076.55
1002.79	1074.52
1003.08	1074.10
1003.37	1072.06
1003.66	1073.65
1003.95	1075.71
1004.23	1075.15
1004.52	1075.73
1004.81	1078.94
1005.10	1078.12
1005.39	1076.51
1005.67	1076.08
1005.96	1082.01
1006.25	1080.63
1006.54	1079.15
1006.83	1079.24
1007.11	1078.17
1007.40	1074.54
1007.69	1073.98
1007.97	1072.81
1008.26	1074.75
1008.55	1077.14
1008.84	1077.61
1009.12	1076.88
1009.41	1080.13
1009.70	1077.28
1009.98	1076.97
1010.27	1076.13
1010.56	1079.53
1010.85	1077.25
1011.13	1082.43
1011.42	1081.61
1011.71	1080.37
1011.99	1074.19
1012.28	1074.89
1012.56	1073.07
1012.85	1072.13
1013.14	1070.00
1013.42	1073.81
1013.71	1073.42
1014.00	1074.14
1014.28	1076.39
1014.57	1079.95
1014.85	1081.87
1015.14	1082.71
1015.43	1081.66
1015.71	1080.44
1016.00	1080.60
1016.28	1076.13
1016.57	1074.70
1016.85	1073.60
1017.14	1071.97
1017.43	1069.65
1017.71	1072.81
1018.00	1067.73
1018.28	1067.71
1018.57	1070.75
1018.85	1071.57
1019.14	1070.44
1019.42	1075.29
1019.71	1077.58
1019.99	1075.24
1020.28	1074.80
1020.56	1074.21
1020.85	1077.07
1021.13	1075.34
1021.42	1073.70
1021.70	1071.90
1021.99	1075.97
1022.27	1074.91
1022.55	1093.38
1022.84	1077.47
>>>>>End Processed Spectral Data<<<<<
