SpectraSuite Data File
++++++++++++++++++++++++++++++++++++
Date: Mon Aug 26 10:22:25 PDT 2019
User: corrico
Dark Spectrum Present: No
Reference Spectrum Present: No
Number of Sampled Component Spectra: 1
Spectrometers: USB2+H06089
Integration Time (usec): 2000 (USB2+H06089)
Spectra Averaged: 20 (USB2+H06089)
Boxcar Smoothing: 2 (USB2+H06089)
Correct for Electrical Dark: No (USB2+H06089)
Strobe/Lamp Enabled: No (USB2+H06089)
Correct for Detector Non-linearity: No (USB2+H06089)
Correct for Stray Light: No (USB2+H06089)
Number of Pixels in Processed Spectrum: 2048
>>>>>Begin Processed Spectral Data<<<<<
339.70	1014.39
340.07	1014.39
340.45	983.70
340.82	962.99
341.19	943.24
341.57	921.26
341.94	911.92
342.31	904.50
342.69	899.16
343.06	895.89
343.43	896.59
343.81	897.67
344.18	901.90
344.55	905.27
344.93	909.44
345.30	914.99
345.67	921.68
346.04	928.30
346.42	940.40
346.79	950.19
347.16	957.79
347.54	967.13
347.91	976.21
348.28	983.49
348.65	990.56
349.03	1002.62
349.40	1009.36
349.77	1021.55
350.14	1030.35
350.52	1036.53
350.89	1040.51
351.26	1046.38
351.63	1046.85
352.01	1050.17
352.38	1055.61
352.75	1061.13
353.12	1065.69
353.50	1068.85
353.87	1075.66
354.24	1078.52
354.61	1078.40
354.98	1078.75
355.36	1083.36
355.73	1083.67
356.10	1085.59
356.47	1084.74
356.84	1083.41
357.22	1080.25
357.59	1080.79
357.96	1082.97
358.33	1082.57
358.70	1083.79
359.08	1082.45
359.45	1077.63
359.82	1074.38
360.19	1075.99
360.56	1075.38
360.94	1079.57
361.31	1081.19
361.68	1082.01
362.05	1083.67
362.42	1085.33
362.79	1081.94
363.16	1078.31
363.54	1075.71
363.91	1074.07
364.28	1072.36
364.65	1072.22
365.02	1076.67
365.39	1077.09
365.76	1075.66
366.14	1074.96
366.51	1075.41
366.88	1073.28
367.25	1072.50
367.62	1073.77
367.99	1072.81
368.36	1073.02
368.73	1074.14
369.10	1075.43
369.48	1075.15
369.85	1075.52
370.22	1074.91
370.59	1072.15
370.96	1074.49
371.33	1072.32
371.70	1074.28
372.07	1073.14
372.44	1076.34
372.81	1074.82
373.18	1076.41
373.55	1076.97
373.93	1079.36
374.30	1078.96
374.67	1076.23
375.04	1077.14
375.41	1078.82
375.78	1077.89
376.15	1075.83
376.52	1075.48
376.89	1072.97
377.26	1069.74
377.63	1071.54
378.00	1075.22
378.37	1078.78
378.74	1080.30
379.11	1080.91
379.48	1079.08
379.85	1077.86
380.22	1079.29
380.59	1079.41
380.96	1082.08
381.33	1086.31
381.70	1084.53
382.07	1083.62
382.44	1083.25
382.81	1078.94
383.18	1075.08
383.55	1074.49
383.92	1070.61
384.29	1072.57
384.66	1076.11
385.03	1077.86
385.40	1079.53
385.77	1082.47
386.14	1082.71
386.51	1080.06
386.88	1080.27
387.25	1079.43
387.62	1080.74
387.99	1082.33
388.36	1082.78
388.73	1081.35
389.10	1083.67
389.46	1082.08
389.83	1079.08
390.20	1079.81
390.57	1083.43
390.94	1085.38
391.31	1087.18
391.68	1088.14
392.05	1089.50
392.42	1085.99
392.79	1082.54
393.16	1084.35
393.53	1085.35
393.89	1082.94
394.26	1084.46
394.63	1084.35
395.00	1085.52
395.37	1082.99
395.74	1085.63
396.11	1087.48
396.48	1089.94
396.84	1088.19
397.21	1088.89
397.58	1090.57
397.95	1087.67
398.32	1089.00
398.69	1088.44
399.06	1090.95
399.42	1090.62
399.79	1094.53
400.16	1092.35
400.53	1092.70
400.90	1090.53
401.27	1090.78
401.64	1089.45
402.00	1091.86
402.37	1091.34
402.74	1091.13
403.11	1092.63
403.48	1090.60
403.84	1090.64
404.21	1090.53
404.58	1091.49
404.95	1090.27
405.32	1091.58
405.68	1089.75
406.05	1088.89
406.42	1089.29
406.79	1089.00
407.16	1089.17
407.52	1089.22
407.89	1090.08
408.26	1090.88
408.63	1091.86
408.99	1094.04
409.36	1095.21
409.73	1095.56
410.10	1096.28
410.47	1096.80
410.83	1099.58
411.20	1101.43
411.57	1102.70
411.94	1100.87
412.30	1102.46
412.67	1098.18
413.04	1098.44
413.40	1097.15
413.77	1101.53
414.14	1099.12
414.51	1099.72
414.87	1099.51
415.24	1103.12
415.61	1099.91
415.97	1099.35
416.34	1100.75
416.71	1100.82
417.08	1101.06
417.44	1105.32
417.81	1111.92
418.18	1112.18
418.54	1111.66
418.91	1113.28
419.28	1111.52
419.64	1109.11
420.01	1111.92
420.38	1113.21
420.74	1113.79
421.11	1115.69
421.48	1114.61
421.84	1114.70
422.21	1118.00
422.58	1119.55
422.94	1120.39
423.31	1124.74
423.68	1127.41
424.04	1130.92
424.41	1137.31
424.77	1141.64
425.14	1145.18
425.51	1147.82
425.87	1152.53
426.24	1154.07
426.61	1162.66
426.97	1168.11
427.34	1176.26
427.70	1180.94
428.07	1182.81
428.44	1185.86
428.80	1193.30
429.17	1202.47
429.53	1208.93
429.90	1222.32
430.27	1233.70
430.63	1241.61
431.00	1250.24
431.36	1264.40
431.73	1276.11
432.09	1286.80
432.46	1303.23
432.83	1319.38
433.19	1334.62
433.56	1353.77
433.92	1376.09
434.29	1396.86
434.65	1418.01
435.02	1445.40
435.38	1468.38
435.75	1493.52
436.11	1524.77
436.48	1559.08
436.84	1591.33
437.21	1627.80
437.57	1662.74
437.94	1702.79
438.30	1745.20
438.67	1790.53
439.03	1839.54
439.40	1895.72
439.76	1951.96
440.13	2011.90
440.49	2072.90
440.86	2136.56
441.22	2205.25
441.59	2273.85
441.95	2353.46
442.32	2438.16
442.68	2539.55
443.05	2638.39
443.41	2740.88
443.78	2838.30
444.14	2946.10
444.51	3051.80
444.87	3188.35
445.24	3329.48
445.60	3485.15
445.96	3644.12
446.33	3823.10
446.69	3981.46
447.06	4153.68
447.42	4332.59
447.79	4523.48
448.15	4732.54
448.51	4960.16
448.88	5225.01
449.24	5475.22
449.61	5755.87
449.97	6026.69
450.33	6318.70
450.70	6579.48
451.06	6905.12
451.43	7207.94
451.79	7571.82
452.15	7961.68
452.52	8421.41
452.88	8885.61
453.24	9412.77
453.61	9990.74
453.97	10553.80
454.34	11091.05
454.70	11727.18
455.06	12369.99
455.43	12999.64
455.79	13595.31
456.15	14304.04
456.52	14959.86
456.88	15718.05
457.24	16437.23
457.61	17283.69
457.97	18059.41
458.33	18829.84
458.70	19596.28
459.06	20346.21
459.42	21174.76
459.79	21954.67
460.15	22852.10
460.51	23718.33
460.88	24657.50
461.24	25466.53
461.60	26426.05
461.96	27303.33
462.33	28128.07
462.69	28896.16
463.05	29745.49
463.42	30449.88
463.78	31091.56
464.14	31627.92
464.50	32231.03
464.87	32707.16
465.23	33043.96
465.59	33396.03
465.95	33751.11
466.32	34000.68
466.68	34203.70
467.04	34344.81
467.40	34473.45
467.77	34593.68
468.13	34586.85
468.49	34516.32
468.85	34456.03
469.22	34307.78
469.58	33977.46
469.94	33732.78
470.30	33421.02
470.66	33017.35
471.03	32413.19
471.39	32017.38
471.75	31379.02
472.11	30772.97
472.47	30394.24
472.84	30090.21
473.20	29596.33
473.56	29317.18
473.92	28895.60
474.28	28355.43
474.65	27871.24
475.01	27394.87
475.37	26821.53
475.73	26354.36
476.09	25849.56
476.45	25319.00
476.81	24799.90
477.18	24272.78
477.54	23821.39
477.90	23474.89
478.26	23066.56
478.62	22740.06
478.98	22458.73
479.34	22135.01
479.71	21721.37
480.07	21371.64
480.43	21010.73
480.79	20625.55
481.15	20286.48
481.51	19979.16
481.87	19728.16
482.23	19447.42
482.59	19184.27
482.96	18895.29
483.32	18604.29
483.68	18226.83
484.04	17875.21
484.40	17497.21
484.76	17138.10
485.12	16768.56
485.48	16451.06
485.84	16107.43
486.20	15774.91
486.56	15403.49
486.92	15079.72
487.28	14732.36
487.64	14374.66
488.00	14050.21
488.37	13737.91
488.73	13393.36
489.09	13031.07
489.45	12720.46
489.81	12399.62
490.17	12100.24
490.53	11811.72
490.89	11519.93
491.25	11220.55
491.61	10908.09
491.97	10586.55
492.33	10255.90
492.69	9955.26
493.05	9650.73
493.41	9368.88
493.77	9089.99
494.13	8847.30
494.49	8605.47
494.85	8369.22
495.21	8144.06
495.57	7934.74
495.93	7714.24
496.29	7504.20
496.64	7318.90
497.00	7120.14
497.36	6918.83
497.72	6734.99
498.08	6567.08
498.44	6380.53
498.80	6217.00
499.16	6069.10
499.52	5918.70
499.88	5789.48
500.24	5675.31
500.60	5556.24
500.96	5441.32
501.32	5326.92
501.68	5196.04
502.03	5063.80
502.39	4940.05
502.75	4798.29
503.11	4672.93
503.47	4557.56
503.83	4444.21
504.19	4320.39
504.55	4223.36
504.91	4125.87
505.26	4025.77
505.62	3938.68
505.98	3856.99
506.34	3761.80
506.70	3669.26
507.06	3582.19
507.42	3497.65
507.78	3420.53
508.13	3349.28
508.49	3281.78
508.85	3218.56
509.21	3150.85
509.57	3079.98
509.93	3009.62
510.28	2937.49
510.64	2869.08
511.00	2803.73
511.36	2743.15
511.72	2687.45
512.07	2641.83
512.43	2595.19
512.79	2549.83
513.15	2508.63
513.51	2465.22
513.86	2422.27
514.22	2382.10
514.58	2337.47
514.94	2296.58
515.30	2260.14
515.65	2222.62
516.01	2187.53
516.37	2158.44
516.73	2130.00
517.08	2105.73
517.44	2076.62
517.80	2046.17
518.16	2019.93
518.51	1990.74
518.87	1959.47
519.23	1933.38
519.59	1910.84
519.94	1882.91
520.30	1858.60
520.66	1833.46
521.01	1806.10
521.37	1781.01
521.73	1759.73
522.09	1739.77
522.44	1721.02
522.80	1700.96
523.16	1679.22
523.51	1657.94
523.87	1637.46
524.23	1618.90
524.58	1604.48
524.94	1588.22
525.30	1575.39
525.65	1561.28
526.01	1545.46
526.37	1529.66
526.72	1515.22
527.08	1500.40
527.44	1487.90
527.79	1475.43
528.15	1468.05
528.51	1457.29
528.86	1443.01
529.22	1428.27
529.58	1415.58
529.93	1402.94
530.29	1396.36
530.65	1388.87
531.00	1379.93
531.36	1374.22
531.71	1361.84
532.07	1352.50
532.43	1342.95
532.78	1335.65
533.14	1327.86
533.49	1320.69
533.85	1310.72
534.21	1306.46
534.56	1301.24
534.92	1296.91
535.27	1291.46
535.63	1286.03
535.98	1279.76
536.34	1274.54
536.69	1267.42
537.05	1261.36
537.41	1255.60
537.76	1250.78
538.12	1246.34
538.47	1240.32
538.83	1237.23
539.18	1234.42
539.54	1227.77
539.89	1223.02
540.25	1219.07
540.60	1214.78
540.96	1206.97
541.31	1205.89
541.67	1202.22
542.02	1200.11
542.38	1196.06
542.73	1196.44
543.09	1194.54
543.44	1194.12
543.80	1192.13
544.15	1191.01
544.51	1188.73
544.86	1182.18
545.22	1176.99
545.57	1171.88
545.93	1170.13
546.28	1167.25
546.64	1165.38
546.99	1162.40
547.35	1158.45
547.70	1156.32
548.05	1153.30
548.41	1154.38
548.76	1154.45
549.12	1154.21
549.47	1152.48
549.83	1154.21
550.18	1149.91
550.53	1146.37
550.89	1144.36
551.24	1143.38
551.60	1138.65
551.95	1139.21
552.30	1137.41
552.66	1138.41
553.01	1137.62
553.37	1138.04
553.72	1137.17
554.07	1137.87
554.43	1138.93
554.78	1135.16
555.13	1133.19
555.49	1129.61
555.84	1125.96
556.19	1120.88
556.55	1120.09
556.90	1119.15
557.26	1119.34
557.61	1120.44
557.96	1120.74
558.32	1123.62
558.67	1124.39
559.02	1123.78
559.37	1122.71
559.73	1119.10
560.08	1115.64
560.43	1111.82
560.79	1111.92
561.14	1110.98
561.49	1111.50
561.85	1109.79
562.20	1110.72
562.55	1111.92
562.90	1112.55
563.26	1113.91
563.61	1116.55
563.96	1117.37
564.32	1113.32
564.67	1110.82
565.02	1112.27
565.37	1109.98
565.73	1109.02
566.08	1108.43
566.43	1107.28
566.78	1106.46
567.14	1106.39
567.49	1106.70
567.84	1104.97
568.19	1106.02
568.54	1102.91
568.90	1099.56
569.25	1096.96
569.60	1098.04
569.95	1097.45
570.31	1095.14
570.66	1096.56
571.01	1098.41
571.36	1098.02
571.71	1102.11
572.06	1101.60
572.42	1098.95
572.77	1093.73
573.12	1095.70
573.47	1089.54
573.82	1092.26
574.18	1093.52
574.53	1097.71
574.88	1097.99
575.23	1097.71
575.58	1097.50
575.93	1097.38
576.28	1093.66
576.64	1092.87
576.99	1096.56
577.34	1095.00
577.69	1096.73
578.04	1097.83
578.39	1094.97
578.74	1097.34
579.09	1099.77
579.44	1099.14
579.80	1099.33
580.15	1099.86
580.50	1095.35
580.85	1091.88
581.20	1093.36
581.55	1094.72
581.90	1093.31
582.25	1092.73
582.60	1091.88
582.95	1088.51
583.30	1088.49
583.65	1090.90
584.00	1092.45
584.35	1097.52
584.71	1098.09
585.06	1092.96
585.41	1092.45
585.76	1088.42
586.11	1084.56
586.46	1085.17
586.81	1089.45
587.16	1085.91
587.51	1087.09
587.86	1089.00
588.21	1086.01
588.56	1083.11
588.91	1083.50
589.26	1084.77
589.61	1086.10
589.96	1084.65
590.31	1084.67
590.66	1084.91
591.01	1084.46
591.36	1082.33
591.71	1085.28
592.06	1086.85
592.41	1087.30
592.76	1089.19
593.10	1088.79
593.45	1089.05
593.80	1087.16
594.15	1090.01
594.50	1088.42
594.85	1088.49
595.20	1089.05
595.55	1090.76
595.90	1085.59
596.25	1083.08
596.60	1085.84
596.95	1084.53
597.30	1086.73
597.64	1100.78
597.99	1102.98
598.34	1099.02
598.69	1097.22
599.04	1091.60
599.39	1081.12
599.74	1080.91
600.09	1079.34
600.44	1081.05
600.78	1084.84
601.13	1084.89
601.48	1084.67
601.83	1087.90
602.18	1087.46
602.53	1090.01
602.88	1090.13
603.22	1090.48
603.57	1087.60
603.92	1090.15
604.27	1088.00
604.62	1086.01
604.97	1086.20
605.31	1085.47
605.66	1085.47
606.01	1085.31
606.36	1087.44
606.71	1088.70
607.05	1090.01
607.40	1088.02
607.75	1085.87
608.10	1087.16
608.44	1086.41
608.79	1085.94
609.14	1086.24
609.49	1087.65
609.84	1088.91
610.18	1089.10
610.53	1090.88
610.88	1090.78
611.23	1093.78
611.57	1092.07
611.92	1087.86
612.27	1087.51
612.62	1086.31
612.96	1081.42
613.31	1076.39
613.66	1079.81
614.00	1080.91
614.35	1079.62
614.70	1081.05
615.05	1082.40
615.39	1082.71
615.74	1082.85
616.09	1085.00
616.43	1085.61
616.78	1088.04
617.13	1085.45
617.47	1085.73
617.82	1083.81
618.17	1083.55
618.51	1083.71
618.86	1083.04
619.21	1080.63
619.55	1084.79
619.90	1085.31
620.25	1083.48
620.59	1084.91
620.94	1086.20
621.29	1081.87
621.63	1081.30
621.98	1082.31
622.32	1083.08
622.67	1082.31
623.02	1083.36
623.36	1083.97
623.71	1081.73
624.05	1080.18
624.40	1079.74
624.75	1078.19
625.09	1079.53
625.44	1079.41
625.78	1077.96
626.13	1078.40
626.48	1083.64
626.82	1078.85
627.17	1082.61
627.51	1087.58
627.86	1089.54
628.20	1087.44
628.55	1086.80
628.89	1086.08
629.24	1084.30
629.58	1083.95
629.93	1084.91
630.28	1088.28
630.62	1088.28
630.97	1087.93
631.31	1086.03
631.66	1084.44
632.00	1083.27
632.35	1078.87
632.69	1082.03
633.04	1082.45
633.38	1081.98
633.73	1084.18
634.07	1087.58
634.42	1085.89
634.76	1085.68
635.11	1086.48
635.45	1084.72
635.79	1084.39
636.14	1080.67
636.48	1078.03
636.83	1074.12
637.17	1075.20
637.52	1076.13
637.86	1078.96
638.21	1080.67
638.55	1084.00
638.89	1085.17
639.24	1086.48
639.58	1087.18
639.93	1091.74
640.27	1090.08
640.61	1086.27
640.96	1084.25
641.30	1081.56
641.65	1078.45
641.99	1080.09
642.33	1083.32
642.68	1082.03
643.02	1083.62
643.37	1081.70
643.71	1082.52
644.05	1078.94
644.40	1081.42
644.74	1079.10
645.08	1081.44
645.43	1081.26
645.77	1083.67
646.11	1082.05
646.46	1083.60
646.80	1081.80
647.14	1081.80
647.49	1080.44
647.83	1078.52
648.17	1078.73
648.52	1079.97
648.86	1076.25
649.20	1076.32
649.55	1077.00
649.89	1076.81
650.23	1076.15
650.57	1078.54
650.92	1081.49
651.26	1085.10
651.60	1086.69
651.95	1085.84
652.29	1087.09
652.63	1083.74
652.97	1082.03
653.32	1078.71
653.66	1078.99
654.00	1079.78
654.34	1079.62
654.69	1078.57
655.03	1078.73
655.37	1081.98
655.71	1080.67
656.05	1080.41
656.40	1078.21
656.74	1078.03
657.08	1075.10
657.42	1074.89
657.76	1075.48
658.11	1080.30
658.45	1080.65
658.79	1080.56
659.13	1080.06
659.47	1081.19
659.82	1081.05
660.16	1083.69
660.50	1083.20
660.84	1084.02
661.18	1083.46
661.52	1080.70
661.87	1080.25
662.21	1079.34
662.55	1080.95
662.89	1080.06
663.23	1080.04
663.57	1078.68
663.91	1080.39
664.25	1077.14
664.60	1079.57
664.94	1081.84
665.28	1084.51
665.62	1086.06
665.96	1087.18
666.30	1089.05
666.64	1088.77
666.98	1087.18
667.32	1085.19
667.66	1084.93
668.01	1082.64
668.35	1083.01
668.69	1082.99
669.03	1082.73
669.37	1085.38
669.71	1081.61
670.05	1081.61
670.39	1082.05
670.73	1083.48
671.07	1082.22
671.41	1083.57
671.75	1080.93
672.09	1079.92
672.43	1077.33
672.77	1076.41
673.11	1078.89
673.45	1080.13
673.79	1079.85
674.13	1082.92
674.47	1082.05
674.81	1080.18
675.15	1079.90
675.49	1077.44
675.83	1075.13
676.17	1077.00
676.51	1078.12
676.85	1078.14
677.19	1077.47
677.53	1078.19
677.87	1076.69
678.21	1076.65
678.55	1074.98
678.89	1077.65
679.23	1078.12
679.57	1077.79
679.90	1077.44
680.24	1077.30
680.58	1079.38
680.92	1080.88
681.26	1083.32
681.60	1083.41
681.94	1084.56
682.28	1084.98
682.62	1083.57
682.96	1081.00
683.29	1080.20
683.63	1083.48
683.97	1080.84
684.31	1081.89
684.65	1082.10
684.99	1084.63
685.33	1081.66
685.67	1081.58
686.00	1081.58
686.34	1082.57
686.68	1080.44
687.02	1080.02
687.36	1079.01
687.70	1076.13
688.03	1074.45
688.37	1078.92
688.71	1080.06
689.05	1082.66
689.39	1083.88
689.72	1083.76
690.06	1079.97
690.40	1077.56
690.74	1077.79
691.08	1076.79
691.41	1079.62
691.75	1078.45
692.09	1079.88
692.43	1079.29
692.76	1080.74
693.10	1077.86
693.44	1076.11
693.78	1076.30
694.11	1073.70
694.45	1075.22
694.79	1078.82
695.13	1081.54
695.46	1078.14
695.80	1080.63
696.14	1077.77
696.48	1076.83
696.81	1076.15
697.15	1079.62
697.49	1075.90
697.82	1079.64
698.16	1080.06
698.50	1078.31
698.83	1081.00
699.17	1084.86
699.51	1081.96
699.84	1078.71
700.18	1081.51
700.52	1078.54
700.85	1079.10
701.19	1080.04
701.53	1080.67
701.86	1080.34
702.20	1082.80
702.54	1086.03
702.87	1085.54
703.21	1087.37
703.55	1085.24
703.88	1081.44
704.22	1081.84
704.55	1082.05
704.89	1079.31
705.23	1082.71
705.56	1084.44
705.90	1078.33
706.23	1075.38
706.57	1076.53
706.91	1079.03
707.24	1080.70
707.58	1084.84
707.91	1088.84
708.25	1090.69
708.58	1086.57
708.92	1084.09
709.26	1083.71
709.59	1081.33
709.93	1082.71
710.26	1084.16
710.60	1084.81
710.93	1082.24
711.27	1083.64
711.60	1078.59
711.94	1075.27
712.27	1074.05
712.61	1075.43
712.94	1072.78
713.28	1074.17
713.61	1074.56
713.95	1075.31
714.28	1073.07
714.62	1074.68
714.95	1076.81
715.29	1076.34
715.62	1076.79
715.96	1073.37
716.29	1073.35
716.63	1073.30
716.96	1074.56
717.29	1075.57
717.63	1078.66
717.96	1077.16
718.30	1076.41
718.63	1075.59
718.97	1076.37
719.30	1077.07
719.63	1078.99
719.97	1079.31
720.30	1082.01
720.64	1083.22
720.97	1084.96
721.30	1085.07
721.64	1081.96
721.97	1083.43
722.31	1082.76
722.64	1083.74
722.97	1084.25
723.31	1087.32
723.64	1084.98
723.97	1085.77
724.31	1083.32
724.64	1082.57
724.98	1080.25
725.31	1079.03
725.64	1075.43
725.98	1078.61
726.31	1079.55
726.64	1079.83
726.97	1081.40
727.31	1084.77
727.64	1083.36
727.97	1083.43
728.31	1084.30
728.64	1085.70
728.97	1081.58
729.31	1077.16
729.64	1074.73
729.97	1073.04
730.30	1072.34
730.64	1077.18
730.97	1083.62
731.30	1085.33
731.63	1088.93
731.97	1087.39
732.30	1085.82
732.63	1080.37
732.96	1078.31
733.30	1075.71
733.63	1074.38
733.96	1072.85
734.29	1074.52
734.63	1077.44
734.96	1079.88
735.29	1082.08
735.62	1079.95
735.95	1079.43
736.29	1077.49
736.62	1075.52
736.95	1072.39
737.28	1074.45
737.61	1076.25
737.94	1077.11
738.28	1077.91
738.61	1081.40
738.94	1079.95
739.27	1079.41
739.60	1077.58
739.93	1077.84
740.27	1076.41
740.60	1076.51
740.93	1077.35
741.26	1079.95
741.59	1079.13
741.92	1075.85
742.25	1078.28
742.58	1077.21
742.91	1075.05
743.25	1076.79
743.58	1082.43
743.91	1081.47
744.24	1082.66
744.57	1084.91
744.90	1085.33
745.23	1082.59
745.56	1081.40
745.89	1081.77
746.22	1083.22
746.55	1080.30
746.88	1079.55
747.21	1082.43
747.54	1082.10
747.87	1078.21
748.20	1079.64
748.53	1081.61
748.87	1080.84
749.20	1077.72
749.53	1075.97
749.86	1076.93
750.19	1078.00
750.52	1076.11
750.85	1079.83
751.18	1083.60
751.51	1083.64
751.84	1080.25
752.16	1082.12
752.49	1081.12
752.82	1084.11
753.15	1082.87
753.48	1085.68
753.81	1084.70
754.14	1081.28
754.47	1078.21
754.80	1076.01
755.13	1074.96
755.46	1075.71
755.79	1078.07
756.12	1078.47
756.45	1081.89
756.78	1081.35
757.11	1080.32
757.43	1080.09
757.76	1078.89
758.09	1075.69
758.42	1076.51
758.75	1074.87
759.08	1073.53
759.41	1073.95
759.74	1074.68
760.07	1074.59
760.39	1074.47
760.72	1074.82
761.05	1071.78
761.38	1073.35
761.71	1074.52
762.04	1080.06
762.36	1077.79
762.69	1079.27
763.02	1078.45
763.35	1073.67
763.68	1071.17
764.01	1073.58
764.33	1072.04
764.66	1069.72
764.99	1074.14
765.32	1075.59
765.65	1075.31
765.97	1079.90
766.30	1081.12
766.63	1079.50
766.96	1074.35
767.28	1077.82
767.61	1077.82
767.94	1081.54
768.27	1084.96
768.59	1087.55
768.92	1086.10
769.25	1084.53
769.58	1081.35
769.90	1077.86
770.23	1076.90
770.56	1076.30
770.89	1077.11
771.21	1076.46
771.54	1077.49
771.87	1080.02
772.19	1078.17
772.52	1076.51
772.85	1078.80
773.17	1079.06
773.50	1075.71
773.83	1076.90
774.15	1079.20
774.48	1075.34
774.81	1074.68
775.13	1075.27
775.46	1076.48
775.79	1074.84
776.11	1077.70
776.44	1079.29
776.77	1079.69
777.09	1076.41
777.42	1077.28
777.74	1076.53
778.07	1074.31
778.40	1074.52
778.72	1075.48
779.05	1075.76
779.37	1078.50
779.70	1076.20
780.03	1076.55
780.35	1078.52
780.68	1078.85
781.00	1076.27
781.33	1078.75
781.65	1079.85
781.98	1078.96
782.31	1077.23
782.63	1082.10
782.96	1083.15
783.28	1081.47
783.61	1081.09
783.93	1079.69
784.26	1074.05
784.58	1071.99
784.91	1072.83
785.23	1073.84
785.56	1073.95
785.88	1072.67
786.21	1074.73
786.53	1076.51
786.86	1077.44
787.18	1078.52
787.51	1081.16
787.83	1079.43
788.16	1077.91
788.48	1074.59
788.81	1076.51
789.13	1075.29
789.46	1075.38
789.78	1073.18
790.10	1075.34
790.43	1072.27
790.75	1075.48
791.08	1075.73
791.40	1077.21
791.73	1079.13
792.05	1082.52
792.37	1081.66
792.70	1084.79
793.02	1084.02
793.35	1081.77
793.67	1081.02
793.99	1079.76
794.32	1076.20
794.64	1077.35
794.96	1073.23
795.29	1073.93
795.61	1073.02
795.93	1073.42
796.26	1072.55
796.58	1079.57
796.91	1078.50
797.23	1080.65
797.55	1081.21
797.87	1080.27
798.20	1074.63
798.52	1075.80
798.84	1075.38
799.17	1075.69
799.49	1080.48
799.81	1082.33
800.14	1079.64
800.46	1077.96
800.78	1075.36
801.10	1071.99
801.43	1072.27
801.75	1073.18
802.07	1075.29
802.40	1075.66
802.72	1075.22
803.04	1074.63
803.36	1075.90
803.69	1076.72
804.01	1077.54
804.33	1077.72
804.65	1079.83
804.97	1080.58
805.30	1075.50
805.62	1075.45
805.94	1076.72
806.26	1077.37
806.58	1073.11
806.91	1075.34
807.23	1077.04
807.55	1076.23
807.87	1073.60
808.19	1074.03
808.52	1073.91
808.84	1073.95
809.16	1072.41
809.48	1070.56
809.80	1069.91
810.12	1070.49
810.44	1070.63
810.77	1070.63
811.09	1074.17
811.41	1077.40
811.73	1077.84
812.05	1075.92
812.37	1076.86
812.69	1073.84
813.01	1073.14
813.33	1074.10
813.66	1076.30
813.98	1075.99
814.30	1076.34
814.62	1076.76
814.94	1076.41
815.26	1076.18
815.58	1077.37
815.90	1078.66
816.22	1074.61
816.54	1073.93
816.86	1073.65
817.18	1074.52
817.50	1076.06
817.82	1080.02
818.14	1079.69
818.46	1078.85
818.78	1077.07
819.10	1077.82
819.42	1077.07
819.74	1075.29
820.06	1074.42
820.38	1077.68
820.70	1076.39
821.02	1076.76
821.34	1078.38
821.66	1079.15
821.98	1077.28
822.30	1076.48
822.62	1076.39
822.94	1077.75
823.26	1079.34
823.58	1078.59
823.90	1078.38
824.22	1076.37
824.54	1076.08
824.86	1072.46
825.18	1071.61
825.50	1070.16
825.81	1071.57
826.13	1071.97
826.45	1076.55
826.77	1079.92
827.09	1084.53
827.41	1083.79
827.73	1082.33
828.05	1080.56
828.36	1076.08
828.68	1074.91
829.00	1076.15
829.32	1078.52
829.64	1078.14
829.96	1081.28
830.28	1081.54
830.59	1082.22
830.91	1079.17
831.23	1077.18
831.55	1072.22
831.87	1069.55
832.19	1064.83
832.50	1066.47
832.82	1070.16
833.14	1073.14
833.46	1072.97
833.78	1077.25
834.09	1075.66
834.41	1074.00
834.73	1074.54
835.05	1076.20
835.36	1077.33
835.68	1079.41
836.00	1079.43
836.32	1078.99
836.63	1078.03
836.95	1079.48
837.27	1077.09
837.59	1076.90
837.90	1075.92
838.22	1074.89
838.54	1071.03
838.85	1072.85
839.17	1071.52
839.49	1074.96
839.80	1076.34
840.12	1079.46
840.44	1079.88
840.76	1082.45
841.07	1079.17
841.39	1078.96
841.71	1076.30
842.02	1078.59
842.34	1076.67
842.65	1077.70
842.97	1077.93
843.29	1079.13
843.60	1072.95
843.92	1072.06
844.24	1070.94
844.55	1070.26
844.87	1067.35
845.18	1072.15
845.50	1075.20
845.82	1076.55
846.13	1079.36
846.45	1082.57
846.76	1077.49
847.08	1076.79
847.40	1077.37
847.71	1075.69
848.03	1074.73
848.34	1080.63
848.66	1080.86
848.97	1080.13
849.29	1080.93
849.60	1080.51
849.92	1077.16
850.24	1073.51
850.55	1073.51
850.87	1073.16
851.18	1074.38
851.50	1075.64
851.81	1076.76
852.13	1076.69
852.44	1075.76
852.76	1071.99
853.07	1072.69
853.39	1073.95
853.70	1073.14
854.01	1073.51
854.33	1075.55
854.64	1073.42
854.96	1075.87
855.27	1075.24
855.59	1074.68
855.90	1077.42
856.22	1077.63
856.53	1076.53
856.84	1082.36
857.16	1078.52
857.47	1077.79
857.79	1078.12
858.10	1077.21
858.41	1073.30
858.73	1078.85
859.04	1078.40
859.36	1078.61
859.67	1080.32
859.98	1078.26
860.30	1078.38
860.61	1077.51
860.92	1075.71
861.24	1072.62
861.55	1074.21
861.87	1073.09
862.18	1073.09
862.49	1074.89
862.81	1075.64
863.12	1074.47
863.43	1073.42
863.74	1073.65
864.06	1074.84
864.37	1073.25
864.68	1074.00
865.00	1075.43
865.31	1075.57
865.62	1074.63
865.94	1078.87
866.25	1080.98
866.56	1080.06
866.87	1079.27
867.19	1078.26
867.50	1078.43
867.81	1075.69
868.12	1074.77
868.44	1075.85
868.75	1076.74
869.06	1071.12
869.37	1073.44
869.68	1073.30
870.00	1073.28
870.31	1074.77
870.62	1078.57
870.93	1074.66
871.24	1074.05
871.56	1071.05
871.87	1068.85
872.18	1067.96
872.49	1071.59
872.80	1071.71
873.12	1072.36
873.43	1073.49
873.74	1075.69
874.05	1074.59
874.36	1074.73
874.67	1077.72
874.98	1078.33
875.29	1075.45
875.61	1075.71
875.92	1075.78
876.23	1075.20
876.54	1072.60
876.85	1074.28
877.16	1074.07
877.47	1073.67
877.78	1074.07
878.09	1075.41
878.40	1076.08
878.72	1077.44
879.03	1079.57
879.34	1076.83
879.65	1077.58
879.96	1078.33
880.27	1077.70
880.58	1078.78
880.89	1081.61
881.20	1081.80
881.51	1079.64
881.82	1079.53
882.13	1079.38
882.44	1076.48
882.75	1074.49
883.06	1072.36
883.37	1073.00
883.68	1070.23
883.99	1073.95
884.30	1078.12
884.61	1080.56
884.92	1079.53
885.23	1080.34
885.54	1078.43
885.85	1075.50
886.16	1076.81
886.47	1077.14
886.78	1078.96
887.08	1077.82
887.39	1079.78
887.70	1078.40
888.01	1076.62
888.32	1076.20
888.63	1075.03
888.94	1071.87
889.25	1069.44
889.56	1073.16
889.87	1073.44
890.17	1075.83
890.48	1077.96
890.79	1078.54
891.10	1078.38
891.41	1077.51
891.72	1075.15
892.03	1072.85
892.34	1075.71
892.64	1073.14
892.95	1073.11
893.26	1076.20
893.57	1077.14
893.88	1076.06
894.18	1075.97
894.49	1074.05
894.80	1074.12
895.11	1075.27
895.42	1072.60
895.72	1074.35
896.03	1077.84
896.34	1075.66
896.65	1077.89
896.96	1081.47
897.26	1078.94
897.57	1078.26
897.88	1079.13
898.19	1077.25
898.49	1077.16
898.80	1080.88
899.11	1080.06
899.41	1080.13
899.72	1078.92
900.03	1079.01
900.34	1076.58
900.64	1076.20
900.95	1077.58
901.26	1078.21
901.56	1079.76
901.87	1081.42
902.18	1083.18
902.48	1080.51
902.79	1078.54
903.10	1076.11
903.40	1073.04
903.71	1071.22
904.02	1072.71
904.32	1073.91
904.63	1077.82
904.94	1080.93
905.24	1081.82
905.55	1080.63
905.85	1082.36
906.16	1076.01
906.47	1075.64
906.77	1077.30
907.08	1078.59
907.38	1074.52
907.69	1075.27
908.00	1074.24
908.30	1072.90
908.61	1072.81
908.91	1077.25
909.22	1076.06
909.52	1074.24
909.83	1074.40
910.14	1074.96
910.44	1074.91
910.75	1076.44
911.05	1077.04
911.36	1076.44
911.66	1074.63
911.97	1073.28
912.27	1072.32
912.58	1076.65
912.88	1075.48
913.19	1077.75
913.49	1075.57
913.80	1078.26
914.10	1075.31
914.41	1077.42
914.71	1076.65
915.01	1079.38
915.32	1077.79
915.62	1076.97
915.93	1076.51
916.23	1077.72
916.54	1077.96
916.84	1079.13
917.15	1080.06
917.45	1082.76
917.75	1081.05
918.06	1079.74
918.36	1080.88
918.67	1082.80
918.97	1079.43
919.27	1082.29
919.58	1082.73
919.88	1082.05
920.18	1076.81
920.49	1074.05
920.79	1072.27
921.10	1072.74
921.40	1074.28
921.70	1077.09
922.01	1081.07
922.31	1081.19
922.61	1078.61
922.92	1079.90
923.22	1080.32
923.52	1078.94
923.82	1077.23
924.13	1079.36
924.43	1077.11
924.73	1076.95
925.04	1076.74
925.34	1074.28
925.64	1072.41
925.94	1072.71
926.25	1074.21
926.55	1075.22
926.85	1078.52
927.15	1079.57
927.46	1074.12
927.76	1072.43
928.06	1073.56
928.36	1074.45
928.67	1072.46
928.97	1078.54
929.27	1078.05
929.57	1076.34
929.87	1074.98
930.18	1075.66
930.48	1074.10
930.78	1076.46
931.08	1079.03
931.38	1080.53
931.69	1083.08
931.99	1081.70
932.29	1078.54
932.59	1074.63
932.89	1072.25
933.19	1068.24
933.49	1068.27
933.80	1070.07
934.10	1072.15
934.40	1074.00
934.70	1079.53
935.00	1082.05
935.30	1078.54
935.60	1077.54
935.90	1076.18
936.20	1072.60
936.50	1072.64
936.81	1073.30
937.11	1071.85
937.41	1075.41
937.71	1075.43
938.01	1074.56
938.31	1073.14
938.61	1074.38
938.91	1073.60
939.21	1074.31
939.51	1072.53
939.81	1075.45
940.11	1075.36
940.41	1074.03
940.71	1074.17
941.01	1075.66
941.31	1076.39
941.61	1076.67
941.91	1076.79
942.21	1075.87
942.51	1072.46
942.81	1069.55
943.11	1071.68
943.41	1072.48
943.71	1075.05
944.01	1078.59
944.31	1085.07
944.61	1080.09
944.90	1079.50
945.20	1077.72
945.50	1078.17
945.80	1077.63
946.10	1081.91
946.40	1080.18
946.70	1080.23
947.00	1079.43
947.30	1078.43
947.60	1077.35
947.89	1078.71
948.19	1080.09
948.49	1080.18
948.79	1078.03
949.09	1076.18
949.39	1076.69
949.69	1073.70
949.98	1073.72
950.28	1075.03
950.58	1074.84
950.88	1075.36
951.18	1077.93
951.48	1077.70
951.77	1075.43
952.07	1078.71
952.37	1077.96
952.67	1078.12
952.97	1078.68
953.26	1081.68
953.56	1080.98
953.86	1080.18
954.16	1080.74
954.45	1081.12
954.75	1079.53
955.05	1076.95
955.35	1077.25
955.64	1078.45
955.94	1076.15
956.24	1075.15
956.54	1076.51
956.83	1074.42
957.13	1071.71
957.43	1075.80
957.72	1075.17
958.02	1076.18
958.32	1077.72
958.61	1076.27
958.91	1076.46
959.21	1076.95
959.50	1078.10
959.80	1078.78
960.10	1079.27
960.39	1075.27
960.69	1077.98
960.99	1077.86
961.28	1079.01
961.58	1079.46
961.87	1079.88
962.17	1077.54
962.47	1077.51
962.76	1074.00
963.06	1072.22
963.36	1074.26
963.65	1075.45
963.95	1073.23
964.24	1072.76
964.54	1072.36
964.83	1069.93
965.13	1072.34
965.42	1072.55
965.72	1077.02
966.02	1079.62
966.31	1080.23
966.61	1076.13
966.90	1075.71
967.20	1077.93
967.49	1079.83
967.79	1080.93
968.08	1082.85
968.38	1086.99
968.67	1082.26
968.97	1080.86
969.26	1077.58
969.56	1077.30
969.85	1074.98
970.15	1075.90
970.44	1076.30
970.74	1077.65
971.03	1078.05
971.32	1079.62
971.62	1077.07
971.91	1075.10
972.21	1077.00
972.50	1075.87
972.80	1073.65
973.09	1073.25
973.38	1076.34
973.68	1073.86
973.97	1072.06
974.27	1073.42
974.56	1077.68
974.85	1074.70
975.15	1077.75
975.44	1080.04
975.73	1078.00
976.03	1074.91
976.32	1079.10
976.61	1076.60
976.91	1076.79
977.20	1076.13
977.49	1081.56
977.79	1080.53
978.08	1081.73
978.37	1080.98
978.67	1083.67
978.96	1078.26
979.25	1076.04
979.55	1075.92
979.84	1073.51
980.13	1072.67
980.42	1074.52
980.72	1072.81
981.01	1074.98
981.30	1078.52
981.59	1078.50
981.89	1075.55
982.18	1075.90
982.47	1074.17
982.76	1074.21
983.06	1071.85
983.35	1075.80
983.64	1077.04
983.93	1079.81
984.22	1077.00
984.52	1078.59
984.81	1078.99
985.10	1076.18
985.39	1070.49
985.68	1070.05
985.97	1070.26
986.27	1070.68
986.56	1076.27
986.85	1079.15
987.14	1081.21
987.43	1079.27
987.72	1077.68
988.01	1074.14
988.31	1073.37
988.60	1072.57
988.89	1076.79
989.18	1076.06
989.47	1080.41
989.76	1082.50
990.05	1081.77
990.34	1079.85
990.63	1077.00
990.92	1074.87
991.21	1073.91
991.51	1075.22
991.80	1076.04
992.09	1081.87
992.38	1079.46
992.67	1077.14
992.96	1076.76
993.25	1074.03
993.54	1073.77
993.83	1075.31
994.12	1076.13
994.41	1075.76
994.70	1078.78
994.99	1077.96
995.28	1079.20
995.57	1078.78
995.86	1080.46
996.15	1077.04
996.44	1072.62
996.73	1070.09
997.02	1070.87
997.31	1071.94
997.59	1072.88
997.88	1072.85
998.17	1075.10
998.46	1076.30
998.75	1075.15
999.04	1077.70
999.33	1081.14
999.62	1082.19
999.91	1083.83
1000.20	1084.49
1000.49	1083.34
1000.77	1082.61
1001.06	1082.12
1001.35	1081.96
1001.64	1079.29
1001.93	1079.78
1002.22	1079.22
1002.51	1079.43
1002.79	1074.61
1003.08	1076.74
1003.37	1074.49
1003.66	1073.14
1003.95	1071.80
1004.23	1075.22
1004.52	1077.49
1004.81	1080.63
1005.10	1084.28
1005.39	1087.86
1005.67	1087.41
1005.96	1086.62
1006.25	1085.89
1006.54	1082.76
1006.83	1079.53
1007.11	1082.83
1007.40	1081.54
1007.69	1080.60
1007.97	1083.48
1008.26	1084.07
1008.55	1083.15
1008.84	1084.21
1009.12	1080.81
1009.41	1077.44
1009.70	1074.73
1009.98	1073.23
1010.27	1071.08
1010.56	1074.82
1010.85	1077.07
1011.13	1078.64
1011.42	1076.23
1011.71	1077.21
1011.99	1076.62
1012.28	1076.67
1012.56	1076.46
1012.85	1076.72
1013.14	1075.08
1013.42	1077.11
1013.71	1077.89
1014.00	1079.13
1014.28	1081.56
1014.57	1083.41
1014.85	1081.28
1015.14	1083.25
1015.43	1081.98
1015.71	1078.92
1016.00	1076.65
1016.28	1078.50
1016.57	1073.46
1016.85	1072.27
1017.14	1072.55
1017.43	1071.71
1017.71	1069.91
1018.00	1073.04
1018.28	1074.24
1018.57	1077.11
1018.85	1082.61
1019.14	1085.28
1019.42	1084.32
1019.71	1083.34
1019.99	1083.25
1020.28	1081.73
1020.56	1080.44
1020.85	1080.37
1021.13	1083.18
1021.42	1084.53
1021.70	1081.54
1021.99	1079.60
1022.27	1079.78
1022.55	1072.67
1022.84	1079.81
>>>>>End Processed Spectral Data<<<<<
