SpectraSuite Data File
++++++++++++++++++++++++++++++++++++
Date: Mon Aug 26 10:21:50 PDT 2019
User: corrico
Dark Spectrum Present: No
Reference Spectrum Present: No
Number of Sampled Component Spectra: 1
Spectrometers: USB2+H06089
Integration Time (usec): 2000 (USB2+H06089)
Spectra Averaged: 20 (USB2+H06089)
Boxcar Smoothing: 2 (USB2+H06089)
Correct for Electrical Dark: No (USB2+H06089)
Strobe/Lamp Enabled: No (USB2+H06089)
Correct for Detector Non-linearity: No (USB2+H06089)
Correct for Stray Light: No (USB2+H06089)
Number of Pixels in Processed Spectrum: 2048
>>>>>Begin Processed Spectral Data<<<<<
339.70	1035.10
340.07	1035.10
340.45	1003.97
340.82	981.60
341.19	956.02
341.57	927.27
341.94	913.77
342.31	903.82
342.69	897.03
343.06	891.67
343.43	892.02
343.81	890.71
344.18	890.53
344.55	894.58
344.93	899.89
345.30	905.76
345.67	913.70
346.04	921.02
346.42	931.60
346.79	942.81
347.16	954.12
347.54	964.96
347.91	974.67
348.28	981.55
348.65	989.74
349.03	997.98
349.40	1003.90
349.77	1013.76
350.14	1019.28
350.52	1030.00
350.89	1035.08
351.26	1040.67
351.63	1046.83
352.01	1054.08
352.38	1055.02
352.75	1058.06
353.12	1060.59
353.50	1061.22
353.87	1061.95
354.24	1061.27
354.61	1066.14
354.98	1067.26
355.36	1071.17
355.73	1072.71
356.10	1075.92
356.47	1073.04
356.84	1075.08
357.22	1072.50
357.59	1075.71
357.96	1077.84
358.33	1079.97
358.70	1081.49
359.08	1080.88
359.45	1077.40
359.82	1076.18
360.19	1075.15
360.56	1072.62
360.94	1073.72
361.31	1072.62
361.68	1072.69
362.05	1072.48
362.42	1071.90
362.79	1071.26
363.16	1070.75
363.54	1067.47
363.91	1064.69
364.28	1065.18
364.65	1065.97
365.02	1067.92
365.39	1066.09
365.76	1067.45
366.14	1066.75
366.51	1067.94
366.88	1068.43
367.25	1071.22
367.62	1070.87
367.99	1068.97
368.36	1065.11
368.73	1063.75
369.10	1064.97
369.48	1064.48
369.85	1063.89
370.22	1065.04
370.59	1066.30
370.96	1066.18
371.33	1068.03
371.70	1072.22
372.07	1072.57
372.44	1072.57
372.81	1072.20
373.18	1074.54
373.55	1072.53
373.93	1074.42
374.30	1076.01
374.67	1075.38
375.04	1071.03
375.41	1074.40
375.78	1069.72
376.15	1063.96
376.52	1066.07
376.89	1068.10
377.26	1066.37
377.63	1069.16
378.00	1073.28
378.37	1071.17
378.74	1070.47
379.11	1070.35
379.48	1070.56
379.85	1069.72
380.22	1070.16
380.59	1069.95
380.96	1067.40
381.33	1067.10
381.70	1066.54
382.07	1066.68
382.44	1068.22
382.81	1068.50
383.18	1068.69
383.55	1070.94
383.92	1070.84
384.29	1071.29
384.66	1077.04
385.03	1078.50
385.40	1077.75
385.77	1075.69
386.14	1073.58
386.51	1073.07
386.88	1072.50
387.25	1069.32
387.62	1070.26
387.99	1072.95
388.36	1070.23
388.73	1071.85
389.10	1074.05
389.46	1076.48
389.83	1072.48
390.20	1070.02
390.57	1067.57
390.94	1067.52
391.31	1065.65
391.68	1070.00
392.05	1074.35
392.42	1076.37
392.79	1076.44
393.16	1078.14
393.53	1075.34
393.89	1071.82
394.26	1068.83
394.63	1070.42
395.00	1071.15
395.37	1073.51
395.74	1077.44
396.11	1080.58
396.48	1080.16
396.84	1077.93
397.21	1076.34
397.58	1072.95
397.95	1070.98
398.32	1070.63
398.69	1070.30
399.06	1071.40
399.42	1069.70
399.79	1072.20
400.16	1073.95
400.53	1075.73
400.90	1072.04
401.27	1075.55
401.64	1072.43
402.00	1069.25
402.37	1071.66
402.74	1075.01
403.11	1073.74
403.48	1076.95
403.84	1077.11
404.21	1072.20
404.58	1074.07
404.95	1077.44
405.32	1076.65
405.68	1076.34
406.05	1078.36
406.42	1075.52
406.79	1076.15
407.16	1076.74
407.52	1078.89
407.89	1081.12
408.26	1081.16
408.63	1078.43
408.99	1076.60
409.36	1075.24
409.73	1072.22
410.10	1074.87
410.47	1075.17
410.83	1078.17
411.20	1079.34
411.57	1083.64
411.94	1084.14
412.30	1085.45
412.67	1083.81
413.04	1086.20
413.40	1081.16
413.77	1080.91
414.14	1080.37
414.51	1081.61
414.87	1079.03
415.24	1080.79
415.61	1079.10
415.97	1081.89
416.34	1082.57
416.71	1084.84
417.08	1087.74
417.44	1088.35
417.81	1085.14
418.18	1084.93
418.54	1084.74
418.91	1084.81
419.28	1082.38
419.64	1082.24
420.01	1083.04
420.38	1082.97
420.74	1079.74
421.11	1084.65
421.48	1085.80
421.84	1083.81
422.21	1081.84
422.58	1084.81
422.94	1086.57
423.31	1087.39
423.68	1088.23
424.04	1094.95
424.41	1097.01
424.77	1094.08
425.14	1096.24
425.51	1099.28
425.87	1096.40
426.24	1096.87
426.61	1102.13
426.97	1107.66
427.34	1108.52
427.70	1110.84
428.07	1111.31
428.44	1115.78
428.80	1113.70
429.17	1118.85
429.53	1122.05
429.90	1127.55
430.27	1128.58
430.63	1131.79
431.00	1135.96
431.36	1142.28
431.73	1144.73
432.09	1147.73
432.46	1153.44
432.83	1158.57
433.19	1163.11
433.56	1170.67
433.92	1180.59
434.29	1191.64
434.65	1199.41
435.02	1208.09
435.38	1215.72
435.75	1221.24
436.11	1228.48
436.48	1235.83
436.84	1247.60
437.21	1263.44
437.57	1278.33
437.94	1294.04
438.30	1314.49
438.67	1329.59
439.03	1347.26
439.40	1369.33
439.76	1393.60
440.13	1413.40
440.49	1440.93
440.86	1462.51
441.22	1486.92
441.59	1511.40
441.95	1542.37
442.32	1566.36
442.68	1602.66
443.05	1634.12
443.41	1671.45
443.78	1710.79
444.14	1756.20
444.51	1797.74
444.87	1850.12
445.24	1892.60
445.60	1940.28
445.96	1994.63
446.33	2055.48
446.69	2107.30
447.06	2175.22
447.42	2243.22
447.79	2310.09
448.15	2384.77
448.51	2471.07
448.88	2559.96
449.24	2654.38
449.61	2765.30
449.97	2869.82
450.33	2977.58
450.70	3078.93
451.06	3197.73
451.43	3301.91
451.79	3438.69
452.15	3578.42
452.52	3732.85
452.88	3885.73
453.24	4059.24
453.61	4239.74
453.97	4425.25
454.34	4621.01
454.70	4847.74
455.06	5078.71
455.43	5305.48
455.79	5529.38
456.15	5787.35
456.52	6038.07
456.88	6324.24
457.24	6604.08
457.61	6914.64
457.97	7207.68
458.33	7487.96
458.70	7779.71
459.06	8060.06
459.42	8401.19
459.79	8719.88
460.15	9076.67
460.51	9408.63
460.88	9777.31
461.24	10061.78
461.60	10382.15
461.96	10691.73
462.33	10965.50
462.69	11231.39
463.05	11569.27
463.42	11889.69
463.78	12209.47
464.14	12507.31
464.50	12810.83
464.87	13005.68
465.23	13154.54
465.59	13243.41
465.95	13331.95
466.32	13402.35
466.68	13472.36
467.04	13507.04
467.40	13582.34
467.77	13650.03
468.13	13617.47
468.49	13565.44
468.85	13526.52
469.22	13449.37
469.58	13321.63
469.94	13268.12
470.30	13208.04
470.66	13123.55
471.03	12973.75
471.39	12892.02
471.75	12689.54
472.11	12495.14
472.47	12359.90
472.84	12241.47
473.20	12067.50
473.56	11977.97
473.92	11782.89
474.28	11547.15
474.65	11316.84
475.01	11086.20
475.37	10799.70
475.73	10582.22
476.09	10353.27
476.45	10137.66
476.81	9926.87
477.18	9724.62
477.54	9568.91
477.90	9459.70
478.26	9304.54
478.62	9165.70
478.98	9071.73
479.34	8970.92
479.71	8821.50
480.07	8696.33
480.43	8568.75
480.79	8429.46
481.15	8313.91
481.51	8176.52
481.87	8060.03
482.23	7935.19
482.59	7828.65
482.96	7703.71
483.32	7617.13
483.68	7537.95
484.04	7483.91
484.40	7401.31
484.76	7312.72
485.12	7217.56
485.48	7103.48
485.84	6962.39
486.20	6822.29
486.56	6664.07
486.92	6527.57
487.28	6383.30
487.64	6239.77
488.00	6105.01
488.37	5985.41
488.73	5845.53
489.09	5694.41
489.45	5561.70
489.81	5438.56
490.17	5307.47
490.53	5189.97
490.89	5083.34
491.25	4973.92
491.61	4849.15
491.97	4731.93
492.33	4606.69
492.69	4502.63
493.05	4391.55
493.41	4291.23
493.77	4194.22
494.13	4101.02
494.49	4001.68
494.85	3911.85
495.21	3828.74
495.57	3746.05
495.93	3662.17
496.29	3576.43
496.64	3506.43
497.00	3427.29
497.36	3364.64
497.72	3303.34
498.08	3249.25
498.44	3187.90
498.80	3132.48
499.16	3067.37
499.52	3008.22
499.88	2949.80
500.24	2890.40
500.60	2842.44
500.96	2796.38
501.32	2746.78
501.68	2706.27
502.03	2662.17
502.39	2614.19
502.75	2566.94
503.11	2522.18
503.47	2472.31
503.83	2424.89
504.19	2380.14
504.55	2337.33
504.91	2297.26
505.26	2255.34
505.62	2217.70
505.98	2180.49
506.34	2139.62
506.70	2105.99
507.06	2071.05
507.42	2040.57
507.78	2008.62
508.13	1980.77
508.49	1946.25
508.85	1919.31
509.21	1889.05
509.57	1861.94
509.93	1837.58
510.28	1816.12
510.64	1794.21
511.00	1772.56
511.36	1751.02
511.72	1735.76
512.07	1714.33
512.43	1689.82
512.79	1668.38
513.15	1652.75
513.51	1628.69
513.86	1608.79
514.22	1595.92
514.58	1580.31
514.94	1563.36
515.30	1547.96
515.65	1533.17
516.01	1519.05
516.37	1502.58
516.73	1487.48
517.08	1477.18
517.44	1467.80
517.80	1454.08
518.16	1445.40
518.51	1432.95
518.87	1420.05
519.23	1407.25
519.59	1399.29
519.94	1390.16
520.30	1385.13
520.66	1377.41
521.01	1372.28
521.37	1366.47
521.73	1362.38
522.09	1351.45
522.44	1343.68
522.80	1336.98
523.16	1322.94
523.51	1312.03
523.87	1302.93
524.23	1296.87
524.58	1288.25
524.94	1285.02
525.30	1278.75
525.65	1273.18
526.01	1261.50
526.37	1251.13
526.72	1243.32
527.08	1238.03
527.44	1231.66
527.79	1229.53
528.15	1229.20
528.51	1224.66
528.86	1219.09
529.22	1215.93
529.58	1213.15
529.93	1206.50
530.29	1204.21
530.65	1196.22
531.00	1191.10
531.36	1187.40
531.71	1181.39
532.07	1178.97
532.43	1179.61
532.78	1180.64
533.14	1175.39
533.49	1175.14
533.85	1170.22
534.21	1167.76
534.56	1162.22
534.92	1158.75
535.27	1156.79
535.63	1153.65
535.98	1150.91
536.34	1147.66
536.69	1147.99
537.05	1145.20
537.41	1144.99
537.76	1139.70
538.12	1137.08
538.47	1131.27
538.83	1129.85
539.18	1127.67
539.54	1129.61
539.89	1129.66
540.25	1128.47
540.60	1129.19
540.96	1130.74
541.31	1128.21
541.67	1127.37
542.02	1128.42
542.38	1123.55
542.73	1119.10
543.09	1120.23
543.44	1122.31
543.80	1121.05
544.15	1122.57
544.51	1122.19
544.86	1118.59
545.22	1115.34
545.57	1116.20
545.93	1116.20
546.28	1114.96
546.64	1115.29
546.99	1113.86
547.35	1110.40
547.70	1108.81
548.05	1107.24
548.41	1103.56
548.76	1104.03
549.12	1105.32
549.47	1102.74
549.83	1103.75
550.18	1105.20
550.53	1102.06
550.89	1102.06
551.24	1104.50
551.60	1103.70
551.95	1106.11
552.30	1108.48
552.66	1104.92
553.01	1099.26
553.37	1097.80
553.72	1095.28
554.07	1093.05
554.43	1093.12
554.78	1092.96
555.13	1091.18
555.49	1087.58
555.84	1088.35
556.19	1085.87
556.55	1086.59
556.90	1088.77
557.26	1091.09
557.61	1091.23
557.96	1092.84
558.32	1095.32
558.67	1096.14
559.02	1095.04
559.37	1093.26
559.73	1094.62
560.08	1091.09
560.43	1092.21
560.79	1096.05
561.14	1093.99
561.49	1090.62
561.85	1089.75
562.20	1084.23
562.55	1080.70
562.90	1080.60
563.26	1083.41
563.61	1085.77
563.96	1086.27
564.32	1085.61
564.67	1088.77
565.02	1086.85
565.37	1084.65
565.73	1086.71
566.08	1086.06
566.43	1082.94
566.78	1082.52
567.14	1085.03
567.49	1085.28
567.84	1086.99
568.19	1085.77
568.54	1084.37
568.90	1082.15
569.25	1079.85
569.60	1077.14
569.95	1079.15
570.31	1082.10
570.66	1083.46
571.01	1084.09
571.36	1085.33
571.71	1083.93
572.06	1083.18
572.42	1084.28
572.77	1086.10
573.12	1088.19
573.47	1090.69
573.82	1091.63
574.18	1088.86
574.53	1086.50
574.88	1080.34
575.23	1078.75
575.58	1076.81
575.93	1075.08
576.28	1074.42
576.64	1079.74
576.99	1078.05
577.34	1077.93
577.69	1078.87
578.04	1079.99
578.39	1079.83
578.74	1081.23
579.09	1081.05
579.44	1083.25
579.80	1083.48
580.15	1082.03
580.50	1082.90
580.85	1081.61
581.20	1080.81
581.55	1079.92
581.90	1078.64
582.25	1078.26
582.60	1080.09
582.95	1079.22
583.30	1081.42
583.65	1081.96
584.00	1080.23
584.35	1083.88
584.71	1082.97
585.06	1077.37
585.41	1077.63
585.76	1076.06
586.11	1076.20
586.46	1080.34
586.81	1083.86
587.16	1085.68
587.51	1089.85
587.86	1083.27
588.21	1079.06
588.56	1079.01
588.91	1078.28
589.26	1076.25
589.61	1075.92
589.96	1075.38
590.31	1073.53
590.66	1071.64
591.01	1072.57
591.36	1076.65
591.71	1080.67
592.06	1082.47
592.41	1084.16
592.76	1082.29
593.10	1081.42
593.45	1080.48
593.80	1082.01
594.15	1078.00
594.50	1077.51
594.85	1080.44
595.20	1078.85
595.55	1077.30
595.90	1082.66
596.25	1082.45
596.60	1080.93
596.95	1081.77
597.30	1079.92
597.64	1087.11
597.99	1087.23
598.34	1087.83
598.69	1085.73
599.04	1087.20
599.39	1078.96
599.74	1081.98
600.09	1080.25
600.44	1081.73
600.78	1083.50
601.13	1082.61
601.48	1080.67
601.83	1078.43
602.18	1075.62
602.53	1075.31
602.88	1076.81
603.22	1077.93
603.57	1080.37
603.92	1083.32
604.27	1083.88
604.62	1084.18
604.97	1083.08
605.31	1081.51
605.66	1080.84
606.01	1076.44
606.36	1074.19
606.71	1075.43
607.05	1075.55
607.40	1074.19
607.75	1077.18
608.10	1078.17
608.44	1077.21
608.79	1078.19
609.14	1080.34
609.49	1079.01
609.84	1080.95
610.18	1082.33
610.53	1082.08
610.88	1082.36
611.23	1083.04
611.57	1081.12
611.92	1081.56
612.27	1080.11
612.62	1077.82
612.96	1077.44
613.31	1077.07
613.66	1076.08
614.00	1078.57
614.35	1080.98
614.70	1080.11
615.05	1080.18
615.39	1079.64
615.74	1080.34
616.09	1078.80
616.43	1076.25
616.78	1077.14
617.13	1078.17
617.47	1075.80
617.82	1077.63
618.17	1078.87
618.51	1075.50
618.86	1074.66
619.21	1074.19
619.55	1072.69
619.90	1074.31
620.25	1075.97
620.59	1076.79
620.94	1076.79
621.29	1076.86
621.63	1077.28
621.98	1078.80
622.32	1078.89
622.67	1079.34
623.02	1080.98
623.36	1081.73
623.71	1082.03
624.05	1082.57
624.40	1081.07
624.75	1079.48
625.09	1079.67
625.44	1077.58
625.78	1075.45
626.13	1080.16
626.48	1080.44
626.82	1080.04
627.17	1079.69
627.51	1077.11
627.86	1073.86
628.20	1069.86
628.55	1068.78
628.89	1067.75
629.24	1070.37
629.58	1068.74
629.93	1072.62
630.28	1071.92
630.62	1072.39
630.97	1071.03
631.31	1071.71
631.66	1072.08
632.00	1074.91
632.35	1076.90
632.69	1079.64
633.04	1081.94
633.38	1081.23
633.73	1078.73
634.07	1081.00
634.42	1080.32
634.76	1077.91
635.11	1079.88
635.45	1081.09
635.79	1078.10
636.14	1079.46
636.48	1080.39
636.83	1078.78
637.17	1080.41
637.52	1080.39
637.86	1079.36
638.21	1077.28
638.55	1077.44
638.89	1074.87
639.24	1077.21
639.58	1075.50
639.93	1079.01
640.27	1081.19
640.61	1082.52
640.96	1081.35
641.30	1082.50
641.65	1080.98
641.99	1079.29
642.33	1077.91
642.68	1075.38
643.02	1078.38
643.37	1078.17
643.71	1076.62
644.05	1079.13
644.40	1081.40
644.74	1079.31
645.08	1082.47
645.43	1082.85
645.77	1078.38
646.11	1075.66
646.46	1072.64
646.80	1069.34
647.14	1072.34
647.49	1072.67
647.83	1074.07
648.17	1075.78
648.52	1077.09
648.86	1073.63
649.20	1073.91
649.55	1071.66
649.89	1074.49
650.23	1071.66
650.57	1076.01
650.92	1076.20
651.26	1079.67
651.60	1076.06
651.95	1076.39
652.29	1070.28
652.63	1075.64
652.97	1074.80
653.32	1074.31
653.66	1076.69
654.00	1079.50
654.34	1077.54
654.69	1077.86
655.03	1080.02
655.37	1081.14
655.71	1081.84
656.05	1080.65
656.40	1078.66
656.74	1078.57
657.08	1076.60
657.42	1074.40
657.76	1073.72
658.11	1074.82
658.45	1072.32
658.79	1070.72
659.13	1072.11
659.47	1072.32
659.82	1074.19
660.16	1076.18
660.50	1074.80
660.84	1076.79
661.18	1077.23
661.52	1075.34
661.87	1074.21
662.21	1078.38
662.55	1075.97
662.89	1075.48
663.23	1074.94
663.57	1074.61
663.91	1074.42
664.25	1074.03
664.60	1076.25
664.94	1076.44
665.28	1076.86
665.62	1075.27
665.96	1075.83
666.30	1070.82
666.64	1071.57
666.98	1072.13
667.32	1070.56
667.66	1070.89
668.01	1076.90
668.35	1077.98
668.69	1076.30
669.03	1081.37
669.37	1081.66
669.71	1078.40
670.05	1075.69
670.39	1077.79
670.73	1073.42
671.07	1074.24
671.41	1076.13
671.75	1078.12
672.09	1079.64
672.43	1080.16
672.77	1080.63
673.11	1077.11
673.45	1076.53
673.79	1072.83
674.13	1073.79
674.47	1073.09
674.81	1075.29
675.15	1076.90
675.49	1079.10
675.83	1080.37
676.17	1078.36
676.51	1081.70
676.85	1079.03
677.19	1076.41
677.53	1076.97
677.87	1077.21
678.21	1072.08
678.55	1070.77
678.89	1073.11
679.23	1073.30
679.57	1073.65
679.90	1074.68
680.24	1076.93
680.58	1077.40
680.92	1074.75
681.26	1075.69
681.60	1075.85
681.94	1079.13
682.28	1075.29
682.62	1077.11
682.96	1076.81
683.29	1078.12
683.63	1076.11
683.97	1078.66
684.31	1079.64
684.65	1078.92
684.99	1076.97
685.33	1076.81
685.67	1076.01
686.00	1072.64
686.34	1071.36
686.68	1072.85
687.02	1070.14
687.36	1072.32
687.70	1071.10
688.03	1069.70
688.37	1070.09
688.71	1072.39
689.05	1069.70
689.39	1071.50
689.72	1075.85
690.06	1074.77
690.40	1073.14
690.74	1073.35
691.08	1073.72
691.41	1073.56
691.75	1074.00
692.09	1076.62
692.43	1082.45
692.76	1083.27
693.10	1079.74
693.44	1078.54
693.78	1073.35
694.11	1069.98
694.45	1068.10
694.79	1068.24
695.13	1068.59
695.46	1071.57
695.80	1069.25
696.14	1072.43
696.48	1076.27
696.81	1076.39
697.15	1075.94
697.49	1078.28
697.82	1077.58
698.16	1073.11
698.50	1073.74
698.83	1072.76
699.17	1071.82
699.51	1070.75
699.84	1073.35
700.18	1072.29
700.52	1073.30
700.85	1070.84
701.19	1070.33
701.53	1071.78
701.86	1074.49
702.20	1073.56
702.54	1074.19
702.87	1076.51
703.21	1075.83
703.55	1073.23
703.88	1070.40
704.22	1071.54
704.55	1070.70
704.89	1068.41
705.23	1068.85
705.56	1074.10
705.90	1078.21
706.23	1076.65
706.57	1081.16
706.91	1081.42
707.24	1082.92
707.58	1076.27
707.91	1079.38
708.25	1073.63
708.58	1073.09
708.92	1072.92
709.26	1073.98
709.59	1069.30
709.93	1072.32
710.26	1072.62
710.60	1069.48
710.93	1070.54
711.27	1073.88
711.60	1073.46
711.94	1072.62
712.27	1075.15
712.61	1074.59
712.94	1070.33
713.28	1070.84
713.61	1068.99
713.95	1068.08
714.28	1069.25
714.62	1071.36
714.95	1074.05
715.29	1079.10
715.62	1078.38
715.96	1079.95
716.29	1081.61
716.63	1077.96
716.96	1076.20
717.29	1077.49
717.63	1075.52
717.96	1074.05
718.30	1076.72
718.63	1075.66
718.97	1075.76
719.30	1074.91
719.63	1077.70
719.97	1077.37
720.30	1076.13
720.64	1075.22
720.97	1075.80
721.30	1073.63
721.64	1073.81
721.97	1073.35
722.31	1073.91
722.64	1072.83
722.97	1068.41
723.31	1068.31
723.64	1069.13
723.97	1069.46
724.31	1072.88
724.64	1076.44
724.98	1073.86
725.31	1075.31
725.64	1073.42
725.98	1069.86
726.31	1071.87
726.64	1070.44
726.97	1073.02
727.31	1075.62
727.64	1076.95
727.97	1077.72
728.31	1082.17
728.64	1078.94
728.97	1077.96
729.31	1079.34
729.64	1078.87
729.97	1077.47
730.30	1078.21
730.64	1079.97
730.97	1077.93
731.30	1076.18
731.63	1078.17
731.97	1076.97
732.30	1079.34
732.63	1082.64
732.96	1082.71
733.30	1079.67
733.63	1083.34
733.96	1077.77
734.29	1075.80
734.63	1077.11
734.96	1074.82
735.29	1071.87
735.62	1077.25
735.95	1078.05
736.29	1076.62
736.62	1081.84
736.95	1082.64
737.28	1075.48
737.61	1076.13
737.94	1077.30
738.28	1075.85
738.61	1075.99
738.94	1079.10
739.27	1076.86
739.60	1074.63
739.93	1072.04
740.27	1074.03
740.60	1072.57
740.93	1074.54
741.26	1077.28
741.59	1079.41
741.92	1078.33
742.25	1078.21
742.58	1080.23
742.91	1082.85
743.25	1082.71
743.58	1078.26
743.91	1078.31
744.24	1079.03
744.57	1075.85
744.90	1077.00
745.23	1083.36
745.56	1086.55
745.89	1081.98
746.22	1081.16
746.55	1078.68
746.88	1076.48
747.21	1074.56
747.54	1075.92
747.87	1075.34
748.20	1076.32
748.53	1076.55
748.87	1073.18
749.20	1073.86
749.53	1072.36
749.86	1072.39
750.19	1068.90
750.52	1074.12
750.85	1073.86
751.18	1077.61
751.51	1079.74
751.84	1082.47
752.16	1078.21
752.49	1073.18
752.82	1066.96
753.15	1066.51
753.48	1065.25
753.81	1066.09
754.14	1072.27
754.47	1076.27
754.80	1074.75
755.13	1076.79
755.46	1077.40
755.79	1075.27
756.12	1079.99
756.45	1075.94
756.78	1073.72
757.11	1076.62
757.43	1074.89
757.76	1073.28
758.09	1077.30
758.42	1077.30
758.75	1076.83
759.08	1078.75
759.41	1076.65
759.74	1075.15
760.07	1076.34
760.39	1073.04
760.72	1075.92
761.05	1076.83
761.38	1078.66
761.71	1079.20
762.04	1081.63
762.36	1077.04
762.69	1078.75
763.02	1079.08
763.35	1078.00
763.68	1080.09
764.01	1084.18
764.33	1083.18
764.66	1081.63
764.99	1083.22
765.32	1080.70
765.65	1075.83
765.97	1073.28
766.30	1075.05
766.63	1072.53
766.96	1071.90
767.28	1074.47
767.61	1076.51
767.94	1074.42
768.27	1074.00
768.59	1073.56
768.92	1072.71
769.25	1072.32
769.58	1073.14
769.90	1073.86
770.23	1073.44
770.56	1073.67
770.89	1071.36
771.21	1070.82
771.54	1071.59
771.87	1072.39
772.19	1071.61
772.52	1070.70
772.85	1069.93
773.17	1068.92
773.50	1069.02
773.83	1072.29
774.15	1077.23
774.48	1077.68
774.81	1078.17
775.13	1077.49
775.46	1075.34
775.79	1069.70
776.11	1071.19
776.44	1073.35
776.77	1071.45
777.09	1069.51
777.42	1072.90
777.74	1072.60
778.07	1069.79
778.40	1069.48
778.72	1072.88
779.05	1074.07
779.37	1070.61
779.70	1070.70
780.03	1074.73
780.35	1075.24
780.68	1073.04
781.00	1077.00
781.33	1080.72
781.65	1080.79
781.98	1079.74
782.31	1078.66
782.63	1077.40
782.96	1075.45
783.28	1074.49
783.61	1074.26
783.93	1077.23
784.26	1079.95
784.58	1078.47
784.91	1077.63
785.23	1076.01
785.56	1074.45
785.88	1071.68
786.21	1074.66
786.53	1075.59
786.86	1077.04
787.18	1074.70
787.51	1074.82
787.83	1071.90
788.16	1071.10
788.48	1070.19
788.81	1075.43
789.13	1077.07
789.46	1076.76
789.78	1079.06
790.10	1083.06
790.43	1081.80
790.75	1083.57
791.08	1083.74
791.40	1080.20
791.73	1076.67
792.05	1077.58
792.37	1074.00
792.70	1072.69
793.02	1076.20
793.35	1075.87
793.67	1074.10
793.99	1074.33
794.32	1075.10
794.64	1076.08
794.96	1077.21
795.29	1073.23
795.61	1075.45
795.93	1078.36
796.26	1076.51
796.58	1075.80
796.91	1080.32
797.23	1079.31
797.55	1077.75
797.87	1075.55
798.20	1073.49
798.52	1072.97
798.84	1071.87
799.17	1069.98
799.49	1071.15
799.81	1069.79
800.14	1069.34
800.46	1069.32
800.78	1071.73
801.10	1073.32
801.43	1079.41
801.75	1080.74
802.07	1080.72
802.40	1080.44
802.72	1078.68
803.04	1075.73
803.36	1075.99
803.69	1076.76
804.01	1077.40
804.33	1077.30
804.65	1074.42
804.97	1073.46
805.30	1073.25
805.62	1072.34
805.94	1072.20
806.26	1076.01
806.58	1073.70
806.91	1073.14
807.23	1073.11
807.55	1073.02
807.87	1072.04
808.19	1071.43
808.52	1068.41
808.84	1066.79
809.16	1067.57
809.48	1067.17
809.80	1070.70
810.12	1073.07
810.44	1075.48
810.77	1076.97
811.09	1074.10
811.41	1074.84
811.73	1075.71
812.05	1074.05
812.37	1071.10
812.69	1076.11
813.01	1076.46
813.33	1073.63
813.66	1076.20
813.98	1077.79
814.30	1074.94
814.62	1073.46
814.94	1073.93
815.26	1071.92
815.58	1074.19
815.90	1078.45
816.22	1079.71
816.54	1085.24
816.86	1085.24
817.18	1081.56
817.50	1077.98
817.82	1075.80
818.14	1072.01
818.46	1069.46
818.78	1071.97
819.10	1074.56
819.42	1073.35
819.74	1073.44
820.06	1073.58
820.38	1071.80
820.70	1070.30
821.02	1072.62
821.34	1075.69
821.66	1078.59
821.98	1078.75
822.30	1077.18
822.62	1073.93
822.94	1072.55
823.26	1072.50
823.58	1073.51
823.90	1074.98
824.22	1076.86
824.54	1077.00
824.86	1074.31
825.18	1072.92
825.50	1075.15
825.81	1072.85
826.13	1073.63
826.45	1077.18
826.77	1080.06
827.09	1074.10
827.41	1074.03
827.73	1070.94
828.05	1069.23
828.36	1067.57
828.68	1069.77
829.00	1072.48
829.32	1075.13
829.64	1078.24
829.96	1077.44
830.28	1079.38
830.59	1079.76
830.91	1075.94
831.23	1075.15
831.55	1073.39
831.87	1073.00
832.19	1071.64
832.50	1074.80
832.82	1072.76
833.14	1075.71
833.46	1076.83
833.78	1077.84
834.09	1076.20
834.41	1077.18
834.73	1076.04
835.05	1072.67
835.36	1071.85
835.68	1072.13
836.00	1073.02
836.32	1070.51
836.63	1069.84
836.95	1071.66
837.27	1071.54
837.59	1071.10
837.90	1073.91
838.22	1076.58
838.54	1075.87
838.85	1077.96
839.17	1074.80
839.49	1075.48
839.80	1072.22
840.12	1070.84
840.44	1068.99
840.76	1071.45
841.07	1071.38
841.39	1072.92
841.71	1074.14
842.02	1075.59
842.34	1071.75
842.65	1069.88
842.97	1072.48
843.29	1071.05
843.60	1068.81
843.92	1072.25
844.24	1074.49
844.55	1074.70
844.87	1075.76
845.18	1076.53
845.50	1078.28
845.82	1076.69
846.13	1076.25
846.45	1075.08
846.76	1076.74
847.08	1074.84
847.40	1075.24
847.71	1072.60
848.03	1073.79
848.34	1073.14
848.66	1074.33
848.97	1073.63
849.29	1077.75
849.60	1078.68
849.92	1079.31
850.24	1077.98
850.55	1079.10
850.87	1075.78
851.18	1073.23
851.50	1073.42
851.81	1074.96
852.13	1075.43
852.44	1077.21
852.76	1078.64
853.07	1077.28
853.39	1076.13
853.70	1074.63
854.01	1075.29
854.33	1074.84
854.64	1073.60
854.96	1076.08
855.27	1078.31
855.59	1076.79
855.90	1077.18
856.22	1081.40
856.53	1081.73
856.84	1083.01
857.16	1082.94
857.47	1084.07
857.79	1082.47
858.10	1079.22
858.41	1076.39
858.73	1075.15
859.04	1073.72
859.36	1071.87
859.67	1072.50
859.98	1074.98
860.30	1076.46
860.61	1077.61
860.92	1077.65
861.24	1077.02
861.55	1071.68
861.87	1069.84
862.18	1071.73
862.49	1072.67
862.81	1071.22
863.12	1075.01
863.43	1078.52
863.74	1077.72
864.06	1076.20
864.37	1076.81
864.68	1075.64
865.00	1070.98
865.31	1067.28
865.62	1069.11
865.94	1072.57
866.25	1078.28
866.56	1080.39
866.87	1082.57
867.19	1080.84
867.50	1073.70
867.81	1066.63
868.12	1069.34
868.44	1068.88
868.75	1070.02
869.06	1073.18
869.37	1073.63
869.68	1070.28
870.00	1070.89
870.31	1070.61
870.62	1075.13
870.93	1075.92
871.24	1080.13
871.56	1079.50
871.87	1078.59
872.18	1075.43
872.49	1075.50
872.80	1071.59
873.12	1069.95
873.43	1071.08
873.74	1069.37
874.05	1071.61
874.36	1074.40
874.67	1078.43
874.98	1076.67
875.29	1078.87
875.61	1077.47
875.92	1076.08
876.23	1074.33
876.54	1075.48
876.85	1075.10
877.16	1075.22
877.47	1077.09
877.78	1078.12
878.09	1076.60
878.40	1075.87
878.72	1076.11
879.03	1075.36
879.34	1073.37
879.65	1074.03
879.96	1077.68
880.27	1077.42
880.58	1075.69
880.89	1076.72
881.20	1077.23
881.51	1076.60
881.82	1074.63
882.13	1076.13
882.44	1073.35
882.75	1071.08
883.06	1070.09
883.37	1072.04
883.68	1071.90
883.99	1073.72
884.30	1072.22
884.61	1074.17
884.92	1072.13
885.23	1070.70
885.54	1074.26
885.85	1081.82
886.16	1079.95
886.47	1081.91
886.78	1083.86
887.08	1080.58
887.39	1077.51
887.70	1075.83
888.01	1077.75
888.32	1076.48
888.63	1075.27
888.94	1073.58
889.25	1075.73
889.56	1073.77
889.87	1074.07
890.17	1074.54
890.48	1075.31
890.79	1074.42
891.10	1072.04
891.41	1071.26
891.72	1073.21
892.03	1074.91
892.34	1073.70
892.64	1073.23
892.95	1071.68
893.26	1072.36
893.57	1070.09
893.88	1069.02
894.18	1070.94
894.49	1072.06
894.80	1068.24
895.11	1070.12
895.42	1068.99
895.72	1071.26
896.03	1074.35
896.34	1075.31
896.65	1075.31
896.96	1075.80
897.26	1074.52
897.57	1071.45
897.88	1073.95
898.19	1072.95
898.49	1075.69
898.80	1074.49
899.11	1073.70
899.41	1071.24
899.72	1076.04
900.03	1074.87
900.34	1075.76
900.64	1077.79
900.95	1077.28
901.26	1073.86
901.56	1071.66
901.87	1073.02
902.18	1077.00
902.48	1081.19
902.79	1078.26
903.10	1077.54
903.40	1074.05
903.71	1069.62
904.02	1068.06
904.32	1072.20
904.63	1078.07
904.94	1079.99
905.24	1077.82
905.55	1076.93
905.85	1074.98
906.16	1073.44
906.47	1074.42
906.77	1073.91
907.08	1076.72
907.38	1075.64
907.69	1073.65
908.00	1074.49
908.30	1078.36
908.61	1075.59
908.91	1077.25
909.22	1076.97
909.52	1075.90
909.83	1073.56
910.14	1073.51
910.44	1074.35
910.75	1077.11
911.05	1077.00
911.36	1076.93
911.66	1079.01
911.97	1078.80
912.27	1076.06
912.58	1074.66
912.88	1074.82
913.19	1071.33
913.49	1070.19
913.80	1073.04
914.10	1072.78
914.41	1070.84
914.71	1073.04
915.01	1072.43
915.32	1070.68
915.62	1072.50
915.93	1072.76
916.23	1072.55
916.54	1074.12
916.84	1074.77
917.15	1074.80
917.45	1078.45
917.75	1078.99
918.06	1072.76
918.36	1073.77
918.67	1074.17
918.97	1073.81
919.27	1071.78
919.58	1077.63
919.88	1075.15
920.18	1073.46
920.49	1069.44
920.79	1066.68
921.10	1067.35
921.40	1068.81
921.70	1069.16
922.01	1071.82
922.31	1075.10
922.61	1074.10
922.92	1074.87
923.22	1075.57
923.52	1075.83
923.82	1074.31
924.13	1072.22
924.43	1073.30
924.73	1069.88
925.04	1067.21
925.34	1069.62
925.64	1070.09
925.94	1067.71
926.25	1070.37
926.55	1075.34
926.85	1072.88
927.15	1074.73
927.46	1072.18
927.76	1072.85
928.06	1068.15
928.36	1067.26
928.67	1069.41
928.97	1070.98
929.27	1073.18
929.57	1076.90
929.87	1079.97
930.18	1075.73
930.48	1077.07
930.78	1075.31
931.08	1074.38
931.38	1072.50
931.69	1074.54
931.99	1074.26
932.29	1069.81
932.59	1070.19
932.89	1071.08
933.19	1070.30
933.49	1069.41
933.80	1073.35
934.10	1073.00
934.40	1072.71
934.70	1071.43
935.00	1073.21
935.30	1072.13
935.60	1071.33
935.90	1072.34
936.20	1072.46
936.50	1069.77
936.81	1072.62
937.11	1076.11
937.41	1075.15
937.71	1074.77
938.01	1076.72
938.31	1074.24
938.61	1072.43
938.91	1075.48
939.21	1075.34
939.51	1073.02
939.81	1073.65
940.11	1071.99
940.41	1068.62
940.71	1070.02
941.01	1072.85
941.31	1071.68
941.61	1073.81
941.91	1077.93
942.21	1080.18
942.51	1078.59
942.81	1080.91
943.11	1077.07
943.41	1074.59
943.71	1074.24
944.01	1074.84
944.31	1073.49
944.61	1075.87
944.90	1075.90
945.20	1075.24
945.50	1074.19
945.80	1073.32
946.10	1073.21
946.40	1070.56
946.70	1073.11
947.00	1075.57
947.30	1077.00
947.60	1079.90
947.89	1079.48
948.19	1073.77
948.49	1074.82
948.79	1072.41
949.09	1067.92
949.39	1070.35
949.69	1072.08
949.98	1069.70
950.28	1070.51
950.58	1071.82
950.88	1074.12
951.18	1073.04
951.48	1072.46
951.77	1072.41
952.07	1072.13
952.37	1070.84
952.67	1070.19
952.97	1071.24
953.26	1071.87
953.56	1074.40
953.86	1077.86
954.16	1083.79
954.45	1084.96
954.75	1082.52
955.05	1082.97
955.35	1078.64
955.64	1074.47
955.94	1073.67
956.24	1076.65
956.54	1071.57
956.83	1071.94
957.13	1075.50
957.43	1074.33
957.72	1073.30
958.02	1076.25
958.32	1076.34
958.61	1075.87
958.91	1077.16
959.21	1077.75
959.50	1078.33
959.80	1078.28
960.10	1073.32
960.39	1073.39
960.69	1074.68
960.99	1073.49
961.28	1073.58
961.58	1077.42
961.87	1079.20
962.17	1076.48
962.47	1080.11
962.76	1078.50
963.06	1078.17
963.36	1076.41
963.65	1077.89
963.95	1072.81
964.24	1076.93
964.54	1077.98
964.83	1077.75
965.13	1076.15
965.42	1079.55
965.72	1077.37
966.02	1076.48
966.31	1077.28
966.61	1078.61
966.90	1076.48
967.20	1077.61
967.49	1075.78
967.79	1073.67
968.08	1076.93
968.38	1077.68
968.67	1081.73
968.97	1082.38
969.26	1085.21
969.56	1081.28
969.85	1081.89
970.15	1073.63
970.44	1072.22
970.74	1069.70
971.03	1070.07
971.32	1066.86
971.62	1067.61
971.91	1066.79
972.21	1069.32
972.50	1070.00
972.80	1072.71
973.09	1071.10
973.38	1073.79
973.68	1073.84
973.97	1077.09
974.27	1076.90
974.56	1081.37
974.85	1080.74
975.15	1077.00
975.44	1074.80
975.73	1076.37
976.03	1075.05
976.32	1074.28
976.61	1077.04
976.91	1077.51
977.20	1077.11
977.49	1078.61
977.79	1079.60
978.08	1080.32
978.37	1073.70
978.67	1070.70
978.96	1070.91
979.25	1071.29
979.55	1068.81
979.84	1075.97
980.13	1079.67
980.42	1080.53
980.72	1078.89
981.01	1079.97
981.30	1076.51
981.59	1074.10
981.89	1071.45
982.18	1072.83
982.47	1073.88
982.76	1075.36
983.06	1074.75
983.35	1074.77
983.64	1077.30
983.93	1075.08
984.22	1073.67
984.52	1074.42
984.81	1074.63
985.10	1073.72
985.39	1075.29
985.68	1077.51
985.97	1078.82
986.27	1076.25
986.56	1073.23
986.85	1069.70
987.14	1069.58
987.43	1068.24
987.72	1067.78
988.01	1069.27
988.31	1072.11
988.60	1073.00
988.89	1073.35
989.18	1077.40
989.47	1077.75
989.76	1079.71
990.05	1078.68
990.34	1082.03
990.63	1081.49
990.92	1082.59
991.21	1081.30
991.51	1080.70
991.80	1076.95
992.09	1075.78
992.38	1073.42
992.67	1072.53
992.96	1073.14
993.25	1073.44
993.54	1074.07
993.83	1075.29
994.12	1076.58
994.41	1076.01
994.70	1071.19
994.99	1074.73
995.28	1073.84
995.57	1071.82
995.86	1074.82
996.15	1080.44
996.44	1078.66
996.73	1079.41
997.02	1080.65
997.31	1077.35
997.59	1076.97
997.88	1074.70
998.17	1075.22
998.46	1075.01
998.75	1077.47
999.04	1076.20
999.33	1077.09
999.62	1079.24
999.91	1078.99
1000.20	1078.38
1000.49	1080.09
1000.77	1084.11
1001.06	1081.16
1001.35	1079.53
1001.64	1078.00
1001.93	1078.14
1002.22	1072.18
1002.51	1070.70
1002.79	1073.39
1003.08	1073.74
1003.37	1075.24
1003.66	1077.68
1003.95	1077.35
1004.23	1077.54
1004.52	1077.58
1004.81	1076.53
1005.10	1076.20
1005.39	1077.65
1005.67	1078.99
1005.96	1077.98
1006.25	1078.73
1006.54	1075.66
1006.83	1078.45
1007.11	1075.80
1007.40	1077.25
1007.69	1075.99
1007.97	1076.76
1008.26	1072.15
1008.55	1072.13
1008.84	1072.67
1009.12	1070.28
1009.41	1072.53
1009.70	1076.34
1009.98	1075.29
1010.27	1071.73
1010.56	1070.72
1010.85	1070.91
1011.13	1068.74
1011.42	1071.05
1011.71	1073.00
1011.99	1076.23
1012.28	1072.92
1012.56	1072.27
1012.85	1069.25
1013.14	1065.93
1013.42	1066.63
1013.71	1070.96
1014.00	1072.81
1014.28	1075.50
1014.57	1078.94
1014.85	1077.16
1015.14	1077.28
1015.43	1074.75
1015.71	1071.94
1016.00	1074.52
1016.28	1074.87
1016.57	1074.82
1016.85	1075.71
1017.14	1076.90
1017.43	1074.94
1017.71	1074.28
1018.00	1072.62
1018.28	1075.62
1018.57	1076.86
1018.85	1075.36
1019.14	1076.32
1019.42	1075.45
1019.71	1074.26
1019.99	1076.83
1020.28	1076.83
1020.56	1076.65
1020.85	1074.07
1021.13	1070.98
1021.42	1065.37
1021.70	1067.80
1021.99	1068.64
1022.27	1069.88
1022.55	1079.10
1022.84	1063.42
>>>>>End Processed Spectral Data<<<<<
