SpectraSuite Data File
++++++++++++++++++++++++++++++++++++
Date: Mon Aug 26 10:22:15 PDT 2019
User: corrico
Dark Spectrum Present: No
Reference Spectrum Present: No
Number of Sampled Component Spectra: 1
Spectrometers: USB2+H06089
Integration Time (usec): 2000 (USB2+H06089)
Spectra Averaged: 20 (USB2+H06089)
Boxcar Smoothing: 2 (USB2+H06089)
Correct for Electrical Dark: No (USB2+H06089)
Strobe/Lamp Enabled: No (USB2+H06089)
Correct for Detector Non-linearity: No (USB2+H06089)
Correct for Stray Light: No (USB2+H06089)
Number of Pixels in Processed Spectrum: 2048
>>>>>Begin Processed Spectral Data<<<<<
339.70	1020.12
340.07	1020.12
340.45	990.00
340.82	971.88
341.19	951.19
341.57	926.57
341.94	917.70
342.31	906.40
342.69	899.28
343.06	896.35
343.43	896.47
343.81	897.50
344.18	898.30
344.55	903.10
344.93	907.61
345.30	913.93
345.67	924.11
346.04	935.61
346.42	943.52
346.79	954.35
347.16	961.09
347.54	969.26
347.91	976.31
348.28	985.93
348.65	992.43
349.03	1000.79
349.40	1006.99
349.77	1013.19
350.14	1020.03
350.52	1026.54
350.89	1035.94
351.26	1045.35
351.63	1053.87
352.01	1059.75
352.38	1064.62
352.75	1068.85
353.12	1068.62
353.50	1075.52
353.87	1081.98
354.24	1086.59
354.61	1088.84
354.98	1091.51
355.36	1088.16
355.73	1087.86
356.10	1087.25
356.47	1085.56
356.84	1085.75
357.22	1086.92
357.59	1083.18
357.96	1083.74
358.33	1083.53
358.70	1083.88
359.08	1081.56
359.45	1082.26
359.82	1080.30
360.19	1079.85
360.56	1079.48
360.94	1079.29
361.31	1079.34
361.68	1079.90
362.05	1080.65
362.42	1078.12
362.79	1082.85
363.16	1086.06
363.54	1088.49
363.91	1091.06
364.28	1092.30
364.65	1088.26
365.02	1084.70
365.39	1079.97
365.76	1075.69
366.14	1077.09
366.51	1075.36
366.88	1073.30
367.25	1077.44
367.62	1079.55
367.99	1079.38
368.36	1080.91
368.73	1081.56
369.10	1080.16
369.48	1079.34
369.85	1079.17
370.22	1077.23
370.59	1078.24
370.96	1076.88
371.33	1076.39
371.70	1074.87
372.07	1078.00
372.44	1078.00
372.81	1078.26
373.18	1080.79
373.55	1083.93
373.93	1082.99
374.30	1082.03
374.67	1081.91
375.04	1080.72
375.41	1078.92
375.78	1079.48
376.15	1080.25
376.52	1079.64
376.89	1079.64
377.26	1076.72
377.63	1076.88
378.00	1075.90
378.37	1075.48
378.74	1072.08
379.11	1074.89
379.48	1074.91
379.85	1077.25
380.22	1078.05
380.59	1080.74
380.96	1080.37
381.33	1077.16
381.70	1078.00
382.07	1081.61
382.44	1081.30
382.81	1082.52
383.18	1086.83
383.55	1084.46
383.92	1081.82
384.29	1082.54
384.66	1084.63
385.03	1083.95
385.40	1084.32
385.77	1083.22
386.14	1084.65
386.51	1084.35
386.88	1082.64
387.25	1081.82
387.62	1083.15
387.99	1081.58
388.36	1077.11
388.73	1081.35
389.10	1081.84
389.46	1081.21
389.83	1081.00
390.20	1087.18
390.57	1081.23
390.94	1082.45
391.31	1084.46
391.68	1086.71
392.05	1086.31
392.42	1091.46
392.79	1093.19
393.16	1089.43
393.53	1090.88
393.89	1086.45
394.26	1087.30
394.63	1085.94
395.00	1088.30
395.37	1087.93
395.74	1089.31
396.11	1088.84
396.48	1088.61
396.84	1088.63
397.21	1087.93
397.58	1090.74
397.95	1088.65
398.32	1088.07
398.69	1090.67
399.06	1089.29
399.42	1086.06
399.79	1085.03
400.16	1086.41
400.53	1086.94
400.90	1089.64
401.27	1089.31
401.64	1093.87
402.00	1094.20
402.37	1092.96
402.74	1091.72
403.11	1092.28
403.48	1088.93
403.84	1088.63
404.21	1087.46
404.58	1090.36
404.95	1091.98
405.32	1096.05
405.68	1095.63
406.05	1095.77
406.42	1092.94
406.79	1092.96
407.16	1088.56
407.52	1089.61
407.89	1089.92
408.26	1094.18
408.63	1092.61
408.99	1094.95
409.36	1095.46
409.73	1097.10
410.10	1094.22
410.47	1099.49
410.83	1103.14
411.20	1102.65
411.57	1104.90
411.94	1106.89
412.30	1105.06
412.67	1099.54
413.04	1100.22
413.40	1098.67
413.77	1096.24
414.14	1095.84
414.51	1097.38
414.87	1097.06
415.24	1099.16
415.61	1100.57
415.97	1102.98
416.34	1106.49
416.71	1106.70
417.08	1104.69
417.44	1104.66
417.81	1103.12
418.18	1102.39
418.54	1105.65
418.91	1109.62
419.28	1116.41
419.64	1118.61
420.01	1120.81
420.38	1121.91
420.74	1120.27
421.11	1119.01
421.48	1124.18
421.84	1125.89
422.21	1127.55
422.58	1132.47
422.94	1132.52
423.31	1134.55
423.68	1136.05
424.04	1140.15
424.41	1142.04
424.77	1146.44
425.14	1147.38
425.51	1154.52
425.87	1160.30
426.24	1166.27
426.61	1171.13
426.97	1180.14
427.34	1183.30
427.70	1187.07
428.07	1192.39
428.44	1204.07
428.80	1211.91
429.17	1227.19
429.53	1241.86
429.90	1260.45
430.27	1268.71
430.63	1281.77
431.00	1291.58
431.36	1302.86
431.73	1312.62
432.09	1326.48
432.46	1340.78
432.83	1360.13
433.19	1377.92
433.56	1397.72
433.92	1426.77
434.29	1452.84
434.65	1477.72
435.02	1508.31
435.38	1541.92
435.75	1570.99
436.11	1606.75
436.48	1647.11
436.84	1689.80
437.21	1729.66
437.57	1775.32
437.94	1824.38
438.30	1871.87
438.67	1931.46
439.03	1993.60
439.40	2061.94
439.76	2130.43
440.13	2206.10
440.49	2281.51
440.86	2352.92
441.22	2435.30
441.59	2523.89
441.95	2617.44
442.32	2715.00
442.68	2835.96
443.05	2949.59
443.41	3068.28
443.78	3184.39
444.14	3313.92
444.51	3447.23
444.87	3612.34
445.24	3772.62
445.60	3955.51
445.96	4134.25
446.33	4326.60
446.69	4513.84
447.06	4722.48
447.42	4937.15
447.79	5169.31
448.15	5438.96
448.51	5712.57
448.88	6024.84
449.24	6329.30
449.61	6667.74
449.97	6998.62
450.33	7342.26
450.70	7673.94
451.06	8078.17
451.43	8458.91
451.79	8907.61
452.15	9396.22
452.52	9925.56
452.88	10459.11
453.24	11067.08
453.61	11718.29
453.97	12357.00
454.34	12983.40
454.70	13736.11
455.06	14501.91
455.43	15270.83
455.79	15983.75
456.15	16847.01
456.52	17648.86
456.88	18590.90
457.24	19453.97
457.61	20486.38
457.97	21418.69
458.33	22359.00
458.70	23288.12
459.06	24229.20
459.42	25301.52
459.79	26334.58
460.15	27493.13
460.51	28608.72
460.88	29750.64
461.24	30708.84
461.60	31836.25
461.96	32850.71
462.33	33756.07
462.69	34640.68
463.05	35621.46
463.42	36411.18
463.78	37116.92
464.14	37731.99
464.50	38445.71
464.87	38987.57
465.23	39428.41
465.59	39897.78
465.95	40289.75
466.32	40557.13
466.68	40784.79
467.04	40934.14
467.40	41057.98
467.77	41241.29
468.13	41248.62
468.49	41133.96
468.85	41006.12
469.22	40791.58
469.58	40449.77
469.94	40248.04
470.30	40054.99
470.66	39768.49
471.03	39256.03
471.39	38885.68
471.75	38129.43
472.11	37349.57
472.47	36760.95
472.84	36225.71
473.20	35439.15
473.56	34951.17
473.92	34327.79
474.28	33702.75
474.65	33120.24
475.01	32623.77
475.37	32030.11
475.73	31525.05
476.09	30892.38
476.45	30276.42
476.81	29674.34
477.18	29019.58
477.54	28444.27
477.90	27986.65
478.26	27408.26
478.62	26884.42
478.98	26467.20
479.34	26064.46
479.71	25541.73
480.07	25113.01
480.43	24715.00
480.79	24275.62
481.15	23861.46
481.51	23499.19
481.87	23196.82
482.23	22824.51
482.59	22514.95
482.96	22175.80
483.32	21880.85
483.68	21522.35
484.04	21211.48
484.40	20823.02
484.76	20423.02
485.12	19970.93
485.48	19584.62
485.84	19144.62
486.20	18748.09
486.56	18315.70
486.92	17948.05
487.28	17533.30
487.64	17101.55
488.00	16692.30
488.37	16299.37
488.73	15829.63
489.09	15352.28
489.45	14945.30
489.81	14515.46
490.17	14104.72
490.53	13750.34
490.89	13389.60
491.25	13037.06
491.61	12682.68
491.97	12340.26
492.33	11955.55
492.69	11602.41
493.05	11247.49
493.41	10906.43
493.77	10578.96
494.13	10292.83
494.49	10008.74
494.85	9736.44
495.21	9490.33
495.57	9253.99
495.93	9013.08
496.29	8797.14
496.64	8582.37
497.00	8351.99
497.36	8123.09
497.72	7909.28
498.08	7707.62
498.44	7498.63
498.80	7316.68
499.16	7132.60
499.52	6954.97
499.88	6780.04
500.24	6630.46
500.60	6479.56
500.96	6343.20
501.32	6196.57
501.68	6044.62
502.03	5884.69
502.39	5722.98
502.75	5545.74
503.11	5390.91
503.47	5243.92
503.83	5096.40
504.19	4954.59
504.55	4828.64
504.91	4707.54
505.26	4596.44
505.62	4495.23
505.98	4392.93
506.34	4289.45
506.70	4185.65
507.06	4087.35
507.42	3984.93
507.78	3890.93
508.13	3796.37
508.49	3713.75
508.85	3620.20
509.21	3539.97
509.57	3459.99
509.93	3393.24
510.28	3311.41
510.64	3245.13
511.00	3168.78
511.36	3097.75
511.72	3024.32
512.07	2962.60
512.43	2895.57
512.79	2836.87
513.15	2780.42
513.51	2726.16
513.86	2673.38
514.22	2627.72
514.58	2579.53
514.94	2539.88
515.30	2498.99
515.65	2458.29
516.01	2416.37
516.37	2381.96
516.73	2336.63
517.08	2293.98
517.44	2257.99
517.80	2222.36
518.16	2184.91
518.51	2155.10
518.87	2123.80
519.23	2089.54
519.59	2055.01
519.94	2026.46
520.30	1994.49
520.66	1964.53
521.01	1937.61
521.37	1921.35
521.73	1896.89
522.09	1878.14
522.44	1855.46
522.80	1835.89
523.16	1803.87
523.51	1778.29
523.87	1752.29
524.23	1735.20
524.58	1711.42
524.94	1694.36
525.30	1674.21
525.65	1654.85
526.01	1632.45
526.37	1611.48
526.72	1594.93
527.08	1581.78
527.44	1567.50
527.79	1554.82
528.15	1548.99
528.51	1534.46
528.86	1519.80
529.22	1501.20
529.58	1487.76
529.93	1472.83
530.29	1462.62
530.65	1453.26
531.00	1445.35
531.36	1437.07
531.71	1423.07
532.07	1410.43
532.43	1400.32
532.78	1394.26
533.14	1381.83
533.49	1374.34
533.85	1368.35
534.21	1355.01
534.56	1342.11
534.92	1334.67
535.27	1327.93
535.63	1318.68
535.98	1314.26
536.34	1309.25
536.69	1303.49
537.05	1295.46
537.41	1289.38
537.76	1285.05
538.12	1279.03
538.47	1272.57
538.83	1268.90
539.18	1265.62
539.54	1263.49
539.89	1260.92
540.25	1258.37
540.60	1257.08
540.96	1251.86
541.31	1245.28
541.67	1239.59
542.02	1236.29
542.38	1227.82
542.73	1224.03
543.09	1219.09
543.44	1215.77
543.80	1213.08
544.15	1211.65
544.51	1208.09
544.86	1202.85
545.22	1198.33
545.57	1193.72
545.93	1190.49
546.28	1185.48
546.64	1182.56
546.99	1182.32
547.35	1174.79
547.70	1171.02
548.05	1167.90
548.41	1167.04
548.76	1163.27
549.12	1165.59
549.47	1161.37
549.83	1161.44
550.18	1160.02
550.53	1159.71
550.89	1157.79
551.24	1158.96
551.60	1156.13
551.95	1153.79
552.30	1154.87
552.66	1152.99
553.01	1153.42
553.37	1153.16
553.72	1153.84
554.07	1149.30
554.43	1145.93
554.78	1139.35
555.13	1137.76
555.49	1135.60
555.84	1131.98
556.19	1130.99
556.55	1132.40
556.90	1135.02
557.26	1134.36
557.61	1132.26
557.96	1129.00
558.32	1128.23
558.67	1124.04
559.02	1115.76
559.37	1118.33
559.73	1121.91
560.08	1121.28
560.43	1120.44
560.79	1128.65
561.14	1125.75
561.49	1120.72
561.85	1117.63
562.20	1117.42
562.55	1112.88
562.90	1114.56
563.26	1119.60
563.61	1117.61
563.96	1113.70
564.32	1110.98
564.67	1110.05
565.02	1109.06
565.37	1112.85
565.73	1113.72
566.08	1115.38
566.43	1111.36
566.78	1108.20
567.14	1107.54
567.49	1108.88
567.84	1110.33
568.19	1110.16
568.54	1110.26
568.90	1105.15
569.25	1104.76
569.60	1100.75
569.95	1105.15
570.31	1103.47
570.66	1104.50
571.01	1103.54
571.36	1109.16
571.71	1105.72
572.06	1104.45
572.42	1107.17
572.77	1106.58
573.12	1102.65
573.47	1103.38
573.82	1106.86
574.18	1105.39
574.53	1103.63
574.88	1102.95
575.23	1102.35
575.58	1098.25
575.93	1096.75
576.28	1096.56
576.64	1097.13
576.99	1094.90
577.34	1096.87
577.69	1097.34
578.04	1098.44
578.39	1095.89
578.74	1101.11
579.09	1099.28
579.44	1097.13
579.80	1096.80
580.15	1096.94
580.50	1092.73
580.85	1094.27
581.20	1097.64
581.55	1097.24
581.90	1096.14
582.25	1094.22
582.60	1093.17
582.95	1090.32
583.30	1087.16
583.65	1088.14
584.00	1088.23
584.35	1088.16
584.71	1087.41
585.06	1090.22
585.41	1090.46
585.76	1091.06
586.11	1093.10
586.46	1092.42
586.81	1093.29
587.16	1092.89
587.51	1094.04
587.86	1090.06
588.21	1091.63
588.56	1088.44
588.91	1090.97
589.26	1091.46
589.61	1093.76
589.96	1095.00
590.31	1096.75
590.66	1095.09
591.01	1093.59
591.36	1094.72
591.71	1096.14
592.06	1097.66
592.41	1099.37
592.76	1096.31
593.10	1096.10
593.45	1092.33
593.80	1086.27
594.15	1084.28
594.50	1086.01
594.85	1085.42
595.20	1084.91
595.55	1090.13
595.90	1088.56
596.25	1085.96
596.60	1085.00
596.95	1085.56
597.30	1085.68
597.64	1097.55
597.99	1097.06
598.34	1094.88
598.69	1094.27
599.04	1097.20
599.39	1085.89
599.74	1090.39
600.09	1090.50
600.44	1094.90
600.78	1090.92
601.13	1089.78
601.48	1086.29
601.83	1085.61
602.18	1082.31
602.53	1081.40
602.88	1082.97
603.22	1086.50
603.57	1091.77
603.92	1090.78
604.27	1090.20
604.62	1089.71
604.97	1086.43
605.31	1083.83
605.66	1084.77
606.01	1086.73
606.36	1082.33
606.71	1084.60
607.05	1081.70
607.40	1081.51
607.75	1076.76
608.10	1082.80
608.44	1083.39
608.79	1086.48
609.14	1086.66
609.49	1093.08
609.84	1095.14
610.18	1092.84
610.53	1090.10
610.88	1093.31
611.23	1088.42
611.57	1084.00
611.92	1084.60
612.27	1085.56
612.62	1080.27
612.96	1081.37
613.31	1080.51
613.66	1078.10
614.00	1077.09
614.35	1076.27
614.70	1075.13
615.05	1075.59
615.39	1079.97
615.74	1084.09
616.09	1084.00
616.43	1087.53
616.78	1088.14
617.13	1088.07
617.47	1085.61
617.82	1088.19
618.17	1088.12
618.51	1087.18
618.86	1082.61
619.21	1084.91
619.55	1084.37
619.90	1082.80
620.25	1084.58
620.59	1087.65
620.94	1084.77
621.29	1085.31
621.63	1084.91
621.98	1083.67
622.32	1086.13
622.67	1085.24
623.02	1083.46
623.36	1085.45
623.71	1088.16
624.05	1084.60
624.40	1086.71
624.75	1086.03
625.09	1083.32
625.44	1081.00
625.78	1082.29
626.13	1079.81
626.48	1081.80
626.82	1082.12
627.17	1080.06
627.51	1079.46
627.86	1080.98
628.20	1080.86
628.55	1080.34
628.89	1081.84
629.24	1082.52
629.58	1083.01
629.93	1083.25
630.28	1083.27
630.62	1081.73
630.97	1085.68
631.31	1089.05
631.66	1088.30
632.00	1086.03
632.35	1088.49
632.69	1080.39
633.04	1073.44
633.38	1074.33
633.73	1077.77
634.07	1076.46
634.42	1078.78
634.76	1084.81
635.11	1084.89
635.45	1085.31
635.79	1083.08
636.14	1087.34
636.48	1082.64
636.83	1081.87
637.17	1081.49
637.52	1085.00
637.86	1083.90
638.21	1085.75
638.55	1090.06
638.89	1091.09
639.24	1090.29
639.58	1089.29
639.93	1089.52
640.27	1084.30
640.61	1081.44
640.96	1080.58
641.30	1081.70
641.65	1081.26
641.99	1081.37
642.33	1082.99
642.68	1083.69
643.02	1084.21
643.37	1081.42
643.71	1084.23
644.05	1083.62
644.40	1083.25
644.74	1080.84
645.08	1082.85
645.43	1079.03
645.77	1078.75
646.11	1081.05
646.46	1080.23
646.80	1078.64
647.14	1082.40
647.49	1081.75
647.83	1079.71
648.17	1081.07
648.52	1082.15
648.86	1080.84
649.20	1082.36
649.55	1084.53
649.89	1082.69
650.23	1087.76
650.57	1088.54
650.92	1086.97
651.26	1085.07
651.60	1088.26
651.95	1083.55
652.29	1084.21
652.63	1085.73
652.97	1088.23
653.32	1086.71
653.66	1086.66
654.00	1086.71
654.34	1087.09
654.69	1084.42
655.03	1081.96
655.37	1081.77
655.71	1079.36
656.05	1077.25
656.40	1076.93
656.74	1079.50
657.08	1077.54
657.42	1078.80
657.76	1082.22
658.11	1082.40
658.45	1081.80
658.79	1087.11
659.13	1089.00
659.47	1089.17
659.82	1091.86
660.16	1090.90
660.50	1089.87
660.84	1089.75
661.18	1084.00
661.52	1081.91
661.87	1080.60
662.21	1079.13
662.55	1081.12
662.89	1081.89
663.23	1080.20
663.57	1081.63
663.91	1083.06
664.25	1077.61
664.60	1081.05
664.94	1080.11
665.28	1081.21
665.62	1079.24
665.96	1078.89
666.30	1081.30
666.64	1083.53
666.98	1084.07
667.32	1083.50
667.66	1088.26
668.01	1088.26
668.35	1089.10
668.69	1087.67
669.03	1086.71
669.37	1082.87
669.71	1082.17
670.05	1082.36
670.39	1081.54
670.73	1084.04
671.07	1086.80
671.41	1082.71
671.75	1083.06
672.09	1083.15
672.43	1081.16
672.77	1078.71
673.11	1082.03
673.45	1080.16
673.79	1079.41
674.13	1080.18
674.47	1080.84
674.81	1080.91
675.15	1080.74
675.49	1082.45
675.83	1080.88
676.17	1081.35
676.51	1083.79
676.85	1083.36
677.19	1083.88
677.53	1086.13
677.87	1087.13
678.21	1081.37
678.55	1083.01
678.89	1082.17
679.23	1081.58
679.57	1077.23
679.90	1079.71
680.24	1077.82
680.58	1078.21
680.92	1080.70
681.26	1082.40
681.60	1082.17
681.94	1082.38
682.28	1081.28
682.62	1079.03
682.96	1080.77
683.29	1080.16
683.63	1082.54
683.97	1084.96
684.31	1085.49
684.65	1085.03
684.99	1086.38
685.33	1084.98
685.67	1083.08
686.00	1084.25
686.34	1084.53
686.68	1082.92
687.02	1085.03
687.36	1085.28
687.70	1085.80
688.03	1082.38
688.37	1081.19
688.71	1079.34
689.05	1080.79
689.39	1077.42
689.72	1082.99
690.06	1085.84
690.40	1086.64
690.74	1087.30
691.08	1088.75
691.41	1082.87
691.75	1081.12
692.09	1080.46
692.43	1079.20
692.76	1078.31
693.10	1082.99
693.44	1081.49
693.78	1081.75
694.11	1081.47
694.45	1083.64
694.79	1081.44
695.13	1082.10
695.46	1082.94
695.80	1083.13
696.14	1082.01
696.48	1084.11
696.81	1083.50
697.15	1081.73
697.49	1081.07
697.82	1082.38
698.16	1081.21
698.50	1080.98
698.83	1081.00
699.17	1080.84
699.51	1078.19
699.84	1077.11
700.18	1077.75
700.52	1079.01
700.85	1078.64
701.19	1081.37
701.53	1080.79
701.86	1081.02
702.20	1081.94
702.54	1083.95
702.87	1083.13
703.21	1087.04
703.55	1088.28
703.88	1088.35
704.22	1086.29
704.55	1086.08
704.89	1081.42
705.23	1081.77
705.56	1077.89
705.90	1075.50
706.23	1071.97
706.57	1070.65
706.91	1068.97
707.24	1070.80
707.58	1075.66
707.91	1076.60
708.25	1076.76
708.58	1076.11
708.92	1075.45
709.26	1075.22
709.59	1075.17
709.93	1079.53
710.26	1079.76
710.60	1081.66
710.93	1080.44
711.27	1082.17
711.60	1080.70
711.94	1083.83
712.27	1082.76
712.61	1081.63
712.94	1082.57
713.28	1083.43
713.61	1079.67
713.95	1080.56
714.28	1084.77
714.62	1084.04
714.95	1084.58
715.29	1087.48
715.62	1086.24
715.96	1083.88
716.29	1082.92
716.63	1083.48
716.96	1083.32
717.29	1082.69
717.63	1082.61
717.96	1084.89
718.30	1081.73
718.63	1080.09
718.97	1082.12
719.30	1081.61
719.63	1081.70
719.97	1081.49
720.30	1082.99
720.64	1080.93
720.97	1082.71
721.30	1082.24
721.64	1084.74
721.97	1083.64
722.31	1082.85
722.64	1081.05
722.97	1081.30
723.31	1080.18
723.64	1080.41
723.97	1082.50
724.31	1081.40
724.64	1080.20
724.98	1080.84
725.31	1081.89
725.64	1078.92
725.98	1079.13
726.31	1079.46
726.64	1078.26
726.97	1079.01
727.31	1080.91
727.64	1079.22
727.97	1079.88
728.31	1082.92
728.64	1081.77
728.97	1084.70
729.31	1088.00
729.64	1087.90
729.97	1085.61
730.30	1084.65
730.64	1081.77
730.97	1082.10
731.30	1080.95
731.63	1079.13
731.97	1078.14
732.30	1078.96
732.63	1078.75
732.96	1079.71
733.30	1083.74
733.63	1084.09
733.96	1085.75
734.29	1083.46
734.63	1083.01
734.96	1078.21
735.29	1078.12
735.62	1074.17
735.95	1075.29
736.29	1074.17
736.62	1076.48
736.95	1078.71
737.28	1080.95
737.61	1083.15
737.94	1082.80
738.28	1083.25
738.61	1083.97
738.94	1083.36
739.27	1081.61
739.60	1082.85
739.93	1084.91
740.27	1084.44
740.60	1085.63
740.93	1083.64
741.26	1081.94
741.59	1075.20
741.92	1074.00
742.25	1073.49
742.58	1074.68
742.91	1075.80
743.25	1078.43
743.58	1079.13
743.91	1077.02
744.24	1076.41
744.57	1075.66
744.90	1077.42
745.23	1077.21
745.56	1079.22
745.89	1079.88
746.22	1082.66
746.55	1081.58
746.88	1081.00
747.21	1083.13
747.54	1084.44
747.87	1084.89
748.20	1085.00
748.53	1084.86
748.87	1077.70
749.20	1074.14
749.53	1072.62
749.86	1074.80
750.19	1074.96
750.52	1077.11
750.85	1078.57
751.18	1080.23
751.51	1077.54
751.84	1077.40
752.16	1081.47
752.49	1082.05
752.82	1079.38
753.15	1077.56
753.48	1075.94
753.81	1073.32
754.14	1072.13
754.47	1072.04
754.80	1077.63
755.13	1077.30
755.46	1078.50
755.79	1080.70
756.12	1081.49
756.45	1078.26
756.78	1080.04
757.11	1080.39
757.43	1079.06
757.76	1079.13
758.09	1078.92
758.42	1079.64
758.75	1080.67
759.08	1082.69
759.41	1084.02
759.74	1087.18
760.07	1086.50
760.39	1081.84
760.72	1080.70
761.05	1077.11
761.38	1074.03
761.71	1074.80
762.04	1077.47
762.36	1074.89
762.69	1079.06
763.02	1080.53
763.35	1081.44
763.68	1082.24
764.01	1085.45
764.33	1080.34
764.66	1079.92
764.99	1079.81
765.32	1079.46
765.65	1079.69
765.97	1082.43
766.30	1084.37
766.63	1082.26
766.96	1080.09
767.28	1081.05
767.61	1078.71
767.94	1075.03
768.27	1076.41
768.59	1076.58
768.92	1073.37
769.25	1074.38
769.58	1075.31
769.90	1075.31
770.23	1074.75
770.56	1078.71
770.89	1082.03
771.21	1083.93
771.54	1083.53
771.87	1085.70
772.19	1086.76
772.52	1085.94
772.85	1087.32
773.17	1086.15
773.50	1086.41
773.83	1082.78
774.15	1082.05
774.48	1076.67
774.81	1076.55
775.13	1077.37
775.46	1074.96
775.79	1073.65
776.11	1075.34
776.44	1076.46
776.77	1075.48
777.09	1076.20
777.42	1077.54
777.74	1077.89
778.07	1075.48
778.40	1077.65
778.72	1076.65
779.05	1076.79
779.37	1079.08
779.70	1081.77
780.03	1079.50
780.35	1080.70
780.68	1079.95
781.00	1077.84
781.33	1080.70
781.65	1080.77
781.98	1081.49
782.31	1081.82
782.63	1082.08
782.96	1078.89
783.28	1079.31
783.61	1081.14
783.93	1080.86
784.26	1081.26
784.58	1078.82
784.91	1079.17
785.23	1078.40
785.56	1077.70
785.88	1075.20
786.21	1076.27
786.53	1075.76
786.86	1074.14
787.18	1074.05
787.51	1077.77
787.83	1078.66
788.16	1078.57
788.48	1079.29
788.81	1080.02
789.13	1077.82
789.46	1079.90
789.78	1082.31
790.10	1082.61
790.43	1083.60
790.75	1084.35
791.08	1081.40
791.40	1078.94
791.73	1080.06
792.05	1077.14
792.37	1076.01
792.70	1075.24
793.02	1072.97
793.35	1070.44
793.67	1072.69
793.99	1074.26
794.32	1075.20
794.64	1075.92
794.96	1076.53
795.29	1075.52
795.61	1073.98
795.93	1073.74
796.26	1076.06
796.58	1073.84
796.91	1075.08
797.23	1074.91
797.55	1079.46
797.87	1076.01
798.20	1078.28
798.52	1076.11
798.84	1074.63
799.17	1073.07
799.49	1075.08
799.81	1076.69
800.14	1077.25
800.46	1077.77
800.78	1074.35
801.10	1078.64
801.43	1079.03
801.75	1078.75
802.07	1079.88
802.40	1079.60
802.72	1077.47
803.04	1076.04
803.36	1074.68
803.69	1076.13
804.01	1076.88
804.33	1073.28
804.65	1073.93
804.97	1076.04
805.30	1071.75
805.62	1070.47
805.94	1074.14
806.26	1072.53
806.58	1073.07
806.91	1079.03
807.23	1081.16
807.55	1079.06
807.87	1079.31
808.19	1078.03
808.52	1071.22
808.84	1069.48
809.16	1068.48
809.48	1069.37
809.80	1070.65
810.12	1076.76
810.44	1078.99
810.77	1082.15
811.09	1084.32
811.41	1084.96
811.73	1081.02
812.05	1080.70
812.37	1077.56
812.69	1075.99
813.01	1072.83
813.33	1074.63
813.66	1073.44
813.98	1076.97
814.30	1073.93
814.62	1076.72
814.94	1078.19
815.26	1080.13
815.58	1076.65
815.90	1076.93
816.22	1076.79
816.54	1072.18
816.86	1071.87
817.18	1072.27
817.50	1072.60
817.82	1074.54
818.14	1077.25
818.46	1076.83
818.78	1077.33
819.10	1077.58
819.42	1073.88
819.74	1073.28
820.06	1073.79
820.38	1075.78
820.70	1079.22
821.02	1079.53
821.34	1077.11
821.66	1077.82
821.98	1076.79
822.30	1076.74
822.62	1075.92
822.94	1077.96
823.26	1075.87
823.58	1077.04
823.90	1075.71
824.22	1077.49
824.54	1080.56
824.86	1082.17
825.18	1076.72
825.50	1078.33
825.81	1081.00
826.13	1079.46
826.45	1080.09
826.77	1084.46
827.09	1079.50
827.41	1077.51
827.73	1077.58
828.05	1077.18
828.36	1075.45
828.68	1078.54
829.00	1078.28
829.32	1082.22
829.64	1079.76
829.96	1082.64
830.28	1082.03
830.59	1081.75
830.91	1079.10
831.23	1079.57
831.55	1077.35
831.87	1078.92
832.19	1078.00
832.50	1078.50
832.82	1080.09
833.14	1082.22
833.46	1080.09
833.78	1081.89
834.09	1083.97
834.41	1083.50
834.73	1083.79
835.05	1084.18
835.36	1085.42
835.68	1079.50
836.00	1079.17
836.32	1076.90
836.63	1077.30
836.95	1075.03
837.27	1077.21
837.59	1078.73
837.90	1080.46
838.22	1082.36
838.54	1083.81
838.85	1083.11
839.17	1082.61
839.49	1078.99
839.80	1077.02
840.12	1075.41
840.44	1078.73
840.76	1078.78
841.07	1083.06
841.39	1082.45
841.71	1083.62
842.02	1079.60
842.34	1077.09
842.65	1075.01
842.97	1075.08
843.29	1075.66
843.60	1076.60
843.92	1076.86
844.24	1074.26
844.55	1071.94
844.87	1070.87
845.18	1070.54
845.50	1074.00
845.82	1078.21
846.13	1081.68
846.45	1084.02
846.76	1083.69
847.08	1083.46
847.40	1081.49
847.71	1082.80
848.03	1078.87
848.34	1079.62
848.66	1077.82
848.97	1076.67
849.29	1072.46
849.60	1074.28
849.92	1075.05
850.24	1074.89
850.55	1078.99
850.87	1080.48
851.18	1081.16
851.50	1079.90
851.81	1078.33
852.13	1077.23
852.44	1076.76
852.76	1074.19
853.07	1074.21
853.39	1076.37
853.70	1072.74
854.01	1074.35
854.33	1074.07
854.64	1075.31
854.96	1076.11
855.27	1080.04
855.59	1078.89
855.90	1078.38
856.22	1078.12
856.53	1078.00
856.84	1079.43
857.16	1080.56
857.47	1085.05
857.79	1086.78
858.10	1085.52
858.41	1084.96
858.73	1084.72
859.04	1081.28
859.36	1081.56
859.67	1082.33
859.98	1079.29
860.30	1076.97
860.61	1077.30
860.92	1072.67
861.24	1071.73
861.55	1072.27
861.87	1078.57
862.18	1080.48
862.49	1085.19
862.81	1085.40
863.12	1082.61
863.43	1079.57
863.74	1079.08
864.06	1075.69
864.37	1074.80
864.68	1075.97
865.00	1072.41
865.31	1073.56
865.62	1072.22
865.94	1074.77
866.25	1076.60
866.56	1079.92
866.87	1077.65
867.19	1079.48
867.50	1079.64
867.81	1079.67
868.12	1077.42
868.44	1077.72
868.75	1079.62
869.06	1081.00
869.37	1081.54
869.68	1082.10
870.00	1081.63
870.31	1079.97
870.62	1076.37
870.93	1077.02
871.24	1077.61
871.56	1079.69
871.87	1080.70
872.18	1082.52
872.49	1080.18
872.80	1079.48
873.12	1077.86
873.43	1075.05
873.74	1075.87
874.05	1078.47
874.36	1078.17
874.67	1077.68
874.98	1079.41
875.29	1076.18
875.61	1070.28
875.92	1072.27
876.23	1074.38
876.54	1076.41
876.85	1075.31
877.16	1079.50
877.47	1078.40
877.78	1076.04
878.09	1074.26
878.40	1074.52
878.72	1076.20
879.03	1075.99
879.34	1076.95
879.65	1077.11
879.96	1078.92
880.27	1078.28
880.58	1079.24
880.89	1079.64
881.20	1080.51
881.51	1082.26
881.82	1082.73
882.13	1078.43
882.44	1078.54
882.75	1079.95
883.06	1079.69
883.37	1077.25
883.68	1080.46
883.99	1080.67
884.30	1078.96
884.61	1078.19
884.92	1076.48
885.23	1078.00
885.54	1077.58
885.85	1078.50
886.16	1081.30
886.47	1083.04
886.78	1081.87
887.08	1080.79
887.39	1079.10
887.70	1076.88
888.01	1078.10
888.32	1078.36
888.63	1081.02
888.94	1083.22
889.25	1081.75
889.56	1079.60
889.87	1079.31
890.17	1077.51
890.48	1076.55
890.79	1075.90
891.10	1078.40
891.41	1077.04
891.72	1078.89
892.03	1075.45
892.34	1077.18
892.64	1076.08
892.95	1076.90
893.26	1079.50
893.57	1084.25
893.88	1083.50
894.18	1082.94
894.49	1083.64
894.80	1080.53
895.11	1077.00
895.42	1076.74
895.72	1077.82
896.03	1076.27
896.34	1076.55
896.65	1079.76
896.96	1079.74
897.26	1080.81
897.57	1084.67
897.88	1081.47
898.19	1078.73
898.49	1077.89
898.80	1075.69
899.11	1074.54
899.41	1077.98
899.72	1075.50
900.03	1080.44
900.34	1081.68
900.64	1078.68
900.95	1074.59
901.26	1078.26
901.56	1075.20
901.87	1075.62
902.18	1078.80
902.48	1079.88
902.79	1079.43
903.10	1079.24
903.40	1079.15
903.71	1076.65
904.02	1075.27
904.32	1076.11
904.63	1074.63
904.94	1069.81
905.24	1071.10
905.55	1076.55
905.85	1075.05
906.16	1075.43
906.47	1077.79
906.77	1080.23
907.08	1077.33
907.38	1078.96
907.69	1078.99
908.00	1080.81
908.30	1078.00
908.61	1077.91
908.91	1078.68
909.22	1076.34
909.52	1078.19
909.83	1082.22
910.14	1082.47
910.44	1081.75
910.75	1086.27
911.05	1087.34
911.36	1080.70
911.66	1079.83
911.97	1079.36
912.27	1077.37
912.58	1072.34
912.88	1075.36
913.19	1075.87
913.49	1075.36
913.80	1075.97
914.10	1078.31
914.41	1077.63
914.71	1078.78
915.01	1078.10
915.32	1078.57
915.62	1079.62
915.93	1080.27
916.23	1079.38
916.54	1078.33
916.84	1078.96
917.15	1078.40
917.45	1078.33
917.75	1079.15
918.06	1080.20
918.36	1081.28
918.67	1079.01
918.97	1078.96
919.27	1081.21
919.58	1080.72
919.88	1079.38
920.18	1079.13
920.49	1078.71
920.79	1075.92
921.10	1078.85
921.40	1077.25
921.70	1076.83
922.01	1079.06
922.31	1077.89
922.61	1076.62
922.92	1078.94
923.22	1080.25
923.52	1076.55
923.82	1077.56
924.13	1078.96
924.43	1077.35
924.73	1077.79
925.04	1079.85
925.34	1077.84
925.64	1075.29
925.94	1075.64
926.25	1074.77
926.55	1076.13
926.85	1077.37
927.15	1077.49
927.46	1077.42
927.76	1078.78
928.06	1075.01
928.36	1074.63
928.67	1076.69
928.97	1076.62
929.27	1076.48
929.57	1079.03
929.87	1080.11
930.18	1081.26
930.48	1080.60
930.78	1077.58
931.08	1077.25
931.38	1078.07
931.69	1077.07
931.99	1079.95
932.29	1084.53
932.59	1085.52
932.89	1084.09
933.19	1085.12
933.49	1082.59
933.80	1081.33
934.10	1080.06
934.40	1076.65
934.70	1075.87
935.00	1077.56
935.30	1075.55
935.60	1076.46
935.90	1078.99
936.20	1078.59
936.50	1075.20
936.81	1075.83
937.11	1076.11
937.41	1078.14
937.71	1076.88
938.01	1079.13
938.31	1078.05
938.61	1079.24
938.91	1080.20
939.21	1078.21
939.51	1078.96
939.81	1082.36
940.11	1082.19
940.41	1083.57
940.71	1085.87
941.01	1082.52
941.31	1083.18
941.61	1081.07
941.91	1081.28
942.21	1080.74
942.51	1084.30
942.81	1082.69
943.11	1084.02
943.41	1081.49
943.71	1081.37
944.01	1081.35
944.31	1083.25
944.61	1083.83
944.90	1083.04
945.20	1083.15
945.50	1083.95
945.80	1081.35
946.10	1078.59
946.40	1077.63
946.70	1075.73
947.00	1071.38
947.30	1073.30
947.60	1075.01
947.89	1080.74
948.19	1082.29
948.49	1085.87
948.79	1085.33
949.09	1084.86
949.39	1081.16
949.69	1082.12
949.98	1077.93
950.28	1077.63
950.58	1076.81
950.88	1076.13
951.18	1075.64
951.48	1077.72
951.77	1075.27
952.07	1077.33
952.37	1078.12
952.67	1078.99
952.97	1083.67
953.26	1088.30
953.56	1088.12
953.86	1084.53
954.16	1084.72
954.45	1081.16
954.75	1079.43
955.05	1080.13
955.35	1082.24
955.64	1080.11
955.94	1079.06
956.24	1078.07
956.54	1078.10
956.83	1080.18
957.13	1080.06
957.43	1078.21
957.72	1077.33
958.02	1076.97
958.32	1075.94
958.61	1076.55
958.91	1081.16
959.21	1082.64
959.50	1079.43
959.80	1082.24
960.10	1085.19
960.39	1081.02
960.69	1078.75
960.99	1083.79
961.28	1082.36
961.58	1078.73
961.87	1079.38
962.17	1081.05
962.47	1080.04
962.76	1079.38
963.06	1081.56
963.36	1084.00
963.65	1084.21
963.95	1084.56
964.24	1084.02
964.54	1082.31
964.83	1082.12
965.13	1081.87
965.42	1079.85
965.72	1078.89
966.02	1079.34
966.31	1078.43
966.61	1080.16
966.90	1081.12
967.20	1081.19
967.49	1085.05
967.79	1084.96
968.08	1083.97
968.38	1083.71
968.67	1083.86
968.97	1080.63
969.26	1080.70
969.56	1080.84
969.85	1078.38
970.15	1080.25
970.44	1080.13
970.74	1080.30
971.03	1079.76
971.32	1080.98
971.62	1077.82
971.91	1076.27
972.21	1075.22
972.50	1073.32
972.80	1076.93
973.09	1079.29
973.38	1079.01
973.68	1081.07
973.97	1082.10
974.27	1080.48
974.56	1077.47
974.85	1076.69
975.15	1074.40
975.44	1076.76
975.73	1076.58
976.03	1076.58
976.32	1078.31
976.61	1080.27
976.91	1076.95
977.20	1075.22
977.49	1076.41
977.79	1076.55
978.08	1077.33
978.37	1078.68
978.67	1076.37
978.96	1077.21
979.25	1076.04
979.55	1075.24
979.84	1072.25
980.13	1074.98
980.42	1073.93
980.72	1073.86
981.01	1074.38
981.30	1080.67
981.59	1081.40
981.89	1081.84
982.18	1083.39
982.47	1080.58
982.76	1075.15
983.06	1076.76
983.35	1077.93
983.64	1078.85
983.93	1077.23
984.22	1078.64
984.52	1076.27
984.81	1074.63
985.10	1075.55
985.39	1076.32
985.68	1078.00
985.97	1076.55
986.27	1074.96
986.56	1072.41
986.85	1071.08
987.14	1071.75
987.43	1071.68
987.72	1074.47
988.01	1075.48
988.31	1075.83
988.60	1072.22
988.89	1072.81
989.18	1071.31
989.47	1070.21
989.76	1069.65
990.05	1071.12
990.34	1070.91
990.63	1070.61
990.92	1070.77
991.21	1073.93
991.51	1075.15
991.80	1073.91
992.09	1073.28
992.38	1073.65
992.67	1075.03
992.96	1075.94
993.25	1078.78
993.54	1079.55
993.83	1080.53
994.12	1078.78
994.41	1078.99
994.70	1079.43
994.99	1079.29
995.28	1078.24
995.57	1079.17
995.86	1079.31
996.15	1078.03
996.44	1079.06
996.73	1080.30
997.02	1078.07
997.31	1076.08
997.59	1075.41
997.88	1077.44
998.17	1078.59
998.46	1080.65
998.75	1080.58
999.04	1081.30
999.33	1081.47
999.62	1077.86
999.91	1075.41
1000.20	1073.02
1000.49	1070.89
1000.77	1069.67
1001.06	1072.83
1001.35	1073.65
1001.64	1076.90
1001.93	1079.92
1002.22	1080.60
1002.51	1081.47
1002.79	1084.18
1003.08	1081.73
1003.37	1079.57
1003.66	1079.17
1003.95	1073.63
1004.23	1072.46
1004.52	1073.81
1004.81	1075.15
1005.10	1072.15
1005.39	1074.68
1005.67	1073.37
1005.96	1073.11
1006.25	1073.35
1006.54	1075.52
1006.83	1074.82
1007.11	1075.52
1007.40	1076.44
1007.69	1076.58
1007.97	1076.76
1008.26	1079.46
1008.55	1079.01
1008.84	1083.11
1009.12	1082.73
1009.41	1080.95
1009.70	1084.09
1009.98	1088.58
1010.27	1085.21
1010.56	1085.63
1010.85	1089.38
1011.13	1088.23
1011.42	1083.64
1011.71	1080.95
1011.99	1080.51
1012.28	1078.94
1012.56	1075.34
1012.85	1074.59
1013.14	1077.25
1013.42	1078.50
1013.71	1078.43
1014.00	1080.70
1014.28	1085.03
1014.57	1084.14
1014.85	1083.15
1015.14	1083.01
1015.43	1080.81
1015.71	1077.44
1016.00	1078.96
1016.28	1075.01
1016.57	1073.81
1016.85	1076.46
1017.14	1077.21
1017.43	1076.06
1017.71	1077.11
1018.00	1078.38
1018.28	1077.98
1018.57	1080.39
1018.85	1078.85
1019.14	1080.25
1019.42	1080.25
1019.71	1077.18
1019.99	1076.04
1020.28	1077.58
1020.56	1078.33
1020.85	1075.80
1021.13	1076.08
1021.42	1074.96
1021.70	1073.84
1021.99	1073.81
1022.27	1076.74
1022.55	1076.41
1022.84	1082.73
>>>>>End Processed Spectral Data<<<<<
