SpectraSuite Data File
++++++++++++++++++++++++++++++++++++
Date: Mon Aug 26 10:21:53 PDT 2019
User: corrico
Dark Spectrum Present: No
Reference Spectrum Present: No
Number of Sampled Component Spectra: 1
Spectrometers: USB2+H06089
Integration Time (usec): 2000 (USB2+H06089)
Spectra Averaged: 20 (USB2+H06089)
Boxcar Smoothing: 2 (USB2+H06089)
Correct for Electrical Dark: No (USB2+H06089)
Strobe/Lamp Enabled: No (USB2+H06089)
Correct for Detector Non-linearity: No (USB2+H06089)
Correct for Stray Light: No (USB2+H06089)
Number of Pixels in Processed Spectrum: 2048
>>>>>Begin Processed Spectral Data<<<<<
339.70	1017.43
340.07	1017.43
340.45	985.15
340.82	965.47
341.19	944.27
341.57	921.16
341.94	910.68
342.31	903.21
342.69	897.55
343.06	892.75
343.43	892.05
343.81	893.71
344.18	898.67
344.55	902.65
344.93	911.85
345.30	919.43
345.67	924.14
346.04	931.86
346.42	941.29
346.79	948.60
347.16	954.61
347.54	964.53
347.91	972.07
348.28	983.49
348.65	991.80
349.03	1001.00
349.40	1011.28
349.77	1022.28
350.14	1028.29
350.52	1032.95
350.89	1039.99
351.26	1046.71
351.63	1048.47
352.01	1052.23
352.38	1058.62
352.75	1064.17
353.12	1066.54
353.50	1073.07
353.87	1076.69
354.24	1077.44
354.61	1075.80
354.98	1074.17
355.36	1073.86
355.73	1072.11
356.10	1075.76
356.47	1076.62
356.84	1078.99
357.22	1077.09
357.59	1079.31
357.96	1078.54
358.33	1082.12
358.70	1081.16
359.08	1083.41
359.45	1081.73
359.82	1077.18
360.19	1072.53
360.56	1075.71
360.94	1073.07
361.31	1071.85
361.68	1075.59
362.05	1080.20
362.42	1076.65
362.79	1076.79
363.16	1081.40
363.54	1081.12
363.91	1077.30
364.28	1078.54
364.65	1078.19
365.02	1072.88
365.39	1069.32
365.76	1070.87
366.14	1069.79
366.51	1070.70
366.88	1072.13
367.25	1074.45
367.62	1074.98
367.99	1073.51
368.36	1073.18
368.73	1071.01
369.10	1069.46
369.48	1065.60
369.85	1066.65
370.22	1066.23
370.59	1067.47
370.96	1070.35
371.33	1074.12
371.70	1074.61
372.07	1076.58
372.44	1077.51
372.81	1076.72
373.18	1074.52
373.55	1073.88
373.93	1072.92
374.30	1072.67
374.67	1068.88
375.04	1070.49
375.41	1071.33
375.78	1069.53
376.15	1071.43
376.52	1073.14
376.89	1074.54
377.26	1074.89
377.63	1075.66
378.00	1075.22
378.37	1079.46
378.74	1078.26
379.11	1075.83
379.48	1077.79
379.85	1074.49
380.22	1072.13
380.59	1070.19
380.96	1070.07
381.33	1066.47
381.70	1067.33
382.07	1067.38
382.44	1066.49
382.81	1069.32
383.18	1073.53
383.55	1075.62
383.92	1074.98
384.29	1076.86
384.66	1075.59
385.03	1074.26
385.40	1074.40
385.77	1074.14
386.14	1073.63
386.51	1073.11
386.88	1077.72
387.25	1075.80
387.62	1077.96
387.99	1079.85
388.36	1082.69
388.73	1079.38
389.10	1081.68
389.46	1083.62
389.83	1081.05
390.20	1080.53
390.57	1081.44
390.94	1079.36
391.31	1076.37
391.68	1076.23
392.05	1077.00
392.42	1074.54
392.79	1074.98
393.16	1073.42
393.53	1076.53
393.89	1075.31
394.26	1077.16
394.63	1076.58
395.00	1079.57
395.37	1079.43
395.74	1078.36
396.11	1079.53
396.48	1082.19
396.84	1081.63
397.21	1081.19
397.58	1080.84
397.95	1078.36
398.32	1077.02
398.69	1077.77
399.06	1075.03
399.42	1077.14
399.79	1074.98
400.16	1073.44
400.53	1072.41
400.90	1076.15
401.27	1077.86
401.64	1080.91
402.00	1083.95
402.37	1084.35
402.74	1085.33
403.11	1080.72
403.48	1079.78
403.84	1080.95
404.21	1082.24
404.58	1081.30
404.95	1087.27
405.32	1090.69
405.68	1092.00
406.05	1089.71
406.42	1089.68
406.79	1085.38
407.16	1082.94
407.52	1079.03
407.89	1082.01
408.26	1083.64
408.63	1086.15
408.99	1089.92
409.36	1092.54
409.73	1091.32
410.10	1089.66
410.47	1088.82
410.83	1084.86
411.20	1083.81
411.57	1085.87
411.94	1086.24
412.30	1085.68
412.67	1087.60
413.04	1089.68
413.40	1088.68
413.77	1089.12
414.14	1091.93
414.51	1092.40
414.87	1091.20
415.24	1090.76
415.61	1091.20
415.97	1088.26
416.34	1085.03
416.71	1085.35
417.08	1084.42
417.44	1086.45
417.81	1090.24
418.18	1091.70
418.54	1089.78
418.91	1093.31
419.28	1094.06
419.64	1093.17
420.01	1095.65
420.38	1098.76
420.74	1099.42
421.11	1096.38
421.48	1096.59
421.84	1097.50
422.21	1095.04
422.58	1093.36
422.94	1095.42
423.31	1099.75
423.68	1100.61
424.04	1110.21
424.41	1114.31
424.77	1118.80
425.14	1121.49
425.51	1127.08
425.87	1126.45
426.24	1127.11
426.61	1128.61
426.97	1127.67
427.34	1129.38
427.70	1133.29
428.07	1139.00
428.44	1145.06
428.80	1154.24
429.17	1159.95
429.53	1164.95
429.90	1170.57
430.27	1176.12
430.63	1182.93
431.00	1189.90
431.36	1194.12
431.73	1200.51
432.09	1210.24
432.46	1218.93
432.83	1228.29
433.19	1240.74
433.56	1256.89
433.92	1268.48
434.29	1279.57
434.65	1291.98
435.02	1308.48
435.38	1322.89
435.75	1339.21
436.11	1360.46
436.48	1383.19
436.84	1405.49
437.21	1429.37
437.57	1457.08
437.94	1483.67
438.30	1508.01
438.67	1539.49
439.03	1570.45
439.40	1603.48
439.76	1638.59
440.13	1681.82
440.49	1720.57
440.86	1761.44
441.22	1805.51
441.59	1851.36
441.95	1898.55
442.32	1953.69
442.68	2015.93
443.05	2080.17
443.41	2146.25
443.78	2218.10
444.14	2293.19
444.51	2364.74
444.87	2452.58
445.24	2537.07
445.60	2625.66
445.96	2711.16
446.33	2820.23
446.69	2916.75
447.06	3028.93
447.42	3155.72
447.79	3282.81
448.15	3420.20
448.51	3564.96
448.88	3727.21
449.24	3872.28
449.61	4055.61
449.97	4233.98
450.33	4417.62
450.70	4596.88
451.06	4826.44
451.43	5039.59
451.79	5291.79
452.15	5557.39
452.52	5832.33
452.88	6103.95
453.24	6403.26
453.61	6720.43
453.97	7057.63
454.34	7398.39
454.70	7766.76
455.06	8136.85
455.43	8496.40
455.79	8849.38
456.15	9264.38
456.52	9665.59
456.88	10161.15
457.24	10630.83
457.61	11159.81
457.97	11671.62
458.33	12222.11
458.70	12730.50
459.06	13246.45
459.42	13815.78
459.79	14335.06
460.15	14927.33
460.51	15470.66
460.88	16054.62
461.24	16583.02
461.60	17167.45
461.96	17670.37
462.33	18166.09
462.69	18652.03
463.05	19205.20
463.42	19737.39
463.78	20201.05
464.14	20671.07
464.50	21170.92
464.87	21509.22
465.23	21721.39
465.59	22003.17
465.95	22263.01
466.32	22440.42
466.68	22583.24
467.04	22693.48
467.40	22724.05
467.77	22721.59
468.13	22675.30
468.49	22669.84
468.85	22703.03
469.22	22695.87
469.58	22617.39
469.94	22550.99
470.30	22405.15
470.66	22200.68
471.03	21938.01
471.39	21734.66
471.75	21394.46
472.11	21037.84
472.47	20733.96
472.84	20392.25
473.20	19964.84
473.56	19676.06
473.92	19278.78
474.28	18929.41
474.65	18599.79
475.01	18297.61
475.37	17911.49
475.73	17636.90
476.09	17329.91
476.45	17060.05
476.81	16780.45
477.18	16474.33
477.54	16202.26
477.90	15922.85
478.26	15582.75
478.62	15272.44
478.98	15076.72
479.34	14890.44
479.71	14678.32
480.07	14501.82
480.43	14306.29
480.79	14034.95
481.15	13756.24
481.51	13498.01
481.87	13303.00
482.23	13090.83
482.59	12887.69
482.96	12689.31
483.32	12498.11
483.68	12246.39
484.04	12061.79
484.40	11876.79
484.76	11703.05
485.12	11502.42
485.48	11340.32
485.84	11109.73
486.20	10870.71
486.56	10598.34
486.92	10361.25
487.28	10118.86
487.64	9907.65
488.00	9727.41
488.37	9538.60
488.73	9322.85
489.09	9085.82
489.45	8844.70
489.81	8589.27
490.17	8362.62
490.53	8153.37
490.89	7960.89
491.25	7773.25
491.61	7590.66
491.97	7400.26
492.33	7221.23
492.69	7047.80
493.05	6885.93
493.41	6731.08
493.77	6562.63
494.13	6390.46
494.49	6223.46
494.85	6064.40
495.21	5902.15
495.57	5759.73
495.93	5605.70
496.29	5455.84
496.64	5317.04
497.00	5173.75
497.36	5037.77
497.72	4916.74
498.08	4804.79
498.44	4689.52
498.80	4576.92
499.16	4469.77
499.52	4371.65
499.88	4268.51
500.24	4170.44
500.60	4083.23
500.96	3999.27
501.32	3909.42
501.68	3824.86
502.03	3738.89
502.39	3651.49
502.75	3568.61
503.11	3493.60
503.47	3423.57
503.83	3350.69
504.19	3280.64
504.55	3206.51
504.91	3141.86
505.26	3073.03
505.62	3010.98
505.98	2952.66
506.34	2897.23
506.70	2836.00
507.06	2782.08
507.42	2724.03
507.78	2670.90
508.13	2622.03
508.49	2578.47
508.85	2535.03
509.21	2494.03
509.57	2457.09
509.93	2409.00
510.28	2360.55
510.64	2313.92
511.00	2266.11
511.36	2219.58
511.72	2183.88
512.07	2148.71
512.43	2111.75
512.79	2079.85
513.15	2046.87
513.51	2012.16
513.86	1980.58
514.22	1952.38
514.58	1924.01
514.94	1897.78
515.30	1877.62
515.65	1850.78
516.01	1826.67
516.37	1803.64
516.73	1777.31
517.08	1753.44
517.44	1731.46
517.80	1710.51
518.16	1690.26
518.51	1674.58
518.87	1655.55
519.23	1641.04
519.59	1623.04
519.94	1608.98
520.30	1594.77
520.66	1580.94
521.01	1566.15
521.37	1555.75
521.73	1539.07
522.09	1525.56
522.44	1509.34
522.80	1499.72
523.16	1482.92
523.51	1473.95
523.87	1460.66
524.23	1448.82
524.58	1435.97
524.94	1426.16
525.30	1411.60
525.65	1398.89
526.01	1391.07
526.37	1376.45
526.72	1366.03
527.08	1358.35
527.44	1351.80
527.79	1339.09
528.15	1332.21
528.51	1324.04
528.86	1315.03
529.22	1307.10
529.58	1297.99
529.93	1290.64
530.29	1285.80
530.65	1283.03
531.00	1276.08
531.36	1271.82
531.71	1265.55
532.07	1259.07
532.43	1252.77
532.78	1249.64
533.14	1247.86
533.49	1243.64
533.85	1239.55
534.21	1234.49
534.56	1227.52
534.92	1222.09
535.27	1218.62
535.63	1211.34
535.98	1206.12
536.34	1202.54
536.69	1199.31
537.05	1195.41
537.41	1192.92
537.76	1189.58
538.12	1188.59
538.47	1187.14
538.83	1185.36
539.18	1185.50
539.54	1183.61
539.89	1180.54
540.25	1175.84
540.60	1172.35
540.96	1171.56
541.31	1166.15
541.67	1165.33
542.02	1162.08
542.38	1161.05
542.73	1155.52
543.09	1155.57
543.44	1149.55
543.80	1148.43
544.15	1147.05
544.51	1147.85
544.86	1143.49
545.22	1143.98
545.57	1144.29
545.93	1142.56
546.28	1139.65
546.64	1140.05
546.99	1138.46
547.35	1136.54
547.70	1133.05
548.05	1130.97
548.41	1127.39
548.76	1127.37
549.12	1125.84
549.47	1127.25
549.83	1126.73
550.18	1128.33
550.53	1125.49
550.89	1125.33
551.24	1123.32
551.60	1123.78
551.95	1123.88
552.30	1124.98
552.66	1119.31
553.01	1116.08
553.37	1112.92
553.72	1111.85
554.07	1110.19
554.43	1113.74
554.78	1115.48
555.13	1115.76
555.49	1116.22
555.84	1111.99
556.19	1110.72
556.55	1108.08
556.90	1109.04
557.26	1105.69
557.61	1108.41
557.96	1106.30
558.32	1104.10
558.67	1102.67
559.02	1101.01
559.37	1098.09
559.73	1097.62
560.08	1097.57
560.43	1096.59
560.79	1098.04
561.14	1097.41
561.49	1097.73
561.85	1097.83
562.20	1096.59
562.55	1096.54
562.90	1096.92
563.26	1097.62
563.61	1098.74
563.96	1100.47
564.32	1099.58
564.67	1097.43
565.02	1094.76
565.37	1093.45
565.73	1091.42
566.08	1091.11
566.43	1091.81
566.78	1090.46
567.14	1090.50
567.49	1086.45
567.84	1085.19
568.19	1084.56
568.54	1086.76
568.90	1086.87
569.25	1089.66
569.60	1091.34
569.95	1090.57
570.31	1092.56
570.66	1091.44
571.01	1094.25
571.36	1095.35
571.71	1096.78
572.06	1091.13
572.42	1092.87
572.77	1086.08
573.12	1082.69
573.47	1081.77
573.82	1084.63
574.18	1083.95
574.53	1087.11
574.88	1086.03
575.23	1087.11
575.58	1089.64
575.93	1089.78
576.28	1090.48
576.64	1091.72
576.99	1088.21
577.34	1084.00
577.69	1081.94
578.04	1081.07
578.39	1078.96
578.74	1082.43
579.09	1085.42
579.44	1086.78
579.80	1085.96
580.15	1084.91
580.50	1082.43
580.85	1080.32
581.20	1079.48
581.55	1081.21
581.90	1088.84
582.25	1088.30
582.60	1087.76
582.95	1087.58
583.30	1087.16
583.65	1081.70
584.00	1082.01
584.35	1081.94
584.71	1078.17
585.06	1075.13
585.41	1074.63
585.76	1074.61
586.11	1071.80
586.46	1075.36
586.81	1076.58
587.16	1078.40
587.51	1080.13
587.86	1082.17
588.21	1083.27
588.56	1085.82
588.91	1083.67
589.26	1079.48
589.61	1079.03
589.96	1077.98
590.31	1073.39
590.66	1075.20
591.01	1078.33
591.36	1077.04
591.71	1077.16
592.06	1078.75
592.41	1076.55
592.76	1074.80
593.10	1075.73
593.45	1078.57
593.80	1078.73
594.15	1082.31
594.50	1084.42
594.85	1085.07
595.20	1082.92
595.55	1084.09
595.90	1081.37
596.25	1084.58
596.60	1088.23
596.95	1087.39
597.30	1086.50
597.64	1096.35
597.99	1092.77
598.34	1089.45
598.69	1090.13
599.04	1092.91
599.39	1086.71
599.74	1087.46
600.09	1089.94
600.44	1086.78
600.78	1085.05
601.13	1080.74
601.48	1080.23
601.83	1077.49
602.18	1081.30
602.53	1081.21
602.88	1082.19
603.22	1083.76
603.57	1081.07
603.92	1080.67
604.27	1077.04
604.62	1077.18
604.97	1075.83
605.31	1077.54
605.66	1074.33
606.01	1075.71
606.36	1074.96
606.71	1072.15
607.05	1074.63
607.40	1073.79
607.75	1076.88
608.10	1077.70
608.44	1076.15
608.79	1075.62
609.14	1078.38
609.49	1078.17
609.84	1080.48
610.18	1084.49
610.53	1082.24
610.88	1081.80
611.23	1081.56
611.57	1078.71
611.92	1081.54
612.27	1081.56
612.62	1082.54
612.96	1082.87
613.31	1083.08
613.66	1082.83
614.00	1082.92
614.35	1080.51
614.70	1079.29
615.05	1079.78
615.39	1077.91
615.74	1077.91
616.09	1078.12
616.43	1076.39
616.78	1077.89
617.13	1079.43
617.47	1080.72
617.82	1079.83
618.17	1080.46
618.51	1076.11
618.86	1074.66
619.21	1078.38
619.55	1079.34
619.90	1078.50
620.25	1081.96
620.59	1081.26
620.94	1079.57
621.29	1080.70
621.63	1082.50
621.98	1079.95
622.32	1082.10
622.67	1080.58
623.02	1081.89
623.36	1080.23
623.71	1082.22
624.05	1079.31
624.40	1079.34
624.75	1078.99
625.09	1080.16
625.44	1079.27
625.78	1079.95
626.13	1078.75
626.48	1075.94
626.82	1075.62
627.17	1077.18
627.51	1079.17
627.86	1080.23
628.20	1079.57
628.55	1080.13
628.89	1075.80
629.24	1072.27
629.58	1074.96
629.93	1078.87
630.28	1079.08
630.62	1082.50
630.97	1084.81
631.31	1083.71
631.66	1082.87
632.00	1084.00
632.35	1082.76
632.69	1085.77
633.04	1082.29
633.38	1082.12
633.73	1078.28
634.07	1078.94
634.42	1075.10
634.76	1076.79
635.11	1077.00
635.45	1080.34
635.79	1078.82
636.14	1077.47
636.48	1076.20
636.83	1074.14
637.17	1071.68
637.52	1074.66
637.86	1077.14
638.21	1077.63
638.55	1075.55
638.89	1078.94
639.24	1076.11
639.58	1073.53
639.93	1073.58
640.27	1078.28
640.61	1079.06
640.96	1077.70
641.30	1079.08
641.65	1079.08
641.99	1077.18
642.33	1074.19
642.68	1076.55
643.02	1079.03
643.37	1079.31
643.71	1079.03
644.05	1078.80
644.40	1079.85
644.74	1080.51
645.08	1080.51
645.43	1083.25
645.77	1085.96
646.11	1084.09
646.46	1080.70
646.80	1079.78
647.14	1077.47
647.49	1076.62
647.83	1077.98
648.17	1081.16
648.52	1080.25
648.86	1079.88
649.20	1076.72
649.55	1077.96
649.89	1074.07
650.23	1079.06
650.57	1080.60
650.92	1080.67
651.26	1080.60
651.60	1083.34
651.95	1080.65
652.29	1079.81
652.63	1078.59
652.97	1077.00
653.32	1075.92
653.66	1074.40
654.00	1076.04
654.34	1079.50
654.69	1079.76
655.03	1082.22
655.37	1083.86
655.71	1086.62
656.05	1085.52
656.40	1086.90
656.74	1083.06
657.08	1080.23
657.42	1075.76
657.76	1077.49
658.11	1077.49
658.45	1075.41
658.79	1076.25
659.13	1076.51
659.47	1072.50
659.82	1070.98
660.16	1071.26
660.50	1073.07
660.84	1074.54
661.18	1078.50
661.52	1080.48
661.87	1083.55
662.21	1087.25
662.55	1087.30
662.89	1084.60
663.23	1081.21
663.57	1077.21
663.91	1074.00
664.25	1069.91
664.60	1069.51
664.94	1071.50
665.28	1075.66
665.62	1072.60
665.96	1076.67
666.30	1077.75
666.64	1075.45
666.98	1076.20
667.32	1078.87
667.66	1074.89
668.01	1077.21
668.35	1082.26
668.69	1081.49
669.03	1078.71
669.37	1081.89
669.71	1082.64
670.05	1081.94
670.39	1081.91
670.73	1085.99
671.07	1085.80
671.41	1083.01
671.75	1079.46
672.09	1082.17
672.43	1082.76
672.77	1080.37
673.11	1082.36
673.45	1084.39
673.79	1082.59
674.13	1079.43
674.47	1080.44
674.81	1080.18
675.15	1078.73
675.49	1074.21
675.83	1076.30
676.17	1076.72
676.51	1075.69
676.85	1076.95
677.19	1080.88
677.53	1079.83
677.87	1077.25
678.21	1074.45
678.55	1073.60
678.89	1073.39
679.23	1072.88
679.57	1075.71
679.90	1074.59
680.24	1075.10
680.58	1073.84
680.92	1073.44
681.26	1074.68
681.60	1079.17
681.94	1082.10
682.28	1082.61
682.62	1084.60
682.96	1082.76
683.29	1080.58
683.63	1075.62
683.97	1071.57
684.31	1071.36
684.65	1071.12
684.99	1074.12
685.33	1075.62
685.67	1079.78
686.00	1079.48
686.34	1083.76
686.68	1083.29
687.02	1082.52
687.36	1083.11
687.70	1080.70
688.03	1075.27
688.37	1073.53
688.71	1075.62
689.05	1074.66
689.39	1075.69
689.72	1077.16
690.06	1077.70
690.40	1076.55
690.74	1077.72
691.08	1078.28
691.41	1077.42
691.75	1076.06
692.09	1077.86
692.43	1076.44
692.76	1075.69
693.10	1076.46
693.44	1076.95
693.78	1074.84
694.11	1075.29
694.45	1076.65
694.79	1079.92
695.13	1079.88
695.46	1079.06
695.80	1075.99
696.14	1076.30
696.48	1072.76
696.81	1071.80
697.15	1074.56
697.49	1078.24
697.82	1077.21
698.16	1079.60
698.50	1081.66
698.83	1079.15
699.17	1080.34
699.51	1081.28
699.84	1079.90
700.18	1079.46
700.52	1076.53
700.85	1074.24
701.19	1070.54
701.53	1071.01
701.86	1073.00
702.20	1078.92
702.54	1079.34
702.87	1082.83
703.21	1081.00
703.55	1078.57
703.88	1077.40
704.22	1077.18
704.55	1075.71
704.89	1078.26
705.23	1078.00
705.56	1076.76
705.90	1078.33
706.23	1078.96
706.57	1077.63
706.91	1078.96
707.24	1079.95
707.58	1077.77
707.91	1078.36
708.25	1079.20
708.58	1082.29
708.92	1080.81
709.26	1082.64
709.59	1083.32
709.93	1082.61
710.26	1078.47
710.60	1081.35
710.93	1080.37
711.27	1081.14
711.60	1078.40
711.94	1077.96
712.27	1078.38
712.61	1076.37
712.94	1074.61
713.28	1077.82
713.61	1078.03
713.95	1069.79
714.28	1070.07
714.62	1070.12
714.95	1069.77
715.29	1072.69
715.62	1079.27
715.96	1084.39
716.29	1082.87
716.63	1082.10
716.96	1080.02
717.29	1077.75
717.63	1077.61
717.96	1077.84
718.30	1078.00
718.63	1078.00
718.97	1080.27
719.30	1077.28
719.63	1077.72
719.97	1081.44
720.30	1081.23
720.64	1080.53
720.97	1079.83
721.30	1078.17
721.64	1075.24
721.97	1075.22
722.31	1079.38
722.64	1079.97
722.97	1085.38
723.31	1085.63
723.64	1084.77
723.97	1079.29
724.31	1079.88
724.64	1077.42
724.98	1074.49
725.31	1075.20
725.64	1077.56
725.98	1075.69
726.31	1075.59
726.64	1078.21
726.97	1080.51
727.31	1079.31
727.64	1083.01
727.97	1083.06
728.31	1084.49
728.64	1082.24
728.97	1082.61
729.31	1079.85
729.64	1077.04
729.97	1076.15
730.30	1079.17
730.64	1079.62
730.97	1081.14
731.30	1083.34
731.63	1080.06
731.97	1077.65
732.30	1077.58
732.63	1077.00
732.96	1075.66
733.30	1080.88
733.63	1083.41
733.96	1081.14
734.29	1078.94
734.63	1081.73
734.96	1082.45
735.29	1082.12
735.62	1085.21
735.95	1083.95
736.29	1081.02
736.62	1076.06
736.95	1075.50
737.28	1073.14
737.61	1076.20
737.94	1078.45
738.28	1079.36
738.61	1077.44
738.94	1077.16
739.27	1078.82
739.60	1079.01
739.93	1078.17
740.27	1077.70
740.60	1079.88
740.93	1075.03
741.26	1074.96
741.59	1075.22
741.92	1075.99
742.25	1073.72
742.58	1078.17
742.91	1078.33
743.25	1078.10
743.58	1078.40
743.91	1078.45
744.24	1080.70
744.57	1077.61
744.90	1079.50
745.23	1077.91
745.56	1080.51
745.89	1076.76
746.22	1078.14
746.55	1078.50
746.88	1076.95
747.21	1078.68
747.54	1082.19
747.87	1086.57
748.20	1085.38
748.53	1085.49
748.87	1080.39
749.20	1075.73
749.53	1073.16
749.86	1073.51
750.19	1078.19
750.52	1081.66
750.85	1083.36
751.18	1082.01
751.51	1081.61
751.84	1080.30
752.16	1079.31
752.49	1080.81
752.82	1078.78
753.15	1078.05
753.48	1076.44
753.81	1073.79
754.14	1072.88
754.47	1074.24
754.80	1074.91
755.13	1071.78
755.46	1071.50
755.79	1071.85
756.12	1074.33
756.45	1071.12
756.78	1078.38
757.11	1078.43
757.43	1076.95
757.76	1073.65
758.09	1077.37
758.42	1075.38
758.75	1076.72
759.08	1072.92
759.41	1073.46
759.74	1075.24
760.07	1074.03
760.39	1074.84
760.72	1077.79
761.05	1078.85
761.38	1078.10
761.71	1078.12
762.04	1077.37
762.36	1074.70
762.69	1075.08
763.02	1073.42
763.35	1072.97
763.68	1073.88
764.01	1078.45
764.33	1077.82
764.66	1077.93
764.99	1078.87
765.32	1078.47
765.65	1075.45
765.97	1075.22
766.30	1072.97
766.63	1072.67
766.96	1072.53
767.28	1071.73
767.61	1072.90
767.94	1074.66
768.27	1072.57
768.59	1071.03
768.92	1073.30
769.25	1073.04
769.58	1075.13
769.90	1076.25
770.23	1077.84
770.56	1077.44
770.89	1079.38
771.21	1078.05
771.54	1080.32
771.87	1079.46
772.19	1078.12
772.52	1074.19
772.85	1074.05
773.17	1071.90
773.50	1073.39
773.83	1074.45
774.15	1077.23
774.48	1078.33
774.81	1077.61
775.13	1075.99
775.46	1079.24
775.79	1076.37
776.11	1072.92
776.44	1072.95
776.77	1075.36
777.09	1071.01
777.42	1072.53
777.74	1073.67
778.07	1072.57
778.40	1072.32
778.72	1070.91
779.05	1070.40
779.37	1069.37
779.70	1070.80
780.03	1070.72
780.35	1073.84
780.68	1073.44
781.00	1075.08
781.33	1078.00
781.65	1079.06
781.98	1080.23
782.31	1083.48
782.63	1083.29
782.96	1081.84
783.28	1079.38
783.61	1077.79
783.93	1075.43
784.26	1077.28
784.58	1075.69
784.91	1076.18
785.23	1078.68
785.56	1077.42
785.88	1074.91
786.21	1077.86
786.53	1079.74
786.86	1074.61
787.18	1076.51
787.51	1077.14
787.83	1074.21
788.16	1071.24
788.48	1073.11
788.81	1070.98
789.13	1070.09
789.46	1070.51
789.78	1070.82
790.10	1070.26
790.43	1072.39
790.75	1071.87
791.08	1074.42
791.40	1075.55
791.73	1080.81
792.05	1079.46
792.37	1080.70
792.70	1078.87
793.02	1075.10
793.35	1073.88
793.67	1072.48
793.99	1073.09
794.32	1072.74
794.64	1076.23
794.96	1075.31
795.29	1081.51
795.61	1081.00
795.93	1077.28
796.26	1073.56
796.58	1073.28
796.91	1068.78
797.23	1069.30
797.55	1074.21
797.87	1081.47
798.20	1080.13
798.52	1078.38
798.84	1079.03
799.17	1081.91
799.49	1081.61
799.81	1081.80
800.14	1085.24
800.46	1085.05
800.78	1081.84
801.10	1075.92
801.43	1074.80
801.75	1074.40
802.07	1073.42
802.40	1072.53
802.72	1076.88
803.04	1077.14
803.36	1076.37
803.69	1078.19
804.01	1079.01
804.33	1076.79
804.65	1077.28
804.97	1079.22
805.30	1077.86
805.62	1076.37
805.94	1074.45
806.26	1075.34
806.58	1074.75
806.91	1076.15
807.23	1077.07
807.55	1079.85
807.87	1080.27
808.19	1077.65
808.52	1077.58
808.84	1080.06
809.16	1079.10
809.48	1078.94
809.80	1079.95
810.12	1077.40
810.44	1076.15
810.77	1078.03
811.09	1077.70
811.41	1075.59
811.73	1077.68
812.05	1075.59
812.37	1074.35
812.69	1073.84
813.01	1079.69
813.33	1078.36
813.66	1079.08
813.98	1078.71
814.30	1078.87
814.62	1074.10
814.94	1074.80
815.26	1074.17
815.58	1073.49
815.90	1073.11
816.22	1074.19
816.54	1072.34
816.86	1071.71
817.18	1071.73
817.50	1071.66
817.82	1074.84
818.14	1075.59
818.46	1078.99
818.78	1080.41
819.10	1083.86
819.42	1078.71
819.74	1080.72
820.06	1080.53
820.38	1079.08
820.70	1075.71
821.02	1078.12
821.34	1075.80
821.66	1075.73
821.98	1074.70
822.30	1072.90
822.62	1073.67
822.94	1075.83
823.26	1075.73
823.58	1077.68
823.90	1081.75
824.22	1080.91
824.54	1082.17
824.86	1078.43
825.18	1079.15
825.50	1077.44
825.81	1074.38
826.13	1073.81
826.45	1074.80
826.77	1073.07
827.09	1070.98
827.41	1075.10
827.73	1073.42
828.05	1073.07
828.36	1078.43
828.68	1081.82
829.00	1078.87
829.32	1079.88
829.64	1084.21
829.96	1081.91
830.28	1080.95
830.59	1085.12
830.91	1083.32
831.23	1079.41
831.55	1077.86
831.87	1076.90
832.19	1074.05
832.50	1075.27
832.82	1079.34
833.14	1081.80
833.46	1081.35
833.78	1081.89
834.09	1080.84
834.41	1080.60
834.73	1079.46
835.05	1079.71
835.36	1078.52
835.68	1081.77
836.00	1079.55
836.32	1077.63
836.63	1077.98
836.95	1081.49
837.27	1077.82
837.59	1078.68
837.90	1078.19
838.22	1079.13
838.54	1077.40
838.85	1079.60
839.17	1078.03
839.49	1077.70
839.80	1077.09
840.12	1076.60
840.44	1076.88
840.76	1077.23
841.07	1075.59
841.39	1074.26
841.71	1073.67
842.02	1073.88
842.34	1076.51
842.65	1078.50
842.97	1075.71
843.29	1073.95
843.60	1073.49
843.92	1073.07
844.24	1073.51
844.55	1077.07
844.87	1077.14
845.18	1075.20
845.50	1072.18
845.82	1072.67
846.13	1072.11
846.45	1073.79
846.76	1073.67
847.08	1076.72
847.40	1078.21
847.71	1079.71
848.03	1079.64
848.34	1080.84
848.66	1078.87
848.97	1075.73
849.29	1071.40
849.60	1071.97
849.92	1073.21
850.24	1071.71
850.55	1074.31
850.87	1078.59
851.18	1075.80
851.50	1077.14
851.81	1076.97
852.13	1073.44
852.44	1072.01
852.76	1074.80
853.07	1072.69
853.39	1072.81
853.70	1073.35
854.01	1072.90
854.33	1070.44
854.64	1069.65
854.96	1070.91
855.27	1070.82
855.59	1071.71
855.90	1075.13
856.22	1078.21
856.53	1077.28
856.84	1077.16
857.16	1078.24
857.47	1078.36
857.79	1077.44
858.10	1077.18
858.41	1079.83
858.73	1080.16
859.04	1079.92
859.36	1078.00
859.67	1079.71
859.98	1078.87
860.30	1077.14
860.61	1076.81
860.92	1075.48
861.24	1074.75
861.55	1075.85
861.87	1080.48
862.18	1078.59
862.49	1081.75
862.81	1083.69
863.12	1081.61
863.43	1079.01
863.74	1077.49
864.06	1074.73
864.37	1071.26
864.68	1072.57
865.00	1070.37
865.31	1074.87
865.62	1074.28
865.94	1074.14
866.25	1077.61
866.56	1079.08
866.87	1074.77
867.19	1078.33
867.50	1079.03
867.81	1072.85
868.12	1072.08
868.44	1071.97
868.75	1070.26
869.06	1074.56
869.37	1076.86
869.68	1077.61
870.00	1079.90
870.31	1080.02
870.62	1075.38
870.93	1077.16
871.24	1074.75
871.56	1076.27
871.87	1076.04
872.18	1078.68
872.49	1076.18
872.80	1079.38
873.12	1076.95
873.43	1076.51
873.74	1073.95
874.05	1073.39
874.36	1072.97
874.67	1075.55
874.98	1077.44
875.29	1079.83
875.61	1079.48
875.92	1083.08
876.23	1080.11
876.54	1077.68
876.85	1076.15
877.16	1077.37
877.47	1074.38
877.78	1077.75
878.09	1079.48
878.40	1078.12
878.72	1078.75
879.03	1079.99
879.34	1079.38
879.65	1081.70
879.96	1081.19
880.27	1081.02
880.58	1077.77
880.89	1076.34
881.20	1072.39
881.51	1073.56
881.82	1073.25
882.13	1072.97
882.44	1072.55
882.75	1074.10
883.06	1075.34
883.37	1076.93
883.68	1077.86
883.99	1077.28
884.30	1075.83
884.61	1076.74
884.92	1075.10
885.23	1073.88
885.54	1074.26
885.85	1073.30
886.16	1071.01
886.47	1070.98
886.78	1070.87
887.08	1070.07
887.39	1071.64
887.70	1073.44
888.01	1077.47
888.32	1080.44
888.63	1081.84
888.94	1080.60
889.25	1080.44
889.56	1077.89
889.87	1079.38
890.17	1073.58
890.48	1072.62
890.79	1076.20
891.10	1075.15
891.41	1073.67
891.72	1077.04
892.03	1080.02
892.34	1076.20
892.64	1074.54
892.95	1072.69
893.26	1076.53
893.57	1076.48
893.88	1076.83
894.18	1077.49
894.49	1077.11
894.80	1076.13
895.11	1073.91
895.42	1071.68
895.72	1070.28
896.03	1069.02
896.34	1068.69
896.65	1073.07
896.96	1075.45
897.26	1077.30
897.57	1080.86
897.88	1080.91
898.19	1077.07
898.49	1076.93
898.80	1079.17
899.11	1075.90
899.41	1074.31
899.72	1075.24
900.03	1075.10
900.34	1073.56
900.64	1075.50
900.95	1077.54
901.26	1077.35
901.56	1079.69
901.87	1080.06
902.18	1078.50
902.48	1075.17
902.79	1078.50
903.10	1075.50
903.40	1073.88
903.71	1075.69
904.02	1079.17
904.32	1076.27
904.63	1076.11
904.94	1077.56
905.24	1077.70
905.55	1077.21
905.85	1077.91
906.16	1079.29
906.47	1076.08
906.77	1072.64
907.08	1073.46
907.38	1073.39
907.69	1072.48
908.00	1074.07
908.30	1074.42
908.61	1073.02
908.91	1072.62
909.22	1072.25
909.52	1073.07
909.83	1074.89
910.14	1072.85
910.44	1072.11
910.75	1071.99
911.05	1072.60
911.36	1072.64
911.66	1076.46
911.97	1078.45
912.27	1080.34
912.58	1079.99
912.88	1078.00
913.19	1076.06
913.49	1076.46
913.80	1076.76
914.10	1078.85
914.41	1082.03
914.71	1078.78
915.01	1076.34
915.32	1076.01
915.62	1073.32
915.93	1071.52
916.23	1073.16
916.54	1073.18
916.84	1073.09
917.15	1074.56
917.45	1073.63
917.75	1077.25
918.06	1078.19
918.36	1076.48
918.67	1077.84
918.97	1082.01
919.27	1076.95
919.58	1073.42
919.88	1072.90
920.18	1071.66
920.49	1070.35
920.79	1073.32
921.10	1077.23
921.40	1074.75
921.70	1075.48
922.01	1076.04
922.31	1077.00
922.61	1075.94
922.92	1079.46
923.22	1078.17
923.52	1077.37
923.82	1076.41
924.13	1075.76
924.43	1076.55
924.73	1077.63
925.04	1074.96
925.34	1075.57
925.64	1078.19
925.94	1076.15
926.25	1074.77
926.55	1073.81
926.85	1076.39
927.15	1073.02
927.46	1076.60
927.76	1077.86
928.06	1078.94
928.36	1072.06
928.67	1071.92
928.97	1071.12
929.27	1070.12
929.57	1074.00
929.87	1077.93
930.18	1081.37
930.48	1081.14
930.78	1079.38
931.08	1076.32
931.38	1075.87
931.69	1074.35
931.99	1073.44
932.29	1074.68
932.59	1074.70
932.89	1076.93
933.19	1078.21
933.49	1078.57
933.80	1079.29
934.10	1077.54
934.40	1076.15
934.70	1073.91
935.00	1070.44
935.30	1069.65
935.60	1071.64
935.90	1073.18
936.20	1074.54
936.50	1078.59
936.81	1078.50
937.11	1081.02
937.41	1079.83
937.71	1076.97
938.01	1072.50
938.31	1072.34
938.61	1071.52
938.91	1073.18
939.21	1075.17
939.51	1078.66
939.81	1080.37
940.11	1076.86
940.41	1076.15
940.71	1076.81
941.01	1076.34
941.31	1075.59
941.61	1077.89
941.91	1076.18
942.21	1077.07
942.51	1076.37
942.81	1073.81
943.11	1074.84
943.41	1076.44
943.71	1073.98
944.01	1076.20
944.31	1080.81
944.61	1080.81
944.90	1078.40
945.20	1077.68
945.50	1074.54
945.80	1073.04
946.10	1072.20
946.40	1072.18
946.70	1074.45
947.00	1076.53
947.30	1073.39
947.60	1073.23
947.89	1073.23
948.19	1073.46
948.49	1072.18
948.79	1075.34
949.09	1076.69
949.39	1080.06
949.69	1079.69
949.98	1081.07
950.28	1076.46
950.58	1074.66
950.88	1072.92
951.18	1073.21
951.48	1071.90
951.77	1075.99
952.07	1077.70
952.37	1078.19
952.67	1078.26
952.97	1081.68
953.26	1080.06
953.56	1079.76
953.86	1076.48
954.16	1077.42
954.45	1073.42
954.75	1072.13
955.05	1070.00
955.35	1071.10
955.64	1070.89
955.94	1074.68
956.24	1073.98
956.54	1076.27
956.83	1074.82
957.13	1075.55
957.43	1070.70
957.72	1071.73
958.02	1073.44
958.32	1077.65
958.61	1075.73
958.91	1077.58
959.21	1082.76
959.50	1079.17
959.80	1077.00
960.10	1076.83
960.39	1076.39
960.69	1070.75
960.99	1074.07
961.28	1076.11
961.58	1074.80
961.87	1074.66
962.17	1079.46
962.47	1076.27
962.76	1071.22
963.06	1072.60
963.36	1075.94
963.65	1074.40
963.95	1075.62
964.24	1075.83
964.54	1073.37
964.83	1071.03
965.13	1067.47
965.42	1067.19
965.72	1068.69
966.02	1067.99
966.31	1068.29
966.61	1068.27
966.90	1069.06
967.20	1071.61
967.49	1074.80
967.79	1075.29
968.08	1079.27
968.38	1079.15
968.67	1078.52
968.97	1080.11
969.26	1081.07
969.56	1081.80
969.85	1082.83
970.15	1085.59
970.44	1083.04
970.74	1083.01
971.03	1080.41
971.32	1079.43
971.62	1076.30
971.91	1074.31
972.21	1076.01
972.50	1076.39
972.80	1078.59
973.09	1077.47
973.38	1077.11
973.68	1075.64
973.97	1075.01
974.27	1069.95
974.56	1073.32
974.85	1078.28
975.15	1074.42
975.44	1075.87
975.73	1077.72
976.03	1076.72
976.32	1075.05
976.61	1078.05
976.91	1076.41
977.20	1077.40
977.49	1075.50
977.79	1074.61
978.08	1074.35
978.37	1076.37
978.67	1075.38
978.96	1076.13
979.25	1078.14
979.55	1079.97
979.84	1077.25
980.13	1078.40
980.42	1079.50
980.72	1079.06
981.01	1076.60
981.30	1079.85
981.59	1077.16
981.89	1077.49
982.18	1077.86
982.47	1081.73
982.76	1079.31
983.06	1080.32
983.35	1080.11
983.64	1080.56
983.93	1078.57
984.22	1080.39
984.52	1082.03
984.81	1083.39
985.10	1078.89
985.39	1075.71
985.68	1075.01
985.97	1073.72
986.27	1071.94
986.56	1073.67
986.85	1073.44
987.14	1073.91
987.43	1074.21
987.72	1073.77
988.01	1072.43
988.31	1075.45
988.60	1077.09
988.89	1076.81
989.18	1076.37
989.47	1080.88
989.76	1077.79
990.05	1075.05
990.34	1074.82
990.63	1074.45
990.92	1072.06
991.21	1073.79
991.51	1073.81
991.80	1075.05
992.09	1075.99
992.38	1077.65
992.67	1077.09
992.96	1077.07
993.25	1078.19
993.54	1075.85
993.83	1072.81
994.12	1076.15
994.41	1080.53
994.70	1077.58
994.99	1077.77
995.28	1077.89
995.57	1075.22
995.86	1071.36
996.15	1072.25
996.44	1071.94
996.73	1075.05
997.02	1075.36
997.31	1075.94
997.59	1077.35
997.88	1079.29
998.17	1079.03
998.46	1079.90
998.75	1078.03
999.04	1074.47
999.33	1074.84
999.62	1074.38
999.91	1072.97
1000.20	1074.07
1000.49	1076.67
1000.77	1076.97
1001.06	1076.08
1001.35	1077.18
1001.64	1076.81
1001.93	1077.79
1002.22	1077.49
1002.51	1075.90
1002.79	1076.51
1003.08	1075.13
1003.37	1075.17
1003.66	1075.03
1003.95	1077.18
1004.23	1074.10
1004.52	1078.92
1004.81	1077.96
1005.10	1079.13
1005.39	1081.28
1005.67	1084.16
1005.96	1081.51
1006.25	1083.69
1006.54	1082.17
1006.83	1078.38
1007.11	1077.75
1007.40	1076.67
1007.69	1073.28
1007.97	1074.21
1008.26	1076.81
1008.55	1077.70
1008.84	1078.89
1009.12	1081.87
1009.41	1080.30
1009.70	1080.48
1009.98	1079.74
1010.27	1079.60
1010.56	1075.85
1010.85	1077.25
1011.13	1075.66
1011.42	1074.38
1011.71	1076.46
1011.99	1077.00
1012.28	1076.83
1012.56	1078.00
1012.85	1077.86
1013.14	1076.11
1013.42	1077.98
1013.71	1077.11
1014.00	1076.44
1014.28	1075.52
1014.57	1074.12
1014.85	1070.89
1015.14	1074.00
1015.43	1072.36
1015.71	1073.00
1016.00	1074.73
1016.28	1074.63
1016.57	1072.88
1016.85	1073.07
1017.14	1073.88
1017.43	1076.23
1017.71	1078.80
1018.00	1077.63
1018.28	1077.33
1018.57	1075.05
1018.85	1070.75
1019.14	1068.38
1019.42	1067.21
1019.71	1069.95
1019.99	1072.32
1020.28	1075.78
1020.56	1081.63
1020.85	1083.79
1021.13	1085.12
1021.42	1083.53
1021.70	1084.51
1021.99	1081.70
1022.27	1080.58
1022.55	1078.87
1022.84	1071.73
>>>>>End Processed Spectral Data<<<<<
