SpectraSuite Data File
++++++++++++++++++++++++++++++++++++
Date: Mon Aug 26 10:22:28 PDT 2019
User: corrico
Dark Spectrum Present: No
Reference Spectrum Present: No
Number of Sampled Component Spectra: 1
Spectrometers: USB2+H06089
Integration Time (usec): 2000 (USB2+H06089)
Spectra Averaged: 20 (USB2+H06089)
Boxcar Smoothing: 2 (USB2+H06089)
Correct for Electrical Dark: No (USB2+H06089)
Strobe/Lamp Enabled: No (USB2+H06089)
Correct for Detector Non-linearity: No (USB2+H06089)
Correct for Stray Light: No (USB2+H06089)
Number of Pixels in Processed Spectrum: 2048
>>>>>Begin Processed Spectral Data<<<<<
339.70	1016.85
340.07	1016.85
340.45	984.20
340.82	963.72
341.19	940.59
341.57	917.91
341.94	907.73
342.31	900.68
342.69	894.65
343.06	894.34
343.43	893.83
343.81	895.18
344.18	899.26
344.55	907.38
344.93	909.49
345.30	913.49
345.67	923.72
346.04	929.01
346.42	934.74
346.79	944.62
347.16	956.69
347.54	964.51
347.91	973.97
348.28	984.15
348.65	994.14
349.03	1001.45
349.40	1007.39
349.77	1015.23
350.14	1020.80
350.52	1026.96
350.89	1033.93
351.26	1043.25
351.63	1049.52
352.01	1056.26
352.38	1063.40
352.75	1065.04
353.12	1067.45
353.50	1070.02
353.87	1072.95
354.24	1072.67
354.61	1076.55
354.98	1077.18
355.36	1078.82
355.73	1080.46
356.10	1082.71
356.47	1078.82
356.84	1078.31
357.22	1077.56
357.59	1076.60
357.96	1078.80
358.33	1082.90
358.70	1085.42
359.08	1084.91
359.45	1085.73
359.82	1084.00
360.19	1084.51
360.56	1083.11
360.94	1084.39
361.31	1084.14
361.68	1081.68
362.05	1080.06
362.42	1079.22
362.79	1076.48
363.16	1074.66
363.54	1076.34
363.91	1075.71
364.28	1076.46
364.65	1080.67
365.02	1080.41
365.39	1076.01
365.76	1074.17
366.14	1071.64
366.51	1068.71
366.88	1067.40
367.25	1070.07
367.62	1070.87
367.99	1072.04
368.36	1072.85
368.73	1075.69
369.10	1075.85
369.48	1078.64
369.85	1082.15
370.22	1083.06
370.59	1083.06
370.96	1083.79
371.33	1083.29
371.70	1080.04
372.07	1076.62
372.44	1075.97
372.81	1076.51
373.18	1078.50
373.55	1076.88
373.93	1079.10
374.30	1079.01
374.67	1080.23
375.04	1077.07
375.41	1079.36
375.78	1076.23
376.15	1074.17
376.52	1071.80
376.89	1073.70
377.26	1076.11
377.63	1077.37
378.00	1078.03
378.37	1075.17
378.74	1073.37
379.11	1071.97
379.48	1072.81
379.85	1077.00
380.22	1076.18
380.59	1077.96
380.96	1078.61
381.33	1077.98
381.70	1076.32
382.07	1080.09
382.44	1080.11
382.81	1078.00
383.18	1080.60
383.55	1079.85
383.92	1081.42
384.29	1079.13
384.66	1082.54
385.03	1081.35
385.40	1081.89
385.77	1080.72
386.14	1083.90
386.51	1082.36
386.88	1083.22
387.25	1082.52
387.62	1082.50
387.99	1084.39
388.36	1086.83
388.73	1087.44
389.10	1086.52
389.46	1089.10
389.83	1087.25
390.20	1087.55
390.57	1087.93
390.94	1085.68
391.31	1082.97
391.68	1083.06
392.05	1079.60
392.42	1078.54
392.79	1084.98
393.16	1087.46
393.53	1085.70
393.89	1085.82
394.26	1085.89
394.63	1085.24
395.00	1085.68
395.37	1086.92
395.74	1087.74
396.11	1088.28
396.48	1085.31
396.84	1082.43
397.21	1083.79
397.58	1084.32
397.95	1084.18
398.32	1084.14
398.69	1083.55
399.06	1085.19
399.42	1087.25
399.79	1088.65
400.16	1092.73
400.53	1094.06
400.90	1091.63
401.27	1090.13
401.64	1089.43
402.00	1086.29
402.37	1087.58
402.74	1090.81
403.11	1090.46
403.48	1090.69
403.84	1090.36
404.21	1090.69
404.58	1087.53
404.95	1087.34
405.32	1087.90
405.68	1090.83
406.05	1090.64
406.42	1093.08
406.79	1096.10
407.16	1096.61
407.52	1096.52
407.89	1096.54
408.26	1094.93
408.63	1091.79
408.99	1090.13
409.36	1089.05
409.73	1090.71
410.10	1092.23
410.47	1093.33
410.83	1094.20
411.20	1095.65
411.57	1093.55
411.94	1093.69
412.30	1093.31
412.67	1093.92
413.04	1094.57
413.40	1098.20
413.77	1099.28
414.14	1100.24
414.51	1102.32
414.87	1102.56
415.24	1102.11
415.61	1099.75
415.97	1102.25
416.34	1100.50
416.71	1099.42
417.08	1101.36
417.44	1100.19
417.81	1100.82
418.18	1103.77
418.54	1103.70
418.91	1105.04
419.28	1110.49
419.64	1112.81
420.01	1112.25
420.38	1115.17
420.74	1115.05
421.11	1116.69
421.48	1116.51
421.84	1121.23
422.21	1124.70
422.58	1127.13
422.94	1128.30
423.31	1131.56
423.68	1130.17
424.04	1132.47
424.41	1136.66
424.77	1137.85
425.14	1141.34
425.51	1148.15
425.87	1153.35
426.24	1154.26
426.61	1162.75
426.97	1169.00
427.34	1172.37
427.70	1176.52
428.07	1184.01
428.44	1193.09
428.80	1198.28
429.17	1208.84
429.53	1220.40
429.90	1230.23
430.27	1236.72
430.63	1246.27
431.00	1254.06
431.36	1263.84
431.73	1274.87
432.09	1288.68
432.46	1304.57
432.83	1319.08
433.19	1334.81
433.56	1352.95
433.92	1370.15
434.29	1391.43
434.65	1416.07
435.02	1440.51
435.38	1469.65
435.75	1497.47
436.11	1531.20
436.48	1564.77
436.84	1599.85
437.21	1634.23
437.57	1673.27
437.94	1708.90
438.30	1751.77
438.67	1798.49
439.03	1845.25
439.40	1897.52
439.76	1952.80
440.13	2011.43
440.49	2074.07
440.86	2144.07
441.22	2221.33
441.59	2297.73
441.95	2378.48
442.32	2460.35
442.68	2551.75
443.05	2642.25
443.41	2744.54
443.78	2846.51
444.14	2954.15
444.51	3068.54
444.87	3206.89
445.24	3347.76
445.60	3503.90
445.96	3663.57
446.33	3836.18
446.69	3998.59
447.06	4176.83
447.42	4358.80
447.79	4552.60
448.15	4773.38
448.51	4995.48
448.88	5259.39
449.24	5506.63
449.61	5783.63
449.97	6055.25
450.33	6345.52
450.70	6603.94
451.06	6936.34
451.43	7248.12
451.79	7609.81
452.15	8017.41
452.52	8465.95
452.88	8920.79
453.24	9445.93
453.61	10019.41
453.97	10580.04
454.34	11130.25
454.70	11779.92
455.06	12432.18
455.43	13075.03
455.79	13685.32
456.15	14402.23
456.52	15064.83
456.88	15834.80
457.24	16557.30
457.61	17389.71
457.97	18167.52
458.33	18954.73
458.70	19731.00
459.06	20499.02
459.42	21357.53
459.79	22136.62
460.15	23031.29
460.51	23887.72
460.88	24826.06
461.24	25615.69
461.60	26599.46
461.96	27481.99
462.33	28331.08
462.69	29106.41
463.05	29951.67
463.42	30642.27
463.78	31284.93
464.14	31795.55
464.50	32380.73
464.87	32862.88
465.23	33230.11
465.59	33587.46
465.95	33934.28
466.32	34205.08
466.68	34433.31
467.04	34574.63
467.40	34712.32
467.77	34864.71
468.13	34830.17
468.49	34734.16
468.85	34646.53
469.22	34485.92
469.58	34146.66
469.94	33926.91
470.30	33619.31
470.66	33219.88
471.03	32631.05
471.39	32254.85
471.75	31612.68
472.11	31011.72
472.47	30665.77
472.84	30349.61
473.20	29850.28
473.56	29586.85
473.92	29175.18
474.28	28646.47
474.65	28145.85
475.01	27664.69
475.37	27070.14
475.73	26580.60
476.09	26034.90
476.45	25499.60
476.81	24976.86
477.18	24446.15
477.54	24006.95
477.90	23662.21
478.26	23246.83
478.62	22894.61
478.98	22606.09
479.34	22276.12
479.71	21841.39
480.07	21493.26
480.43	21131.15
480.79	20736.94
481.15	20382.04
481.51	20073.07
481.87	19819.70
482.23	19536.90
482.59	19274.12
482.96	18984.74
483.32	18684.08
483.68	18294.52
484.04	17950.81
484.40	17579.06
484.76	17214.94
485.12	16860.31
485.48	16543.98
485.84	16188.50
486.20	15836.32
486.56	15470.26
486.92	15129.85
487.28	14781.63
487.64	14414.63
488.00	14096.81
488.37	13774.90
488.73	13418.62
489.09	13060.84
489.45	12766.24
489.81	12447.25
490.17	12147.26
490.53	11861.48
490.89	11563.72
491.25	11249.81
491.61	10937.56
491.97	10618.26
492.33	10310.57
492.69	10010.89
493.05	9707.58
493.41	9411.76
493.77	9134.78
494.13	8862.20
494.49	8619.37
494.85	8382.23
495.21	8171.37
495.57	7960.47
495.93	7755.04
496.29	7551.36
496.64	7366.25
497.00	7168.76
497.36	6972.67
497.72	6784.37
498.08	6598.70
498.44	6417.40
498.80	6238.81
499.16	6077.55
499.52	5930.94
499.88	5805.63
500.24	5685.98
500.60	5573.00
500.96	5467.56
501.32	5350.91
501.68	5230.68
502.03	5097.94
502.39	4970.97
502.75	4830.66
503.11	4705.06
503.47	4582.09
503.83	4467.26
504.19	4349.11
504.55	4244.70
504.91	4152.32
505.26	4056.10
505.62	3969.15
505.98	3883.58
506.34	3787.15
506.70	3691.47
507.06	3602.08
507.42	3511.27
507.78	3434.01
508.13	3360.52
508.49	3287.84
508.85	3215.85
509.21	3147.51
509.57	3073.36
509.93	3010.56
510.28	2939.53
510.64	2879.12
511.00	2813.63
511.36	2753.80
511.72	2690.07
512.07	2639.96
512.43	2590.06
512.79	2541.75
513.15	2501.14
513.51	2456.93
513.86	2410.07
514.22	2367.64
514.58	2328.60
514.94	2287.08
515.30	2253.56
515.65	2220.79
516.01	2189.97
516.37	2159.57
516.73	2129.44
517.08	2105.64
517.44	2077.86
517.80	2049.02
518.16	2022.76
518.51	1996.73
518.87	1965.70
519.23	1939.88
519.59	1911.12
519.94	1884.65
520.30	1861.73
520.66	1834.68
521.01	1809.49
521.37	1788.26
521.73	1768.74
522.09	1746.60
522.44	1729.98
522.80	1712.45
523.16	1691.51
523.51	1669.36
523.87	1648.95
524.23	1625.97
524.58	1604.37
524.94	1584.07
525.30	1561.28
525.65	1543.49
526.01	1531.41
526.37	1521.96
526.72	1515.33
527.08	1505.53
527.44	1493.80
527.79	1479.90
528.15	1464.15
528.51	1450.13
528.86	1436.74
529.22	1424.71
529.58	1416.66
529.93	1406.36
530.29	1394.58
530.65	1388.48
531.00	1381.06
531.36	1369.31
531.71	1360.55
532.07	1352.95
532.43	1341.88
532.78	1334.85
533.14	1328.16
533.49	1322.75
533.85	1315.43
534.21	1312.67
534.56	1303.61
534.92	1299.56
535.27	1296.05
535.63	1291.81
535.98	1286.45
536.34	1283.48
536.69	1275.73
537.05	1264.57
537.41	1257.01
537.76	1252.21
538.12	1244.95
538.47	1240.91
538.83	1238.49
539.18	1233.60
539.54	1228.69
539.89	1224.17
540.25	1221.29
540.60	1217.52
540.96	1215.84
541.31	1214.20
541.67	1212.51
542.02	1209.35
542.38	1204.56
542.73	1199.59
543.09	1193.93
543.44	1190.16
543.80	1185.67
544.15	1182.81
544.51	1179.44
544.86	1174.81
545.22	1174.20
545.57	1172.16
545.93	1170.13
546.28	1170.74
546.64	1171.11
546.99	1166.08
547.35	1163.36
547.70	1161.94
548.05	1158.96
548.41	1155.29
548.76	1155.64
549.12	1154.00
549.47	1153.09
549.83	1151.36
550.18	1149.04
550.53	1146.96
550.89	1146.16
551.24	1142.51
551.60	1138.39
551.95	1137.78
552.30	1136.35
552.66	1134.48
553.01	1134.32
553.37	1136.70
553.72	1134.29
554.07	1133.69
554.43	1132.23
554.78	1132.21
555.13	1132.96
555.49	1133.24
555.84	1134.22
556.19	1132.94
556.55	1132.09
556.90	1126.03
557.26	1125.45
557.61	1123.22
557.96	1126.85
558.32	1125.38
558.67	1126.36
559.02	1126.59
559.37	1126.41
559.73	1121.58
560.08	1121.91
560.43	1121.58
560.79	1120.11
561.14	1114.54
561.49	1110.65
561.85	1111.05
562.20	1112.04
562.55	1112.04
562.90	1112.62
563.26	1115.45
563.61	1112.06
563.96	1108.31
564.32	1103.89
564.67	1101.22
565.02	1100.89
565.37	1102.77
565.73	1101.69
566.08	1104.50
566.43	1111.12
566.78	1109.86
567.14	1109.72
567.49	1110.26
567.84	1109.20
568.19	1105.22
568.54	1106.35
568.90	1105.15
569.25	1105.13
569.60	1103.66
569.95	1103.89
570.31	1102.95
570.66	1099.91
571.01	1096.70
571.36	1099.96
571.71	1099.19
572.06	1097.01
572.42	1099.68
572.77	1103.91
573.12	1101.01
573.47	1095.84
573.82	1097.66
574.18	1093.94
574.53	1091.11
574.88	1091.34
575.23	1096.24
575.58	1093.62
575.93	1092.30
576.28	1095.02
576.64	1094.81
576.99	1095.65
577.34	1096.38
577.69	1097.78
578.04	1096.31
578.39	1097.06
578.74	1093.24
579.09	1093.85
579.44	1095.93
579.80	1094.95
580.15	1098.44
580.50	1099.63
580.85	1099.05
581.20	1096.17
581.55	1097.50
581.90	1092.77
582.25	1093.38
582.60	1093.80
582.95	1096.66
583.30	1093.52
583.65	1093.45
584.00	1088.30
584.35	1085.33
584.71	1080.72
585.06	1084.14
585.41	1083.81
585.76	1089.66
586.11	1088.98
586.46	1092.30
586.81	1091.72
587.16	1090.95
587.51	1086.45
587.86	1091.72
588.21	1091.44
588.56	1086.80
588.91	1088.54
589.26	1090.10
589.61	1085.10
589.96	1085.47
590.31	1086.08
590.66	1085.24
591.01	1085.70
591.36	1088.30
591.71	1090.41
592.06	1091.79
592.41	1090.92
592.76	1089.75
593.10	1088.91
593.45	1084.56
593.80	1084.18
594.15	1085.14
594.50	1087.41
594.85	1088.00
595.20	1091.20
595.55	1094.46
595.90	1092.94
596.25	1091.18
596.60	1088.93
596.95	1085.52
597.30	1081.70
597.64	1091.72
597.99	1093.05
598.34	1093.92
598.69	1094.08
599.04	1093.71
599.39	1085.94
599.74	1084.77
600.09	1087.72
600.44	1088.58
600.78	1092.42
601.13	1089.07
601.48	1089.54
601.83	1088.23
602.18	1083.93
602.53	1082.73
602.88	1084.21
603.22	1086.27
603.57	1086.08
603.92	1088.54
604.27	1087.83
604.62	1086.69
604.97	1084.79
605.31	1081.42
605.66	1080.11
606.01	1079.74
606.36	1083.97
606.71	1083.25
607.05	1085.40
607.40	1090.53
607.75	1091.79
608.10	1090.41
608.44	1091.32
608.79	1092.59
609.14	1089.43
609.49	1085.03
609.84	1081.66
610.18	1081.00
610.53	1080.06
610.88	1079.24
611.23	1084.44
611.57	1085.66
611.92	1083.93
612.27	1083.64
612.62	1087.69
612.96	1085.31
613.31	1086.85
613.66	1088.14
614.00	1087.04
614.35	1085.40
614.70	1087.65
615.05	1084.84
615.39	1085.26
615.74	1084.21
616.09	1080.79
616.43	1080.16
616.78	1077.68
617.13	1077.44
617.47	1077.51
617.82	1077.28
618.17	1072.06
618.51	1073.77
618.86	1071.61
619.21	1071.17
619.55	1073.23
619.90	1076.04
620.25	1077.37
620.59	1080.37
620.94	1086.17
621.29	1085.82
621.63	1085.17
621.98	1087.93
622.32	1086.22
622.67	1081.56
623.02	1083.01
623.36	1085.70
623.71	1082.97
624.05	1083.81
624.40	1084.81
624.75	1084.35
625.09	1084.42
625.44	1086.29
625.78	1086.31
626.13	1087.51
626.48	1088.75
626.82	1087.79
627.17	1088.02
627.51	1087.25
627.86	1083.97
628.20	1082.99
628.55	1081.77
628.89	1081.26
629.24	1079.36
629.58	1080.32
629.93	1078.71
630.28	1080.77
630.62	1079.62
630.97	1083.83
631.31	1086.78
631.66	1086.71
632.00	1084.84
632.35	1085.14
632.69	1081.91
633.04	1077.58
633.38	1077.02
633.73	1076.48
634.07	1074.61
634.42	1076.93
634.76	1078.52
635.11	1079.74
635.45	1079.60
635.79	1081.12
636.14	1081.09
636.48	1081.80
636.83	1082.24
637.17	1081.58
637.52	1080.51
637.86	1078.64
638.21	1079.13
638.55	1079.50
638.89	1079.92
639.24	1082.59
639.58	1082.43
639.93	1080.93
640.27	1077.68
640.61	1078.26
640.96	1077.09
641.30	1078.71
641.65	1078.47
641.99	1081.91
642.33	1081.02
642.68	1081.16
643.02	1079.20
643.37	1079.15
643.71	1081.00
644.05	1082.45
644.40	1082.45
644.74	1084.89
645.08	1086.48
645.43	1081.87
645.77	1082.54
646.11	1081.94
646.46	1079.13
646.80	1078.17
647.14	1080.67
647.49	1080.91
647.83	1080.72
648.17	1079.90
648.52	1083.34
648.86	1081.84
649.20	1081.89
649.55	1079.53
649.89	1082.08
650.23	1078.54
650.57	1078.73
650.92	1079.01
651.26	1083.27
651.60	1084.44
651.95	1086.45
652.29	1089.05
652.63	1086.64
652.97	1083.74
653.32	1081.00
653.66	1078.94
654.00	1075.52
654.34	1074.63
654.69	1073.51
655.03	1074.91
655.37	1077.18
655.71	1080.53
656.05	1082.71
656.40	1083.53
656.74	1083.04
657.08	1079.60
657.42	1079.24
657.76	1080.58
658.11	1079.81
658.45	1080.39
658.79	1082.80
659.13	1082.47
659.47	1083.22
659.82	1085.35
660.16	1086.85
660.50	1084.81
660.84	1082.94
661.18	1082.80
661.52	1085.94
661.87	1085.61
662.21	1086.92
662.55	1088.30
662.89	1087.39
663.23	1084.65
663.57	1083.04
663.91	1082.05
664.25	1082.57
664.60	1078.57
664.94	1077.23
665.28	1074.24
665.62	1076.34
665.96	1073.86
666.30	1075.08
666.64	1074.42
666.98	1075.31
667.32	1075.36
667.66	1076.53
668.01	1077.40
668.35	1078.12
668.69	1078.31
669.03	1075.99
669.37	1075.94
669.71	1079.50
670.05	1081.16
670.39	1082.73
670.73	1082.05
671.07	1081.05
671.41	1080.70
671.75	1080.20
672.09	1079.78
672.43	1078.40
672.77	1079.57
673.11	1076.95
673.45	1073.58
673.79	1074.24
674.13	1078.66
674.47	1074.77
674.81	1077.56
675.15	1079.38
675.49	1078.33
675.83	1076.44
676.17	1079.76
676.51	1078.85
676.85	1077.68
677.19	1080.84
677.53	1078.94
677.87	1079.71
678.21	1077.82
678.55	1077.61
678.89	1075.92
679.23	1078.00
679.57	1076.23
679.90	1078.26
680.24	1082.38
680.58	1081.51
680.92	1082.33
681.26	1084.58
681.60	1081.75
681.94	1079.74
682.28	1080.09
682.62	1077.98
682.96	1074.28
683.29	1073.91
683.63	1075.41
683.97	1077.00
684.31	1079.85
684.65	1080.53
684.99	1080.93
685.33	1079.17
685.67	1076.97
686.00	1076.32
686.34	1079.17
686.68	1075.73
687.02	1075.24
687.36	1074.84
687.70	1073.35
688.03	1069.13
688.37	1070.84
688.71	1072.08
689.05	1072.13
689.39	1072.60
689.72	1075.92
690.06	1077.82
690.40	1079.03
690.74	1082.24
691.08	1085.03
691.41	1085.87
691.75	1087.02
692.09	1088.04
692.43	1085.33
692.76	1083.86
693.10	1084.39
693.44	1082.19
693.78	1077.72
694.11	1076.95
694.45	1075.22
694.79	1071.50
695.13	1072.43
695.46	1075.57
695.80	1077.00
696.14	1079.76
696.48	1083.41
696.81	1082.85
697.15	1079.64
697.49	1079.03
697.82	1077.16
698.16	1075.03
698.50	1075.59
698.83	1076.13
699.17	1079.97
699.51	1083.53
699.84	1084.04
700.18	1087.34
700.52	1087.83
700.85	1083.15
701.19	1078.57
701.53	1078.21
701.86	1077.75
702.20	1077.58
702.54	1079.64
702.87	1080.84
703.21	1080.86
703.55	1076.88
703.88	1078.85
704.22	1078.89
704.55	1080.37
704.89	1078.75
705.23	1083.60
705.56	1082.54
705.90	1084.63
706.23	1083.86
706.57	1087.20
706.91	1084.56
707.24	1084.67
707.58	1081.51
707.91	1079.20
708.25	1079.46
708.58	1080.02
708.92	1080.67
709.26	1081.96
709.59	1084.96
709.93	1083.41
710.26	1079.53
710.60	1078.54
710.93	1079.64
711.27	1077.72
711.60	1079.08
711.94	1085.33
712.27	1086.71
712.61	1084.91
712.94	1084.91
713.28	1084.14
713.61	1078.92
713.95	1077.33
714.28	1075.03
714.62	1077.04
714.95	1077.47
715.29	1080.11
715.62	1082.71
715.96	1083.71
716.29	1081.82
716.63	1077.93
716.96	1075.87
717.29	1072.97
717.63	1074.94
717.96	1075.59
718.30	1078.40
718.63	1080.56
718.97	1080.86
719.30	1080.30
719.63	1080.27
719.97	1080.98
720.30	1077.40
720.64	1076.01
720.97	1078.10
721.30	1079.50
721.64	1078.82
721.97	1080.11
722.31	1079.83
722.64	1079.22
722.97	1076.79
723.31	1076.58
723.64	1076.81
723.97	1077.86
724.31	1075.27
724.64	1075.99
724.98	1077.91
725.31	1078.52
725.64	1079.36
725.98	1080.18
726.31	1079.53
726.64	1077.23
726.97	1079.67
727.31	1080.25
727.64	1078.64
727.97	1076.95
728.31	1077.07
728.64	1075.92
728.97	1073.91
729.31	1077.96
729.64	1080.46
729.97	1079.36
730.30	1078.50
730.64	1080.13
730.97	1079.10
731.30	1078.94
731.63	1081.56
731.97	1081.37
732.30	1081.00
732.63	1077.56
732.96	1076.62
733.30	1073.86
733.63	1075.62
733.96	1077.54
734.29	1080.27
734.63	1083.18
734.96	1087.62
735.29	1086.31
735.62	1088.07
735.95	1085.63
736.29	1082.94
736.62	1080.79
736.95	1081.21
737.28	1079.01
737.61	1081.91
737.94	1082.05
738.28	1081.94
738.61	1081.05
738.94	1078.85
739.27	1077.25
739.60	1078.45
739.93	1076.72
740.27	1076.11
740.60	1077.00
740.93	1077.28
741.26	1075.29
741.59	1077.72
741.92	1077.82
742.25	1077.02
742.58	1078.26
742.91	1079.17
743.25	1078.47
743.58	1082.64
743.91	1082.19
744.24	1080.16
744.57	1081.30
744.90	1079.38
745.23	1076.46
745.56	1077.14
745.89	1075.22
746.22	1073.98
746.55	1077.04
746.88	1078.40
747.21	1076.74
747.54	1078.75
747.87	1078.89
748.20	1076.32
748.53	1072.11
748.87	1076.39
749.20	1079.78
749.53	1082.71
749.86	1085.82
750.19	1089.22
750.52	1082.78
750.85	1082.54
751.18	1081.21
751.51	1079.67
751.84	1077.00
752.16	1084.09
752.49	1083.29
752.82	1081.61
753.15	1081.37
753.48	1082.36
753.81	1078.38
754.14	1076.20
754.47	1075.55
754.80	1076.86
755.13	1075.50
755.46	1073.30
755.79	1071.71
756.12	1074.56
756.45	1071.33
756.78	1069.81
757.11	1074.07
757.43	1079.41
757.76	1078.26
758.09	1077.75
758.42	1081.94
758.75	1081.30
759.08	1078.31
759.41	1078.28
759.74	1079.22
760.07	1077.61
760.39	1079.92
760.72	1080.04
761.05	1080.53
761.38	1080.95
761.71	1081.68
762.04	1078.92
762.36	1078.57
762.69	1074.45
763.02	1073.46
763.35	1073.93
763.68	1074.40
764.01	1073.35
764.33	1075.59
764.66	1076.46
764.99	1076.81
765.32	1077.02
765.65	1075.36
765.97	1077.51
766.30	1077.42
766.63	1077.16
766.96	1079.01
767.28	1081.40
767.61	1075.50
767.94	1075.92
768.27	1076.97
768.59	1075.03
768.92	1073.42
769.25	1076.34
769.58	1074.66
769.90	1073.44
770.23	1070.14
770.56	1070.02
770.89	1070.82
771.21	1071.68
771.54	1070.42
771.87	1073.65
772.19	1076.32
772.52	1075.05
772.85	1075.41
773.17	1075.43
773.50	1075.69
773.83	1075.99
774.15	1079.62
774.48	1079.95
774.81	1080.74
775.13	1077.91
775.46	1079.29
775.79	1078.45
776.11	1078.54
776.44	1078.33
776.77	1080.81
777.09	1076.76
777.42	1074.75
777.74	1076.86
778.07	1077.28
778.40	1076.46
778.72	1079.69
779.05	1077.86
779.37	1074.63
779.70	1074.38
780.03	1076.79
780.35	1076.97
780.68	1078.89
781.00	1081.44
781.33	1083.57
781.65	1080.53
781.98	1079.10
782.31	1079.27
782.63	1080.02
782.96	1082.12
783.28	1082.29
783.61	1083.93
783.93	1083.93
784.26	1082.22
784.58	1078.19
784.91	1082.45
785.23	1080.77
785.56	1082.71
785.88	1083.43
786.21	1083.27
786.53	1079.99
786.86	1080.09
787.18	1082.01
787.51	1081.77
787.83	1080.09
788.16	1081.56
788.48	1080.74
788.81	1077.65
789.13	1078.07
789.46	1081.37
789.78	1080.13
790.10	1077.07
790.43	1076.48
790.75	1075.13
791.08	1074.98
791.40	1073.65
791.73	1077.16
792.05	1077.14
792.37	1081.91
792.70	1077.54
793.02	1080.18
793.35	1079.90
793.67	1081.02
793.99	1077.25
794.32	1078.73
794.64	1076.72
794.96	1080.27
795.29	1079.81
795.61	1080.30
795.93	1081.30
796.26	1083.11
796.58	1080.84
796.91	1080.44
797.23	1078.14
797.55	1077.68
797.87	1073.93
798.20	1073.84
798.52	1074.38
798.84	1073.51
799.17	1070.89
799.49	1074.47
799.81	1072.06
800.14	1069.72
800.46	1072.04
800.78	1074.84
801.10	1072.83
801.43	1071.19
801.75	1074.17
802.07	1075.36
802.40	1077.23
802.72	1074.91
803.04	1079.76
803.36	1078.38
803.69	1077.16
804.01	1075.31
804.33	1074.47
804.65	1074.00
804.97	1075.87
805.30	1078.10
805.62	1076.58
805.94	1082.17
806.26	1080.23
806.58	1079.10
806.91	1076.06
807.23	1078.43
807.55	1076.79
807.87	1075.62
808.19	1075.29
808.52	1077.09
808.84	1076.79
809.16	1077.23
809.48	1078.85
809.80	1077.70
810.12	1075.45
810.44	1079.48
810.77	1076.69
811.09	1078.00
811.41	1080.79
811.73	1080.34
812.05	1076.65
812.37	1079.48
812.69	1077.25
813.01	1074.54
813.33	1076.69
813.66	1075.36
813.98	1072.69
814.30	1073.09
814.62	1075.57
814.94	1076.79
815.26	1076.90
815.58	1082.31
815.90	1085.75
816.22	1084.56
816.54	1083.76
816.86	1084.91
817.18	1079.83
817.50	1077.33
817.82	1077.23
818.14	1076.01
818.46	1074.63
818.78	1076.58
819.10	1076.83
819.42	1070.94
819.74	1068.74
820.06	1069.67
820.38	1069.74
820.70	1067.92
821.02	1073.16
821.34	1077.65
821.66	1078.10
821.98	1075.71
822.30	1077.44
822.62	1077.11
822.94	1074.28
823.26	1071.38
823.58	1073.51
823.90	1074.59
824.22	1077.04
824.54	1076.41
824.86	1078.66
825.18	1078.52
825.50	1076.01
825.81	1074.91
826.13	1074.49
826.45	1072.67
826.77	1075.52
827.09	1074.14
827.41	1074.66
827.73	1074.00
828.05	1078.21
828.36	1076.69
828.68	1077.89
829.00	1074.45
829.32	1077.30
829.64	1074.56
829.96	1072.20
830.28	1072.29
830.59	1072.95
830.91	1073.95
831.23	1073.21
831.55	1075.15
831.87	1077.58
832.19	1077.18
832.50	1077.00
832.82	1078.64
833.14	1076.69
833.46	1074.05
833.78	1075.27
834.09	1074.19
834.41	1074.82
834.73	1075.73
835.05	1078.66
835.36	1077.54
835.68	1080.16
836.00	1078.80
836.32	1079.08
836.63	1081.49
836.95	1081.49
837.27	1078.61
837.59	1081.40
837.90	1083.39
838.22	1082.76
838.54	1087.97
838.85	1087.93
839.17	1084.60
839.49	1082.50
839.80	1080.18
840.12	1079.88
840.44	1077.56
840.76	1075.97
841.07	1074.94
841.39	1073.86
841.71	1071.31
842.02	1075.03
842.34	1077.54
842.65	1079.03
842.97	1079.24
843.29	1077.68
843.60	1076.74
843.92	1077.63
844.24	1077.02
844.55	1075.10
844.87	1078.40
845.18	1077.72
845.50	1076.69
845.82	1077.16
846.13	1078.17
846.45	1075.64
846.76	1075.66
847.08	1074.87
847.40	1073.79
847.71	1073.18
848.03	1072.25
848.34	1071.43
848.66	1075.24
848.97	1078.57
849.29	1079.88
849.60	1080.51
849.92	1081.58
850.24	1081.02
850.55	1077.72
850.87	1077.11
851.18	1079.17
851.50	1075.87
851.81	1074.84
852.13	1076.34
852.44	1077.77
852.76	1075.78
853.07	1079.29
853.39	1079.55
853.70	1080.04
854.01	1081.56
854.33	1079.50
854.64	1078.45
854.96	1077.21
855.27	1078.99
855.59	1076.95
855.90	1080.41
856.22	1078.73
856.53	1077.02
856.84	1072.57
857.16	1072.25
857.47	1072.97
857.79	1071.92
858.10	1073.44
858.41	1074.61
858.73	1073.04
859.04	1074.66
859.36	1080.46
859.67	1080.79
859.98	1081.87
860.30	1080.58
860.61	1077.40
860.92	1077.79
861.24	1077.00
861.55	1077.56
861.87	1079.60
862.18	1081.96
862.49	1082.40
862.81	1082.85
863.12	1080.30
863.43	1083.76
863.74	1080.60
864.06	1077.65
864.37	1077.82
864.68	1079.29
865.00	1075.66
865.31	1076.30
865.62	1078.31
865.94	1079.17
866.25	1080.25
866.56	1082.03
866.87	1083.36
867.19	1080.53
867.50	1082.12
867.81	1077.58
868.12	1076.58
868.44	1073.86
868.75	1073.77
869.06	1069.93
869.37	1072.85
869.68	1073.81
870.00	1074.38
870.31	1073.28
870.62	1074.82
870.93	1075.03
871.24	1075.43
871.56	1077.44
871.87	1078.92
872.18	1078.07
872.49	1080.70
872.80	1079.83
873.12	1078.54
873.43	1077.44
873.74	1077.61
874.05	1076.04
874.36	1076.76
874.67	1076.01
874.98	1079.27
875.29	1079.71
875.61	1078.57
875.92	1076.67
876.23	1076.34
876.54	1076.46
876.85	1077.40
877.16	1076.74
877.47	1079.15
877.78	1079.95
878.09	1074.05
878.40	1075.15
878.72	1078.33
879.03	1077.75
879.34	1077.91
879.65	1082.15
879.96	1078.99
880.27	1077.63
880.58	1077.89
880.89	1078.94
881.20	1078.24
881.51	1075.36
881.82	1075.62
882.13	1073.91
882.44	1076.76
882.75	1080.09
883.06	1082.94
883.37	1082.33
883.68	1081.35
883.99	1079.48
884.30	1074.40
884.61	1079.88
884.92	1078.59
885.23	1079.38
885.54	1077.16
885.85	1082.59
886.16	1079.38
886.47	1081.28
886.78	1082.94
887.08	1086.73
887.39	1086.55
887.70	1084.77
888.01	1081.09
888.32	1080.79
888.63	1081.00
888.94	1077.30
889.25	1081.42
889.56	1084.49
889.87	1085.80
890.17	1082.12
890.48	1083.88
890.79	1077.49
891.10	1076.01
891.41	1075.45
891.72	1074.87
892.03	1073.46
892.34	1072.88
892.64	1075.71
892.95	1075.15
893.26	1077.82
893.57	1076.58
893.88	1081.70
894.18	1079.64
894.49	1079.36
894.80	1079.24
895.11	1082.22
895.42	1080.81
895.72	1082.01
896.03	1082.22
896.34	1080.13
896.65	1079.22
896.96	1082.45
897.26	1082.76
897.57	1082.59
897.88	1080.58
898.19	1080.34
898.49	1078.47
898.80	1076.01
899.11	1075.13
899.41	1078.28
899.72	1078.61
900.03	1075.78
900.34	1073.53
900.64	1072.90
900.95	1074.35
901.26	1072.20
901.56	1075.43
901.87	1079.36
902.18	1078.05
902.48	1074.45
902.79	1076.32
903.10	1077.23
903.40	1078.75
903.71	1083.74
904.02	1084.89
904.32	1085.28
904.63	1081.84
904.94	1078.89
905.24	1077.21
905.55	1077.79
905.85	1076.15
906.16	1072.81
906.47	1073.65
906.77	1070.47
907.08	1071.47
907.38	1072.11
907.69	1072.83
908.00	1074.03
908.30	1076.04
908.61	1074.63
908.91	1074.73
909.22	1077.75
909.52	1078.33
909.83	1078.61
910.14	1077.58
910.44	1079.29
910.75	1078.26
911.05	1076.83
911.36	1076.86
911.66	1073.30
911.97	1070.12
912.27	1073.79
912.58	1074.14
912.88	1075.66
913.19	1077.40
913.49	1077.40
913.80	1074.96
914.10	1075.20
914.41	1072.01
914.71	1074.28
915.01	1075.87
915.32	1073.65
915.62	1070.84
915.93	1071.78
916.23	1074.05
916.54	1075.78
916.84	1080.48
917.15	1079.83
917.45	1077.96
917.75	1079.55
918.06	1077.58
918.36	1073.25
918.67	1074.91
918.97	1075.36
919.27	1075.03
919.58	1073.95
919.88	1074.80
920.18	1075.76
920.49	1076.95
920.79	1074.98
921.10	1075.83
921.40	1078.73
921.70	1081.91
922.01	1082.45
922.31	1082.69
922.61	1081.77
922.92	1080.23
923.22	1077.42
923.52	1077.11
923.82	1075.34
924.13	1076.41
924.43	1075.80
924.73	1077.25
925.04	1078.78
925.34	1079.57
925.64	1078.26
925.94	1079.31
926.25	1079.20
926.55	1077.04
926.85	1076.11
927.15	1078.61
927.46	1077.91
927.76	1077.09
928.06	1078.26
928.36	1078.54
928.67	1080.11
928.97	1079.67
929.27	1079.22
929.57	1081.14
929.87	1081.35
930.18	1076.83
930.48	1078.85
930.78	1079.10
931.08	1078.38
931.38	1078.10
931.69	1081.42
931.99	1078.45
932.29	1080.37
932.59	1081.07
932.89	1082.59
933.19	1082.94
933.49	1083.29
933.80	1079.62
934.10	1078.78
934.40	1078.19
934.70	1074.87
935.00	1075.83
935.30	1074.49
935.60	1073.18
935.90	1073.67
936.20	1076.86
936.50	1078.75
936.81	1080.09
937.11	1080.58
937.41	1081.19
937.71	1078.38
938.01	1076.48
938.31	1078.24
938.61	1078.40
938.91	1074.75
939.21	1074.89
939.51	1076.76
939.81	1078.31
940.11	1078.99
940.41	1083.79
940.71	1086.69
941.01	1082.69
941.31	1081.70
941.61	1079.50
941.91	1079.10
942.21	1074.66
942.51	1075.48
942.81	1075.55
943.11	1076.48
943.41	1074.38
943.71	1077.11
944.01	1077.40
944.31	1074.28
944.61	1071.97
944.90	1070.72
945.20	1071.01
945.50	1068.17
945.80	1070.96
946.10	1075.80
946.40	1078.36
946.70	1079.03
947.00	1082.61
947.30	1084.77
947.60	1080.81
947.89	1082.76
948.19	1081.35
948.49	1083.53
948.79	1080.09
949.09	1082.90
949.39	1080.98
949.69	1084.23
949.98	1083.04
950.28	1084.53
950.58	1083.53
950.88	1079.36
951.18	1075.34
951.48	1072.67
951.77	1070.77
952.07	1070.00
952.37	1072.64
952.67	1073.98
952.97	1076.44
953.26	1077.75
953.56	1078.21
953.86	1076.13
954.16	1073.81
954.45	1073.14
954.75	1072.64
955.05	1071.26
955.35	1073.35
955.64	1076.41
955.94	1074.84
956.24	1075.50
956.54	1074.94
956.83	1075.48
957.13	1073.37
957.43	1076.30
957.72	1074.10
958.02	1076.93
958.32	1076.08
958.61	1078.64
958.91	1075.08
959.21	1075.94
959.50	1078.31
959.80	1078.38
960.10	1080.39
960.39	1085.63
960.69	1084.18
960.99	1084.65
961.28	1083.01
961.58	1081.42
961.87	1076.34
962.17	1078.28
962.47	1074.66
962.76	1078.24
963.06	1076.65
963.36	1080.77
963.65	1081.70
963.95	1080.58
964.24	1076.60
964.54	1075.92
964.83	1076.93
965.13	1074.33
965.42	1075.76
965.72	1079.10
966.02	1081.16
966.31	1079.81
966.61	1080.95
966.90	1080.93
967.20	1081.19
967.49	1078.43
967.79	1077.00
968.08	1078.78
968.38	1079.31
968.67	1077.93
968.97	1077.11
969.26	1078.03
969.56	1076.44
969.85	1075.45
970.15	1076.60
970.44	1082.03
970.74	1080.67
971.03	1079.27
971.32	1077.70
971.62	1075.17
971.91	1071.19
972.21	1072.01
972.50	1072.48
972.80	1077.14
973.09	1079.24
973.38	1080.91
973.68	1079.15
973.97	1078.00
974.27	1076.58
974.56	1078.57
974.85	1075.69
975.15	1078.07
975.44	1079.29
975.73	1079.67
976.03	1076.53
976.32	1077.07
976.61	1077.04
976.91	1081.96
977.20	1080.53
977.49	1082.38
977.79	1082.19
978.08	1079.62
978.37	1074.49
978.67	1076.11
978.96	1073.18
979.25	1075.83
979.55	1074.28
979.84	1076.20
980.13	1073.84
980.42	1075.57
980.72	1073.86
981.01	1078.47
981.30	1075.29
981.59	1077.28
981.89	1076.32
982.18	1075.94
982.47	1074.54
982.76	1079.27
983.06	1077.86
983.35	1081.05
983.64	1081.47
983.93	1080.88
984.22	1077.28
984.52	1079.48
984.81	1075.10
985.10	1074.52
985.39	1072.71
985.68	1075.22
985.97	1070.19
986.27	1069.34
986.56	1071.92
986.85	1075.24
987.14	1079.67
987.43	1082.38
987.72	1084.51
988.01	1084.37
988.31	1084.18
988.60	1079.13
988.89	1079.55
989.18	1081.75
989.47	1080.06
989.76	1076.74
990.05	1077.09
990.34	1078.26
990.63	1077.72
990.92	1079.01
991.21	1080.32
991.51	1082.22
991.80	1079.78
992.09	1079.55
992.38	1080.06
992.67	1081.75
992.96	1076.58
993.25	1077.18
993.54	1074.49
993.83	1072.39
994.12	1071.45
994.41	1073.58
994.70	1073.39
994.99	1074.07
995.28	1074.84
995.57	1073.86
995.86	1073.95
996.15	1073.51
996.44	1074.24
996.73	1074.12
997.02	1076.41
997.31	1078.14
997.59	1078.10
997.88	1080.77
998.17	1081.14
998.46	1080.13
998.75	1078.19
999.04	1079.64
999.33	1078.47
999.62	1075.94
999.91	1074.19
1000.20	1074.54
1000.49	1074.42
1000.77	1075.08
1001.06	1076.48
1001.35	1078.21
1001.64	1079.31
1001.93	1079.85
1002.22	1074.84
1002.51	1074.94
1002.79	1076.55
1003.08	1075.85
1003.37	1072.81
1003.66	1077.54
1003.95	1077.09
1004.23	1077.04
1004.52	1076.32
1004.81	1076.79
1005.10	1076.83
1005.39	1077.02
1005.67	1073.93
1005.96	1076.55
1006.25	1079.95
1006.54	1081.54
1006.83	1079.64
1007.11	1083.79
1007.40	1084.07
1007.69	1084.21
1007.97	1079.85
1008.26	1082.33
1008.55	1081.91
1008.84	1079.38
1009.12	1078.96
1009.41	1079.46
1009.70	1079.69
1009.98	1077.00
1010.27	1077.16
1010.56	1076.48
1010.85	1073.95
1011.13	1073.02
1011.42	1075.43
1011.71	1076.39
1011.99	1077.96
1012.28	1081.96
1012.56	1082.52
1012.85	1081.28
1013.14	1080.74
1013.42	1081.07
1013.71	1083.46
1014.00	1082.83
1014.28	1080.79
1014.57	1079.03
1014.85	1076.69
1015.14	1074.66
1015.43	1077.86
1015.71	1080.63
1016.00	1081.49
1016.28	1083.36
1016.57	1084.16
1016.85	1082.64
1017.14	1080.88
1017.43	1081.14
1017.71	1075.38
1018.00	1074.05
1018.28	1075.45
1018.57	1075.73
1018.85	1077.89
1019.14	1080.81
1019.42	1079.62
1019.71	1077.82
1019.99	1076.01
1020.28	1075.69
1020.56	1076.97
1020.85	1077.68
1021.13	1074.94
1021.42	1075.83
1021.70	1075.03
1021.99	1075.99
1022.27	1073.32
1022.55	1086.01
1022.84	1062.95
>>>>>End Processed Spectral Data<<<<<
