SpectraSuite Data File
++++++++++++++++++++++++++++++++++++
Date: Mon Aug 26 10:22:11 PDT 2019
User: corrico
Dark Spectrum Present: No
Reference Spectrum Present: No
Number of Sampled Component Spectra: 1
Spectrometers: USB2+H06089
Integration Time (usec): 2000 (USB2+H06089)
Spectra Averaged: 20 (USB2+H06089)
Boxcar Smoothing: 2 (USB2+H06089)
Correct for Electrical Dark: No (USB2+H06089)
Strobe/Lamp Enabled: No (USB2+H06089)
Correct for Detector Non-linearity: No (USB2+H06089)
Correct for Stray Light: No (USB2+H06089)
Number of Pixels in Processed Spectrum: 2048
>>>>>Begin Processed Spectral Data<<<<<
339.70	1031.12
340.07	1031.12
340.45	992.88
340.82	968.54
341.19	943.56
341.57	917.96
341.94	910.61
342.31	902.30
342.69	898.02
343.06	894.51
343.43	892.47
343.81	893.29
344.18	895.61
344.55	899.02
344.93	903.35
345.30	910.75
345.67	918.43
346.04	923.65
346.42	933.97
346.79	949.23
347.16	960.09
347.54	965.96
347.91	975.96
348.28	986.68
348.65	994.87
349.03	1000.67
349.40	1012.59
349.77	1022.95
350.14	1029.37
350.52	1036.86
350.89	1046.48
351.26	1052.68
351.63	1059.23
352.01	1064.69
352.38	1064.62
352.75	1066.39
353.12	1070.02
353.50	1071.12
353.87	1073.93
354.24	1076.39
354.61	1080.95
354.98	1084.04
355.36	1085.66
355.73	1085.89
356.10	1084.86
356.47	1081.75
356.84	1079.43
357.22	1079.57
357.59	1077.65
357.96	1080.09
358.33	1079.31
358.70	1080.27
359.08	1078.85
359.45	1082.78
359.82	1082.57
360.19	1083.04
360.56	1082.22
360.94	1085.47
361.31	1082.24
361.68	1079.24
362.05	1079.67
362.42	1078.10
362.79	1074.10
363.16	1075.15
363.54	1076.69
363.91	1075.73
364.28	1075.22
364.65	1073.09
365.02	1070.54
365.39	1069.46
365.76	1067.00
366.14	1071.17
366.51	1073.98
366.88	1073.84
367.25	1073.14
367.62	1077.61
367.99	1074.35
368.36	1071.45
368.73	1071.82
369.10	1073.84
369.48	1072.20
369.85	1072.08
370.22	1075.45
370.59	1074.80
370.96	1074.56
371.33	1070.37
371.70	1070.44
372.07	1070.05
372.44	1068.45
372.81	1068.71
373.18	1074.26
373.55	1073.21
373.93	1074.87
374.30	1079.78
374.67	1079.53
375.04	1078.05
375.41	1080.04
375.78	1080.81
376.15	1081.33
376.52	1081.63
376.89	1081.44
377.26	1081.77
377.63	1080.09
378.00	1078.99
378.37	1080.23
378.74	1080.46
379.11	1076.97
379.48	1078.05
379.85	1076.90
380.22	1078.82
380.59	1080.53
380.96	1085.77
381.33	1084.74
381.70	1084.18
382.07	1086.29
382.44	1087.13
382.81	1087.97
383.18	1088.79
383.55	1091.51
383.92	1086.99
384.29	1086.45
384.66	1085.80
385.03	1085.42
385.40	1086.99
385.77	1087.09
386.14	1085.42
386.51	1084.35
386.88	1084.93
387.25	1082.31
387.62	1084.84
387.99	1089.29
388.36	1090.41
388.73	1088.02
389.10	1088.00
389.46	1086.52
389.83	1082.80
390.20	1080.20
390.57	1081.70
390.94	1083.34
391.31	1084.07
391.68	1081.00
392.05	1079.55
392.42	1081.21
392.79	1080.60
393.16	1079.20
393.53	1084.96
393.89	1085.73
394.26	1084.81
394.63	1083.20
395.00	1082.64
395.37	1080.91
395.74	1083.15
396.11	1084.23
396.48	1089.24
396.84	1091.81
397.21	1095.60
397.58	1095.86
397.95	1096.40
398.32	1093.40
398.69	1095.18
399.06	1089.75
399.42	1088.28
399.79	1086.97
400.16	1087.62
400.53	1084.84
400.90	1090.99
401.27	1092.09
401.64	1094.81
402.00	1095.46
402.37	1095.44
402.74	1090.60
403.11	1092.73
403.48	1091.09
403.84	1089.00
404.21	1089.59
404.58	1092.82
404.95	1092.35
405.32	1092.68
405.68	1095.11
406.05	1094.22
406.42	1092.40
406.79	1093.71
407.16	1088.72
407.52	1086.87
407.89	1088.47
408.26	1090.10
408.63	1088.44
408.99	1095.37
409.36	1097.38
409.73	1096.66
410.10	1092.37
410.47	1094.34
410.83	1094.62
411.20	1097.59
411.57	1099.61
411.94	1105.81
412.30	1104.41
412.67	1104.17
413.04	1100.73
413.40	1100.54
413.77	1096.68
414.14	1097.59
414.51	1099.91
414.87	1102.60
415.24	1103.19
415.61	1109.06
415.97	1111.85
416.34	1110.07
416.71	1107.66
417.08	1104.97
417.44	1105.11
417.81	1103.00
418.18	1103.40
418.54	1104.83
418.91	1108.52
419.28	1108.90
419.64	1111.50
420.01	1114.17
420.38	1117.35
420.74	1121.00
421.11	1123.08
421.48	1126.59
421.84	1127.69
422.21	1128.93
422.58	1131.20
422.94	1132.07
423.31	1133.03
423.68	1134.50
424.04	1138.83
424.41	1140.17
424.77	1145.90
425.14	1151.19
425.51	1160.37
425.87	1161.02
426.24	1166.03
426.61	1170.69
426.97	1176.94
427.34	1180.68
427.70	1192.36
428.07	1200.27
428.44	1208.75
428.80	1214.36
429.17	1226.32
429.53	1235.08
429.90	1248.58
430.27	1255.91
430.63	1271.73
431.00	1286.92
431.36	1302.60
431.73	1319.73
432.09	1341.74
432.46	1357.56
432.83	1376.40
433.19	1396.71
433.56	1418.97
433.92	1443.03
434.29	1471.07
434.65	1494.83
435.02	1525.47
435.38	1552.64
435.75	1584.17
436.11	1622.60
436.48	1661.38
436.84	1706.53
437.21	1754.65
437.57	1800.71
437.94	1853.10
438.30	1912.45
438.67	1962.91
439.03	2025.76
439.40	2096.89
439.76	2160.83
440.13	2234.06
440.49	2318.00
440.86	2396.26
441.22	2478.25
441.59	2569.86
441.95	2667.93
442.32	2774.31
442.68	2892.95
443.05	3020.46
443.41	3151.55
443.78	3279.49
444.14	3413.93
444.51	3550.31
444.87	3714.41
445.24	3875.93
445.60	4062.68
445.96	4251.09
446.33	4464.31
446.69	4661.79
447.06	4877.89
447.42	5097.66
447.79	5329.35
448.15	5591.49
448.51	5858.06
448.88	6186.13
449.24	6483.68
449.61	6829.50
449.97	7172.22
450.33	7558.08
450.70	7908.16
451.06	8347.19
451.43	8753.60
451.79	9218.41
452.15	9703.35
452.52	10238.21
452.88	10782.99
453.24	11419.92
453.61	12124.21
453.97	12829.55
454.34	13528.46
454.70	14336.97
455.06	15142.10
455.43	15881.26
455.79	16568.02
456.15	17369.56
456.52	18117.08
456.88	19018.14
457.24	19941.01
457.61	21063.81
457.97	22118.39
458.33	23217.95
458.70	24266.16
459.06	25255.39
459.42	26270.22
459.79	27197.10
460.15	28226.72
460.51	29207.80
460.88	30291.61
461.24	31248.75
461.60	32395.61
461.96	33439.30
462.33	34446.32
462.69	35454.88
463.05	36542.04
463.42	37541.79
463.78	38482.85
464.14	39244.23
464.50	39994.56
464.87	40546.36
465.23	40893.82
465.59	41271.81
465.95	41593.22
466.32	41839.67
466.68	42089.83
467.04	42235.53
467.40	42270.82
467.77	42385.44
468.13	42281.19
468.49	42117.85
468.85	42014.14
469.22	41872.02
469.58	41608.73
469.94	41472.58
470.30	41247.80
470.66	40880.17
471.03	40383.53
471.39	40031.05
471.75	39322.47
472.11	38632.88
472.47	38138.02
472.84	37605.11
473.20	36896.56
473.56	36489.89
473.92	35879.17
474.28	35223.80
474.65	34573.88
475.01	33866.57
475.37	33030.18
475.73	32358.37
476.09	31664.97
476.45	31016.99
476.81	30491.98
477.18	29962.20
477.54	29510.20
477.90	29067.09
478.26	28513.01
478.62	27972.23
478.98	27520.04
479.34	27070.80
479.71	26520.40
480.07	26093.28
480.43	25678.18
480.79	25209.25
481.15	24742.97
481.51	24386.95
481.87	24055.35
482.23	23688.98
482.59	23373.55
482.96	23060.83
483.32	22736.03
483.68	22354.46
484.04	21997.90
484.40	21582.41
484.76	21139.84
485.12	20695.67
485.48	20256.33
485.84	19779.96
486.20	19350.00
486.56	18931.14
486.92	18551.98
487.28	18166.16
487.64	17771.10
488.00	17399.80
488.37	17009.33
488.73	16570.99
489.09	16103.82
489.45	15672.74
489.81	15221.63
490.17	14775.80
490.53	14375.99
490.89	13975.85
491.25	13565.44
491.61	13165.40
491.97	12774.36
492.33	12378.46
492.69	12028.67
493.05	11691.26
493.41	11368.03
493.77	11054.79
494.13	10749.12
494.49	10451.97
494.85	10176.77
495.21	9915.09
495.57	9661.08
495.93	9404.48
496.29	9153.18
496.64	8922.19
497.00	8674.28
497.36	8418.58
497.72	8175.40
498.08	7947.78
498.44	7722.83
498.80	7508.13
499.16	7317.36
499.52	7125.46
499.88	6945.84
500.24	6768.31
500.60	6609.74
500.96	6454.92
501.32	6289.51
501.68	6122.75
502.03	5950.98
502.39	5786.79
502.75	5617.64
503.11	5470.11
503.47	5334.81
503.83	5205.66
504.19	5072.57
504.55	4952.29
504.91	4836.55
505.26	4715.34
505.62	4600.93
505.98	4488.66
506.34	4377.34
506.70	4267.73
507.06	4163.67
507.42	4066.31
507.78	3976.43
508.13	3887.98
508.49	3804.05
508.85	3728.17
509.21	3647.19
509.57	3559.79
509.93	3470.57
510.28	3383.90
510.64	3301.54
511.00	3217.86
511.36	3144.35
511.72	3075.70
512.07	3014.80
512.43	2952.42
512.79	2894.14
513.15	2836.71
513.51	2783.32
513.86	2727.22
514.22	2673.95
514.58	2624.91
514.94	2576.39
515.30	2531.45
515.65	2486.96
516.01	2448.20
516.37	2405.49
516.73	2369.18
517.08	2332.51
517.44	2292.37
517.80	2253.73
518.16	2215.86
518.51	2177.63
518.87	2142.15
519.23	2116.13
519.59	2083.29
519.94	2051.97
520.30	2026.32
520.66	1997.04
521.01	1963.26
521.37	1935.62
521.73	1913.08
522.09	1883.41
522.44	1856.33
522.80	1836.59
523.16	1813.80
523.51	1789.92
523.87	1774.24
524.23	1751.33
524.58	1727.22
524.94	1706.77
525.30	1687.71
525.65	1666.84
526.01	1657.90
526.37	1643.90
526.72	1627.23
527.08	1610.45
527.44	1594.09
527.79	1572.18
528.15	1554.12
528.51	1540.49
528.86	1530.45
529.22	1512.59
529.58	1501.01
529.93	1489.26
530.29	1480.18
530.65	1462.93
531.00	1452.68
531.36	1441.93
531.71	1428.17
532.07	1410.17
532.43	1399.22
532.78	1387.87
533.14	1375.18
533.49	1368.09
533.85	1363.64
534.21	1359.57
534.56	1354.87
534.92	1350.40
535.27	1342.51
535.63	1333.64
535.98	1323.81
536.34	1315.69
536.69	1307.35
537.05	1304.05
537.41	1295.74
537.76	1288.68
538.12	1282.71
538.47	1273.51
538.83	1265.15
539.18	1261.60
539.54	1256.38
539.89	1253.26
540.25	1250.76
540.60	1246.10
540.96	1242.99
541.31	1238.31
541.67	1233.77
542.02	1231.64
542.38	1229.48
542.73	1222.46
543.09	1218.65
543.44	1216.70
543.80	1214.08
544.15	1212.19
544.51	1216.35
544.86	1214.29
545.22	1211.41
545.57	1207.34
545.93	1200.46
546.28	1193.51
546.64	1189.60
546.99	1183.70
547.35	1178.30
547.70	1177.15
548.05	1170.95
548.41	1172.98
548.76	1169.57
549.12	1165.73
549.47	1161.72
549.83	1162.38
550.18	1158.10
550.53	1159.99
550.89	1161.89
551.24	1161.96
551.60	1159.31
551.95	1156.01
552.30	1149.76
552.66	1146.28
553.01	1145.20
553.37	1144.48
553.72	1146.09
554.07	1148.57
554.43	1150.21
554.78	1145.27
555.13	1145.13
555.49	1141.71
555.84	1135.56
556.19	1132.35
556.55	1133.38
556.90	1128.40
557.26	1125.80
557.61	1125.70
557.96	1123.15
558.32	1122.05
558.67	1123.39
559.02	1121.40
559.37	1120.95
559.73	1119.62
560.08	1117.86
560.43	1114.94
560.79	1116.69
561.14	1118.26
561.49	1118.64
561.85	1119.01
562.20	1119.43
562.55	1118.57
562.90	1116.83
563.26	1117.61
563.61	1116.74
563.96	1114.80
564.32	1113.98
564.67	1114.89
565.02	1116.74
565.37	1116.44
565.73	1113.81
566.08	1114.94
566.43	1113.74
566.78	1110.91
567.14	1110.94
567.49	1113.60
567.84	1109.53
568.19	1104.38
568.54	1102.79
568.90	1100.94
569.25	1103.70
569.60	1104.76
569.95	1107.00
570.31	1106.68
570.66	1103.91
571.01	1099.91
571.36	1098.93
571.71	1096.89
572.06	1097.48
572.42	1099.07
572.77	1101.43
573.12	1097.99
573.47	1099.56
573.82	1096.70
574.18	1096.17
574.53	1093.29
574.88	1097.29
575.23	1094.97
575.58	1096.73
575.93	1098.86
576.28	1099.65
576.64	1095.28
576.99	1096.73
577.34	1094.39
577.69	1090.99
578.04	1089.68
578.39	1091.27
578.74	1091.74
579.09	1092.91
579.44	1094.72
579.80	1094.20
580.15	1097.22
580.50	1095.56
580.85	1094.29
581.20	1093.19
581.55	1092.68
581.90	1091.20
582.25	1094.39
582.60	1093.90
582.95	1093.92
583.30	1095.98
583.65	1093.59
584.00	1090.60
584.35	1091.60
584.71	1090.74
585.06	1088.61
585.41	1091.53
585.76	1090.22
586.11	1091.25
586.46	1091.60
586.81	1093.17
587.16	1089.96
587.51	1090.76
587.86	1089.66
588.21	1088.40
588.56	1088.30
588.91	1091.42
589.26	1091.77
589.61	1091.44
589.96	1090.36
590.31	1088.61
590.66	1085.40
591.01	1086.78
591.36	1087.93
591.71	1090.03
592.06	1091.04
592.41	1092.59
592.76	1091.04
593.10	1089.57
593.45	1091.16
593.80	1089.47
594.15	1088.02
594.50	1091.46
594.85	1095.00
595.20	1093.59
595.55	1095.25
595.90	1092.82
596.25	1093.12
596.60	1091.77
596.95	1088.14
597.30	1088.28
597.64	1104.12
597.99	1098.76
598.34	1097.69
598.69	1100.87
599.04	1098.20
599.39	1080.18
599.74	1080.84
600.09	1080.74
600.44	1078.52
600.78	1079.41
601.13	1084.86
601.48	1085.28
601.83	1084.44
602.18	1085.31
602.53	1084.28
602.88	1085.00
603.22	1085.31
603.57	1083.08
603.92	1083.64
604.27	1081.63
604.62	1081.09
604.97	1078.57
605.31	1081.84
605.66	1084.39
606.01	1085.89
606.36	1083.41
606.71	1088.07
607.05	1086.38
607.40	1084.58
607.75	1087.39
608.10	1090.99
608.44	1089.78
608.79	1088.75
609.14	1087.23
609.49	1086.31
609.84	1084.70
610.18	1084.04
610.53	1082.85
610.88	1083.25
611.23	1082.54
611.57	1082.03
611.92	1077.70
612.27	1077.44
612.62	1078.17
612.96	1074.47
613.31	1074.68
613.66	1079.85
614.00	1080.86
614.35	1080.48
614.70	1085.49
615.05	1085.05
615.39	1083.90
615.74	1086.29
616.09	1088.49
616.43	1084.63
616.78	1086.92
617.13	1084.81
617.47	1085.77
617.82	1085.52
618.17	1090.88
618.51	1091.60
618.86	1093.17
619.21	1091.18
619.55	1089.82
619.90	1086.38
620.25	1083.04
620.59	1080.02
620.94	1081.35
621.29	1079.36
621.63	1079.83
621.98	1081.73
622.32	1080.46
622.67	1081.61
623.02	1084.30
623.36	1085.38
623.71	1083.55
624.05	1086.62
624.40	1082.24
624.75	1084.72
625.09	1082.05
625.44	1080.58
625.78	1083.11
626.13	1085.21
626.48	1079.17
626.82	1082.43
627.17	1083.79
627.51	1083.13
627.86	1083.97
628.20	1086.80
628.55	1086.66
628.89	1089.57
629.24	1090.41
629.58	1089.71
629.93	1089.54
630.28	1087.67
630.62	1083.88
630.97	1079.67
631.31	1076.88
631.66	1072.15
632.00	1074.45
632.35	1076.79
632.69	1081.82
633.04	1084.60
633.38	1089.73
633.73	1088.84
634.07	1091.02
634.42	1090.43
634.76	1090.36
635.11	1086.34
635.45	1081.44
635.79	1078.21
636.14	1075.29
636.48	1073.51
636.83	1074.56
637.17	1078.94
637.52	1076.90
637.86	1078.94
638.21	1080.56
638.55	1083.08
638.89	1083.88
639.24	1085.99
639.58	1083.62
639.93	1084.46
640.27	1082.47
640.61	1079.20
640.96	1079.92
641.30	1083.86
641.65	1084.23
641.99	1086.08
642.33	1086.41
642.68	1087.02
643.02	1082.50
643.37	1079.06
643.71	1079.06
644.05	1079.15
644.40	1080.34
644.74	1080.88
645.08	1082.01
645.43	1081.44
645.77	1084.93
646.11	1083.32
646.46	1083.08
646.80	1085.24
647.14	1084.30
647.49	1081.28
647.83	1080.65
648.17	1083.08
648.52	1080.70
648.86	1079.69
649.20	1079.97
649.55	1079.36
649.89	1079.01
650.23	1080.37
650.57	1081.02
650.92	1081.56
651.26	1083.18
651.60	1081.02
651.95	1079.22
652.29	1079.83
652.63	1077.61
652.97	1072.48
653.32	1077.33
653.66	1079.88
654.00	1079.76
654.34	1081.21
654.69	1085.33
655.03	1082.26
655.37	1080.32
655.71	1080.23
656.05	1082.73
656.40	1083.20
656.74	1083.27
657.08	1085.28
657.42	1084.42
657.76	1083.18
658.11	1083.06
658.45	1083.90
658.79	1080.16
659.13	1080.30
659.47	1082.31
659.82	1079.76
660.16	1080.13
660.50	1080.77
660.84	1083.39
661.18	1079.27
661.52	1079.48
661.87	1077.63
662.21	1080.13
662.55	1077.77
662.89	1077.42
663.23	1077.72
663.57	1079.22
663.91	1080.02
664.25	1081.49
664.60	1083.46
664.94	1082.85
665.28	1081.63
665.62	1079.29
665.96	1077.51
666.30	1074.89
666.64	1080.48
666.98	1080.58
667.32	1080.63
667.66	1082.19
668.01	1084.11
668.35	1080.16
668.69	1079.41
669.03	1078.78
669.37	1075.15
669.71	1075.62
670.05	1074.19
670.39	1072.29
670.73	1070.23
671.07	1074.56
671.41	1072.71
671.75	1074.24
672.09	1076.34
672.43	1077.04
672.77	1077.75
673.11	1081.54
673.45	1083.71
673.79	1082.52
674.13	1085.68
674.47	1083.90
674.81	1082.80
675.15	1079.88
675.49	1082.94
675.83	1080.72
676.17	1081.94
676.51	1080.53
676.85	1081.35
677.19	1077.30
677.53	1078.82
677.87	1080.60
678.21	1079.55
678.55	1075.85
678.89	1079.48
679.23	1079.90
679.57	1077.28
679.90	1078.14
680.24	1080.65
680.58	1076.69
680.92	1074.49
681.26	1076.01
681.60	1077.37
681.94	1079.29
682.28	1080.44
682.62	1082.66
682.96	1082.03
683.29	1081.40
683.63	1077.82
683.97	1079.27
684.31	1078.64
684.65	1077.47
684.99	1074.03
685.33	1079.01
685.67	1079.34
686.00	1080.23
686.34	1081.12
686.68	1089.75
687.02	1090.34
687.36	1091.11
687.70	1092.56
688.03	1093.19
688.37	1089.03
688.71	1088.14
689.05	1088.04
689.39	1083.15
689.72	1079.36
690.06	1081.28
690.40	1077.14
690.74	1074.63
691.08	1078.31
691.41	1077.44
691.75	1074.61
692.09	1074.21
692.43	1076.06
692.76	1075.01
693.10	1077.00
693.44	1077.86
693.78	1080.88
694.11	1080.93
694.45	1079.85
694.79	1080.93
695.13	1081.68
695.46	1083.90
695.80	1081.98
696.14	1080.37
696.48	1084.32
696.81	1081.66
697.15	1077.56
697.49	1076.69
697.82	1076.86
698.16	1072.15
698.50	1070.72
698.83	1071.80
699.17	1075.50
699.51	1077.00
699.84	1079.43
700.18	1083.95
700.52	1082.26
700.85	1083.20
701.19	1085.33
701.53	1082.45
701.86	1080.04
702.20	1085.03
702.54	1080.79
702.87	1080.04
703.21	1082.05
703.55	1081.80
703.88	1079.15
704.22	1081.07
704.55	1080.53
704.89	1078.24
705.23	1079.67
705.56	1076.65
705.90	1074.63
706.23	1074.94
706.57	1077.23
706.91	1076.44
707.24	1079.36
707.58	1082.40
707.91	1082.47
708.25	1081.63
708.58	1081.91
708.92	1083.50
709.26	1081.98
709.59	1081.23
709.93	1078.12
710.26	1079.06
710.60	1078.57
710.93	1078.92
711.27	1078.24
711.60	1080.65
711.94	1080.34
712.27	1079.01
712.61	1077.21
712.94	1075.85
713.28	1078.43
713.61	1078.24
713.95	1077.18
714.28	1080.04
714.62	1084.81
714.95	1086.50
715.29	1084.18
715.62	1082.57
715.96	1082.66
716.29	1081.54
716.63	1079.95
716.96	1076.97
717.29	1077.72
717.63	1077.82
717.96	1076.51
718.30	1073.18
718.63	1076.37
718.97	1078.50
719.30	1077.02
719.63	1076.25
719.97	1077.93
720.30	1081.77
720.64	1082.12
720.97	1082.01
721.30	1085.82
721.64	1085.40
721.97	1081.89
722.31	1079.31
722.64	1077.56
722.97	1070.98
723.31	1072.78
723.64	1074.05
723.97	1074.94
724.31	1077.00
724.64	1078.61
724.98	1078.10
725.31	1078.82
725.64	1079.24
725.98	1079.76
726.31	1080.20
726.64	1078.78
726.97	1077.21
727.31	1078.10
727.64	1076.27
727.97	1077.72
728.31	1077.14
728.64	1077.77
728.97	1076.08
729.31	1080.16
729.64	1079.90
729.97	1080.37
730.30	1080.48
730.64	1082.22
730.97	1081.80
731.30	1082.36
731.63	1082.50
731.97	1082.76
732.30	1082.71
732.63	1079.01
732.96	1078.28
733.30	1077.70
733.63	1077.63
733.96	1077.02
734.29	1076.06
734.63	1076.37
734.96	1075.94
735.29	1077.77
735.62	1079.46
735.95	1081.23
736.29	1083.90
736.62	1084.53
736.95	1081.42
737.28	1078.68
737.61	1080.11
737.94	1076.48
738.28	1078.85
738.61	1080.44
738.94	1081.49
739.27	1079.38
739.60	1080.63
739.93	1080.11
740.27	1079.95
740.60	1079.97
740.93	1080.81
741.26	1080.65
741.59	1079.31
741.92	1080.98
742.25	1081.23
742.58	1081.84
742.91	1081.61
743.25	1080.41
743.58	1079.29
743.91	1082.76
744.24	1084.00
744.57	1086.38
744.90	1087.58
745.23	1089.12
745.56	1084.65
745.89	1080.70
746.22	1079.71
746.55	1083.06
746.88	1079.76
747.21	1082.54
747.54	1085.26
747.87	1081.84
748.20	1078.31
748.53	1079.06
748.87	1074.91
749.20	1073.74
749.53	1077.58
749.86	1075.97
750.19	1077.49
750.52	1077.91
750.85	1078.45
751.18	1078.54
751.51	1080.58
751.84	1077.68
752.16	1079.85
752.49	1080.02
752.82	1078.43
753.15	1081.77
753.48	1084.28
753.81	1082.15
754.14	1081.70
754.47	1081.73
754.80	1077.91
755.13	1076.79
755.46	1076.95
755.79	1080.23
756.12	1081.28
756.45	1084.07
756.78	1085.54
757.11	1084.21
757.43	1082.19
757.76	1079.13
758.09	1076.53
758.42	1072.88
758.75	1078.94
759.08	1078.66
759.41	1081.75
759.74	1081.47
760.07	1081.49
760.39	1075.45
760.72	1075.15
761.05	1074.07
761.38	1075.01
761.71	1080.04
762.04	1081.26
762.36	1081.05
762.69	1079.69
763.02	1076.39
763.35	1073.77
763.68	1076.74
764.01	1077.61
764.33	1081.16
764.66	1085.75
764.99	1084.51
765.32	1081.61
765.65	1080.70
765.97	1074.80
766.30	1071.64
766.63	1071.66
766.96	1073.93
767.28	1072.92
767.61	1077.35
767.94	1078.07
768.27	1081.49
768.59	1079.27
768.92	1079.62
769.25	1080.11
769.58	1080.56
769.90	1078.85
770.23	1080.18
770.56	1083.20
770.89	1079.10
771.21	1082.73
771.54	1081.44
771.87	1078.10
772.19	1075.05
772.52	1076.48
772.85	1070.89
773.17	1070.84
773.50	1075.57
773.83	1078.10
774.15	1080.09
774.48	1083.06
774.81	1081.21
775.13	1079.97
775.46	1076.95
775.79	1076.55
776.11	1077.28
776.44	1079.01
776.77	1078.31
777.09	1079.22
777.42	1077.82
777.74	1076.67
778.07	1075.17
778.40	1072.83
778.72	1075.48
779.05	1075.99
779.37	1075.64
779.70	1074.75
780.03	1076.67
780.35	1075.08
780.68	1079.41
781.00	1079.81
781.33	1081.00
781.65	1080.67
781.98	1080.63
782.31	1074.14
782.63	1071.38
782.96	1071.45
783.28	1071.59
783.61	1068.71
783.93	1070.72
784.26	1070.72
784.58	1073.28
784.91	1072.55
785.23	1075.52
785.56	1074.54
785.88	1074.21
786.21	1074.82
786.53	1077.04
786.86	1075.05
787.18	1072.92
787.51	1078.07
787.83	1078.12
788.16	1080.67
788.48	1084.14
788.81	1087.58
789.13	1085.40
789.46	1082.45
789.78	1078.96
790.10	1075.78
790.43	1075.85
790.75	1076.53
791.08	1076.74
791.40	1078.94
791.73	1079.62
792.05	1077.58
792.37	1076.46
792.70	1078.50
793.02	1078.92
793.35	1077.21
793.67	1081.26
793.99	1079.81
794.32	1077.47
794.64	1075.59
794.96	1079.46
795.29	1078.50
795.61	1080.25
795.93	1081.23
796.26	1080.48
796.58	1079.57
796.91	1075.57
797.23	1075.01
797.55	1073.14
797.87	1073.07
798.20	1076.13
798.52	1078.38
798.84	1082.36
799.17	1084.67
799.49	1084.81
799.81	1078.24
800.14	1080.58
800.46	1074.84
800.78	1073.28
801.10	1073.79
801.43	1074.91
801.75	1074.17
802.07	1074.82
802.40	1075.59
802.72	1078.99
803.04	1082.01
803.36	1081.82
803.69	1080.04
804.01	1079.76
804.33	1076.58
804.65	1074.49
804.97	1072.27
805.30	1076.04
805.62	1077.09
805.94	1075.90
806.26	1078.26
806.58	1081.44
806.91	1079.20
807.23	1080.25
807.55	1079.60
807.87	1076.01
808.19	1072.78
808.52	1074.68
808.84	1073.72
809.16	1074.07
809.48	1075.50
809.80	1078.75
810.12	1078.96
810.44	1080.25
810.77	1082.54
811.09	1083.06
811.41	1079.48
811.73	1078.43
812.05	1077.07
812.37	1073.51
812.69	1069.20
813.01	1068.50
813.33	1067.78
813.66	1070.54
813.98	1073.44
814.30	1079.78
814.62	1082.66
814.94	1084.37
815.26	1080.93
815.58	1076.46
815.90	1074.96
816.22	1074.73
816.54	1075.24
816.86	1076.39
817.18	1080.46
817.50	1076.55
817.82	1075.48
818.14	1074.63
818.46	1072.15
818.78	1072.39
819.10	1077.51
819.42	1076.83
819.74	1076.88
820.06	1079.31
820.38	1079.55
820.70	1080.84
821.02	1080.58
821.34	1080.41
821.66	1078.85
821.98	1081.68
822.30	1079.34
822.62	1082.17
822.94	1079.90
823.26	1080.09
823.58	1076.08
823.90	1074.54
824.22	1073.02
824.54	1074.91
824.86	1075.87
825.18	1073.18
825.50	1074.26
825.81	1074.75
826.13	1075.59
826.45	1072.01
826.77	1073.14
827.09	1073.09
827.41	1073.02
827.73	1071.03
828.05	1073.84
828.36	1075.48
828.68	1074.05
829.00	1073.53
829.32	1074.40
829.64	1074.35
829.96	1076.34
830.28	1075.38
830.59	1074.14
830.91	1075.24
831.23	1076.44
831.55	1073.81
831.87	1076.25
832.19	1077.63
832.50	1078.17
832.82	1075.36
833.14	1078.12
833.46	1075.64
833.78	1075.94
834.09	1078.31
834.41	1079.99
834.73	1078.40
835.05	1079.03
835.36	1079.46
835.68	1077.84
836.00	1081.09
836.32	1080.51
836.63	1081.30
836.95	1081.49
837.27	1080.46
837.59	1078.92
837.90	1079.06
838.22	1079.92
838.54	1078.21
838.85	1076.62
839.17	1076.08
839.49	1077.54
839.80	1076.90
840.12	1074.52
840.44	1078.71
840.76	1080.98
841.07	1079.50
841.39	1079.57
841.71	1082.45
842.02	1079.43
842.34	1074.98
842.65	1075.24
842.97	1071.97
843.29	1074.82
843.60	1073.32
843.92	1072.15
844.24	1070.23
844.55	1073.98
844.87	1073.56
845.18	1076.11
845.50	1081.87
845.82	1084.16
846.13	1085.52
846.45	1084.91
846.76	1083.34
847.08	1082.10
847.40	1082.05
847.71	1080.02
848.03	1079.85
848.34	1078.12
848.66	1075.41
848.97	1074.00
849.29	1075.05
849.60	1075.34
849.92	1075.36
850.24	1076.86
850.55	1077.91
850.87	1078.47
851.18	1075.69
851.50	1077.79
851.81	1077.00
852.13	1076.04
852.44	1073.18
852.76	1076.69
853.07	1072.97
853.39	1071.87
853.70	1075.10
854.01	1073.35
854.33	1074.70
854.64	1078.71
854.96	1077.49
855.27	1075.43
855.59	1076.97
855.90	1073.23
856.22	1072.43
856.53	1077.56
856.84	1078.40
857.16	1078.03
857.47	1076.90
857.79	1075.92
858.10	1071.73
858.41	1068.76
858.73	1072.29
859.04	1073.84
859.36	1074.73
859.67	1074.14
859.98	1072.97
860.30	1070.63
860.61	1072.11
860.92	1071.64
861.24	1075.17
861.55	1076.97
861.87	1078.24
862.18	1077.11
862.49	1077.68
862.81	1076.69
863.12	1079.31
863.43	1079.76
863.74	1081.09
864.06	1081.30
864.37	1080.46
864.68	1079.48
865.00	1077.09
865.31	1075.62
865.62	1073.21
865.94	1073.21
866.25	1070.56
866.56	1071.05
866.87	1070.44
867.19	1071.59
867.50	1071.43
867.81	1071.78
868.12	1072.81
868.44	1074.59
868.75	1074.03
869.06	1072.29
869.37	1072.55
869.68	1070.61
870.00	1067.92
870.31	1068.50
870.62	1070.33
870.93	1071.50
871.24	1072.69
871.56	1073.60
871.87	1074.40
872.18	1074.77
872.49	1077.96
872.80	1077.42
873.12	1076.01
873.43	1079.29
873.74	1081.35
874.05	1077.54
874.36	1076.27
874.67	1077.86
874.98	1074.82
875.29	1073.79
875.61	1074.77
875.92	1077.75
876.23	1081.26
876.54	1078.73
876.85	1078.52
877.16	1081.23
877.47	1078.33
877.78	1077.09
878.09	1080.13
878.40	1080.20
878.72	1077.47
879.03	1082.22
879.34	1081.68
879.65	1080.02
879.96	1078.07
880.27	1078.33
880.58	1076.69
880.89	1074.59
881.20	1075.90
881.51	1076.58
881.82	1075.62
882.13	1073.74
882.44	1075.08
882.75	1077.61
883.06	1080.18
883.37	1083.46
883.68	1085.89
883.99	1086.83
884.30	1083.57
884.61	1082.38
884.92	1080.93
885.23	1080.39
885.54	1079.83
885.85	1083.36
886.16	1083.86
886.47	1080.06
886.78	1078.10
887.08	1076.37
887.39	1074.49
887.70	1074.10
888.01	1075.66
888.32	1076.72
888.63	1076.04
888.94	1074.89
889.25	1076.27
889.56	1078.94
889.87	1077.84
890.17	1077.25
890.48	1076.83
890.79	1074.80
891.10	1073.37
891.41	1074.77
891.72	1076.72
892.03	1076.13
892.34	1078.00
892.64	1078.33
892.95	1077.91
893.26	1079.43
893.57	1081.49
893.88	1081.30
894.18	1081.84
894.49	1083.46
894.80	1081.19
895.11	1076.74
895.42	1074.00
895.72	1072.55
896.03	1073.77
896.34	1073.04
896.65	1076.67
896.96	1076.32
897.26	1073.81
897.57	1075.24
897.88	1079.64
898.19	1082.47
898.49	1084.32
898.80	1090.83
899.11	1086.06
899.41	1083.46
899.72	1078.59
900.03	1077.86
900.34	1075.73
900.64	1077.49
900.95	1075.78
901.26	1077.23
901.56	1075.57
901.87	1071.92
902.18	1069.16
902.48	1073.95
902.79	1074.75
903.10	1077.23
903.40	1080.16
903.71	1081.80
904.02	1077.70
904.32	1077.42
904.63	1076.34
904.94	1076.79
905.24	1076.69
905.55	1078.24
905.85	1077.54
906.16	1078.61
906.47	1073.56
906.77	1073.65
907.08	1073.25
907.38	1073.42
907.69	1073.79
908.00	1079.03
908.30	1079.76
908.61	1078.50
908.91	1077.33
909.22	1075.87
909.52	1077.14
909.83	1075.38
910.14	1075.41
910.44	1078.87
910.75	1078.87
911.05	1074.84
911.36	1073.21
911.66	1072.74
911.97	1069.13
912.27	1067.92
912.58	1064.17
912.88	1065.60
913.19	1064.26
913.49	1064.97
913.80	1063.09
914.10	1072.57
914.41	1073.23
914.71	1079.17
915.01	1080.88
915.32	1086.34
915.62	1081.68
915.93	1082.33
916.23	1079.53
916.54	1077.07
916.84	1072.67
917.15	1072.13
917.45	1069.62
917.75	1067.28
918.06	1069.95
918.36	1073.02
918.67	1073.16
918.97	1076.79
919.27	1076.67
919.58	1077.54
919.88	1077.91
920.18	1081.30
920.49	1079.34
920.79	1081.51
921.10	1082.03
921.40	1081.40
921.70	1079.10
922.01	1081.33
922.31	1081.14
922.61	1078.19
922.92	1077.84
923.22	1080.88
923.52	1081.14
923.82	1083.13
924.13	1085.49
924.43	1085.56
924.73	1085.54
925.04	1086.43
925.34	1082.85
925.64	1084.63
925.94	1083.86
926.25	1081.66
926.55	1079.01
926.85	1080.41
927.15	1077.30
927.46	1078.64
927.76	1078.19
928.06	1078.21
928.36	1080.02
928.67	1079.24
928.97	1076.34
929.27	1079.31
929.57	1077.79
929.87	1073.95
930.18	1072.48
930.48	1073.46
930.78	1070.54
931.08	1070.91
931.38	1073.46
931.69	1075.29
931.99	1077.72
932.29	1078.80
932.59	1078.80
932.89	1077.42
933.19	1076.90
933.49	1073.93
933.80	1073.07
934.10	1074.00
934.40	1073.21
934.70	1070.77
935.00	1071.29
935.30	1070.42
935.60	1071.64
935.90	1073.56
936.20	1075.10
936.50	1076.18
936.81	1073.53
937.11	1071.99
937.41	1071.19
937.71	1073.18
938.01	1071.17
938.31	1075.80
938.61	1075.99
938.91	1075.10
939.21	1075.43
939.51	1079.48
939.81	1077.40
940.11	1076.58
940.41	1077.11
940.71	1075.97
941.01	1074.14
941.31	1077.54
941.61	1077.56
941.91	1080.18
942.21	1082.29
942.51	1083.57
942.81	1080.37
943.11	1082.36
943.41	1080.09
943.71	1075.01
944.01	1071.61
944.31	1071.26
944.61	1070.72
944.90	1070.00
945.20	1073.02
945.50	1073.91
945.80	1075.90
946.10	1075.99
946.40	1076.97
946.70	1077.30
947.00	1075.80
947.30	1072.97
947.60	1072.83
947.89	1074.70
948.19	1073.11
948.49	1075.43
948.79	1077.21
949.09	1076.06
949.39	1072.76
949.69	1070.84
949.98	1070.40
950.28	1068.64
950.58	1069.48
950.88	1072.04
951.18	1074.31
951.48	1074.52
951.77	1076.06
952.07	1073.51
952.37	1072.95
952.67	1074.91
952.97	1075.38
953.26	1074.70
953.56	1075.87
953.86	1076.76
954.16	1075.97
954.45	1076.62
954.75	1078.96
955.05	1081.56
955.35	1078.94
955.64	1077.47
955.94	1078.10
956.24	1076.51
956.54	1077.09
956.83	1076.06
957.13	1080.06
957.43	1081.58
957.72	1081.30
958.02	1080.16
958.32	1082.80
958.61	1081.12
958.91	1078.89
959.21	1077.18
959.50	1078.85
959.80	1078.12
960.10	1077.72
960.39	1080.60
960.69	1081.84
960.99	1079.01
961.28	1079.31
961.58	1077.56
961.87	1075.20
962.17	1075.03
962.47	1076.04
962.76	1078.57
963.06	1078.61
963.36	1077.93
963.65	1079.57
963.95	1082.69
964.24	1079.17
964.54	1081.82
964.83	1081.75
965.13	1079.38
965.42	1075.64
965.72	1075.59
966.02	1074.54
966.31	1073.32
966.61	1074.89
966.90	1072.69
967.20	1073.60
967.49	1071.19
967.79	1075.71
968.08	1073.91
968.38	1076.90
968.67	1078.96
968.97	1079.34
969.26	1075.69
969.56	1075.36
969.85	1075.97
970.15	1077.63
970.44	1082.43
970.74	1082.40
971.03	1085.33
971.32	1081.96
971.62	1080.46
971.91	1076.04
972.21	1076.60
972.50	1075.57
972.80	1076.76
973.09	1076.74
973.38	1076.51
973.68	1078.78
973.97	1080.81
974.27	1082.29
974.56	1079.97
974.85	1080.06
975.15	1077.25
975.44	1076.90
975.73	1077.35
976.03	1077.00
976.32	1079.90
976.61	1078.89
976.91	1077.44
977.20	1078.73
977.49	1079.10
977.79	1078.38
978.08	1076.76
978.37	1077.44
978.67	1075.31
978.96	1076.20
979.25	1074.70
979.55	1074.56
979.84	1074.77
980.13	1074.24
980.42	1074.75
980.72	1075.87
981.01	1077.47
981.30	1076.62
981.59	1076.93
981.89	1077.47
982.18	1075.27
982.47	1073.51
982.76	1074.26
983.06	1073.09
983.35	1071.97
983.64	1077.63
983.93	1080.37
984.22	1080.37
984.52	1083.32
984.81	1082.69
985.10	1080.27
985.39	1081.63
985.68	1080.39
985.97	1080.30
986.27	1081.96
986.56	1080.58
986.85	1078.24
987.14	1078.64
987.43	1076.13
987.72	1073.25
988.01	1074.45
988.31	1075.27
988.60	1074.59
988.89	1076.62
989.18	1080.84
989.47	1078.43
989.76	1078.14
990.05	1082.19
990.34	1081.19
990.63	1079.99
990.92	1079.22
991.21	1081.77
991.51	1079.69
991.80	1080.48
992.09	1079.76
992.38	1080.93
992.67	1079.24
992.96	1078.57
993.25	1077.72
993.54	1074.89
993.83	1076.39
994.12	1075.87
994.41	1075.71
994.70	1076.58
994.99	1079.38
995.28	1078.82
995.57	1076.74
995.86	1077.96
996.15	1077.04
996.44	1073.81
996.73	1075.99
997.02	1075.87
997.31	1075.55
997.59	1076.95
997.88	1078.54
998.17	1074.59
998.46	1076.53
998.75	1073.32
999.04	1073.84
999.33	1074.19
999.62	1079.43
999.91	1078.64
1000.20	1080.58
1000.49	1077.70
1000.77	1077.65
1001.06	1074.19
1001.35	1074.98
1001.64	1075.69
1001.93	1075.17
1002.22	1075.76
1002.51	1077.86
1002.79	1079.41
1003.08	1076.93
1003.37	1077.04
1003.66	1076.15
1003.95	1071.59
1004.23	1070.68
1004.52	1071.17
1004.81	1077.11
1005.10	1076.48
1005.39	1079.03
1005.67	1079.01
1005.96	1078.26
1006.25	1074.98
1006.54	1075.57
1006.83	1075.27
1007.11	1075.38
1007.40	1075.80
1007.69	1074.68
1007.97	1074.82
1008.26	1074.61
1008.55	1073.84
1008.84	1074.77
1009.12	1071.50
1009.41	1071.40
1009.70	1070.30
1009.98	1069.37
1010.27	1068.13
1010.56	1071.80
1010.85	1070.33
1011.13	1071.87
1011.42	1072.46
1011.71	1074.49
1011.99	1072.90
1012.28	1071.52
1012.56	1073.44
1012.85	1073.14
1013.14	1071.43
1013.42	1072.36
1013.71	1073.67
1014.00	1071.15
1014.28	1071.92
1014.57	1073.95
1014.85	1073.46
1015.14	1076.30
1015.43	1071.61
1015.71	1071.45
1016.00	1072.46
1016.28	1072.55
1016.57	1071.80
1016.85	1078.87
1017.14	1080.11
1017.43	1078.26
1017.71	1078.87
1018.00	1079.38
1018.28	1075.27
1018.57	1072.06
1018.85	1071.10
1019.14	1072.20
1019.42	1072.50
1019.71	1076.01
1019.99	1080.34
1020.28	1082.61
1020.56	1082.78
1020.85	1082.03
1021.13	1080.74
1021.42	1079.22
1021.70	1077.07
1021.99	1076.18
1022.27	1075.22
1022.55	1078.40
1022.84	1069.86
>>>>>End Processed Spectral Data<<<<<
