SpectraSuite Data File
++++++++++++++++++++++++++++++++++++
Date: Mon Aug 26 10:22:12 PDT 2019
User: corrico
Dark Spectrum Present: No
Reference Spectrum Present: No
Number of Sampled Component Spectra: 1
Spectrometers: USB2+H06089
Integration Time (usec): 2000 (USB2+H06089)
Spectra Averaged: 20 (USB2+H06089)
Boxcar Smoothing: 2 (USB2+H06089)
Correct for Electrical Dark: No (USB2+H06089)
Strobe/Lamp Enabled: No (USB2+H06089)
Correct for Detector Non-linearity: No (USB2+H06089)
Correct for Stray Light: No (USB2+H06089)
Number of Pixels in Processed Spectrum: 2048
>>>>>Begin Processed Spectral Data<<<<<
339.70	1034.05
340.07	1034.05
340.45	993.89
340.82	972.35
341.19	949.77
341.57	922.36
341.94	912.55
342.31	906.40
342.69	901.32
343.06	896.14
343.43	894.44
343.81	895.40
344.18	900.66
344.55	903.03
344.93	910.12
345.30	917.82
345.67	924.89
346.04	931.28
346.42	941.13
346.79	948.60
347.16	956.97
347.54	963.43
347.91	971.18
348.28	979.21
348.65	990.49
349.03	1000.06
349.40	1012.61
349.77	1021.57
350.14	1028.06
350.52	1031.36
350.89	1041.49
351.26	1045.87
351.63	1051.65
352.01	1057.69
352.38	1062.16
352.75	1059.86
353.12	1062.53
353.50	1069.37
353.87	1071.64
354.24	1071.85
354.61	1076.62
354.98	1077.56
355.36	1077.70
355.73	1077.86
356.10	1081.73
356.47	1081.70
356.84	1081.58
357.22	1080.18
357.59	1081.73
357.96	1080.56
358.33	1084.21
358.70	1086.10
359.08	1083.71
359.45	1081.30
359.82	1080.39
360.19	1076.48
360.56	1075.20
360.94	1077.30
361.31	1080.65
361.68	1081.19
362.05	1079.20
362.42	1078.28
362.79	1074.66
363.16	1073.07
363.54	1072.64
363.91	1074.63
364.28	1077.82
364.65	1079.55
365.02	1077.77
365.39	1080.02
365.76	1080.72
366.14	1080.09
366.51	1079.46
366.88	1078.33
367.25	1075.10
367.62	1073.93
367.99	1072.53
368.36	1072.41
368.73	1074.07
369.10	1076.06
369.48	1075.76
369.85	1073.56
370.22	1074.03
370.59	1073.37
370.96	1071.43
371.33	1070.82
371.70	1072.25
372.07	1072.76
372.44	1074.19
372.81	1078.92
373.18	1076.93
373.55	1076.86
373.93	1075.05
374.30	1076.32
374.67	1072.43
375.04	1075.90
375.41	1077.40
375.78	1079.22
376.15	1076.53
376.52	1078.61
376.89	1078.68
377.26	1077.89
377.63	1079.53
378.00	1082.94
378.37	1079.50
378.74	1078.47
379.11	1080.13
379.48	1077.37
379.85	1075.31
380.22	1080.32
380.59	1084.11
380.96	1081.98
381.33	1082.87
381.70	1084.30
382.07	1080.37
382.44	1080.16
382.81	1082.05
383.18	1083.95
383.55	1086.06
383.92	1087.20
384.29	1083.06
384.66	1080.77
385.03	1078.75
385.40	1076.15
385.77	1077.89
386.14	1081.94
386.51	1083.64
386.88	1084.63
387.25	1086.31
387.62	1086.71
387.99	1088.77
388.36	1090.10
388.73	1090.76
389.10	1090.41
389.46	1088.28
389.83	1085.54
390.20	1082.97
390.57	1082.66
390.94	1082.19
391.31	1083.48
391.68	1081.96
392.05	1085.91
392.42	1086.52
392.79	1086.10
393.16	1085.14
393.53	1087.11
393.89	1085.59
394.26	1087.55
394.63	1092.00
395.00	1092.00
395.37	1089.31
395.74	1089.47
396.11	1084.63
396.48	1080.88
396.84	1082.90
397.21	1083.06
397.58	1082.22
397.95	1088.51
398.32	1088.79
398.69	1087.30
399.06	1090.27
399.42	1089.03
399.79	1085.68
400.16	1084.21
400.53	1084.74
400.90	1081.98
401.27	1084.14
401.64	1086.45
402.00	1088.33
402.37	1090.41
402.74	1089.68
403.11	1091.44
403.48	1091.63
403.84	1091.13
404.21	1091.16
404.58	1095.96
404.95	1097.41
405.32	1098.55
405.68	1100.50
406.05	1100.82
406.42	1097.83
406.79	1096.38
407.16	1093.90
407.52	1095.49
407.89	1095.09
408.26	1097.10
408.63	1097.24
408.99	1096.52
409.36	1096.70
409.73	1097.62
410.10	1098.93
410.47	1101.95
410.83	1108.17
411.20	1106.56
411.57	1106.91
411.94	1108.59
412.30	1106.39
412.67	1104.03
413.04	1103.96
413.40	1103.59
413.77	1102.58
414.14	1103.49
414.51	1104.71
414.87	1107.47
415.24	1106.51
415.61	1106.21
415.97	1105.51
416.34	1105.69
416.71	1104.90
417.08	1105.74
417.44	1107.61
417.81	1109.53
418.18	1106.44
418.54	1107.49
418.91	1107.54
419.28	1108.95
419.64	1110.26
420.01	1113.63
420.38	1113.63
420.74	1117.49
421.11	1122.33
421.48	1125.45
421.84	1125.80
422.21	1131.56
422.58	1133.15
422.94	1131.18
423.31	1131.16
423.68	1135.91
424.04	1137.64
424.41	1143.96
424.77	1149.98
425.14	1153.44
425.51	1162.87
425.87	1166.92
426.24	1171.30
426.61	1175.65
426.97	1182.49
427.34	1185.76
427.70	1193.02
428.07	1199.20
428.44	1208.84
428.80	1218.88
429.17	1226.70
429.53	1236.93
429.90	1250.99
430.27	1259.79
430.63	1270.77
431.00	1285.14
431.36	1301.69
431.73	1318.38
432.09	1335.46
432.46	1353.23
432.83	1369.24
433.19	1386.00
433.56	1402.71
433.92	1428.36
434.29	1457.64
434.65	1489.14
435.02	1521.00
435.38	1553.34
435.75	1583.96
436.11	1622.72
436.48	1663.44
436.84	1704.33
437.21	1749.29
437.57	1799.36
437.94	1847.76
438.30	1897.43
438.67	1955.73
439.03	2024.24
439.40	2093.84
439.76	2162.33
440.13	2239.35
440.49	2321.95
440.86	2394.51
441.22	2476.99
441.59	2567.83
441.95	2669.31
442.32	2775.41
442.68	2900.09
443.05	3023.41
443.41	3156.54
443.78	3286.81
444.14	3420.90
444.51	3550.71
444.87	3717.50
445.24	3875.67
445.60	4052.64
445.96	4233.70
446.33	4446.90
446.69	4638.36
447.06	4851.93
447.42	5076.27
447.79	5308.92
448.15	5568.04
448.51	5840.27
448.88	6164.25
449.24	6469.08
449.61	6831.72
449.97	7194.08
450.33	7575.78
450.70	7926.62
451.06	8352.39
451.43	8742.32
451.79	9189.32
452.15	9678.26
452.52	10216.65
452.88	10751.34
453.24	11386.24
453.61	12075.81
453.97	12763.13
454.34	13458.69
454.70	14274.46
455.06	15060.86
455.43	15820.01
455.79	16516.86
456.15	17314.42
456.52	18062.08
456.88	18972.20
457.24	19877.37
457.61	21000.46
457.97	22064.53
458.33	23147.73
458.70	24195.01
459.06	25193.48
459.42	26194.43
459.79	27098.30
460.15	28139.61
460.51	29114.67
460.88	30194.41
461.24	31160.93
461.60	32304.17
461.96	33350.57
462.33	34371.28
462.69	35371.30
463.05	36466.08
463.42	37459.38
463.78	38368.14
464.14	39110.49
464.50	39861.22
464.87	40408.13
465.23	40778.97
465.59	41205.60
465.95	41558.48
466.32	41815.71
466.68	42048.59
467.04	42171.87
467.40	42189.51
467.77	42291.61
468.13	42203.23
468.49	42038.15
468.85	41920.47
469.22	41772.73
469.58	41484.78
469.94	41326.11
470.30	41098.43
470.66	40757.01
471.03	40246.45
471.39	39899.51
471.75	39174.44
472.11	38475.86
472.47	37992.30
472.84	37478.32
473.20	36772.55
473.56	36380.63
473.92	35813.36
474.28	35160.44
474.65	34488.22
475.01	33803.56
475.37	32992.43
475.73	32312.31
476.09	31625.08
476.45	31008.59
476.81	30457.84
477.18	29903.18
477.54	29424.96
477.90	28979.95
478.26	28424.38
478.62	27902.21
478.98	27448.19
479.34	27005.80
479.71	26442.60
480.07	26007.63
480.43	25576.18
480.79	25134.03
481.15	24673.83
481.51	24318.00
481.87	23999.71
482.23	23642.34
482.59	23305.18
482.96	22998.90
483.32	22698.07
483.68	22304.79
484.04	21957.83
484.40	21567.24
484.76	21124.55
485.12	20656.19
485.48	20219.91
485.84	19727.93
486.20	19295.28
486.56	18880.49
486.92	18506.31
487.28	18113.57
487.64	17722.30
488.00	17324.22
488.37	16932.30
488.73	16499.16
489.09	16051.70
489.45	15650.90
489.81	15212.64
490.17	14779.55
490.53	14374.73
490.89	13976.16
491.25	13546.25
491.61	13154.63
491.97	12768.79
492.33	12375.30
492.69	12011.09
493.05	11686.62
493.41	11359.91
493.77	11042.11
494.13	10745.96
494.49	10458.36
494.85	10170.87
495.21	9905.03
495.57	9647.45
495.93	9385.03
496.29	9144.12
496.64	8923.22
497.00	8667.61
497.36	8422.39
497.72	8180.22
498.08	7947.85
498.44	7710.03
498.80	7508.88
499.16	7306.31
499.52	7121.24
499.88	6946.12
500.24	6782.45
500.60	6622.10
500.96	6460.53
501.32	6296.79
501.68	6120.90
502.03	5946.37
502.39	5785.43
502.75	5627.19
503.11	5477.81
503.47	5342.93
503.83	5221.34
504.19	5091.06
504.55	4973.73
504.91	4856.92
505.26	4742.98
505.62	4622.11
505.98	4510.52
506.34	4388.79
506.70	4270.21
507.06	4156.79
507.42	4055.05
507.78	3955.34
508.13	3867.48
508.49	3796.70
508.85	3721.05
509.21	3640.59
509.57	3559.98
509.93	3476.51
510.28	3378.94
510.64	3297.84
511.00	3220.62
511.36	3144.44
511.72	3081.48
512.07	3030.17
512.43	2968.13
512.79	2907.46
513.15	2853.65
513.51	2788.05
513.86	2722.77
514.22	2671.84
514.58	2615.46
514.94	2563.33
515.30	2523.99
515.65	2482.51
516.01	2440.36
516.37	2402.82
516.73	2366.09
517.08	2330.85
517.44	2291.99
517.80	2254.78
518.16	2218.78
518.51	2188.71
518.87	2149.59
519.23	2120.57
519.59	2087.55
519.94	2056.61
520.30	2022.85
520.66	1993.06
521.01	1958.61
521.37	1928.30
521.73	1900.05
522.09	1872.24
522.44	1851.39
522.80	1829.39
523.16	1809.16
523.51	1788.19
523.87	1770.64
524.23	1748.40
524.58	1736.28
524.94	1717.58
525.30	1701.43
525.65	1678.14
526.01	1662.08
526.37	1642.78
526.72	1626.70
527.08	1610.97
527.44	1594.79
527.79	1578.50
528.15	1561.14
528.51	1545.74
528.86	1528.56
529.22	1519.24
529.58	1503.47
529.93	1490.17
530.29	1476.29
530.65	1464.82
531.00	1450.41
531.36	1441.77
531.71	1429.55
532.07	1417.12
532.43	1407.11
532.78	1395.85
533.14	1386.86
533.49	1377.76
533.85	1369.80
534.21	1361.79
534.56	1355.69
534.92	1349.01
535.27	1340.40
535.63	1333.82
535.98	1326.55
536.34	1319.20
536.69	1308.48
537.05	1302.58
537.41	1296.33
537.76	1286.85
538.12	1279.95
538.47	1278.38
538.83	1274.42
539.18	1266.65
539.54	1265.57
539.89	1259.61
540.25	1249.52
540.60	1245.31
540.96	1243.88
541.31	1240.95
541.67	1239.50
542.02	1236.53
542.38	1229.37
542.73	1226.32
543.09	1220.10
543.44	1216.75
543.80	1214.29
544.15	1212.33
544.51	1209.00
544.86	1208.28
545.22	1201.91
545.57	1196.34
545.93	1194.05
546.28	1188.01
546.64	1183.40
546.99	1186.14
547.35	1186.39
547.70	1183.49
548.05	1181.81
548.41	1178.41
548.76	1177.08
549.12	1174.95
549.47	1170.74
549.83	1166.52
550.18	1165.12
550.53	1157.16
550.89	1154.66
551.24	1153.93
551.60	1154.61
551.95	1150.14
552.30	1149.93
552.66	1144.66
553.01	1145.15
553.37	1141.99
553.72	1143.05
554.07	1141.67
554.43	1139.70
554.78	1134.72
555.13	1135.18
555.49	1134.67
555.84	1129.59
556.19	1129.61
556.55	1129.12
556.90	1124.14
557.26	1119.62
557.61	1119.92
557.96	1120.88
558.32	1119.74
558.67	1122.59
559.02	1123.60
559.37	1124.60
559.73	1121.28
560.08	1121.07
560.43	1120.25
560.79	1120.13
561.14	1116.65
561.49	1119.01
561.85	1118.12
562.20	1111.61
562.55	1109.30
562.90	1106.91
563.26	1108.62
563.61	1109.20
563.96	1113.44
564.32	1112.36
564.67	1115.36
565.02	1111.26
565.37	1108.52
565.73	1109.18
566.08	1111.85
566.43	1113.49
566.78	1112.90
567.14	1114.63
567.49	1112.46
567.84	1113.16
568.19	1109.27
568.54	1109.60
568.90	1108.88
569.25	1108.20
569.60	1104.99
569.95	1108.10
570.31	1108.27
570.66	1109.86
571.01	1109.06
571.36	1107.61
571.71	1106.51
572.06	1105.81
572.42	1100.05
572.77	1099.70
573.12	1099.16
573.47	1094.06
573.82	1091.63
574.18	1094.93
574.53	1097.10
574.88	1095.04
575.23	1096.19
575.58	1098.67
575.93	1099.33
576.28	1099.42
576.64	1099.96
576.99	1099.30
577.34	1095.65
577.69	1094.60
578.04	1091.06
578.39	1091.25
578.74	1091.79
579.09	1092.42
579.44	1089.73
579.80	1090.32
580.15	1093.08
580.50	1093.29
580.85	1095.51
581.20	1097.45
581.55	1097.85
581.90	1096.42
582.25	1098.83
582.60	1095.98
582.95	1093.31
583.30	1093.03
583.65	1091.44
584.00	1090.83
584.35	1088.75
584.71	1091.72
585.06	1089.96
585.41	1090.03
585.76	1089.75
586.11	1091.49
586.46	1091.06
586.81	1092.75
587.16	1093.47
587.51	1094.53
587.86	1094.34
588.21	1094.18
588.56	1092.54
588.91	1091.04
589.26	1085.33
589.61	1084.32
589.96	1081.09
590.31	1083.62
590.66	1085.82
591.01	1088.54
591.36	1089.61
591.71	1089.92
592.06	1086.90
592.41	1088.70
592.76	1089.64
593.10	1092.12
593.45	1092.16
593.80	1094.81
594.15	1092.40
594.50	1092.73
594.85	1091.70
595.20	1090.03
595.55	1088.42
595.90	1087.58
596.25	1083.95
596.60	1080.09
596.95	1081.05
597.30	1079.38
597.64	1088.93
597.99	1092.59
598.34	1095.28
598.69	1097.80
599.04	1099.14
599.39	1086.66
599.74	1090.17
600.09	1092.26
600.44	1092.23
600.78	1090.74
601.13	1092.07
601.48	1087.97
601.83	1088.61
602.18	1092.33
602.53	1095.11
602.88	1092.61
603.22	1092.42
603.57	1091.51
603.92	1085.68
604.27	1082.26
604.62	1086.87
604.97	1086.17
605.31	1084.07
605.66	1087.65
606.01	1090.39
606.36	1088.49
606.71	1086.29
607.05	1082.03
607.40	1079.17
607.75	1078.26
608.10	1080.04
608.44	1080.56
608.79	1084.70
609.14	1088.98
609.49	1089.40
609.84	1087.81
610.18	1089.29
610.53	1091.20
610.88	1089.96
611.23	1087.97
611.57	1086.83
611.92	1085.14
612.27	1083.32
612.62	1083.41
612.96	1085.14
613.31	1086.69
613.66	1087.58
614.00	1088.23
614.35	1085.05
614.70	1084.84
615.05	1086.59
615.39	1084.79
615.74	1083.41
616.09	1087.11
616.43	1090.39
616.78	1087.55
617.13	1091.51
617.47	1091.27
617.82	1089.99
618.17	1087.04
618.51	1086.29
618.86	1085.40
619.21	1086.31
619.55	1088.28
619.90	1086.59
620.25	1088.21
620.59	1086.62
620.94	1087.90
621.29	1082.36
621.63	1085.03
621.98	1085.35
622.32	1086.22
622.67	1084.28
623.02	1084.93
623.36	1083.55
623.71	1083.04
624.05	1079.27
624.40	1081.09
624.75	1079.85
625.09	1080.04
625.44	1083.50
625.78	1087.06
626.13	1086.69
626.48	1088.68
626.82	1085.91
627.17	1084.21
627.51	1082.47
627.86	1079.57
628.20	1081.66
628.55	1083.69
628.89	1084.89
629.24	1087.97
629.58	1088.89
629.93	1087.46
630.28	1087.93
630.62	1083.13
630.97	1077.61
631.31	1076.06
631.66	1073.93
632.00	1073.58
632.35	1073.88
632.69	1075.78
633.04	1075.83
633.38	1075.59
633.73	1077.49
634.07	1078.80
634.42	1078.03
634.76	1079.31
635.11	1081.51
635.45	1080.95
635.79	1082.36
636.14	1083.62
636.48	1085.40
636.83	1086.38
637.17	1086.73
637.52	1086.64
637.86	1086.83
638.21	1084.70
638.55	1082.61
638.89	1080.98
639.24	1080.13
639.58	1080.16
639.93	1081.63
640.27	1080.13
640.61	1082.64
640.96	1082.54
641.30	1084.56
641.65	1086.76
641.99	1084.53
642.33	1082.52
642.68	1079.48
643.02	1078.75
643.37	1073.09
643.71	1074.40
644.05	1074.07
644.40	1076.32
644.74	1076.58
645.08	1079.57
645.43	1083.90
645.77	1084.35
646.11	1083.97
646.46	1081.68
646.80	1084.00
647.14	1082.64
647.49	1081.84
647.83	1083.25
648.17	1085.19
648.52	1084.86
648.86	1083.93
649.20	1085.96
649.55	1086.69
649.89	1090.29
650.23	1091.30
650.57	1094.15
650.92	1091.30
651.26	1089.61
651.60	1085.40
651.95	1081.80
652.29	1079.62
652.63	1079.74
652.97	1080.06
653.32	1079.57
653.66	1082.71
654.00	1082.52
654.34	1085.07
654.69	1084.81
655.03	1085.96
655.37	1081.77
655.71	1082.33
656.05	1080.13
656.40	1080.51
656.74	1081.21
657.08	1084.37
657.42	1081.77
657.76	1080.11
658.11	1082.71
658.45	1083.25
658.79	1080.25
659.13	1083.74
659.47	1088.19
659.82	1083.06
660.16	1080.72
660.50	1081.33
660.84	1080.20
661.18	1078.43
661.52	1079.15
661.87	1080.91
662.21	1079.03
662.55	1080.20
662.89	1080.95
663.23	1084.04
663.57	1082.40
663.91	1086.24
664.25	1083.71
664.60	1082.43
664.94	1082.83
665.28	1084.56
665.62	1081.49
665.96	1082.57
666.30	1083.97
666.64	1082.08
666.98	1076.32
667.32	1076.04
667.66	1074.42
668.01	1076.41
668.35	1079.71
668.69	1082.15
669.03	1084.04
669.37	1081.70
669.71	1078.31
670.05	1076.46
670.39	1079.90
670.73	1080.23
671.07	1084.44
671.41	1084.11
671.75	1084.09
672.09	1078.85
672.43	1077.49
672.77	1077.07
673.11	1077.54
673.45	1075.76
673.79	1078.03
674.13	1078.94
674.47	1078.50
674.81	1077.58
675.15	1078.92
675.49	1079.83
675.83	1077.82
676.17	1075.55
676.51	1074.59
676.85	1072.69
677.19	1071.15
677.53	1074.87
677.87	1075.57
678.21	1080.18
678.55	1079.48
678.89	1083.06
679.23	1081.58
679.57	1082.40
679.90	1079.46
680.24	1081.05
680.58	1076.01
680.92	1076.90
681.26	1078.24
681.60	1079.24
681.94	1079.62
682.28	1085.87
682.62	1084.02
682.96	1082.26
683.29	1077.82
683.63	1076.23
683.97	1072.04
684.31	1073.37
684.65	1078.73
684.99	1082.73
685.33	1084.98
685.67	1088.91
686.00	1091.44
686.34	1085.35
686.68	1084.86
687.02	1082.47
687.36	1081.40
687.70	1076.69
688.03	1078.57
688.37	1080.63
688.71	1082.90
689.05	1081.12
689.39	1082.97
689.72	1080.04
690.06	1079.36
690.40	1076.79
690.74	1077.68
691.08	1077.91
691.41	1082.92
691.75	1080.25
692.09	1083.41
692.43	1082.92
692.76	1083.25
693.10	1083.76
693.44	1088.12
693.78	1084.81
694.11	1083.48
694.45	1082.17
694.79	1078.73
695.13	1074.38
695.46	1075.15
695.80	1075.57
696.14	1075.52
696.48	1077.44
696.81	1078.00
697.15	1080.91
697.49	1082.54
697.82	1083.95
698.16	1084.11
698.50	1087.83
698.83	1084.16
699.17	1083.36
699.51	1084.35
699.84	1084.28
700.18	1083.01
700.52	1085.82
700.85	1086.45
701.19	1085.68
701.53	1084.70
701.86	1081.82
702.20	1079.50
702.54	1079.17
702.87	1079.95
703.21	1080.37
703.55	1080.88
703.88	1082.33
704.22	1081.07
704.55	1079.31
704.89	1082.03
705.23	1082.71
705.56	1081.35
705.90	1081.35
706.23	1080.70
706.57	1076.53
706.91	1077.58
707.24	1077.61
707.58	1079.62
707.91	1081.87
708.25	1084.74
708.58	1082.59
708.92	1084.86
709.26	1084.14
709.59	1083.95
709.93	1084.35
710.26	1086.29
710.60	1086.48
710.93	1085.66
711.27	1082.10
711.60	1080.77
711.94	1080.84
712.27	1078.21
712.61	1078.38
712.94	1079.92
713.28	1080.79
713.61	1079.74
713.95	1080.41
714.28	1082.05
714.62	1082.26
714.95	1079.88
715.29	1077.42
715.62	1077.11
715.96	1075.64
716.29	1072.90
716.63	1073.86
716.96	1075.05
717.29	1076.44
717.63	1074.19
717.96	1077.86
718.30	1075.71
718.63	1075.43
718.97	1072.71
719.30	1073.70
719.63	1070.19
719.97	1072.36
720.30	1074.12
720.64	1076.39
720.97	1079.55
721.30	1085.73
721.64	1084.60
721.97	1084.25
722.31	1086.92
722.64	1084.74
722.97	1082.87
723.31	1083.32
723.64	1083.60
723.97	1079.88
724.31	1081.23
724.64	1079.60
724.98	1081.21
725.31	1079.83
725.64	1080.09
725.98	1079.95
726.31	1079.36
726.64	1080.53
726.97	1079.69
727.31	1081.44
727.64	1082.12
727.97	1082.97
728.31	1080.74
728.64	1083.36
728.97	1081.73
729.31	1076.76
729.64	1075.27
729.97	1074.35
730.30	1076.32
730.64	1076.41
730.97	1082.01
731.30	1083.62
731.63	1087.39
731.97	1085.00
732.30	1087.72
732.63	1087.39
732.96	1087.58
733.30	1085.91
733.63	1083.22
733.96	1079.41
734.29	1078.40
734.63	1077.23
734.96	1076.06
735.29	1079.81
735.62	1077.58
735.95	1080.04
736.29	1080.81
736.62	1078.87
736.95	1075.69
737.28	1077.04
737.61	1075.71
737.94	1077.37
738.28	1079.92
738.61	1082.83
738.94	1083.18
739.27	1079.53
739.60	1079.99
739.93	1076.74
740.27	1074.17
740.60	1077.02
740.93	1077.44
741.26	1073.95
741.59	1079.97
741.92	1079.55
742.25	1077.84
742.58	1081.54
742.91	1085.80
743.25	1086.64
743.58	1087.97
743.91	1086.13
744.24	1082.94
744.57	1079.60
744.90	1076.46
745.23	1075.17
745.56	1076.81
745.89	1077.61
746.22	1081.00
746.55	1079.08
746.88	1083.46
747.21	1086.48
747.54	1089.36
747.87	1088.56
748.20	1091.74
748.53	1087.44
748.87	1085.89
749.20	1082.78
749.53	1082.36
749.86	1080.34
750.19	1081.35
750.52	1076.30
750.85	1075.55
751.18	1074.94
751.51	1074.61
751.84	1074.96
752.16	1076.97
752.49	1076.46
752.82	1075.71
753.15	1074.59
753.48	1076.65
753.81	1077.28
754.14	1078.47
754.47	1074.47
754.80	1074.82
755.13	1074.38
755.46	1073.23
755.79	1072.60
756.12	1075.27
756.45	1073.16
756.78	1073.04
757.11	1077.33
757.43	1078.19
757.76	1078.61
758.09	1083.76
758.42	1080.46
758.75	1078.89
759.08	1082.24
759.41	1084.07
759.74	1079.34
760.07	1078.94
760.39	1080.70
760.72	1076.34
761.05	1075.31
761.38	1075.31
761.71	1079.24
762.04	1076.97
762.36	1076.01
762.69	1074.49
763.02	1075.50
763.35	1075.45
763.68	1073.58
764.01	1073.74
764.33	1075.03
764.66	1075.87
764.99	1073.28
765.32	1077.82
765.65	1080.72
765.97	1080.58
766.30	1081.05
766.63	1081.09
766.96	1081.58
767.28	1084.04
767.61	1082.40
767.94	1080.79
768.27	1082.94
768.59	1083.53
768.92	1078.50
769.25	1080.81
769.58	1082.36
769.90	1079.76
770.23	1077.58
770.56	1077.98
770.89	1074.31
771.21	1072.85
771.54	1074.89
771.87	1072.46
772.19	1073.77
772.52	1076.18
772.85	1077.77
773.17	1079.76
773.50	1077.98
773.83	1075.36
774.15	1075.15
774.48	1075.90
774.81	1070.70
775.13	1073.23
775.46	1075.90
775.79	1076.34
776.11	1076.65
776.44	1081.51
776.77	1082.99
777.09	1083.08
777.42	1085.61
777.74	1086.85
778.07	1084.02
778.40	1083.69
778.72	1082.17
779.05	1084.49
779.37	1083.13
779.70	1082.03
780.03	1081.21
780.35	1082.50
780.68	1078.82
781.00	1079.81
781.33	1082.54
781.65	1081.70
781.98	1082.36
782.31	1079.81
782.63	1076.41
782.96	1075.22
783.28	1073.35
783.61	1072.36
783.93	1073.00
784.26	1073.88
784.58	1071.94
784.91	1075.57
785.23	1077.68
785.56	1076.83
785.88	1078.64
786.21	1078.78
786.53	1078.43
786.86	1074.96
787.18	1076.39
787.51	1075.17
787.83	1076.34
788.16	1073.91
788.48	1076.72
788.81	1077.44
789.13	1078.31
789.46	1079.13
789.78	1078.10
790.10	1076.88
790.43	1077.37
790.75	1074.96
791.08	1073.16
791.40	1076.86
791.73	1078.07
792.05	1076.18
792.37	1076.08
792.70	1077.35
793.02	1075.92
793.35	1075.76
793.67	1077.75
793.99	1080.65
794.32	1080.86
794.64	1080.63
794.96	1080.30
795.29	1081.63
795.61	1077.63
795.93	1077.28
796.26	1076.48
796.58	1076.55
796.91	1073.65
797.23	1075.64
797.55	1076.06
797.87	1078.21
798.20	1074.47
798.52	1073.67
798.84	1074.47
799.17	1076.46
799.49	1077.98
799.81	1080.02
800.14	1078.26
800.46	1076.58
800.78	1074.19
801.10	1070.72
801.43	1070.35
801.75	1076.67
802.07	1080.27
802.40	1081.96
802.72	1084.23
803.04	1080.60
803.36	1074.89
803.69	1074.75
804.01	1073.42
804.33	1076.37
804.65	1080.88
804.97	1079.88
805.30	1076.69
805.62	1076.76
805.94	1074.35
806.26	1074.73
806.58	1077.30
806.91	1077.84
807.23	1075.13
807.55	1070.98
807.87	1071.45
808.19	1074.77
808.52	1076.97
808.84	1078.99
809.16	1080.20
809.48	1078.24
809.80	1076.25
810.12	1073.95
810.44	1076.04
810.77	1077.79
811.09	1078.85
811.41	1078.61
811.73	1080.02
812.05	1077.21
812.37	1075.92
812.69	1075.78
813.01	1075.59
813.33	1074.54
813.66	1076.46
813.98	1077.84
814.30	1078.05
814.62	1077.00
814.94	1078.05
815.26	1075.13
815.58	1075.20
815.90	1077.14
816.22	1078.19
816.54	1077.30
816.86	1081.09
817.18	1083.15
817.50	1081.19
817.82	1079.46
818.14	1079.95
818.46	1079.78
818.78	1079.99
819.10	1079.38
819.42	1079.15
819.74	1080.09
820.06	1076.06
820.38	1076.20
820.70	1078.14
821.02	1083.32
821.34	1082.19
821.66	1085.38
821.98	1082.36
822.30	1078.40
822.62	1074.70
822.94	1076.01
823.26	1074.33
823.58	1072.60
823.90	1075.13
824.22	1075.62
824.54	1071.61
824.86	1072.76
825.18	1074.70
825.50	1073.86
825.81	1074.73
826.13	1077.21
826.45	1079.99
826.77	1079.57
827.09	1080.84
827.41	1081.77
827.73	1083.41
828.05	1079.74
828.36	1079.85
828.68	1081.30
829.00	1079.69
829.32	1077.35
829.64	1078.24
829.96	1079.34
830.28	1078.14
830.59	1078.24
830.91	1078.07
831.23	1076.51
831.55	1075.38
831.87	1075.73
832.19	1074.49
832.50	1075.43
832.82	1078.14
833.14	1077.40
833.46	1078.45
833.78	1078.05
834.09	1074.75
834.41	1071.80
834.73	1070.35
835.05	1066.16
835.36	1067.28
835.68	1069.20
836.00	1070.40
836.32	1073.39
836.63	1073.53
836.95	1071.17
837.27	1074.05
837.59	1074.54
837.90	1072.85
838.22	1075.36
838.54	1077.61
838.85	1074.07
839.17	1074.98
839.49	1076.53
839.80	1077.16
840.12	1076.04
840.44	1077.16
840.76	1073.09
841.07	1072.43
841.39	1073.53
841.71	1072.18
842.02	1074.07
842.34	1075.52
842.65	1074.70
842.97	1073.95
843.29	1075.85
843.60	1074.68
843.92	1077.49
844.24	1079.74
844.55	1081.63
844.87	1080.09
845.18	1080.58
845.50	1076.67
845.82	1075.85
846.13	1072.64
846.45	1072.57
846.76	1070.65
847.08	1070.51
847.40	1070.94
847.71	1073.32
848.03	1076.48
848.34	1077.61
848.66	1081.00
848.97	1081.26
849.29	1078.75
849.60	1075.24
849.92	1076.23
850.24	1076.46
850.55	1076.20
850.87	1077.09
851.18	1078.80
851.50	1080.93
851.81	1080.79
852.13	1080.18
852.44	1079.55
852.76	1077.37
853.07	1073.58
853.39	1072.25
853.70	1073.02
854.01	1071.22
854.33	1074.73
854.64	1074.66
854.96	1078.07
855.27	1076.76
855.59	1080.04
855.90	1078.82
856.22	1080.11
856.53	1075.03
856.84	1077.02
857.16	1074.54
857.47	1075.92
857.79	1075.59
858.10	1077.54
858.41	1076.79
858.73	1076.44
859.04	1075.94
859.36	1074.33
859.67	1074.21
859.98	1075.03
860.30	1074.35
860.61	1070.80
860.92	1071.82
861.24	1072.64
861.55	1068.24
861.87	1070.80
862.18	1075.41
862.49	1075.99
862.81	1074.19
863.12	1076.72
863.43	1077.77
863.74	1075.20
864.06	1072.15
864.37	1075.76
864.68	1075.57
865.00	1072.06
865.31	1070.58
865.62	1072.64
865.94	1068.24
866.25	1067.59
866.56	1069.60
866.87	1072.25
867.19	1074.73
867.50	1074.61
867.81	1080.58
868.12	1080.65
868.44	1080.37
868.75	1078.89
869.06	1080.06
869.37	1074.91
869.68	1073.84
870.00	1074.61
870.31	1072.85
870.62	1073.79
870.93	1072.50
871.24	1074.00
871.56	1071.52
871.87	1073.46
872.18	1075.92
872.49	1076.53
872.80	1078.05
873.12	1082.05
873.43	1082.47
873.74	1083.32
874.05	1082.61
874.36	1083.22
874.67	1085.12
874.98	1084.28
875.29	1077.70
875.61	1081.91
875.92	1079.43
876.23	1073.39
876.54	1072.71
876.85	1077.21
877.16	1073.72
877.47	1073.30
877.78	1075.03
878.09	1075.48
878.40	1075.20
878.72	1073.88
879.03	1075.34
879.34	1076.69
879.65	1076.83
879.96	1075.20
880.27	1077.56
880.58	1077.00
880.89	1078.82
881.20	1079.55
881.51	1082.54
881.82	1080.27
882.13	1075.48
882.44	1072.36
882.75	1071.15
883.06	1069.41
883.37	1070.05
883.68	1072.01
883.99	1071.05
884.30	1070.07
884.61	1071.94
884.92	1073.58
885.23	1076.76
885.54	1077.25
885.85	1077.28
886.16	1073.46
886.47	1077.86
886.78	1077.96
887.08	1079.60
887.39	1082.38
887.70	1083.22
888.01	1078.61
888.32	1075.66
888.63	1076.39
888.94	1075.78
889.25	1076.53
889.56	1076.72
889.87	1078.73
890.17	1077.86
890.48	1077.65
890.79	1082.36
891.10	1080.58
891.41	1082.85
891.72	1081.16
892.03	1079.20
892.34	1072.01
892.64	1072.55
892.95	1070.12
893.26	1072.06
893.57	1071.59
893.88	1076.20
894.18	1078.64
894.49	1078.82
894.80	1080.51
895.11	1084.72
895.42	1081.82
895.72	1080.34
896.03	1075.36
896.34	1073.81
896.65	1073.37
896.96	1073.18
897.26	1072.83
897.57	1078.59
897.88	1076.30
898.19	1076.34
898.49	1077.58
898.80	1077.00
899.11	1076.13
899.41	1076.20
899.72	1073.51
900.03	1073.98
900.34	1074.77
900.64	1071.87
900.95	1073.49
901.26	1075.78
901.56	1075.57
901.87	1078.59
902.18	1080.25
902.48	1079.64
902.79	1077.72
903.10	1081.12
903.40	1076.20
903.71	1079.64
904.02	1079.27
904.32	1078.68
904.63	1076.51
904.94	1078.75
905.24	1077.77
905.55	1077.00
905.85	1076.44
906.16	1075.36
906.47	1077.91
906.77	1076.18
907.08	1081.56
907.38	1085.77
907.69	1085.40
908.00	1084.81
908.30	1084.91
908.61	1079.08
908.91	1075.41
909.22	1077.33
909.52	1075.85
909.83	1072.64
910.14	1077.33
910.44	1077.70
910.75	1075.78
911.05	1075.78
911.36	1080.13
911.66	1077.21
911.97	1080.84
912.27	1080.72
912.58	1082.19
912.88	1079.08
913.19	1080.30
913.49	1078.14
913.80	1077.56
914.10	1074.77
914.41	1077.07
914.71	1080.30
915.01	1079.88
915.32	1076.51
915.62	1076.86
915.93	1074.63
916.23	1071.29
916.54	1074.52
916.84	1078.85
917.15	1076.72
917.45	1080.60
917.75	1079.76
918.06	1075.48
918.36	1072.97
918.67	1074.82
918.97	1075.08
919.27	1075.13
919.58	1076.65
919.88	1082.22
920.18	1083.90
920.49	1082.10
920.79	1082.36
921.10	1079.90
921.40	1075.92
921.70	1072.46
922.01	1073.35
922.31	1075.45
922.61	1077.14
922.92	1078.24
923.22	1079.15
923.52	1076.69
923.82	1072.71
924.13	1072.67
924.43	1072.04
924.73	1070.42
925.04	1071.71
925.34	1074.24
925.64	1074.89
925.94	1076.06
926.25	1080.34
926.55	1079.15
926.85	1075.94
927.15	1074.42
927.46	1071.94
927.76	1070.42
928.06	1070.65
928.36	1070.00
928.67	1071.68
928.97	1069.51
929.27	1069.60
929.57	1070.44
929.87	1075.24
930.18	1071.92
930.48	1076.46
930.78	1075.50
931.08	1076.62
931.38	1074.10
931.69	1076.37
931.99	1076.46
932.29	1076.90
932.59	1075.94
932.89	1078.80
933.19	1076.65
933.49	1076.32
933.80	1078.66
934.10	1080.70
934.40	1076.90
934.70	1079.50
935.00	1078.07
935.30	1077.72
935.60	1073.98
935.90	1073.72
936.20	1071.92
936.50	1070.89
936.81	1069.67
937.11	1071.01
937.41	1071.22
937.71	1073.56
938.01	1074.12
938.31	1072.43
938.61	1072.25
938.91	1074.05
939.21	1074.59
939.51	1075.52
939.81	1078.52
940.11	1079.81
940.41	1078.59
940.71	1077.16
941.01	1078.87
941.31	1078.80
941.61	1079.53
941.91	1080.27
942.21	1081.94
942.51	1082.26
942.81	1081.98
943.11	1080.41
943.41	1079.08
943.71	1080.98
944.01	1079.97
944.31	1078.57
944.61	1077.93
944.90	1080.56
945.20	1080.67
945.50	1081.51
945.80	1083.48
946.10	1085.33
946.40	1084.14
946.70	1081.68
947.00	1080.56
947.30	1077.79
947.60	1076.69
947.89	1076.86
948.19	1076.23
948.49	1073.70
948.79	1077.68
949.09	1076.93
949.39	1075.17
949.69	1073.02
949.98	1073.93
950.28	1070.40
950.58	1070.37
950.88	1071.05
951.18	1071.19
951.48	1072.27
951.77	1072.81
952.07	1074.31
952.37	1077.04
952.67	1079.57
952.97	1080.60
953.26	1081.14
953.56	1080.95
953.86	1077.72
954.16	1075.52
954.45	1072.69
954.75	1071.03
955.05	1067.75
955.35	1069.13
955.64	1069.88
955.94	1072.27
956.24	1073.51
956.54	1073.09
956.83	1071.64
957.13	1070.49
957.43	1069.86
957.72	1070.84
958.02	1070.65
958.32	1073.16
958.61	1075.38
958.91	1075.73
959.21	1077.02
959.50	1080.13
959.80	1078.33
960.10	1077.86
960.39	1078.99
960.69	1075.83
960.99	1076.74
961.28	1079.17
961.58	1080.16
961.87	1078.40
962.17	1081.14
962.47	1077.96
962.76	1075.80
963.06	1074.91
963.36	1076.18
963.65	1072.64
963.95	1073.56
964.24	1074.73
964.54	1073.30
964.83	1070.49
965.13	1071.82
965.42	1073.07
965.72	1069.72
966.02	1071.73
966.31	1074.42
966.61	1075.17
966.90	1078.36
967.20	1081.07
967.49	1080.02
967.79	1081.14
968.08	1082.40
968.38	1081.68
968.67	1082.24
968.97	1083.06
969.26	1082.64
969.56	1081.44
969.85	1079.08
970.15	1080.53
970.44	1083.25
970.74	1083.36
971.03	1085.54
971.32	1090.01
971.62	1089.54
971.91	1085.12
972.21	1083.32
972.50	1082.19
972.80	1076.76
973.09	1074.52
973.38	1075.62
973.68	1075.99
973.97	1077.37
974.27	1079.90
974.56	1080.91
974.85	1079.62
975.15	1081.05
975.44	1079.13
975.73	1076.90
976.03	1079.38
976.32	1082.47
976.61	1082.22
976.91	1083.71
977.20	1082.87
977.49	1078.89
977.79	1077.09
978.08	1076.60
978.37	1075.13
978.67	1078.36
978.96	1075.52
979.25	1072.39
979.55	1072.71
979.84	1071.57
980.13	1069.58
980.42	1074.17
980.72	1077.16
981.01	1074.21
981.30	1073.35
981.59	1069.74
981.89	1070.47
982.18	1067.94
982.47	1070.63
982.76	1071.82
983.06	1076.11
983.35	1072.04
983.64	1073.53
983.93	1071.17
984.22	1071.64
984.52	1073.00
984.81	1077.21
985.10	1075.85
985.39	1076.69
985.68	1076.32
985.97	1072.76
986.27	1072.18
986.56	1078.00
986.85	1083.67
987.14	1083.86
987.43	1084.53
987.72	1086.38
988.01	1083.79
988.31	1075.64
988.60	1073.25
988.89	1074.84
989.18	1073.77
989.47	1071.17
989.76	1074.05
990.05	1076.62
990.34	1078.89
990.63	1074.10
990.92	1075.31
991.21	1077.84
991.51	1076.81
991.80	1075.50
992.09	1078.54
992.38	1079.15
992.67	1077.96
992.96	1079.76
993.25	1081.00
993.54	1081.51
993.83	1081.14
994.12	1081.19
994.41	1080.20
994.70	1076.32
994.99	1073.32
995.28	1071.90
995.57	1069.81
995.86	1071.31
996.15	1070.96
996.44	1073.84
996.73	1078.07
997.02	1079.92
997.31	1080.79
997.59	1081.35
997.88	1083.71
998.17	1080.91
998.46	1080.91
998.75	1078.80
999.04	1080.48
999.33	1075.97
999.62	1078.45
999.91	1075.76
1000.20	1076.58
1000.49	1074.84
1000.77	1075.05
1001.06	1074.40
1001.35	1075.50
1001.64	1075.76
1001.93	1079.29
1002.22	1080.53
1002.51	1077.44
1002.79	1074.94
1003.08	1073.16
1003.37	1069.84
1003.66	1068.99
1003.95	1070.87
1004.23	1071.38
1004.52	1070.21
1004.81	1072.92
1005.10	1073.44
1005.39	1075.05
1005.67	1079.15
1005.96	1080.79
1006.25	1078.26
1006.54	1077.65
1006.83	1078.28
1007.11	1075.03
1007.40	1074.96
1007.69	1075.05
1007.97	1075.38
1008.26	1072.29
1008.55	1074.98
1008.84	1077.14
1009.12	1078.59
1009.41	1080.06
1009.70	1084.21
1009.98	1083.01
1010.27	1082.50
1010.56	1081.26
1010.85	1081.42
1011.13	1076.48
1011.42	1075.48
1011.71	1075.76
1011.99	1076.48
1012.28	1075.71
1012.56	1078.36
1012.85	1080.06
1013.14	1076.93
1013.42	1075.22
1013.71	1071.73
1014.00	1068.67
1014.28	1071.10
1014.57	1070.02
1014.85	1070.91
1015.14	1074.96
1015.43	1079.22
1015.71	1080.44
1016.00	1084.72
1016.28	1083.11
1016.57	1083.90
1016.85	1080.77
1017.14	1076.34
1017.43	1075.10
1017.71	1075.27
1018.00	1076.01
1018.28	1074.77
1018.57	1075.76
1018.85	1072.22
1019.14	1072.57
1019.42	1069.41
1019.71	1072.60
1019.99	1070.68
1020.28	1071.66
1020.56	1072.64
1020.85	1076.18
1021.13	1074.82
1021.42	1077.96
1021.70	1079.01
1021.99	1082.26
1022.27	1081.77
1022.55	1089.87
1022.84	1085.77
>>>>>End Processed Spectral Data<<<<<
