SpectraSuite Data File
++++++++++++++++++++++++++++++++++++
Date: Mon Aug 26 10:22:04 PDT 2019
User: corrico
Dark Spectrum Present: No
Reference Spectrum Present: No
Number of Sampled Component Spectra: 1
Spectrometers: USB2+H06089
Integration Time (usec): 2000 (USB2+H06089)
Spectra Averaged: 20 (USB2+H06089)
Boxcar Smoothing: 2 (USB2+H06089)
Correct for Electrical Dark: No (USB2+H06089)
Strobe/Lamp Enabled: No (USB2+H06089)
Correct for Detector Non-linearity: No (USB2+H06089)
Correct for Stray Light: No (USB2+H06089)
Number of Pixels in Processed Spectrum: 2048
>>>>>Begin Processed Spectral Data<<<<<
339.70	1028.55
340.07	1028.55
340.45	994.17
340.82	972.19
341.19	951.15
341.57	924.23
341.94	914.66
342.31	904.43
342.69	898.44
343.06	894.53
343.43	893.08
343.81	892.94
344.18	897.60
344.55	901.93
344.93	904.10
345.30	910.49
345.67	917.49
346.04	926.03
346.42	933.62
346.79	944.80
347.16	954.70
347.54	964.46
347.91	971.86
348.28	980.90
348.65	986.02
349.03	997.19
349.40	1007.95
349.77	1017.90
350.14	1028.24
350.52	1040.18
350.89	1044.18
351.26	1049.82
351.63	1056.03
352.01	1061.64
352.38	1064.97
352.75	1072.85
353.12	1076.95
353.50	1077.49
353.87	1079.69
354.24	1084.77
354.61	1084.79
354.98	1083.88
355.36	1085.03
355.73	1087.37
356.10	1083.69
356.47	1084.37
356.84	1083.20
357.22	1084.18
357.59	1084.96
357.96	1085.52
358.33	1085.68
358.70	1089.07
359.08	1087.51
359.45	1083.83
359.82	1084.67
360.19	1083.11
360.56	1083.36
360.94	1083.22
361.31	1085.12
361.68	1086.38
362.05	1084.14
362.42	1081.87
362.79	1081.80
363.16	1079.76
363.54	1078.47
363.91	1080.63
364.28	1083.60
364.65	1086.22
365.02	1086.90
365.39	1085.33
365.76	1084.07
366.14	1081.94
366.51	1080.30
366.88	1077.21
367.25	1076.41
367.62	1078.38
367.99	1079.55
368.36	1077.47
368.73	1079.29
369.10	1080.25
369.48	1078.61
369.85	1078.24
370.22	1079.85
370.59	1080.06
370.96	1080.32
371.33	1079.55
371.70	1079.53
372.07	1079.48
372.44	1079.60
372.81	1076.74
373.18	1079.38
373.55	1078.38
373.93	1077.14
374.30	1073.84
374.67	1075.27
375.04	1074.59
375.41	1073.49
375.78	1075.59
376.15	1080.46
376.52	1080.37
376.89	1081.47
377.26	1081.63
377.63	1081.80
378.00	1082.12
378.37	1085.40
378.74	1084.65
379.11	1089.89
379.48	1090.78
379.85	1089.68
380.22	1087.23
380.59	1086.83
380.96	1083.93
381.33	1081.42
381.70	1081.87
382.07	1081.12
382.44	1081.84
382.81	1079.57
383.18	1082.52
383.55	1079.06
383.92	1081.63
384.29	1081.73
384.66	1083.62
385.03	1081.37
385.40	1083.20
385.77	1082.26
386.14	1080.44
386.51	1078.19
386.88	1079.85
387.25	1080.37
387.62	1080.06
387.99	1082.83
388.36	1087.16
388.73	1086.01
389.10	1085.33
389.46	1086.78
389.83	1087.58
390.20	1083.50
390.57	1084.98
390.94	1085.63
391.31	1082.76
391.68	1079.90
392.05	1080.95
392.42	1078.75
392.79	1080.34
393.16	1082.57
393.53	1085.45
393.89	1086.15
394.26	1090.83
394.63	1090.50
395.00	1088.96
395.37	1089.17
395.74	1085.61
396.11	1083.06
396.48	1083.15
396.84	1083.69
397.21	1083.06
397.58	1087.90
397.95	1087.18
398.32	1088.00
398.69	1090.46
399.06	1090.24
399.42	1088.54
399.79	1090.32
400.16	1091.67
400.53	1092.66
400.90	1094.06
401.27	1095.98
401.64	1095.07
402.00	1094.08
402.37	1094.08
402.74	1092.49
403.11	1093.10
403.48	1091.39
403.84	1090.39
404.21	1087.86
404.58	1089.33
404.95	1090.74
405.32	1093.22
405.68	1094.55
406.05	1097.27
406.42	1096.12
406.79	1095.00
407.16	1098.32
407.52	1099.47
407.89	1098.23
408.26	1098.48
408.63	1100.71
408.99	1097.64
409.36	1098.48
409.73	1099.42
410.10	1101.69
410.47	1101.48
410.83	1099.70
411.20	1095.58
411.57	1096.12
411.94	1096.17
412.30	1093.17
412.67	1094.20
413.04	1099.89
413.40	1101.60
413.77	1104.73
414.14	1108.85
414.51	1111.15
414.87	1110.91
415.24	1109.98
415.61	1110.58
415.97	1110.16
416.34	1110.14
416.71	1107.99
417.08	1107.47
417.44	1106.11
417.81	1107.85
418.18	1110.02
418.54	1114.42
418.91	1120.44
419.28	1122.99
419.64	1122.68
420.01	1122.24
420.38	1122.10
420.74	1121.14
421.11	1122.64
421.48	1123.39
421.84	1129.03
422.21	1132.70
422.58	1132.12
422.94	1131.93
423.31	1133.99
423.68	1136.70
424.04	1140.73
424.41	1147.63
424.77	1154.38
425.14	1161.26
425.51	1166.22
425.87	1168.04
426.24	1173.22
426.61	1177.50
426.97	1183.84
427.34	1191.33
427.70	1199.36
428.07	1210.01
428.44	1218.13
428.80	1228.85
429.17	1238.00
429.53	1247.44
429.90	1259.58
430.27	1269.04
430.63	1275.87
431.00	1289.73
431.36	1307.03
431.73	1316.72
432.09	1336.77
432.46	1358.84
432.83	1376.96
433.19	1401.89
433.56	1425.71
433.92	1448.30
434.29	1478.00
434.65	1507.87
435.02	1529.84
435.38	1566.97
435.75	1600.22
436.11	1637.39
436.48	1680.86
436.84	1731.53
437.21	1775.98
437.57	1823.42
437.94	1871.40
438.30	1922.80
438.67	1976.91
439.03	2038.91
439.40	2109.92
439.76	2182.81
440.13	2258.38
440.49	2336.81
440.86	2415.57
441.22	2507.25
441.59	2598.46
441.95	2701.49
442.32	2806.70
442.68	2923.28
443.05	3042.18
443.41	3170.00
443.78	3296.78
444.14	3443.02
444.51	3582.21
444.87	3751.01
445.24	3913.09
445.60	4099.78
445.96	4290.65
446.33	4509.23
446.69	4704.55
447.06	4933.33
447.42	5154.91
447.79	5387.52
448.15	5660.98
448.51	5956.41
448.88	6288.20
449.24	6604.01
449.61	6965.13
449.97	7323.79
450.33	7714.36
450.70	8080.33
451.06	8535.40
451.43	8947.54
451.79	9410.78
452.15	9902.27
452.52	10437.50
452.88	10972.55
453.24	11607.58
453.61	12320.44
453.97	13030.86
454.34	13741.29
454.70	14582.08
455.06	15384.06
455.43	16161.40
455.79	16873.76
456.15	17721.04
456.52	18486.86
456.88	19444.73
457.24	20377.08
457.61	21489.86
457.97	22546.12
458.33	23628.85
458.70	24669.11
459.06	25636.52
459.42	26675.72
459.79	27627.78
460.15	28701.73
460.51	29709.80
460.88	30832.09
461.24	31828.45
461.60	32982.64
461.96	34079.74
462.33	35153.93
462.69	36261.08
463.05	37414.89
463.42	38445.22
463.78	39368.56
464.14	40112.26
464.50	40806.23
464.87	41311.51
465.23	41651.03
465.59	42035.86
465.95	42405.43
466.32	42686.27
466.68	43006.83
467.04	43235.10
467.40	43338.11
467.77	43442.71
468.13	43366.71
468.49	43149.39
468.85	42994.82
469.22	42830.00
469.58	42532.47
469.94	42344.95
470.30	42143.69
470.66	41802.48
471.03	41251.71
471.39	40867.49
471.75	40106.79
472.11	39310.05
472.47	38703.40
472.84	38115.53
473.20	37381.56
473.56	37017.30
473.92	36489.68
474.28	35963.38
474.65	35389.41
475.01	34751.78
475.37	33946.59
475.73	33261.87
476.09	32483.27
476.45	31815.56
476.81	31241.94
477.18	30651.14
477.54	30183.27
477.90	29742.08
478.26	29156.64
478.62	28639.24
478.98	28202.89
479.34	27765.80
479.71	27209.45
480.07	26787.90
480.43	26344.51
480.79	25883.98
481.15	25381.82
481.51	24979.67
481.87	24599.12
482.23	24206.80
482.59	23836.98
482.96	23474.43
483.32	23155.88
483.68	22778.28
484.04	22406.14
484.40	22001.78
484.76	21603.00
485.12	21151.16
485.48	20738.11
485.84	20275.50
486.20	19839.46
486.56	19393.12
486.92	18998.36
487.28	18551.55
487.64	18117.99
488.00	17699.53
488.37	17265.64
488.73	16781.71
489.09	16298.27
489.45	15851.18
489.81	15390.33
490.17	14970.37
490.53	14593.80
490.89	14223.65
491.25	13829.83
491.61	13447.76
491.97	13046.52
492.33	12643.08
492.69	12290.71
493.05	11956.93
493.41	11618.63
493.77	11299.17
494.13	10989.87
494.49	10669.64
494.85	10373.04
495.21	10092.81
495.57	9822.20
495.93	9543.49
496.29	9288.67
496.64	9052.30
497.00	8794.91
497.36	8532.24
497.72	8288.42
498.08	8064.25
498.44	7830.03
498.80	7623.83
499.16	7434.55
499.52	7241.52
499.88	7061.33
500.24	6896.20
500.60	6739.78
500.96	6590.83
501.32	6445.81
501.68	6282.00
502.03	6104.94
502.39	5943.95
502.75	5770.75
503.11	5619.16
503.47	5477.13
503.83	5338.79
504.19	5204.77
504.55	5084.67
504.91	4962.99
505.26	4839.24
505.62	4724.35
505.98	4601.96
506.34	4480.39
506.70	4363.88
507.06	4251.89
507.42	4148.88
507.78	4055.66
508.13	3961.05
508.49	3876.93
508.85	3799.49
509.21	3709.63
509.57	3623.29
509.93	3537.04
510.28	3439.89
510.64	3350.13
511.00	3274.67
511.36	3199.21
511.72	3128.22
512.07	3064.30
512.43	3002.02
512.79	2941.07
513.15	2880.94
513.51	2820.04
513.86	2759.61
514.22	2705.87
514.58	2653.54
514.94	2603.26
515.30	2560.27
515.65	2519.07
516.01	2484.46
516.37	2441.34
516.73	2399.03
517.08	2361.11
517.44	2323.68
517.80	2279.19
518.16	2239.87
518.51	2202.42
518.87	2169.23
519.23	2133.77
519.59	2098.24
519.94	2067.91
520.30	2042.68
520.66	2010.12
521.01	1978.90
521.37	1954.79
521.73	1933.56
522.09	1905.38
522.44	1883.80
522.80	1866.90
523.16	1843.50
523.51	1815.74
523.87	1797.18
524.23	1774.31
524.58	1752.64
524.94	1732.35
525.30	1712.13
525.65	1688.70
526.01	1666.74
526.37	1647.01
526.72	1628.83
527.08	1609.91
527.44	1591.03
527.79	1576.75
528.15	1561.23
528.51	1546.42
528.86	1534.78
529.22	1525.61
529.58	1514.63
529.93	1503.54
530.29	1493.00
530.65	1482.21
531.00	1462.79
531.36	1448.65
531.71	1433.95
532.07	1420.38
532.43	1408.11
532.78	1404.32
533.14	1396.15
533.49	1389.83
533.85	1378.08
534.21	1372.05
534.56	1364.11
534.92	1353.72
535.27	1342.98
535.63	1338.39
535.98	1330.10
536.34	1323.85
536.69	1318.99
537.05	1311.94
537.41	1302.79
537.76	1294.11
538.12	1283.03
538.47	1274.82
538.83	1270.82
539.18	1269.62
539.54	1264.73
539.89	1263.59
540.25	1260.24
540.60	1255.04
540.96	1247.32
541.31	1244.79
541.67	1241.12
542.02	1235.29
542.38	1232.81
542.73	1228.15
543.09	1225.93
543.44	1224.15
543.80	1222.02
544.15	1218.11
544.51	1216.70
544.86	1208.82
545.22	1203.22
545.57	1202.24
545.93	1199.31
546.28	1196.74
546.64	1196.76
546.99	1192.69
547.35	1190.82
547.70	1187.87
548.05	1184.97
548.41	1182.88
548.76	1182.18
549.12	1175.91
549.47	1173.36
549.83	1175.00
550.18	1170.71
550.53	1167.32
550.89	1164.18
551.24	1164.46
551.60	1158.47
551.95	1156.44
552.30	1157.09
552.66	1158.33
553.01	1155.22
553.37	1153.84
553.72	1151.45
554.07	1143.21
554.43	1142.42
554.78	1139.68
555.13	1140.38
555.49	1140.75
555.84	1141.06
556.19	1138.20
556.55	1137.95
556.90	1133.66
557.26	1131.46
557.61	1131.63
557.96	1129.59
558.32	1128.30
558.67	1126.99
559.02	1126.92
559.37	1124.96
559.73	1121.70
560.08	1117.61
560.43	1118.31
560.79	1115.41
561.14	1116.44
561.49	1120.65
561.85	1120.41
562.20	1118.40
562.55	1118.28
562.90	1114.21
563.26	1110.79
563.61	1113.93
563.96	1113.91
564.32	1115.10
564.67	1118.54
565.02	1118.75
565.37	1116.62
565.73	1117.30
566.08	1115.57
566.43	1114.70
566.78	1111.43
567.14	1113.42
567.49	1111.40
567.84	1110.02
568.19	1109.18
568.54	1108.99
568.90	1105.86
569.25	1106.42
569.60	1106.93
569.95	1104.15
570.31	1107.38
570.66	1107.05
571.01	1107.26
571.36	1107.26
571.71	1107.19
572.06	1106.37
572.42	1105.58
572.77	1104.31
573.12	1105.04
573.47	1103.61
573.82	1102.35
574.18	1103.77
574.53	1103.63
574.88	1103.87
575.23	1106.46
575.58	1107.52
575.93	1105.20
576.28	1104.64
576.64	1100.94
576.99	1098.98
577.34	1098.98
577.69	1098.04
578.04	1098.67
578.39	1100.82
578.74	1102.23
579.09	1098.93
579.44	1099.89
579.80	1098.67
580.15	1097.03
580.50	1096.14
580.85	1100.57
581.20	1099.16
581.55	1100.17
581.90	1100.59
582.25	1099.89
582.60	1093.24
582.95	1094.50
583.30	1094.41
583.65	1095.04
584.00	1095.16
584.35	1096.73
584.71	1096.19
585.06	1095.25
585.41	1093.71
585.76	1095.96
586.11	1100.24
586.46	1099.49
586.81	1100.12
587.16	1102.79
587.51	1101.18
587.86	1100.17
588.21	1101.57
588.56	1099.89
588.91	1095.21
589.26	1095.96
589.61	1093.19
589.96	1085.17
590.31	1084.91
590.66	1087.09
591.01	1085.84
591.36	1087.39
591.71	1095.63
592.06	1094.57
592.41	1093.01
592.76	1091.34
593.10	1088.98
593.45	1087.37
593.80	1089.47
594.15	1088.47
594.50	1088.84
594.85	1089.71
595.20	1091.81
595.55	1089.87
595.90	1089.22
596.25	1089.78
596.60	1092.16
596.95	1090.10
597.30	1088.42
597.64	1101.32
597.99	1101.92
598.34	1102.63
598.69	1099.12
599.04	1100.54
599.39	1087.27
599.74	1088.21
600.09	1087.32
600.44	1090.01
600.78	1089.05
601.13	1090.95
601.48	1088.21
601.83	1086.22
602.18	1085.89
602.53	1088.04
602.88	1088.89
603.22	1089.50
603.57	1090.13
603.92	1090.53
604.27	1087.53
604.62	1088.09
604.97	1089.66
605.31	1089.31
605.66	1087.32
606.01	1088.51
606.36	1087.76
606.71	1087.32
607.05	1088.12
607.40	1090.06
607.75	1091.60
608.10	1091.16
608.44	1088.68
608.79	1087.62
609.14	1089.43
609.49	1089.66
609.84	1091.53
610.18	1091.91
610.53	1091.56
610.88	1088.40
611.23	1087.02
611.57	1084.25
611.92	1086.73
612.27	1085.07
612.62	1085.05
612.96	1085.70
613.31	1086.24
613.66	1083.79
614.00	1084.77
614.35	1083.08
614.70	1082.80
615.05	1081.63
615.39	1083.13
615.74	1084.30
616.09	1086.87
616.43	1088.16
616.78	1089.73
617.13	1088.86
617.47	1089.64
617.82	1090.67
618.17	1087.95
618.51	1085.28
618.86	1087.51
619.21	1086.36
619.55	1086.90
619.90	1087.86
620.25	1091.04
620.59	1088.21
620.94	1086.62
621.29	1083.04
621.63	1087.41
621.98	1089.24
622.32	1089.75
622.67	1091.74
623.02	1091.11
623.36	1087.93
623.71	1084.23
624.05	1084.93
624.40	1081.63
624.75	1085.59
625.09	1082.83
625.44	1084.53
625.78	1083.74
626.13	1085.52
626.48	1086.41
626.82	1089.52
627.17	1088.40
627.51	1088.30
627.86	1091.39
628.20	1089.94
628.55	1086.92
628.89	1086.38
629.24	1087.90
629.58	1082.36
629.93	1082.50
630.28	1085.80
630.62	1085.05
630.97	1082.38
631.31	1088.70
631.66	1090.20
632.00	1089.29
632.35	1092.30
632.69	1093.10
633.04	1089.05
633.38	1086.97
633.73	1087.39
634.07	1084.25
634.42	1082.80
634.76	1085.61
635.11	1086.55
635.45	1085.49
635.79	1086.80
636.14	1088.77
636.48	1088.58
636.83	1085.19
637.17	1084.09
637.52	1084.25
637.86	1083.53
638.21	1079.76
638.55	1081.23
638.89	1081.58
639.24	1078.26
639.58	1077.75
639.93	1080.18
640.27	1080.67
640.61	1078.54
640.96	1084.91
641.30	1086.97
641.65	1088.00
641.99	1088.30
642.33	1093.71
642.68	1093.36
643.02	1091.16
643.37	1090.53
643.71	1088.91
644.05	1085.61
644.40	1082.61
644.74	1083.95
645.08	1080.95
645.43	1082.76
645.77	1084.00
646.11	1084.53
646.46	1082.80
646.80	1084.25
647.14	1081.21
647.49	1079.76
647.83	1081.58
648.17	1085.07
648.52	1087.48
648.86	1093.19
649.20	1092.40
649.55	1087.25
649.89	1085.05
650.23	1084.53
650.57	1084.84
650.92	1087.30
651.26	1092.66
651.60	1094.01
651.95	1091.49
652.29	1088.79
652.63	1089.05
652.97	1087.02
653.32	1084.56
653.66	1086.62
654.00	1087.25
654.34	1085.87
654.69	1087.46
655.03	1088.33
655.37	1089.00
655.71	1087.88
656.05	1089.14
656.40	1086.08
656.74	1086.38
657.08	1084.07
657.42	1085.19
657.76	1084.00
658.11	1085.68
658.45	1085.19
658.79	1085.61
659.13	1082.47
659.47	1079.81
659.82	1076.23
660.16	1076.88
660.50	1079.20
660.84	1081.63
661.18	1085.19
661.52	1088.33
661.87	1088.63
662.21	1086.27
662.55	1084.67
662.89	1084.65
663.23	1081.98
663.57	1079.88
663.91	1078.52
664.25	1077.47
664.60	1076.90
664.94	1081.63
665.28	1082.45
665.62	1085.28
665.96	1085.14
666.30	1086.83
666.64	1083.71
666.98	1086.57
667.32	1086.41
667.66	1085.91
668.01	1084.21
668.35	1084.93
668.69	1083.62
669.03	1081.98
669.37	1084.84
669.71	1083.43
670.05	1082.90
670.39	1082.97
670.73	1082.90
671.07	1082.31
671.41	1082.40
671.75	1082.85
672.09	1080.70
672.43	1081.51
672.77	1081.44
673.11	1083.41
673.45	1083.46
673.79	1084.67
674.13	1086.22
674.47	1083.20
674.81	1082.94
675.15	1085.82
675.49	1087.55
675.83	1084.00
676.17	1086.64
676.51	1084.30
676.85	1079.85
677.19	1078.59
677.53	1082.22
677.87	1083.06
678.21	1083.69
678.55	1086.01
678.89	1083.95
679.23	1083.60
679.57	1086.29
679.90	1086.34
680.24	1088.40
680.58	1089.26
680.92	1088.63
681.26	1085.21
681.60	1086.03
681.94	1082.43
682.28	1083.55
682.62	1078.00
682.96	1077.75
683.29	1075.15
683.63	1075.08
683.97	1078.07
684.31	1083.79
684.65	1085.42
684.99	1087.04
685.33	1083.88
685.67	1082.57
686.00	1079.78
686.34	1074.84
686.68	1077.28
687.02	1081.89
687.36	1079.55
687.70	1078.78
688.03	1082.69
688.37	1081.14
688.71	1080.30
689.05	1079.10
689.39	1081.51
689.72	1082.90
690.06	1081.61
690.40	1081.80
690.74	1084.51
691.08	1085.94
691.41	1088.00
691.75	1091.74
692.09	1092.82
692.43	1091.91
692.76	1092.77
693.10	1093.57
693.44	1091.49
693.78	1090.03
694.11	1091.13
694.45	1089.00
694.79	1083.15
695.13	1082.38
695.46	1082.80
695.80	1079.90
696.14	1077.51
696.48	1078.87
696.81	1079.53
697.15	1077.23
697.49	1078.19
697.82	1082.94
698.16	1085.70
698.50	1086.36
698.83	1088.33
699.17	1087.69
699.51	1089.89
699.84	1085.77
700.18	1085.94
700.52	1087.83
700.85	1089.29
701.19	1086.94
701.53	1088.33
701.86	1088.02
702.20	1089.00
702.54	1086.50
702.87	1082.64
703.21	1083.69
703.55	1082.03
703.88	1080.93
704.22	1083.81
704.55	1084.25
704.89	1083.86
705.23	1085.14
705.56	1082.97
705.90	1083.34
706.23	1082.61
706.57	1084.98
706.91	1085.33
707.24	1087.02
707.58	1088.54
707.91	1091.42
708.25	1088.49
708.58	1085.84
708.92	1081.30
709.26	1078.40
709.59	1078.10
709.93	1076.65
710.26	1081.80
710.60	1086.71
710.93	1086.71
711.27	1085.89
711.60	1089.94
711.94	1086.43
712.27	1084.56
712.61	1087.23
712.94	1085.24
713.28	1082.10
713.61	1082.26
713.95	1081.47
714.28	1080.46
714.62	1080.46
714.95	1086.08
715.29	1085.10
715.62	1085.68
715.96	1083.93
716.29	1084.44
716.63	1080.51
716.96	1084.58
717.29	1085.28
717.63	1082.80
717.96	1087.04
718.30	1086.06
718.63	1085.03
718.97	1083.88
719.30	1088.33
719.63	1085.54
719.97	1084.93
720.30	1081.14
720.64	1082.24
720.97	1081.51
721.30	1081.42
721.64	1083.36
721.97	1085.89
722.31	1085.99
722.64	1084.23
722.97	1083.13
723.31	1080.56
723.64	1077.14
723.97	1075.01
724.31	1074.75
724.64	1074.24
724.98	1076.18
725.31	1079.06
725.64	1082.45
725.98	1084.37
726.31	1086.73
726.64	1085.61
726.97	1084.91
727.31	1085.05
727.64	1086.34
727.97	1086.59
728.31	1087.20
728.64	1087.79
728.97	1084.21
729.31	1083.29
729.64	1081.77
729.97	1078.24
730.30	1077.11
730.64	1078.40
730.97	1076.81
731.30	1077.91
731.63	1081.54
731.97	1083.53
732.30	1083.08
732.63	1082.61
732.96	1081.09
733.30	1082.40
733.63	1080.32
733.96	1080.81
734.29	1084.91
734.63	1085.35
734.96	1086.45
735.29	1088.09
735.62	1087.06
735.95	1083.18
736.29	1083.93
736.62	1081.63
736.95	1082.83
737.28	1083.43
737.61	1086.94
737.94	1089.31
738.28	1086.10
738.61	1084.84
738.94	1086.41
739.27	1082.94
739.60	1079.48
739.93	1081.98
740.27	1081.49
740.60	1082.45
740.93	1086.01
741.26	1087.83
741.59	1087.51
741.92	1086.92
742.25	1083.13
742.58	1080.37
742.91	1078.96
743.25	1079.69
743.58	1078.07
743.91	1082.52
744.24	1082.45
744.57	1079.67
744.90	1076.76
745.23	1077.89
745.56	1075.43
745.89	1076.20
746.22	1079.60
746.55	1082.10
746.88	1085.07
747.21	1084.74
747.54	1083.93
747.87	1081.54
748.20	1084.44
748.53	1084.30
748.87	1083.25
749.20	1082.22
749.53	1082.36
749.86	1078.57
750.19	1078.61
750.52	1078.14
750.85	1080.11
751.18	1083.22
751.51	1084.79
751.84	1082.33
752.16	1084.51
752.49	1081.09
752.82	1082.40
753.15	1081.63
753.48	1083.04
753.81	1084.67
754.14	1088.07
754.47	1083.88
754.80	1082.94
755.13	1081.56
755.46	1078.52
755.79	1078.94
756.12	1081.63
756.45	1083.69
756.78	1084.39
757.11	1085.47
757.43	1083.48
757.76	1083.18
758.09	1084.04
758.42	1083.88
758.75	1085.87
759.08	1087.86
759.41	1086.34
759.74	1084.35
760.07	1084.49
760.39	1084.51
760.72	1080.95
761.05	1079.17
761.38	1081.07
761.71	1081.49
762.04	1080.70
762.36	1082.97
762.69	1085.99
763.02	1083.27
763.35	1083.81
763.68	1080.44
764.01	1078.17
764.33	1075.78
764.66	1076.95
764.99	1077.49
765.32	1081.40
765.65	1084.93
765.97	1086.29
766.30	1083.55
766.63	1082.73
766.96	1079.27
767.28	1074.66
767.61	1074.77
767.94	1078.21
768.27	1079.69
768.59	1083.79
768.92	1088.63
769.25	1086.03
769.58	1082.78
769.90	1077.79
770.23	1074.87
770.56	1071.61
770.89	1072.32
771.21	1074.03
771.54	1074.89
771.87	1074.82
772.19	1077.49
772.52	1077.28
772.85	1079.01
773.17	1077.89
773.50	1077.35
773.83	1075.43
774.15	1079.17
774.48	1077.98
774.81	1082.92
775.13	1082.78
775.46	1083.79
775.79	1082.52
776.11	1082.76
776.44	1078.33
776.77	1081.94
777.09	1081.80
777.42	1080.51
777.74	1080.74
778.07	1082.24
778.40	1076.95
778.72	1080.53
779.05	1082.19
779.37	1080.51
779.70	1081.63
780.03	1085.05
780.35	1080.02
780.68	1081.44
781.00	1082.73
781.33	1080.16
781.65	1082.54
781.98	1085.49
782.31	1083.01
782.63	1079.48
782.96	1079.41
783.28	1076.06
783.61	1072.39
783.93	1071.01
784.26	1072.15
784.58	1072.22
784.91	1072.62
785.23	1073.56
785.56	1072.90
785.88	1072.90
786.21	1077.44
786.53	1078.47
786.86	1078.64
787.18	1079.69
787.51	1080.60
787.83	1075.92
788.16	1075.50
788.48	1076.72
788.81	1080.67
789.13	1082.19
789.46	1082.15
789.78	1079.67
790.10	1079.22
790.43	1078.07
790.75	1079.76
791.08	1083.22
791.40	1086.36
791.73	1086.62
792.05	1083.79
792.37	1080.20
792.70	1080.37
793.02	1077.56
793.35	1078.61
793.67	1079.08
793.99	1079.83
794.32	1078.87
794.64	1080.46
794.96	1081.14
795.29	1082.08
795.61	1081.91
795.93	1083.11
796.26	1082.97
796.58	1080.58
796.91	1082.26
797.23	1082.47
797.55	1079.29
797.87	1078.82
798.20	1078.61
798.52	1077.54
798.84	1078.87
799.17	1083.32
799.49	1084.49
799.81	1086.76
800.14	1086.15
800.46	1085.63
800.78	1082.26
801.10	1082.78
801.43	1079.22
801.75	1077.84
802.07	1075.15
802.40	1076.11
802.72	1075.76
803.04	1076.37
803.36	1077.89
803.69	1080.91
804.01	1082.01
804.33	1083.13
804.65	1084.35
804.97	1084.42
805.30	1082.36
805.62	1080.32
805.94	1079.76
806.26	1078.64
806.58	1080.04
806.91	1080.93
807.23	1081.70
807.55	1080.88
807.87	1084.04
808.19	1084.96
808.52	1087.20
808.84	1087.25
809.16	1087.62
809.48	1086.06
809.80	1081.12
810.12	1080.27
810.44	1080.91
810.77	1076.86
811.09	1077.37
811.41	1081.42
811.73	1080.37
812.05	1081.07
812.37	1085.45
812.69	1086.43
813.01	1083.36
813.33	1083.97
813.66	1080.86
813.98	1079.78
814.30	1078.17
814.62	1078.47
814.94	1077.61
815.26	1077.47
815.58	1078.03
815.90	1076.01
816.22	1076.06
816.54	1076.37
816.86	1078.45
817.18	1078.36
817.50	1079.27
817.82	1079.34
818.14	1078.80
818.46	1079.81
818.78	1078.64
819.10	1081.09
819.42	1081.75
819.74	1082.71
820.06	1082.03
820.38	1082.80
820.70	1079.17
821.02	1077.23
821.34	1076.41
821.66	1074.98
821.98	1077.58
822.30	1080.04
822.62	1082.19
822.94	1081.51
823.26	1081.84
823.58	1077.16
823.90	1072.41
824.22	1069.70
824.54	1069.81
824.86	1070.94
825.18	1073.11
825.50	1075.59
825.81	1077.56
826.13	1077.98
826.45	1079.81
826.77	1076.95
827.09	1077.33
827.41	1078.54
827.73	1084.56
828.05	1083.69
828.36	1086.03
828.68	1088.70
829.00	1088.09
829.32	1083.57
829.64	1079.83
829.96	1081.66
830.28	1080.06
830.59	1079.48
830.91	1079.46
831.23	1081.66
831.55	1080.77
831.87	1082.83
832.19	1084.74
832.50	1079.90
832.82	1078.87
833.14	1076.04
833.46	1077.28
833.78	1074.98
834.09	1077.23
834.41	1078.10
834.73	1077.96
835.05	1073.23
835.36	1073.51
835.68	1073.67
836.00	1074.19
836.32	1075.90
836.63	1080.20
836.95	1080.51
837.27	1082.40
837.59	1080.46
837.90	1079.92
838.22	1079.15
838.54	1080.79
838.85	1083.06
839.17	1086.92
839.49	1088.61
839.80	1086.10
840.12	1083.57
840.44	1082.26
840.76	1080.93
841.07	1078.28
841.39	1078.31
841.71	1081.44
842.02	1079.74
842.34	1076.67
842.65	1078.43
842.97	1080.11
843.29	1078.66
843.60	1077.16
843.92	1077.79
844.24	1080.56
844.55	1081.47
844.87	1080.20
845.18	1080.72
845.50	1082.31
845.82	1078.78
846.13	1076.04
846.45	1077.84
846.76	1078.80
847.08	1079.83
847.40	1080.13
847.71	1082.24
848.03	1081.16
848.34	1081.05
848.66	1075.78
848.97	1078.33
849.29	1074.87
849.60	1075.83
849.92	1077.02
850.24	1079.38
850.55	1077.33
850.87	1079.85
851.18	1079.29
851.50	1077.02
851.81	1077.77
852.13	1076.62
852.44	1077.63
852.76	1077.42
853.07	1079.85
853.39	1078.99
853.70	1079.62
854.01	1079.50
854.33	1076.58
854.64	1075.71
854.96	1075.27
855.27	1078.07
855.59	1075.85
855.90	1079.38
856.22	1077.98
856.53	1079.17
856.84	1076.60
857.16	1078.85
857.47	1078.73
857.79	1079.78
858.10	1081.98
858.41	1082.66
858.73	1081.70
859.04	1082.33
859.36	1080.04
859.67	1081.09
859.98	1079.81
860.30	1080.63
860.61	1078.85
860.92	1081.49
861.24	1078.47
861.55	1080.34
861.87	1077.84
862.18	1077.89
862.49	1079.53
862.81	1082.24
863.12	1082.17
863.43	1085.56
863.74	1086.52
864.06	1083.32
864.37	1082.15
864.68	1079.06
865.00	1078.07
865.31	1076.74
865.62	1079.64
865.94	1080.27
866.25	1082.01
866.56	1081.40
866.87	1080.51
867.19	1078.10
867.50	1078.24
867.81	1079.15
868.12	1078.07
868.44	1080.06
868.75	1081.63
869.06	1080.41
869.37	1078.52
869.68	1081.26
870.00	1082.24
870.31	1084.60
870.62	1083.74
870.93	1085.42
871.24	1081.02
871.56	1079.99
871.87	1078.36
872.18	1077.47
872.49	1076.72
872.80	1076.67
873.12	1075.29
873.43	1075.50
873.74	1078.50
874.05	1078.43
874.36	1077.82
874.67	1076.95
874.98	1076.74
875.29	1074.35
875.61	1074.59
875.92	1077.82
876.23	1078.26
876.54	1079.60
876.85	1079.92
877.16	1078.10
877.47	1075.01
877.78	1076.65
878.09	1075.20
878.40	1073.79
878.72	1076.81
879.03	1080.11
879.34	1081.98
879.65	1081.82
879.96	1085.00
880.27	1083.18
880.58	1082.87
880.89	1082.76
881.20	1080.44
881.51	1079.64
881.82	1082.03
882.13	1085.03
882.44	1082.47
882.75	1085.24
883.06	1084.60
883.37	1084.70
883.68	1080.93
883.99	1079.60
884.30	1077.75
884.61	1076.18
884.92	1072.67
885.23	1071.90
885.54	1073.91
885.85	1072.46
886.16	1073.53
886.47	1075.36
886.78	1080.60
887.08	1081.77
887.39	1083.06
887.70	1084.98
888.01	1083.25
888.32	1079.46
888.63	1077.30
888.94	1077.47
889.25	1074.70
889.56	1077.77
889.87	1078.92
890.17	1078.33
890.48	1080.58
890.79	1080.25
891.10	1079.24
891.41	1079.95
891.72	1079.76
892.03	1077.42
892.34	1078.73
892.64	1080.51
892.95	1079.31
893.26	1080.67
893.57	1081.87
893.88	1083.74
894.18	1082.33
894.49	1082.83
894.80	1083.46
895.11	1087.06
895.42	1087.53
895.72	1089.10
896.03	1086.97
896.34	1085.00
896.65	1083.32
896.96	1079.20
897.26	1076.18
897.57	1077.35
897.88	1080.93
898.19	1078.38
898.49	1079.62
898.80	1080.77
899.11	1078.03
899.41	1075.13
899.72	1071.97
900.03	1071.94
900.34	1072.36
900.64	1070.77
900.95	1070.19
901.26	1074.00
901.56	1076.74
901.87	1076.97
902.18	1078.59
902.48	1084.07
902.79	1083.71
903.10	1083.08
903.40	1083.34
903.71	1088.35
904.02	1083.46
904.32	1083.50
904.63	1078.14
904.94	1075.90
905.24	1070.82
905.55	1071.90
905.85	1071.64
906.16	1073.39
906.47	1074.12
906.77	1074.14
907.08	1071.78
907.38	1073.74
907.69	1075.50
908.00	1074.68
908.30	1077.44
908.61	1077.65
908.91	1074.10
909.22	1075.62
909.52	1077.04
909.83	1080.70
910.14	1080.56
910.44	1084.42
910.75	1085.73
911.05	1086.24
911.36	1081.87
911.66	1083.64
911.97	1081.89
912.27	1082.76
912.58	1083.08
912.88	1083.57
913.19	1083.62
913.49	1082.61
913.80	1080.09
914.10	1080.74
914.41	1079.41
914.71	1079.64
915.01	1079.08
915.32	1079.55
915.62	1078.00
915.93	1080.65
916.23	1080.16
916.54	1082.05
916.84	1080.27
917.15	1078.17
917.45	1075.38
917.75	1075.92
918.06	1073.91
918.36	1074.26
918.67	1074.31
918.97	1076.04
919.27	1077.79
919.58	1078.57
919.88	1077.04
920.18	1077.51
920.49	1074.73
920.79	1075.62
921.10	1075.62
921.40	1074.45
921.70	1075.17
922.01	1078.17
922.31	1074.68
922.61	1073.56
922.92	1079.20
923.22	1080.25
923.52	1077.93
923.82	1080.93
924.13	1079.97
924.43	1078.12
924.73	1077.86
925.04	1080.93
925.34	1078.96
925.64	1079.08
925.94	1077.89
926.25	1077.09
926.55	1077.00
926.85	1077.93
927.15	1080.93
927.46	1082.78
927.76	1083.36
928.06	1081.09
928.36	1079.95
928.67	1078.50
928.97	1076.23
929.27	1077.35
929.57	1078.92
929.87	1080.51
930.18	1083.22
930.48	1084.77
930.78	1084.21
931.08	1083.41
931.38	1081.66
931.69	1082.76
931.99	1081.16
932.29	1081.70
932.59	1079.29
932.89	1082.19
933.19	1079.92
933.49	1081.73
933.80	1080.18
934.10	1083.62
934.40	1080.72
934.70	1076.83
935.00	1077.37
935.30	1078.38
935.60	1079.50
935.90	1079.76
936.20	1080.95
936.50	1078.36
936.81	1079.95
937.11	1079.46
937.41	1079.99
937.71	1081.68
938.01	1084.53
938.31	1081.96
938.61	1077.98
938.91	1080.65
939.21	1080.86
939.51	1079.50
939.81	1077.84
940.11	1077.75
940.41	1074.45
940.71	1073.88
941.01	1070.44
941.31	1074.77
941.61	1079.27
941.91	1080.32
942.21	1081.12
942.51	1086.69
942.81	1084.77
943.11	1080.39
943.41	1080.04
943.71	1081.37
944.01	1080.18
944.31	1079.03
944.61	1080.74
944.90	1081.07
945.20	1078.26
945.50	1075.57
945.80	1079.27
946.10	1080.20
946.40	1078.00
946.70	1080.46
947.00	1080.63
947.30	1077.56
947.60	1077.77
947.89	1078.43
948.19	1079.08
948.49	1079.57
948.79	1078.57
949.09	1078.12
949.39	1077.54
949.69	1073.95
949.98	1072.71
950.28	1073.21
950.58	1072.76
950.88	1074.77
951.18	1076.79
951.48	1079.24
951.77	1080.95
952.07	1079.08
952.37	1078.52
952.67	1076.81
952.97	1073.58
953.26	1071.87
953.56	1073.44
953.86	1074.70
954.16	1078.28
954.45	1081.37
954.75	1082.90
955.05	1081.33
955.35	1079.64
955.64	1075.80
955.94	1076.23
956.24	1074.26
956.54	1078.26
956.83	1076.53
957.13	1076.30
957.43	1073.51
957.72	1075.97
958.02	1076.83
958.32	1077.23
958.61	1080.32
958.91	1084.42
959.21	1085.28
959.50	1081.14
959.80	1084.18
960.10	1082.40
960.39	1080.48
960.69	1081.26
960.99	1081.07
961.28	1078.73
961.58	1078.71
961.87	1080.25
962.17	1078.64
962.47	1079.36
962.76	1080.13
963.06	1079.31
963.36	1077.49
963.65	1075.87
963.95	1078.03
964.24	1078.92
964.54	1080.34
964.83	1079.92
965.13	1080.37
965.42	1078.71
965.72	1076.93
966.02	1075.83
966.31	1075.87
966.61	1075.22
966.90	1073.67
967.20	1074.82
967.49	1076.60
967.79	1076.93
968.08	1078.31
968.38	1079.08
968.67	1078.68
968.97	1077.44
969.26	1077.18
969.56	1075.03
969.85	1080.11
970.15	1078.61
970.44	1081.70
970.74	1081.68
971.03	1084.96
971.32	1082.24
971.62	1082.85
971.91	1080.86
972.21	1082.73
972.50	1081.61
972.80	1081.37
973.09	1079.24
973.38	1077.30
973.68	1075.90
973.97	1077.09
974.27	1079.13
974.56	1082.43
974.85	1083.36
975.15	1081.44
975.44	1079.97
975.73	1076.11
976.03	1076.23
976.32	1079.57
976.61	1083.39
976.91	1082.19
977.20	1082.29
977.49	1082.29
977.79	1078.54
978.08	1074.80
978.37	1076.67
978.67	1079.20
978.96	1080.18
979.25	1081.47
979.55	1082.73
979.84	1082.50
980.13	1083.60
980.42	1083.67
980.72	1082.85
981.01	1082.12
981.30	1081.91
981.59	1078.31
981.89	1077.04
982.18	1076.88
982.47	1081.14
982.76	1078.61
983.06	1076.51
983.35	1076.13
983.64	1074.56
983.93	1070.94
984.22	1071.36
984.52	1073.84
984.81	1073.25
985.10	1077.30
985.39	1078.36
985.68	1078.52
985.97	1079.48
986.27	1080.88
986.56	1079.88
986.85	1078.87
987.14	1081.42
987.43	1080.20
987.72	1080.65
988.01	1080.56
988.31	1078.80
988.60	1075.38
988.89	1078.07
989.18	1075.20
989.47	1074.45
989.76	1077.02
990.05	1078.40
990.34	1078.12
990.63	1079.81
990.92	1079.88
991.21	1079.62
991.51	1082.69
991.80	1081.33
992.09	1079.57
992.38	1078.92
992.67	1079.41
992.96	1078.43
993.25	1078.50
993.54	1081.09
993.83	1083.06
994.12	1080.88
994.41	1081.14
994.70	1082.52
994.99	1082.99
995.28	1081.00
995.57	1086.34
995.86	1085.82
996.15	1086.87
996.44	1081.23
996.73	1081.21
997.02	1076.04
997.31	1075.87
997.59	1074.21
997.88	1078.50
998.17	1078.00
998.46	1081.42
998.75	1079.13
999.04	1075.97
999.33	1074.56
999.62	1077.89
999.91	1073.51
1000.20	1074.52
1000.49	1076.60
1000.77	1078.80
1001.06	1075.48
1001.35	1077.65
1001.64	1075.34
1001.93	1076.79
1002.22	1079.08
1002.51	1078.57
1002.79	1078.05
1003.08	1079.67
1003.37	1076.65
1003.66	1073.30
1003.95	1071.47
1004.23	1073.53
1004.52	1075.22
1004.81	1078.71
1005.10	1080.23
1005.39	1084.07
1005.67	1083.48
1005.96	1081.44
1006.25	1079.34
1006.54	1080.67
1006.83	1080.34
1007.11	1080.67
1007.40	1079.64
1007.69	1078.92
1007.97	1077.75
1008.26	1077.84
1008.55	1075.43
1008.84	1077.42
1009.12	1075.01
1009.41	1075.17
1009.70	1076.37
1009.98	1076.90
1010.27	1076.88
1010.56	1077.91
1010.85	1078.03
1011.13	1074.24
1011.42	1078.43
1011.71	1079.20
1011.99	1083.90
1012.28	1082.45
1012.56	1081.37
1012.85	1077.93
1013.14	1079.85
1013.42	1077.25
1013.71	1078.36
1014.00	1082.12
1014.28	1079.43
1014.57	1076.06
1014.85	1075.20
1015.14	1074.59
1015.43	1073.70
1015.71	1074.89
1016.00	1077.14
1016.28	1080.44
1016.57	1082.12
1016.85	1084.23
1017.14	1087.93
1017.43	1084.98
1017.71	1080.84
1018.00	1077.65
1018.28	1077.65
1018.57	1075.90
1018.85	1078.59
1019.14	1082.73
1019.42	1084.28
1019.71	1082.29
1019.99	1083.46
1020.28	1084.81
1020.56	1081.26
1020.85	1080.46
1021.13	1080.93
1021.42	1080.04
1021.70	1078.07
1021.99	1076.39
1022.27	1075.20
1022.55	1063.77
1022.84	1070.68
>>>>>End Processed Spectral Data<<<<<
