SpectraSuite Data File
++++++++++++++++++++++++++++++++++++
Date: Mon Aug 26 10:21:54 PDT 2019
User: corrico
Dark Spectrum Present: No
Reference Spectrum Present: No
Number of Sampled Component Spectra: 1
Spectrometers: USB2+H06089
Integration Time (usec): 2000 (USB2+H06089)
Spectra Averaged: 20 (USB2+H06089)
Boxcar Smoothing: 2 (USB2+H06089)
Correct for Electrical Dark: No (USB2+H06089)
Strobe/Lamp Enabled: No (USB2+H06089)
Correct for Detector Non-linearity: No (USB2+H06089)
Correct for Stray Light: No (USB2+H06089)
Number of Pixels in Processed Spectrum: 2048
>>>>>Begin Processed Spectral Data<<<<<
339.70	1020.82
340.07	1020.82
340.45	990.68
340.82	970.06
341.19	950.84
341.57	928.00
341.94	915.57
342.31	911.94
342.69	907.03
343.06	898.91
343.43	895.93
343.81	898.32
344.18	895.96
344.55	899.66
344.93	907.78
345.30	914.28
345.67	921.68
346.04	931.53
346.42	938.53
346.79	946.49
347.16	958.82
347.54	969.45
347.91	975.07
348.28	986.79
348.65	996.51
349.03	1002.29
349.40	1007.25
349.77	1017.08
350.14	1023.38
350.52	1028.83
350.89	1037.56
351.26	1045.94
351.63	1049.50
352.01	1054.43
352.38	1059.16
352.75	1063.49
353.12	1066.68
353.50	1068.64
353.87	1070.70
354.24	1075.73
354.61	1076.04
354.98	1076.88
355.36	1080.53
355.73	1082.12
356.10	1076.58
356.47	1075.85
356.84	1077.68
357.22	1077.40
357.59	1079.29
357.96	1084.32
358.33	1084.37
358.70	1083.34
359.08	1084.30
359.45	1083.20
359.82	1081.00
360.19	1080.88
360.56	1078.59
360.94	1075.41
361.31	1072.64
361.68	1072.36
362.05	1072.13
362.42	1073.79
362.79	1073.46
363.16	1074.52
363.54	1075.97
363.91	1073.32
364.28	1071.57
364.65	1072.74
365.02	1071.92
365.39	1067.75
365.76	1068.45
366.14	1070.37
366.51	1070.00
366.88	1070.96
367.25	1073.11
367.62	1074.70
367.99	1071.75
368.36	1073.07
368.73	1069.25
369.10	1068.29
369.48	1066.09
369.85	1064.38
370.22	1063.24
370.59	1069.02
370.96	1069.34
371.33	1071.50
371.70	1074.87
372.07	1074.96
372.44	1071.64
372.81	1073.09
373.18	1072.60
373.55	1070.49
373.93	1070.89
374.30	1069.62
374.67	1067.82
375.04	1068.13
375.41	1069.91
375.78	1071.66
376.15	1073.49
376.52	1074.89
376.89	1078.38
377.26	1078.52
377.63	1076.60
378.00	1075.92
378.37	1075.52
378.74	1070.63
379.11	1070.47
379.48	1072.06
379.85	1075.10
380.22	1074.03
380.59	1075.64
380.96	1077.25
381.33	1076.27
381.70	1074.05
382.07	1076.55
382.44	1075.27
382.81	1075.36
383.18	1076.20
383.55	1076.72
383.92	1074.26
384.29	1076.13
384.66	1076.20
385.03	1076.30
385.40	1076.69
385.77	1080.46
386.14	1080.27
386.51	1078.33
386.88	1078.89
387.25	1077.61
387.62	1076.86
387.99	1078.78
388.36	1078.24
388.73	1075.36
389.10	1078.47
389.46	1078.99
389.83	1076.97
390.20	1078.75
390.57	1079.69
390.94	1077.44
391.31	1078.57
391.68	1080.46
392.05	1082.99
392.42	1083.90
392.79	1084.89
393.16	1083.97
393.53	1082.52
393.89	1079.22
394.26	1078.54
394.63	1078.50
395.00	1077.11
395.37	1076.93
395.74	1078.52
396.11	1080.09
396.48	1080.18
396.84	1079.50
397.21	1077.79
397.58	1075.90
397.95	1074.75
398.32	1073.77
398.69	1075.34
399.06	1075.87
399.42	1078.64
399.79	1080.86
400.16	1084.89
400.53	1086.50
400.90	1088.61
401.27	1087.37
401.64	1087.06
402.00	1085.59
402.37	1085.59
402.74	1087.48
403.11	1091.16
403.48	1088.91
403.84	1085.63
404.21	1082.05
404.58	1080.70
404.95	1077.96
405.32	1081.98
405.68	1083.04
406.05	1087.86
406.42	1087.27
406.79	1086.27
407.16	1086.94
407.52	1089.17
407.89	1086.97
408.26	1088.54
408.63	1088.75
408.99	1089.07
409.36	1089.26
409.73	1091.77
410.10	1090.57
410.47	1090.08
410.83	1086.94
411.20	1087.16
411.57	1082.80
411.94	1086.06
412.30	1087.41
412.67	1089.61
413.04	1088.98
413.40	1091.04
413.77	1086.31
414.14	1087.76
414.51	1090.62
414.87	1091.06
415.24	1091.91
415.61	1094.34
415.97	1095.21
416.34	1090.99
416.71	1092.45
417.08	1095.82
417.44	1096.40
417.81	1095.11
418.18	1094.20
418.54	1095.82
418.91	1094.20
419.28	1094.48
419.64	1096.07
420.01	1101.74
420.38	1101.46
420.74	1102.88
421.11	1107.64
421.48	1107.17
421.84	1106.00
422.21	1107.28
422.58	1109.09
422.94	1106.16
423.31	1107.92
423.68	1110.26
424.04	1112.88
424.41	1110.33
424.77	1114.24
425.14	1116.69
425.51	1113.51
425.87	1111.82
426.24	1116.13
426.61	1118.87
426.97	1122.01
427.34	1130.64
427.70	1136.52
428.07	1142.70
428.44	1147.75
428.80	1154.14
429.17	1159.13
429.53	1164.81
429.90	1166.20
430.27	1172.09
430.63	1177.36
431.00	1183.26
431.36	1184.17
431.73	1190.33
432.09	1192.27
432.46	1198.59
432.83	1207.65
433.19	1220.00
433.56	1231.03
433.92	1245.40
434.29	1256.98
434.65	1263.54
435.02	1279.13
435.38	1293.99
435.75	1303.05
436.11	1316.93
436.48	1334.60
436.84	1350.51
437.21	1370.97
437.57	1392.45
437.94	1412.72
438.30	1435.43
438.67	1456.28
439.03	1477.32
439.40	1510.84
439.76	1544.80
440.13	1582.79
440.49	1619.49
440.86	1655.02
441.22	1690.85
441.59	1727.17
441.95	1764.30
442.32	1809.77
442.68	1855.51
443.05	1902.60
443.41	1963.50
443.78	2020.02
444.14	2081.16
444.51	2145.38
444.87	2218.80
445.24	2281.37
445.60	2356.99
445.96	2429.55
446.33	2518.77
446.69	2604.22
447.06	2693.18
447.42	2787.72
447.79	2888.01
448.15	2999.63
448.51	3111.98
448.88	3238.51
449.24	3358.76
449.61	3505.94
449.97	3648.57
450.33	3802.27
450.70	3962.60
451.06	4147.24
451.43	4318.97
451.79	4513.51
452.15	4715.36
452.52	4928.49
452.88	5146.02
453.24	5382.81
453.61	5640.13
453.97	5897.94
454.34	6154.18
454.70	6464.51
455.06	6758.13
455.43	7060.55
455.79	7355.53
456.15	7704.01
456.52	8016.36
456.88	8420.22
457.24	8808.82
457.61	9270.25
457.97	9715.38
458.33	10188.21
458.70	10647.19
459.06	11075.88
459.42	11514.22
459.79	11931.35
460.15	12389.53
460.51	12814.64
460.88	13261.71
461.24	13661.87
461.60	14128.36
461.96	14539.50
462.33	14905.49
462.69	15343.03
463.05	15801.99
463.42	16178.32
463.78	16579.75
464.14	16997.67
464.50	17360.97
464.87	17629.41
465.23	17856.32
465.59	18125.88
465.95	18370.79
466.32	18567.94
466.68	18792.96
467.04	18932.99
467.40	18961.73
467.77	18951.08
468.13	18895.80
468.49	18836.23
468.85	18784.32
469.22	18741.96
469.58	18640.73
469.94	18581.82
470.30	18397.34
470.66	18202.67
471.03	17906.76
471.39	17712.17
471.75	17378.13
472.11	17090.73
472.47	16875.45
472.84	16657.78
473.20	16348.22
473.56	16145.69
473.92	15909.89
474.28	15670.54
474.65	15423.50
475.01	15194.08
475.37	14916.96
475.73	14665.94
476.09	14369.09
476.45	14131.41
476.81	13890.03
477.18	13669.10
477.54	13478.54
477.90	13311.45
478.26	13099.91
478.62	12928.02
478.98	12756.97
479.34	12577.62
479.71	12357.35
480.07	12159.22
480.43	11968.24
480.79	11784.90
481.15	11599.98
481.51	11460.20
481.87	11332.03
482.23	11148.25
482.59	10965.95
482.96	10812.90
483.32	10655.10
483.68	10461.14
484.04	10311.42
484.40	10137.66
484.76	9940.26
485.12	9744.28
485.48	9577.14
485.84	9365.79
486.20	9162.19
486.56	8992.15
486.92	8820.31
487.28	8636.23
487.64	8466.49
488.00	8290.11
488.37	8099.73
488.73	7904.50
489.09	7701.30
489.45	7527.12
489.81	7354.34
490.17	7183.90
490.53	7026.48
490.89	6875.96
491.25	6704.42
491.61	6558.25
491.97	6399.33
492.33	6237.08
492.69	6071.77
493.05	5919.75
493.41	5766.61
493.77	5612.58
494.13	5472.01
494.49	5344.15
494.85	5214.36
495.21	5094.85
495.57	4982.93
495.93	4872.01
496.29	4762.17
496.64	4661.64
497.00	4544.83
497.36	4440.72
497.72	4333.62
498.08	4234.52
498.44	4137.95
498.80	4040.77
499.16	3938.51
499.52	3848.36
499.88	3767.96
500.24	3690.98
500.60	3621.25
500.96	3553.57
501.32	3476.44
501.68	3391.20
502.03	3307.43
502.39	3228.00
502.75	3153.97
503.11	3092.88
503.47	3043.75
503.83	2992.49
504.19	2939.74
504.55	2890.51
504.91	2838.98
505.26	2778.26
505.62	2720.01
505.98	2670.90
506.34	2617.77
506.70	2566.42
507.06	2524.46
507.42	2482.00
507.78	2437.55
508.13	2397.50
508.49	2358.16
508.85	2314.58
509.21	2271.02
509.57	2231.61
509.93	2190.11
510.28	2144.23
510.64	2108.19
511.00	2077.67
511.36	2040.32
511.72	2006.52
512.07	1983.56
512.43	1953.86
512.79	1925.37
513.15	1903.30
513.51	1873.58
513.86	1845.14
514.22	1819.81
514.58	1793.79
514.94	1766.38
515.30	1752.03
515.65	1734.50
516.01	1713.83
516.37	1693.66
516.73	1672.55
517.08	1649.42
517.44	1628.43
517.80	1610.73
518.16	1592.43
518.51	1579.35
518.87	1565.72
519.23	1549.90
519.59	1538.88
519.94	1523.67
520.30	1509.90
520.66	1497.85
521.01	1486.10
521.37	1469.88
521.73	1461.10
522.09	1450.83
522.44	1439.08
522.80	1428.34
523.16	1415.98
523.51	1404.88
523.87	1394.35
524.23	1385.32
524.58	1375.51
524.94	1374.62
525.30	1363.43
525.65	1353.20
526.01	1343.84
526.37	1338.86
526.72	1331.37
527.08	1323.69
527.44	1317.65
527.79	1312.74
528.15	1301.34
528.51	1288.46
528.86	1281.23
529.22	1274.35
529.58	1266.70
529.93	1260.68
530.29	1255.23
530.65	1249.42
531.00	1240.41
531.36	1236.13
531.71	1234.42
532.07	1234.59
532.43	1231.66
532.78	1228.69
533.14	1224.50
533.49	1217.55
533.85	1208.42
534.21	1203.88
534.56	1200.74
534.92	1194.66
535.27	1191.89
535.63	1189.60
535.98	1187.92
536.34	1185.46
536.69	1180.94
537.05	1180.12
537.41	1177.80
537.76	1172.37
538.12	1170.85
538.47	1167.11
538.83	1160.79
539.18	1157.75
539.54	1159.74
539.89	1157.51
540.25	1161.09
540.60	1165.10
540.96	1162.92
541.31	1156.27
541.67	1156.11
542.02	1150.05
542.38	1144.33
542.73	1144.29
543.09	1146.11
543.44	1144.90
543.80	1146.11
544.15	1144.92
544.51	1143.21
544.86	1142.49
545.22	1137.52
545.57	1135.79
545.93	1134.81
546.28	1132.07
546.64	1129.40
546.99	1130.08
547.35	1126.38
547.70	1123.06
548.05	1121.14
548.41	1121.70
548.76	1119.45
549.12	1119.92
549.47	1117.25
549.83	1118.00
550.18	1113.86
550.53	1109.20
550.89	1108.92
551.24	1110.75
551.60	1111.47
551.95	1111.10
552.30	1111.29
552.66	1111.80
553.01	1111.57
553.37	1109.77
553.72	1110.30
554.07	1109.79
554.43	1106.02
554.78	1106.54
555.13	1103.70
555.49	1104.36
555.84	1109.74
556.19	1111.38
556.55	1112.57
556.90	1111.15
557.26	1110.63
557.61	1103.26
557.96	1101.22
558.32	1098.90
558.67	1098.86
559.02	1097.15
559.37	1100.64
559.73	1101.08
560.08	1098.46
560.43	1099.70
560.79	1099.14
561.14	1097.69
561.49	1095.77
561.85	1095.98
562.20	1096.94
562.55	1095.98
562.90	1095.37
563.26	1095.23
563.61	1095.30
563.96	1093.99
564.32	1092.19
564.67	1091.65
565.02	1092.02
565.37	1091.20
565.73	1090.64
566.08	1091.44
566.43	1091.25
566.78	1090.08
567.14	1092.14
567.49	1092.61
567.84	1092.02
568.19	1093.17
568.54	1095.21
568.90	1093.83
569.25	1093.83
569.60	1094.79
569.95	1093.78
570.31	1092.35
570.66	1093.59
571.01	1090.20
571.36	1086.71
571.71	1085.03
572.06	1085.47
572.42	1080.86
572.77	1084.44
573.12	1087.41
573.47	1091.67
573.82	1090.62
574.18	1093.83
574.53	1091.23
574.88	1091.37
575.23	1088.09
575.58	1085.82
575.93	1083.48
576.28	1084.09
576.64	1083.83
576.99	1083.39
577.34	1084.49
577.69	1084.93
578.04	1087.23
578.39	1087.48
578.74	1088.51
579.09	1090.20
579.44	1089.43
579.80	1090.36
580.15	1085.12
580.50	1083.41
580.85	1083.74
581.20	1085.75
581.55	1078.50
581.90	1082.12
582.25	1084.91
582.60	1083.50
582.95	1081.75
583.30	1083.34
583.65	1085.63
584.00	1084.44
584.35	1085.42
584.71	1085.54
585.06	1086.90
585.41	1086.29
585.76	1081.98
586.11	1079.34
586.46	1079.43
586.81	1080.91
587.16	1078.28
587.51	1082.38
587.86	1084.49
588.21	1085.80
588.56	1082.64
588.91	1083.53
589.26	1080.37
589.61	1077.86
589.96	1075.05
590.31	1076.67
590.66	1074.73
591.01	1078.10
591.36	1082.61
591.71	1085.47
592.06	1082.66
592.41	1086.64
592.76	1084.91
593.10	1081.70
593.45	1079.78
593.80	1081.82
594.15	1079.62
594.50	1081.00
594.85	1083.29
595.20	1086.83
595.55	1087.16
595.90	1085.66
596.25	1086.76
596.60	1084.07
596.95	1083.41
597.30	1084.74
597.64	1097.80
597.99	1098.18
598.34	1101.15
598.69	1099.79
599.04	1100.24
599.39	1086.87
599.74	1081.77
600.09	1079.67
600.44	1078.28
600.78	1076.58
601.13	1079.67
601.48	1080.44
601.83	1078.05
602.18	1076.25
602.53	1074.19
602.88	1071.43
603.22	1071.01
603.57	1073.88
603.92	1075.43
604.27	1078.99
604.62	1078.89
604.97	1077.93
605.31	1079.01
605.66	1078.52
606.01	1076.62
606.36	1080.06
606.71	1086.15
607.05	1085.47
607.40	1083.71
607.75	1085.40
608.10	1084.11
608.44	1083.53
608.79	1078.94
609.14	1082.38
609.49	1080.02
609.84	1078.10
610.18	1077.33
610.53	1080.93
610.88	1081.26
611.23	1082.52
611.57	1083.83
611.92	1082.59
612.27	1082.66
612.62	1083.53
612.96	1084.70
613.31	1084.32
613.66	1085.14
614.00	1084.21
614.35	1083.22
614.70	1078.94
615.05	1078.59
615.39	1079.71
615.74	1079.60
616.09	1079.46
616.43	1084.18
616.78	1081.30
617.13	1079.71
617.47	1079.48
617.82	1076.01
618.17	1072.18
618.51	1071.71
618.86	1072.04
619.21	1073.60
619.55	1074.05
619.90	1075.97
620.25	1078.43
620.59	1078.07
620.94	1075.29
621.29	1079.13
621.63	1077.91
621.98	1080.06
622.32	1079.43
622.67	1080.48
623.02	1079.13
623.36	1081.54
623.71	1080.91
624.05	1079.74
624.40	1081.12
624.75	1085.77
625.09	1085.17
625.44	1085.42
625.78	1086.24
626.13	1087.39
626.48	1083.62
626.82	1082.83
627.17	1080.74
627.51	1080.53
627.86	1079.53
628.20	1078.21
628.55	1078.45
628.89	1079.85
629.24	1081.66
629.58	1084.44
629.93	1085.56
630.28	1082.97
630.62	1082.85
630.97	1081.66
631.31	1078.17
631.66	1074.82
632.00	1076.06
632.35	1076.81
632.69	1076.37
633.04	1077.18
633.38	1081.07
633.73	1084.44
634.07	1082.03
634.42	1077.89
634.76	1073.88
635.11	1068.31
635.45	1070.00
635.79	1071.94
636.14	1075.48
636.48	1081.09
636.83	1086.08
637.17	1082.31
637.52	1080.79
637.86	1080.79
638.21	1079.60
638.55	1078.31
638.89	1075.59
639.24	1077.84
639.58	1077.09
639.93	1075.22
640.27	1074.59
640.61	1077.35
640.96	1074.59
641.30	1081.42
641.65	1080.98
641.99	1082.80
642.33	1082.50
642.68	1082.29
643.02	1078.68
643.37	1079.38
643.71	1079.50
644.05	1079.03
644.40	1080.63
644.74	1079.06
645.08	1082.31
645.43	1081.23
645.77	1084.81
646.11	1088.02
646.46	1085.45
646.80	1080.37
647.14	1077.44
647.49	1072.11
647.83	1067.75
648.17	1073.00
648.52	1075.80
648.86	1080.56
649.20	1079.50
649.55	1080.30
649.89	1074.73
650.23	1075.22
650.57	1073.56
650.92	1077.28
651.26	1079.55
651.60	1081.98
651.95	1080.34
652.29	1080.18
652.63	1080.32
652.97	1079.64
653.32	1076.39
653.66	1078.57
654.00	1077.09
654.34	1081.35
654.69	1082.90
655.03	1084.60
655.37	1086.27
655.71	1086.87
656.05	1082.87
656.40	1079.83
656.74	1081.98
657.08	1079.71
657.42	1077.18
657.76	1076.06
658.11	1075.20
658.45	1074.47
658.79	1071.64
659.13	1074.75
659.47	1076.08
659.82	1077.07
660.16	1075.71
660.50	1078.99
660.84	1079.41
661.18	1079.43
661.52	1082.69
661.87	1086.78
662.21	1085.99
662.55	1084.30
662.89	1084.09
663.23	1081.84
663.57	1077.65
663.91	1077.33
664.25	1081.84
664.60	1080.91
664.94	1078.40
665.28	1082.31
665.62	1082.24
665.96	1077.65
666.30	1079.29
666.64	1080.25
666.98	1077.98
667.32	1076.79
667.66	1079.97
668.01	1079.31
668.35	1078.38
668.69	1077.70
669.03	1078.57
669.37	1079.57
669.71	1077.86
670.05	1080.74
670.39	1080.09
670.73	1080.70
671.07	1076.86
671.41	1078.45
671.75	1078.75
672.09	1080.67
672.43	1080.06
672.77	1080.51
673.11	1080.93
673.45	1078.36
673.79	1076.58
674.13	1077.58
674.47	1080.53
674.81	1081.21
675.15	1083.55
675.49	1087.74
675.83	1083.25
676.17	1082.54
676.51	1079.55
676.85	1075.27
677.19	1070.72
677.53	1073.53
677.87	1073.77
678.21	1077.11
678.55	1083.13
678.89	1082.83
679.23	1080.39
679.57	1078.38
679.90	1074.91
680.24	1071.61
680.58	1072.62
680.92	1074.00
681.26	1071.68
681.60	1072.83
681.94	1072.08
682.28	1070.68
682.62	1071.08
682.96	1074.40
683.29	1074.10
683.63	1075.17
683.97	1077.21
684.31	1080.04
684.65	1080.48
684.99	1083.01
685.33	1081.80
685.67	1082.78
686.00	1081.40
686.34	1078.43
686.68	1076.11
687.02	1073.91
687.36	1072.85
687.70	1075.13
688.03	1075.85
688.37	1075.80
688.71	1077.49
689.05	1080.06
689.39	1076.23
689.72	1078.00
690.06	1075.55
690.40	1076.30
690.74	1075.80
691.08	1076.25
691.41	1077.86
691.75	1077.98
692.09	1079.95
692.43	1077.58
692.76	1079.48
693.10	1079.36
693.44	1082.36
693.78	1080.25
694.11	1079.36
694.45	1077.68
694.79	1073.77
695.13	1074.35
695.46	1073.46
695.80	1073.58
696.14	1071.54
696.48	1070.61
696.81	1068.90
697.15	1068.50
697.49	1069.48
697.82	1074.49
698.16	1077.58
698.50	1079.17
698.83	1082.57
699.17	1083.11
699.51	1084.16
699.84	1082.66
700.18	1083.76
700.52	1084.09
700.85	1083.08
701.19	1081.05
701.53	1080.77
701.86	1077.21
702.20	1074.80
702.54	1075.05
702.87	1072.92
703.21	1073.65
703.55	1074.61
703.88	1076.97
704.22	1079.20
704.55	1077.37
704.89	1078.54
705.23	1076.11
705.56	1075.55
705.90	1073.60
706.23	1074.59
706.57	1072.90
706.91	1074.07
707.24	1075.62
707.58	1073.81
707.91	1075.03
708.25	1076.95
708.58	1081.09
708.92	1079.31
709.26	1077.93
709.59	1078.00
709.93	1077.61
710.26	1076.51
710.60	1076.81
710.93	1074.49
711.27	1072.83
711.60	1072.95
711.94	1074.66
712.27	1071.80
712.61	1078.57
712.94	1080.58
713.28	1080.37
713.61	1077.91
713.95	1080.06
714.28	1077.84
714.62	1075.27
714.95	1075.78
715.29	1073.51
715.62	1072.83
715.96	1074.42
716.29	1076.81
716.63	1074.87
716.96	1074.68
717.29	1073.00
717.63	1072.15
717.96	1071.45
718.30	1072.08
718.63	1075.62
718.97	1076.90
719.30	1076.41
719.63	1074.82
719.97	1074.47
720.30	1072.88
720.64	1076.13
720.97	1075.99
721.30	1081.12
721.64	1083.64
721.97	1082.80
722.31	1078.68
722.64	1079.69
722.97	1078.92
723.31	1076.86
723.64	1077.91
723.97	1078.94
724.31	1080.30
724.64	1075.41
724.98	1074.17
725.31	1078.07
725.64	1079.60
725.98	1080.30
726.31	1083.13
726.64	1081.51
726.97	1077.37
727.31	1080.06
727.64	1079.36
727.97	1080.18
728.31	1081.05
728.64	1082.97
728.97	1080.30
729.31	1080.48
729.64	1079.20
729.97	1081.09
730.30	1079.38
730.64	1076.04
730.97	1073.51
731.30	1075.92
731.63	1075.87
731.97	1075.43
732.30	1079.62
732.63	1079.38
732.96	1076.95
733.30	1076.86
733.63	1077.00
733.96	1073.77
734.29	1075.08
734.63	1076.95
734.96	1075.87
735.29	1077.35
735.62	1081.33
735.95	1081.49
736.29	1080.63
736.62	1081.75
736.95	1079.67
737.28	1079.97
737.61	1080.06
737.94	1080.13
738.28	1079.62
738.61	1080.41
738.94	1075.92
739.27	1074.35
739.60	1072.78
739.93	1076.79
740.27	1076.81
740.60	1080.84
740.93	1081.14
741.26	1085.40
741.59	1082.73
741.92	1081.37
742.25	1079.74
742.58	1080.23
742.91	1078.45
743.25	1077.35
743.58	1077.44
743.91	1076.46
744.24	1076.95
744.57	1075.27
744.90	1074.96
745.23	1075.17
745.56	1073.16
745.89	1074.03
746.22	1078.12
746.55	1080.34
746.88	1083.81
747.21	1087.18
747.54	1082.80
747.87	1081.12
748.20	1081.54
748.53	1076.95
748.87	1075.94
749.20	1079.53
749.53	1075.31
749.86	1075.76
750.19	1078.94
750.52	1078.61
750.85	1079.95
751.18	1080.63
751.51	1077.91
751.84	1077.33
752.16	1076.90
752.49	1073.42
752.82	1068.48
753.15	1065.32
753.48	1063.82
753.81	1064.43
754.14	1066.39
754.47	1072.22
754.80	1075.57
755.13	1075.27
755.46	1075.31
755.79	1074.52
756.12	1075.78
756.45	1074.89
756.78	1078.03
757.11	1077.56
757.43	1078.21
757.76	1076.37
758.09	1077.54
758.42	1077.23
758.75	1077.54
759.08	1075.85
759.41	1075.41
759.74	1076.27
760.07	1076.88
760.39	1078.33
760.72	1077.79
761.05	1079.43
761.38	1080.46
761.71	1078.14
762.04	1077.54
762.36	1078.47
762.69	1079.78
763.02	1078.50
763.35	1078.71
763.68	1076.95
764.01	1079.41
764.33	1080.09
764.66	1079.27
764.99	1079.95
765.32	1081.26
765.65	1084.21
765.97	1082.36
766.30	1083.22
766.63	1082.45
766.96	1081.42
767.28	1078.61
767.61	1078.40
767.94	1075.85
768.27	1077.35
768.59	1078.00
768.92	1078.43
769.25	1080.34
769.58	1083.22
769.90	1078.85
770.23	1076.23
770.56	1072.50
770.89	1069.86
771.21	1071.03
771.54	1075.22
771.87	1079.29
772.19	1083.41
772.52	1086.01
772.85	1082.33
773.17	1081.37
773.50	1077.35
773.83	1076.55
774.15	1073.93
774.48	1076.60
774.81	1077.56
775.13	1081.00
775.46	1080.09
775.79	1080.81
776.11	1080.27
776.44	1080.77
776.77	1080.02
777.09	1081.70
777.42	1081.73
777.74	1081.28
778.07	1078.94
778.40	1082.38
778.72	1080.93
779.05	1078.50
779.37	1077.49
779.70	1078.71
780.03	1077.84
780.35	1078.21
780.68	1080.56
781.00	1081.44
781.33	1080.72
781.65	1075.36
781.98	1074.10
782.31	1072.60
782.63	1071.78
782.96	1068.55
783.28	1072.46
783.61	1073.84
783.93	1075.29
784.26	1079.69
784.58	1084.70
784.91	1082.29
785.23	1078.71
785.56	1078.59
785.88	1076.60
786.21	1073.30
786.53	1071.92
786.86	1074.28
787.18	1072.11
787.51	1068.64
787.83	1068.06
788.16	1070.91
788.48	1070.75
788.81	1074.49
789.13	1074.33
789.46	1076.44
789.78	1077.79
790.10	1076.27
790.43	1075.97
790.75	1077.77
791.08	1079.53
791.40	1078.54
791.73	1082.57
792.05	1082.59
792.37	1081.42
792.70	1080.46
793.02	1080.41
793.35	1078.40
793.67	1077.35
793.99	1076.67
794.32	1077.82
794.64	1076.95
794.96	1075.05
795.29	1072.48
795.61	1076.01
795.93	1074.24
796.26	1073.23
796.58	1073.77
796.91	1074.35
797.23	1072.92
797.55	1071.94
797.87	1073.60
798.20	1076.15
798.52	1079.50
798.84	1079.34
799.17	1083.71
799.49	1083.53
799.81	1082.45
800.14	1081.33
800.46	1081.12
800.78	1075.45
801.10	1074.84
801.43	1074.89
801.75	1073.65
802.07	1073.16
802.40	1074.84
802.72	1073.07
803.04	1075.17
803.36	1078.75
803.69	1079.34
804.01	1078.00
804.33	1080.18
804.65	1076.27
804.97	1076.44
805.30	1078.52
805.62	1081.28
805.94	1080.51
806.26	1079.29
806.58	1075.05
806.91	1072.55
807.23	1070.61
807.55	1070.96
807.87	1071.94
808.19	1076.55
808.52	1077.54
808.84	1077.00
809.16	1078.82
809.48	1081.09
809.80	1082.83
810.12	1081.80
810.44	1080.74
810.77	1081.21
811.09	1083.01
811.41	1078.71
811.73	1081.23
812.05	1082.97
812.37	1082.43
812.69	1080.13
813.01	1078.66
813.33	1078.00
813.66	1079.36
813.98	1078.43
814.30	1081.00
814.62	1082.87
814.94	1082.57
815.26	1081.49
815.58	1083.50
815.90	1082.43
816.22	1083.62
816.54	1081.58
816.86	1080.51
817.18	1075.97
817.50	1073.25
817.82	1070.89
818.14	1068.50
818.46	1074.24
818.78	1078.54
819.10	1077.07
819.42	1077.21
819.74	1079.67
820.06	1073.91
820.38	1070.12
820.70	1073.28
821.02	1073.16
821.34	1073.86
821.66	1074.82
821.98	1077.77
822.30	1076.27
822.62	1076.74
822.94	1075.59
823.26	1077.14
823.58	1076.88
823.90	1076.01
824.22	1073.39
824.54	1072.90
824.86	1071.59
825.18	1067.82
825.50	1069.06
825.81	1071.19
826.13	1072.20
826.45	1072.06
826.77	1072.46
827.09	1071.26
827.41	1071.22
827.73	1073.28
828.05	1080.04
828.36	1082.10
828.68	1083.76
829.00	1084.21
829.32	1079.46
829.64	1075.15
829.96	1076.39
830.28	1076.79
830.59	1076.51
830.91	1079.88
831.23	1078.54
831.55	1076.27
831.87	1073.53
832.19	1071.87
832.50	1071.03
832.82	1072.39
833.14	1073.30
833.46	1077.18
833.78	1081.63
834.09	1081.87
834.41	1077.47
834.73	1079.41
835.05	1076.86
835.36	1076.13
835.68	1077.86
836.00	1080.46
836.32	1077.58
836.63	1077.37
836.95	1075.50
837.27	1073.81
837.59	1072.13
837.90	1069.34
838.22	1071.33
838.54	1071.82
838.85	1071.97
839.17	1071.57
839.49	1074.54
839.80	1075.13
840.12	1075.90
840.44	1075.48
840.76	1074.96
841.07	1075.83
841.39	1074.42
841.71	1073.79
842.02	1074.12
842.34	1074.68
842.65	1075.59
842.97	1076.93
843.29	1077.14
843.60	1077.75
843.92	1079.83
844.24	1080.02
844.55	1077.68
844.87	1074.94
845.18	1077.23
845.50	1075.85
845.82	1072.97
846.13	1075.80
846.45	1078.45
846.76	1072.71
847.08	1074.54
847.40	1078.54
847.71	1079.29
848.03	1077.09
848.34	1080.09
848.66	1079.22
848.97	1076.06
849.29	1072.76
849.60	1075.20
849.92	1075.20
850.24	1074.82
850.55	1076.69
850.87	1075.31
851.18	1073.44
851.50	1073.21
851.81	1074.66
852.13	1075.83
852.44	1079.01
852.76	1080.51
853.07	1079.71
853.39	1079.69
853.70	1078.05
854.01	1078.80
854.33	1078.73
854.64	1081.51
854.96	1080.16
855.27	1077.75
855.59	1075.36
855.90	1073.91
856.22	1071.17
856.53	1071.82
856.84	1073.07
857.16	1070.21
857.47	1067.87
857.79	1070.21
858.10	1068.67
858.41	1069.27
858.73	1069.79
859.04	1069.67
859.36	1072.25
859.67	1073.28
859.98	1074.89
860.30	1077.82
860.61	1082.97
860.92	1079.85
861.24	1081.96
861.55	1077.35
861.87	1079.99
862.18	1076.46
862.49	1074.03
862.81	1070.77
863.12	1074.73
863.43	1073.28
863.74	1073.42
864.06	1077.16
864.37	1078.47
864.68	1079.24
865.00	1077.51
865.31	1076.90
865.62	1073.84
865.94	1072.27
866.25	1071.92
866.56	1071.87
866.87	1073.28
867.19	1075.90
867.50	1077.65
867.81	1078.10
868.12	1074.77
868.44	1078.52
868.75	1078.19
869.06	1077.00
869.37	1074.12
869.68	1080.30
870.00	1076.37
870.31	1073.00
870.62	1078.03
870.93	1081.23
871.24	1076.83
871.56	1077.61
871.87	1079.69
872.18	1074.84
872.49	1074.56
872.80	1075.62
873.12	1076.41
873.43	1075.38
873.74	1079.46
874.05	1076.51
874.36	1078.54
874.67	1078.36
874.98	1078.50
875.29	1074.96
875.61	1075.78
875.92	1074.28
876.23	1076.51
876.54	1076.79
876.85	1076.20
877.16	1077.65
877.47	1076.95
877.78	1073.23
878.09	1076.32
878.40	1077.82
878.72	1075.76
879.03	1076.18
879.34	1079.01
879.65	1072.97
879.96	1073.23
880.27	1076.58
880.58	1077.28
880.89	1072.90
881.20	1076.72
881.51	1073.46
881.82	1069.23
882.13	1069.86
882.44	1072.85
882.75	1070.98
883.06	1075.64
883.37	1076.11
883.68	1074.52
883.99	1075.85
884.30	1078.59
884.61	1078.33
884.92	1081.47
885.23	1083.50
885.54	1078.66
885.85	1077.70
886.16	1074.31
886.47	1073.23
886.78	1070.30
887.08	1073.39
887.39	1072.32
887.70	1070.91
888.01	1069.67
888.32	1070.63
888.63	1068.10
888.94	1071.99
889.25	1073.81
889.56	1076.04
889.87	1076.08
890.17	1078.21
890.48	1077.82
890.79	1080.88
891.10	1078.85
891.41	1079.90
891.72	1081.58
892.03	1078.99
892.34	1076.93
892.64	1079.62
892.95	1080.72
893.26	1079.03
893.57	1080.67
893.88	1079.46
894.18	1075.97
894.49	1073.44
894.80	1073.16
895.11	1072.64
895.42	1073.30
895.72	1074.82
896.03	1074.26
896.34	1074.35
896.65	1072.25
896.96	1071.61
897.26	1070.70
897.57	1070.26
897.88	1071.10
898.19	1074.28
898.49	1074.87
898.80	1074.80
899.11	1074.70
899.41	1073.51
899.72	1074.82
900.03	1074.00
900.34	1072.85
900.64	1074.03
900.95	1074.12
901.26	1070.28
901.56	1072.50
901.87	1075.83
902.18	1076.32
902.48	1077.04
902.79	1081.23
903.10	1083.22
903.40	1080.16
903.71	1081.70
904.02	1081.16
904.32	1078.03
904.63	1075.48
904.94	1076.34
905.24	1073.72
905.55	1072.71
905.85	1070.91
906.16	1072.55
906.47	1074.33
906.77	1080.04
907.08	1081.05
907.38	1080.91
907.69	1077.16
908.00	1079.71
908.30	1072.36
908.61	1076.90
908.91	1075.80
909.22	1076.81
909.52	1074.96
909.83	1077.65
910.14	1073.23
910.44	1076.93
910.75	1077.75
911.05	1077.89
911.36	1076.53
911.66	1080.79
911.97	1078.50
912.27	1080.30
912.58	1079.57
912.88	1082.43
913.19	1079.92
913.49	1080.79
913.80	1078.52
914.10	1076.86
914.41	1074.40
914.71	1074.96
915.01	1075.50
915.32	1073.23
915.62	1074.91
915.93	1078.45
916.23	1076.76
916.54	1075.59
916.84	1080.53
917.15	1079.97
917.45	1075.59
917.75	1074.98
918.06	1076.74
918.36	1073.44
918.67	1072.18
918.97	1075.01
919.27	1076.58
919.58	1077.07
919.88	1078.94
920.18	1079.34
920.49	1078.75
920.79	1078.52
921.10	1077.30
921.40	1076.39
921.70	1076.58
922.01	1076.46
922.31	1076.88
922.61	1074.89
922.92	1075.97
923.22	1076.95
923.52	1076.67
923.82	1075.24
924.13	1077.25
924.43	1077.30
924.73	1076.06
925.04	1074.61
925.34	1076.62
925.64	1076.48
925.94	1075.97
926.25	1076.32
926.55	1077.70
926.85	1076.48
927.15	1078.03
927.46	1075.59
927.76	1073.77
928.06	1074.10
928.36	1073.81
928.67	1072.13
928.97	1072.55
929.27	1073.30
929.57	1075.52
929.87	1075.24
930.18	1074.66
930.48	1077.40
930.78	1079.06
931.08	1078.00
931.38	1079.46
931.69	1079.15
931.99	1078.61
932.29	1077.58
932.59	1073.18
932.89	1073.21
933.19	1076.06
933.49	1076.15
933.80	1077.49
934.10	1081.87
934.40	1077.21
934.70	1074.63
935.00	1075.36
935.30	1073.16
935.60	1070.96
935.90	1072.53
936.20	1071.36
936.50	1068.55
936.81	1066.56
937.11	1066.09
937.41	1065.60
937.71	1064.78
938.01	1064.87
938.31	1066.91
938.61	1068.06
938.91	1071.78
939.21	1077.61
939.51	1080.30
939.81	1081.40
940.11	1082.31
940.41	1082.57
940.71	1079.01
941.01	1076.01
941.31	1077.72
941.61	1076.62
941.91	1075.64
942.21	1073.11
942.51	1074.56
942.81	1070.19
943.11	1072.11
943.41	1071.80
943.71	1075.48
944.01	1078.54
944.31	1082.52
944.61	1077.63
944.90	1077.00
945.20	1077.44
945.50	1074.33
945.80	1072.53
946.10	1077.28
946.40	1077.25
946.70	1073.00
947.00	1071.87
947.30	1075.57
947.60	1074.33
947.89	1078.92
948.19	1080.30
948.49	1081.87
948.79	1081.87
949.09	1081.63
949.39	1074.28
949.69	1076.67
949.98	1078.59
950.28	1076.39
950.58	1075.90
950.88	1075.64
951.18	1073.86
951.48	1070.87
951.77	1072.06
952.07	1072.67
952.37	1076.18
952.67	1078.96
952.97	1081.68
953.26	1080.41
953.56	1081.89
953.86	1081.98
954.16	1082.80
954.45	1082.31
954.75	1081.33
955.05	1080.27
955.35	1078.59
955.64	1075.36
955.94	1075.17
956.24	1074.28
956.54	1074.84
956.83	1076.83
957.13	1077.98
957.43	1077.98
957.72	1077.89
958.02	1079.17
958.32	1079.99
958.61	1077.93
958.91	1073.37
959.21	1076.88
959.50	1074.84
959.80	1070.09
960.10	1072.55
960.39	1077.84
960.69	1076.27
960.99	1076.79
961.28	1077.33
961.58	1077.18
961.87	1076.30
962.17	1075.38
962.47	1075.64
962.76	1075.73
963.06	1072.60
963.36	1070.58
963.65	1070.49
963.95	1071.10
964.24	1072.95
964.54	1073.42
964.83	1074.42
965.13	1075.87
965.42	1075.10
965.72	1075.24
966.02	1080.41
966.31	1079.31
966.61	1078.43
966.90	1077.84
967.20	1078.40
967.49	1075.05
967.79	1076.65
968.08	1076.97
968.38	1075.50
968.67	1074.40
968.97	1072.97
969.26	1072.08
969.56	1072.48
969.85	1076.06
970.15	1077.37
970.44	1081.54
970.74	1077.00
971.03	1074.73
971.32	1074.42
971.62	1073.02
971.91	1069.34
972.21	1074.87
972.50	1078.24
972.80	1075.57
973.09	1075.41
973.38	1076.55
973.68	1073.51
973.97	1071.26
974.27	1075.41
974.56	1076.90
974.85	1079.57
975.15	1081.70
975.44	1080.98
975.73	1076.01
976.03	1074.59
976.32	1071.43
976.61	1071.15
976.91	1073.02
977.20	1072.95
977.49	1073.11
977.79	1073.98
978.08	1072.08
978.37	1071.03
978.67	1072.62
978.96	1072.34
979.25	1070.35
979.55	1074.40
979.84	1071.94
980.13	1070.77
980.42	1071.73
980.72	1073.35
981.01	1071.54
981.30	1074.24
981.59	1076.72
981.89	1077.58
982.18	1079.17
982.47	1077.42
982.76	1074.94
983.06	1073.77
983.35	1071.29
983.64	1069.79
983.93	1070.16
984.22	1071.99
984.52	1071.29
984.81	1074.33
985.10	1074.94
985.39	1074.12
985.68	1075.59
985.97	1075.05
986.27	1073.02
986.56	1074.31
986.85	1077.72
987.14	1077.54
987.43	1078.45
987.72	1078.47
988.01	1074.19
988.31	1072.92
988.60	1073.91
988.89	1076.97
989.18	1075.17
989.47	1077.14
989.76	1076.72
990.05	1076.11
990.34	1075.34
990.63	1080.16
990.92	1080.06
991.21	1078.40
991.51	1076.81
991.80	1073.16
992.09	1068.01
992.38	1066.75
992.67	1068.03
992.96	1070.44
993.25	1075.64
993.54	1078.73
993.83	1081.35
994.12	1082.03
994.41	1080.23
994.70	1079.13
994.99	1076.27
995.28	1075.27
995.57	1077.21
995.86	1075.71
996.15	1073.39
996.44	1074.84
996.73	1075.94
997.02	1074.24
997.31	1076.30
997.59	1080.02
997.88	1081.63
998.17	1078.73
998.46	1078.87
998.75	1079.34
999.04	1076.37
999.33	1075.03
999.62	1075.08
999.91	1073.35
1000.20	1073.58
1000.49	1075.50
1000.77	1075.55
1001.06	1077.86
1001.35	1076.62
1001.64	1073.35
1001.93	1069.77
1002.22	1070.09
1002.51	1071.75
1002.79	1076.86
1003.08	1079.24
1003.37	1080.98
1003.66	1079.27
1003.95	1073.44
1004.23	1070.44
1004.52	1069.06
1004.81	1068.69
1005.10	1071.92
1005.39	1075.83
1005.67	1076.86
1005.96	1077.86
1006.25	1080.09
1006.54	1078.26
1006.83	1078.05
1007.11	1077.40
1007.40	1078.24
1007.69	1077.23
1007.97	1079.71
1008.26	1080.02
1008.55	1079.62
1008.84	1078.89
1009.12	1077.70
1009.41	1075.57
1009.70	1076.95
1009.98	1079.83
1010.27	1078.59
1010.56	1079.92
1010.85	1083.18
1011.13	1079.15
1011.42	1078.26
1011.71	1080.88
1011.99	1081.56
1012.28	1076.46
1012.56	1082.45
1012.85	1077.89
1013.14	1076.30
1013.42	1072.36
1013.71	1075.36
1014.00	1072.15
1014.28	1074.59
1014.57	1075.90
1014.85	1078.75
1015.14	1078.36
1015.43	1081.28
1015.71	1082.47
1016.00	1079.57
1016.28	1080.51
1016.57	1081.96
1016.85	1073.65
1017.14	1075.57
1017.43	1077.86
1017.71	1075.43
1018.00	1073.16
1018.28	1076.55
1018.57	1074.17
1018.85	1073.35
1019.14	1071.71
1019.42	1073.25
1019.71	1072.97
1019.99	1074.42
1020.28	1073.65
1020.56	1075.15
1020.85	1075.64
1021.13	1076.27
1021.42	1078.10
1021.70	1077.16
1021.99	1075.38
1022.27	1076.79
1022.55	1065.18
1022.84	1090.34
>>>>>End Processed Spectral Data<<<<<
