SpectraSuite Data File
++++++++++++++++++++++++++++++++++++
Date: Mon Aug 26 10:22:22 PDT 2019
User: corrico
Dark Spectrum Present: No
Reference Spectrum Present: No
Number of Sampled Component Spectra: 1
Spectrometers: USB2+H06089
Integration Time (usec): 2000 (USB2+H06089)
Spectra Averaged: 20 (USB2+H06089)
Boxcar Smoothing: 2 (USB2+H06089)
Correct for Electrical Dark: No (USB2+H06089)
Strobe/Lamp Enabled: No (USB2+H06089)
Correct for Detector Non-linearity: No (USB2+H06089)
Correct for Stray Light: No (USB2+H06089)
Number of Pixels in Processed Spectrum: 2048
>>>>>Begin Processed Spectral Data<<<<<
339.70	1032.29
340.07	1032.29
340.45	995.15
340.82	975.39
341.19	951.08
341.57	926.27
341.94	917.28
342.31	912.74
342.69	902.56
343.06	899.66
343.43	897.92
343.81	899.49
344.18	901.93
344.55	908.48
344.93	915.06
345.30	919.22
345.67	926.36
346.04	931.70
346.42	939.12
346.79	944.17
347.16	952.64
347.54	960.11
347.91	967.72
348.28	976.14
348.65	988.71
349.03	1001.07
349.40	1011.46
349.77	1020.45
350.14	1030.49
350.52	1035.97
350.89	1040.98
351.26	1045.96
351.63	1049.68
352.01	1054.48
352.38	1060.43
352.75	1065.62
353.12	1067.66
353.50	1072.15
353.87	1075.10
354.24	1077.28
354.61	1079.20
354.98	1084.51
355.36	1086.24
355.73	1088.30
356.10	1087.02
356.47	1087.30
356.84	1086.03
357.22	1083.93
357.59	1080.37
357.96	1080.16
358.33	1081.49
358.70	1080.58
359.08	1082.01
359.45	1085.59
359.82	1086.57
360.19	1084.70
360.56	1084.18
360.94	1083.83
361.31	1081.94
361.68	1080.51
362.05	1081.37
362.42	1080.56
362.79	1079.60
363.16	1079.06
363.54	1078.00
363.91	1075.27
364.28	1074.63
364.65	1075.45
365.02	1072.88
365.39	1075.36
365.76	1075.08
366.14	1073.56
366.51	1070.05
366.88	1073.04
367.25	1068.69
367.62	1069.27
367.99	1073.07
368.36	1074.84
368.73	1068.29
369.10	1070.09
369.48	1067.49
369.85	1062.74
370.22	1063.02
370.59	1068.76
370.96	1069.09
371.33	1069.86
371.70	1073.88
372.07	1074.61
372.44	1070.16
372.81	1070.23
373.18	1073.65
373.55	1072.74
373.93	1075.08
374.30	1077.70
374.67	1078.47
375.04	1078.17
375.41	1077.07
375.78	1074.82
376.15	1075.41
376.52	1077.25
376.89	1075.13
377.26	1078.54
377.63	1079.81
378.00	1081.07
378.37	1081.49
378.74	1082.83
379.11	1081.87
379.48	1083.13
379.85	1079.15
380.22	1075.50
380.59	1074.75
380.96	1073.60
381.33	1072.62
381.70	1073.79
382.07	1077.72
382.44	1079.24
382.81	1078.57
383.18	1079.48
383.55	1081.35
383.92	1079.10
384.29	1079.03
384.66	1081.33
385.03	1080.16
385.40	1081.14
385.77	1085.07
386.14	1085.56
386.51	1088.49
386.88	1086.41
387.25	1086.38
387.62	1081.87
387.99	1082.80
388.36	1081.23
388.73	1085.00
389.10	1085.28
389.46	1087.16
389.83	1084.39
390.20	1083.81
390.57	1081.68
390.94	1084.79
391.31	1083.88
391.68	1084.65
392.05	1082.31
392.42	1082.03
392.79	1080.23
393.16	1080.37
393.53	1083.29
393.89	1086.97
394.26	1087.37
394.63	1088.47
395.00	1086.50
395.37	1085.66
395.74	1083.71
396.11	1086.57
396.48	1084.51
396.84	1084.65
397.21	1085.05
397.58	1087.20
397.95	1088.33
398.32	1088.96
398.69	1093.47
399.06	1089.66
399.42	1088.93
399.79	1088.82
400.16	1090.55
400.53	1090.43
400.90	1093.17
401.27	1094.01
401.64	1091.11
402.00	1088.63
402.37	1087.62
402.74	1087.95
403.11	1088.40
403.48	1090.71
403.84	1093.50
404.21	1095.25
404.58	1093.31
404.95	1090.20
405.32	1091.42
405.68	1091.09
406.05	1089.38
406.42	1092.94
406.79	1093.55
407.16	1089.73
407.52	1089.61
407.89	1092.70
408.26	1091.93
408.63	1093.24
408.99	1095.51
409.36	1095.28
409.73	1094.34
410.10	1096.49
410.47	1095.42
410.83	1098.65
411.20	1101.46
411.57	1098.30
411.94	1097.38
412.30	1098.32
412.67	1095.00
413.04	1091.44
413.40	1094.74
413.77	1095.67
414.14	1098.32
414.51	1097.01
414.87	1097.55
415.24	1095.23
415.61	1093.90
415.97	1095.82
416.34	1099.21
416.71	1099.65
417.08	1105.51
417.44	1107.31
417.81	1103.87
418.18	1101.67
418.54	1104.38
418.91	1105.01
419.28	1107.42
419.64	1108.99
420.01	1113.81
420.38	1114.09
420.74	1113.56
421.11	1112.36
421.48	1115.01
421.84	1114.31
422.21	1118.40
422.58	1120.88
422.94	1127.67
423.31	1126.55
423.68	1132.07
424.04	1135.58
424.41	1135.91
424.77	1134.90
425.14	1143.87
425.51	1146.07
425.87	1150.63
426.24	1154.61
426.61	1159.85
426.97	1161.65
427.34	1166.10
427.70	1170.36
428.07	1177.66
428.44	1181.85
428.80	1192.67
429.17	1199.17
429.53	1206.57
429.90	1216.91
430.27	1229.95
430.63	1239.20
431.00	1249.92
431.36	1260.75
431.73	1269.86
432.09	1280.23
432.46	1294.78
432.83	1311.94
433.19	1326.33
433.56	1341.64
433.92	1363.76
434.29	1379.46
434.65	1403.53
435.02	1428.27
435.38	1459.46
435.75	1483.20
436.11	1517.09
436.48	1545.88
436.84	1579.14
437.21	1614.60
437.57	1652.28
437.94	1690.03
438.30	1729.75
438.67	1775.37
439.03	1817.96
439.40	1871.77
439.76	1926.49
440.13	1989.43
440.49	2049.77
440.86	2117.37
441.22	2185.08
441.59	2253.16
441.95	2329.58
442.32	2411.71
442.68	2507.93
443.05	2601.39
443.41	2699.27
443.78	2799.77
444.14	2906.69
444.51	3004.94
444.87	3136.36
445.24	3274.67
445.60	3423.29
445.96	3573.53
446.33	3739.19
446.69	3892.08
447.06	4065.72
447.42	4237.02
447.79	4420.48
448.15	4639.64
448.51	4868.85
448.88	5121.56
449.24	5362.03
449.61	5632.97
449.97	5897.42
450.33	6174.80
450.70	6428.40
451.06	6744.91
451.43	7050.61
451.79	7398.08
452.15	7783.50
452.52	8222.44
452.88	8670.33
453.24	9167.57
453.61	9725.16
453.97	10265.57
454.34	10778.07
454.70	11396.96
455.06	12038.80
455.43	12650.13
455.79	13232.80
456.15	13933.33
456.52	14587.76
456.88	15324.28
457.24	16023.66
457.61	16850.90
457.97	17602.40
458.33	18347.86
458.70	19087.70
459.06	19815.72
459.42	20622.81
459.79	21367.87
460.15	22226.10
460.51	23045.50
460.88	23937.69
461.24	24683.50
461.60	25592.75
461.96	26435.25
462.33	27250.67
462.69	28031.43
463.05	28886.61
463.42	29624.89
463.78	30245.74
464.14	30768.94
464.50	31331.63
464.87	31810.38
465.23	32145.29
465.59	32516.43
465.95	32862.34
466.32	33103.23
466.68	33285.65
467.04	33403.82
467.40	33527.12
467.77	33638.65
468.13	33648.62
468.49	33597.36
468.85	33565.18
469.22	33409.77
469.58	33091.95
469.94	32840.71
470.30	32505.03
470.66	32085.56
471.03	31512.43
471.39	31138.56
471.75	30542.63
472.11	29996.89
472.47	29645.76
472.84	29366.21
473.20	28892.23
473.56	28635.54
473.92	28220.89
474.28	27713.23
474.65	27202.53
475.01	26734.28
475.37	26154.60
475.73	25662.27
476.09	25146.86
476.45	24653.45
476.81	24163.36
477.18	23656.24
477.54	23245.15
477.90	22896.41
478.26	22481.20
478.62	22141.66
478.98	21855.83
479.34	21540.14
479.71	21143.37
480.07	20817.94
480.43	20483.17
480.79	20119.64
481.15	19778.16
481.51	19470.64
481.87	19218.05
482.23	18917.94
482.59	18645.06
482.96	18370.63
483.32	18100.74
483.68	17743.34
484.04	17431.54
484.40	17102.18
484.76	16766.24
485.12	16422.88
485.48	16117.89
485.84	15788.36
486.20	15461.46
486.56	15111.08
486.92	14796.23
487.28	14474.72
487.64	14123.35
488.00	13797.97
488.37	13484.48
488.73	13157.27
489.09	12808.86
489.45	12510.05
489.81	12216.24
490.17	11926.88
490.53	11648.61
490.89	11357.80
491.25	11066.01
491.61	10760.57
491.97	10454.35
492.33	10140.09
492.69	9859.32
493.05	9565.77
493.41	9287.53
493.77	9016.28
494.13	8754.49
494.49	8501.90
494.85	8268.57
495.21	8043.65
495.57	7829.33
495.93	7633.66
496.29	7438.13
496.64	7263.71
497.00	7074.34
497.36	6879.89
497.72	6678.98
498.08	6498.05
498.44	6314.04
498.80	6149.69
499.16	6000.13
499.52	5859.79
499.88	5734.50
500.24	5616.56
500.60	5491.88
500.96	5375.93
501.32	5265.41
501.68	5147.33
502.03	5027.05
502.39	4909.58
502.75	4780.87
503.11	4651.46
503.47	4529.47
503.83	4403.79
504.19	4287.18
504.55	4182.21
504.91	4087.35
505.26	3991.69
505.62	3918.74
505.98	3832.81
506.34	3743.10
506.70	3657.37
507.06	3572.45
507.42	3479.30
507.78	3401.50
508.13	3321.81
508.49	3244.15
508.85	3172.95
509.21	3102.22
509.57	3031.58
509.93	2970.28
510.28	2901.80
510.64	2838.25
511.00	2773.93
511.36	2717.29
511.72	2665.52
512.07	2619.67
512.43	2571.38
512.79	2525.88
513.15	2482.44
513.51	2440.69
513.86	2393.48
514.22	2350.76
514.58	2311.00
514.94	2269.01
515.30	2226.86
515.65	2197.46
516.01	2166.77
516.37	2132.74
516.73	2108.68
517.08	2084.46
517.44	2054.12
517.80	2028.68
518.16	2004.29
518.51	1973.28
518.87	1942.39
519.23	1916.36
519.59	1888.55
519.94	1865.38
520.30	1841.58
520.66	1817.64
521.01	1796.15
521.37	1777.40
521.73	1754.98
522.09	1734.95
522.44	1719.73
522.80	1702.22
523.16	1680.13
523.51	1661.73
523.87	1646.94
524.23	1628.31
524.58	1609.09
524.94	1594.09
525.30	1576.84
525.65	1557.09
526.01	1541.41
526.37	1525.51
526.72	1510.82
527.08	1500.31
527.44	1487.55
527.79	1471.87
528.15	1460.68
528.51	1448.28
528.86	1430.63
529.22	1419.02
529.58	1405.68
529.93	1397.51
530.29	1387.17
530.65	1379.39
531.00	1374.67
531.36	1371.58
531.71	1363.69
532.07	1355.26
532.43	1350.96
532.78	1341.74
533.14	1337.59
533.49	1329.07
533.85	1321.75
534.21	1315.50
534.56	1307.26
534.92	1294.39
535.27	1287.74
535.63	1283.99
535.98	1277.60
536.34	1272.17
536.69	1269.81
537.05	1264.69
537.41	1257.15
537.76	1251.13
538.12	1246.64
538.47	1237.89
538.83	1231.33
539.18	1231.24
539.54	1227.14
539.89	1223.14
540.25	1221.92
540.60	1220.47
540.96	1214.67
541.31	1209.35
541.67	1205.14
542.02	1204.39
542.38	1199.55
542.73	1194.82
543.09	1194.70
543.44	1193.16
543.80	1189.11
544.15	1185.32
544.51	1184.59
544.86	1183.05
545.22	1181.15
545.57	1178.76
545.93	1180.45
546.28	1179.79
546.64	1174.48
546.99	1169.17
547.35	1165.68
547.70	1161.68
548.05	1159.95
548.41	1156.13
548.76	1154.07
549.12	1152.04
549.47	1149.60
549.83	1147.49
550.18	1146.89
550.53	1146.28
550.89	1145.36
551.24	1144.87
551.60	1141.83
551.95	1140.26
552.30	1139.33
552.66	1139.40
553.01	1135.49
553.37	1133.05
553.72	1134.06
554.07	1131.88
554.43	1126.52
554.78	1128.19
555.13	1128.56
555.49	1127.69
555.84	1128.98
556.19	1131.74
556.55	1131.04
556.90	1127.23
557.26	1122.57
557.61	1119.99
557.96	1118.28
558.32	1115.52
558.67	1117.25
559.02	1118.12
559.37	1115.59
559.73	1113.95
560.08	1114.26
560.43	1110.91
560.79	1109.53
561.14	1111.15
561.49	1113.18
561.85	1111.24
562.20	1115.15
562.55	1114.70
562.90	1113.37
563.26	1112.22
563.61	1115.45
563.96	1112.90
564.32	1113.79
564.67	1115.43
565.02	1113.28
565.37	1110.35
565.73	1109.62
566.08	1107.40
566.43	1107.45
566.78	1108.03
567.14	1108.20
567.49	1109.51
567.84	1106.63
568.19	1104.12
568.54	1102.23
568.90	1102.67
569.25	1101.01
569.60	1104.64
569.95	1102.21
570.31	1100.10
570.66	1097.62
571.01	1095.51
571.36	1094.97
571.71	1095.14
572.06	1096.78
572.42	1094.08
572.77	1094.43
573.12	1093.19
573.47	1095.91
573.82	1095.30
574.18	1092.54
574.53	1089.68
574.88	1089.03
575.23	1088.44
575.58	1088.63
575.93	1094.39
576.28	1094.95
576.64	1098.20
576.99	1093.10
577.34	1093.36
577.69	1092.87
578.04	1093.33
578.39	1092.56
578.74	1098.53
579.09	1096.28
579.44	1092.98
579.80	1093.36
580.15	1091.13
580.50	1086.50
580.85	1088.12
581.20	1087.02
581.55	1084.67
581.90	1085.35
582.25	1085.73
582.60	1084.70
582.95	1088.82
583.30	1093.31
583.65	1093.36
584.00	1095.21
584.35	1096.73
584.71	1093.31
585.06	1090.13
585.41	1088.72
585.76	1086.97
586.11	1085.21
586.46	1084.16
586.81	1086.43
587.16	1086.80
587.51	1089.57
587.86	1093.83
588.21	1096.89
588.56	1094.27
588.91	1092.19
589.26	1090.43
589.61	1085.80
589.96	1085.80
590.31	1087.06
590.66	1086.43
591.01	1084.49
591.36	1083.86
591.71	1084.74
592.06	1085.35
592.41	1087.23
592.76	1088.33
593.10	1090.24
593.45	1087.58
593.80	1087.46
594.15	1088.44
594.50	1088.72
594.85	1088.61
595.20	1090.83
595.55	1092.23
595.90	1091.02
596.25	1093.73
596.60	1093.01
596.95	1093.59
597.30	1090.78
597.64	1101.13
597.99	1098.46
598.34	1098.30
598.69	1097.83
599.04	1098.44
599.39	1087.79
599.74	1088.00
600.09	1091.51
600.44	1089.94
600.78	1089.82
601.13	1089.24
601.48	1088.89
601.83	1085.21
602.18	1085.49
602.53	1086.36
602.88	1085.80
603.22	1084.53
603.57	1080.23
603.92	1078.66
604.27	1075.94
604.62	1079.50
604.97	1081.05
605.31	1085.80
605.66	1086.22
606.01	1088.28
606.36	1086.24
606.71	1086.13
607.05	1086.08
607.40	1085.24
607.75	1085.40
608.10	1085.70
608.44	1083.55
608.79	1083.62
609.14	1084.89
609.49	1083.90
609.84	1083.67
610.18	1086.24
610.53	1086.71
610.88	1088.00
611.23	1089.24
611.57	1087.44
611.92	1086.87
612.27	1086.36
612.62	1085.73
612.96	1084.07
613.31	1085.38
613.66	1085.40
614.00	1081.07
614.35	1080.20
614.70	1081.63
615.05	1083.25
615.39	1079.92
615.74	1084.74
616.09	1082.38
616.43	1081.16
616.78	1078.45
617.13	1082.19
617.47	1082.24
617.82	1084.04
618.17	1081.40
618.51	1079.92
618.86	1080.30
619.21	1076.67
619.55	1080.98
619.90	1084.09
620.25	1086.90
620.59	1084.21
620.94	1087.55
621.29	1085.80
621.63	1086.73
621.98	1087.13
622.32	1087.62
622.67	1088.00
623.02	1084.02
623.36	1080.70
623.71	1078.68
624.05	1078.96
624.40	1078.89
624.75	1081.91
625.09	1081.05
625.44	1082.03
625.78	1083.22
626.13	1081.09
626.48	1079.67
626.82	1084.67
627.17	1087.37
627.51	1086.73
627.86	1087.39
628.20	1086.13
628.55	1082.24
628.89	1082.05
629.24	1080.06
629.58	1078.03
629.93	1080.79
630.28	1084.72
630.62	1082.33
630.97	1083.34
631.31	1084.93
631.66	1081.77
632.00	1079.92
632.35	1082.36
632.69	1083.90
633.04	1084.23
633.38	1090.24
633.73	1089.40
634.07	1087.69
634.42	1089.22
634.76	1089.43
635.11	1086.13
635.45	1086.08
635.79	1086.69
636.14	1083.62
636.48	1083.60
636.83	1081.23
637.17	1082.57
637.52	1080.65
637.86	1082.69
638.21	1084.02
638.55	1089.07
638.89	1088.14
639.24	1084.30
639.58	1082.54
639.93	1080.27
640.27	1075.36
640.61	1073.86
640.96	1078.94
641.30	1079.36
641.65	1079.31
641.99	1081.19
642.33	1083.18
642.68	1080.95
643.02	1082.33
643.37	1084.58
643.71	1086.24
644.05	1087.18
644.40	1089.82
644.74	1088.33
645.08	1086.13
645.43	1083.15
645.77	1079.78
646.11	1079.97
646.46	1080.06
646.80	1082.97
647.14	1084.44
647.49	1087.44
647.83	1087.44
648.17	1086.90
648.52	1087.93
648.86	1089.19
649.20	1088.79
649.55	1086.29
649.89	1086.50
650.23	1084.21
650.57	1084.35
650.92	1084.09
651.26	1084.89
651.60	1087.51
651.95	1086.83
652.29	1084.18
652.63	1082.33
652.97	1080.23
653.32	1079.01
653.66	1080.23
654.00	1078.85
654.34	1081.37
654.69	1083.18
655.03	1083.95
655.37	1082.19
655.71	1086.01
656.05	1087.41
656.40	1087.23
656.74	1082.78
657.08	1083.69
657.42	1080.30
657.76	1075.10
658.11	1076.53
658.45	1078.75
658.79	1078.43
659.13	1079.29
659.47	1084.98
659.82	1083.41
660.16	1082.15
660.50	1082.40
660.84	1082.43
661.18	1079.64
661.52	1079.74
661.87	1082.10
662.21	1078.31
662.55	1077.63
662.89	1075.62
663.23	1079.17
663.57	1077.02
663.91	1081.58
664.25	1084.32
664.60	1086.03
664.94	1080.72
665.28	1081.87
665.62	1080.06
665.96	1077.65
666.30	1077.84
666.64	1078.40
666.98	1078.52
667.32	1079.90
667.66	1083.20
668.01	1082.83
668.35	1086.10
668.69	1084.53
669.03	1083.88
669.37	1080.77
669.71	1083.69
670.05	1081.89
670.39	1081.66
670.73	1082.97
671.07	1085.21
671.41	1085.00
671.75	1082.85
672.09	1084.02
672.43	1082.97
672.77	1081.51
673.11	1078.14
673.45	1079.85
673.79	1080.70
674.13	1083.53
674.47	1084.39
674.81	1087.79
675.15	1087.55
675.49	1086.94
675.83	1081.89
676.17	1084.16
676.51	1081.07
676.85	1079.81
677.19	1078.52
677.53	1083.53
677.87	1080.46
678.21	1078.31
678.55	1078.17
678.89	1080.11
679.23	1078.05
679.57	1079.88
679.90	1081.56
680.24	1085.91
680.58	1084.25
680.92	1086.76
681.26	1084.98
681.60	1084.60
681.94	1081.26
682.28	1082.61
682.62	1079.24
682.96	1079.13
683.29	1077.72
683.63	1079.13
683.97	1077.02
684.31	1072.69
684.65	1071.19
684.99	1075.10
685.33	1073.95
685.67	1076.81
686.00	1083.50
686.34	1083.95
686.68	1083.74
687.02	1082.85
687.36	1084.44
687.70	1081.47
688.03	1079.36
688.37	1081.30
688.71	1083.81
689.05	1079.36
689.39	1077.75
689.72	1079.95
690.06	1077.89
690.40	1078.64
690.74	1079.97
691.08	1083.83
691.41	1085.38
691.75	1086.73
692.09	1084.65
692.43	1084.42
692.76	1081.51
693.10	1082.15
693.44	1078.50
693.78	1077.44
694.11	1076.81
694.45	1077.79
694.79	1076.34
695.13	1075.92
695.46	1078.73
695.80	1080.32
696.14	1077.49
696.48	1078.12
696.81	1079.55
697.15	1079.78
697.49	1080.16
697.82	1082.26
698.16	1082.36
698.50	1082.99
698.83	1080.98
699.17	1080.37
699.51	1080.65
699.84	1077.51
700.18	1080.72
700.52	1085.10
700.85	1088.89
701.19	1088.86
701.53	1090.43
701.86	1084.60
702.20	1083.79
702.54	1077.63
702.87	1079.60
703.21	1079.67
703.55	1080.27
703.88	1077.54
704.22	1078.92
704.55	1075.50
704.89	1078.26
705.23	1078.78
705.56	1081.75
705.90	1083.11
706.23	1083.83
706.57	1083.41
706.91	1086.34
707.24	1082.71
707.58	1082.08
707.91	1082.97
708.25	1079.81
708.58	1075.73
708.92	1077.70
709.26	1076.01
709.59	1077.18
709.93	1081.61
710.26	1084.14
710.60	1082.59
710.93	1082.47
711.27	1079.34
711.60	1076.41
711.94	1077.35
712.27	1078.45
712.61	1078.03
712.94	1078.14
713.28	1079.57
713.61	1077.68
713.95	1077.68
714.28	1080.18
714.62	1081.68
714.95	1077.56
715.29	1076.58
715.62	1077.04
715.96	1077.21
716.29	1076.95
716.63	1079.24
716.96	1079.71
717.29	1078.12
717.63	1077.00
717.96	1078.85
718.30	1078.78
718.63	1077.68
718.97	1076.65
719.30	1081.09
719.63	1079.67
719.97	1080.30
720.30	1081.26
720.64	1083.11
720.97	1080.95
721.30	1079.99
721.64	1078.26
721.97	1078.28
722.31	1079.17
722.64	1078.96
722.97	1079.17
723.31	1081.66
723.64	1080.16
723.97	1079.15
724.31	1077.18
724.64	1081.40
724.98	1081.33
725.31	1085.33
725.64	1082.50
725.98	1084.39
726.31	1081.87
726.64	1079.01
726.97	1078.80
727.31	1082.31
727.64	1080.32
727.97	1077.16
728.31	1077.51
728.64	1074.19
728.97	1071.80
729.31	1073.28
729.64	1073.60
729.97	1073.60
730.30	1074.47
730.64	1073.63
730.97	1073.04
731.30	1077.51
731.63	1080.23
731.97	1080.04
732.30	1081.77
732.63	1082.05
732.96	1079.10
733.30	1078.19
733.63	1079.53
733.96	1079.76
734.29	1078.10
734.63	1076.97
734.96	1077.98
735.29	1077.40
735.62	1076.65
735.95	1078.92
736.29	1078.66
736.62	1073.56
736.95	1074.10
737.28	1076.53
737.61	1075.34
737.94	1079.99
738.28	1082.78
738.61	1083.04
738.94	1082.33
739.27	1085.05
739.60	1083.48
739.93	1081.16
740.27	1082.54
740.60	1081.73
740.93	1080.86
741.26	1081.33
741.59	1087.83
741.92	1087.04
742.25	1086.85
742.58	1087.16
742.91	1088.16
743.25	1084.77
743.58	1082.92
743.91	1081.49
744.24	1080.25
744.57	1075.78
744.90	1077.79
745.23	1076.25
745.56	1075.43
745.89	1076.65
746.22	1076.72
746.55	1074.68
746.88	1078.28
747.21	1076.32
747.54	1075.90
747.87	1078.03
748.20	1076.72
748.53	1078.21
748.87	1080.67
749.20	1077.61
749.53	1076.93
749.86	1078.57
750.19	1077.51
750.52	1076.74
750.85	1078.75
751.18	1079.06
751.51	1078.73
751.84	1076.46
752.16	1079.08
752.49	1078.50
752.82	1079.22
753.15	1080.60
753.48	1082.24
753.81	1079.43
754.14	1077.79
754.47	1074.84
754.80	1070.70
755.13	1070.33
755.46	1071.40
755.79	1074.12
756.12	1077.14
756.45	1079.48
756.78	1078.61
757.11	1082.85
757.43	1083.86
757.76	1078.94
758.09	1079.17
758.42	1078.92
758.75	1076.51
759.08	1074.82
759.41	1076.97
759.74	1079.08
760.07	1079.64
760.39	1077.65
760.72	1077.70
761.05	1077.54
761.38	1078.17
761.71	1080.30
762.04	1080.16
762.36	1082.64
762.69	1084.70
763.02	1079.67
763.35	1077.58
763.68	1076.25
764.01	1073.70
764.33	1075.94
764.66	1079.24
764.99	1080.56
765.32	1081.80
765.65	1080.58
765.97	1076.90
766.30	1075.97
766.63	1073.60
766.96	1073.51
767.28	1074.42
767.61	1075.76
767.94	1077.75
768.27	1076.95
768.59	1079.17
768.92	1077.11
769.25	1076.20
769.58	1073.51
769.90	1074.52
770.23	1075.24
770.56	1077.84
770.89	1075.99
771.21	1079.64
771.54	1080.18
771.87	1077.91
772.19	1078.64
772.52	1082.71
772.85	1079.34
773.17	1080.63
773.50	1081.91
773.83	1080.98
774.15	1082.87
774.48	1082.15
774.81	1079.97
775.13	1078.80
775.46	1078.82
775.79	1075.50
776.11	1075.76
776.44	1075.64
776.77	1075.57
777.09	1074.63
777.42	1074.10
777.74	1072.46
778.07	1076.79
778.40	1077.61
778.72	1078.05
779.05	1079.50
779.37	1082.57
779.70	1078.36
780.03	1075.87
780.35	1075.10
780.68	1076.32
781.00	1076.88
781.33	1077.42
781.65	1081.16
781.98	1085.35
782.31	1081.16
782.63	1078.94
782.96	1078.68
783.28	1077.25
783.61	1072.60
783.93	1075.94
784.26	1076.39
784.58	1077.16
784.91	1078.96
785.23	1079.90
785.56	1077.75
785.88	1078.89
786.21	1082.26
786.53	1080.86
786.86	1079.17
787.18	1077.98
787.51	1079.13
787.83	1074.45
788.16	1073.60
788.48	1073.00
788.81	1073.84
789.13	1073.46
789.46	1075.90
789.78	1078.82
790.10	1081.14
790.43	1083.41
790.75	1084.18
791.08	1085.42
791.40	1085.24
791.73	1089.12
792.05	1087.62
792.37	1086.64
792.70	1083.01
793.02	1081.75
793.35	1077.89
793.67	1076.58
793.99	1074.35
794.32	1075.52
794.64	1074.10
794.96	1076.81
795.29	1077.65
795.61	1077.16
795.93	1076.51
796.26	1078.38
796.58	1077.63
796.91	1077.28
797.23	1078.96
797.55	1078.14
797.87	1076.86
798.20	1076.65
798.52	1079.15
798.84	1079.57
799.17	1081.30
799.49	1081.56
799.81	1076.46
800.14	1074.52
800.46	1073.42
800.78	1073.60
801.10	1072.97
801.43	1079.31
801.75	1079.97
802.07	1078.50
802.40	1077.33
802.72	1074.47
803.04	1072.74
803.36	1071.64
803.69	1072.15
804.01	1072.01
804.33	1074.19
804.65	1074.82
804.97	1075.57
805.30	1077.42
805.62	1076.90
805.94	1077.63
806.26	1074.40
806.58	1074.24
806.91	1072.55
807.23	1075.50
807.55	1071.66
807.87	1072.32
808.19	1073.67
808.52	1075.99
808.84	1077.04
809.16	1082.61
809.48	1082.90
809.80	1083.04
810.12	1083.55
810.44	1079.95
810.77	1075.45
811.09	1078.19
811.41	1077.79
811.73	1075.27
812.05	1075.27
812.37	1078.54
812.69	1079.38
813.01	1076.93
813.33	1078.21
813.66	1078.57
813.98	1078.73
814.30	1077.47
814.62	1081.44
814.94	1080.65
815.26	1082.50
815.58	1082.05
815.90	1082.54
816.22	1080.56
816.54	1081.05
816.86	1080.60
817.18	1079.50
817.50	1078.43
817.82	1078.21
818.14	1078.36
818.46	1077.91
818.78	1077.72
819.10	1078.78
819.42	1079.10
819.74	1079.60
820.06	1078.17
820.38	1080.02
820.70	1075.94
821.02	1073.74
821.34	1071.47
821.66	1073.49
821.98	1071.66
822.30	1073.18
822.62	1074.68
822.94	1076.44
823.26	1075.48
823.58	1078.57
823.90	1075.20
824.22	1074.17
824.54	1074.59
824.86	1074.45
825.18	1072.01
825.50	1075.01
825.81	1079.57
826.13	1078.10
826.45	1081.89
826.77	1081.61
827.09	1082.47
827.41	1078.87
827.73	1080.32
828.05	1077.56
828.36	1077.70
828.68	1077.98
829.00	1075.85
829.32	1075.41
829.64	1072.71
829.96	1074.75
830.28	1075.08
830.59	1077.72
830.91	1077.61
831.23	1080.16
831.55	1078.82
831.87	1078.40
832.19	1077.72
832.50	1080.18
832.82	1082.43
833.14	1082.12
833.46	1084.04
833.78	1087.25
834.09	1084.21
834.41	1082.69
834.73	1083.81
835.05	1080.56
835.36	1078.82
835.68	1079.83
836.00	1078.52
836.32	1078.73
836.63	1074.75
836.95	1074.05
837.27	1074.40
837.59	1078.78
837.90	1079.78
838.22	1085.68
838.54	1085.31
838.85	1086.24
839.17	1081.49
839.49	1079.29
839.80	1078.03
840.12	1079.99
840.44	1081.33
840.76	1082.17
841.07	1078.82
841.39	1078.38
841.71	1075.71
842.02	1071.59
842.34	1072.27
842.65	1080.93
842.97	1081.00
843.29	1079.64
843.60	1080.41
843.92	1080.58
844.24	1073.63
844.55	1072.55
844.87	1075.80
845.18	1079.15
845.50	1078.19
845.82	1078.28
846.13	1078.64
846.45	1076.20
846.76	1076.06
847.08	1074.89
847.40	1077.96
847.71	1078.64
848.03	1081.77
848.34	1079.46
848.66	1081.07
848.97	1080.23
849.29	1080.58
849.60	1078.73
849.92	1077.00
850.24	1077.42
850.55	1076.81
850.87	1075.87
851.18	1075.59
851.50	1077.14
851.81	1075.71
852.13	1074.91
852.44	1074.89
852.76	1076.48
853.07	1078.57
853.39	1079.81
853.70	1079.50
854.01	1080.72
854.33	1080.41
854.64	1078.24
854.96	1078.73
855.27	1081.98
855.59	1082.47
855.90	1078.87
856.22	1076.76
856.53	1076.67
856.84	1077.82
857.16	1076.65
857.47	1082.01
857.79	1084.98
858.10	1082.61
858.41	1080.72
858.73	1079.88
859.04	1078.99
859.36	1077.61
859.67	1078.47
859.98	1077.11
860.30	1079.55
860.61	1078.66
860.92	1079.64
861.24	1079.06
861.55	1080.04
861.87	1078.47
862.18	1076.95
862.49	1076.90
862.81	1078.80
863.12	1078.40
863.43	1079.46
863.74	1081.00
864.06	1078.36
864.37	1078.57
864.68	1078.00
865.00	1078.78
865.31	1077.35
865.62	1077.77
865.94	1077.25
866.25	1076.04
866.56	1074.35
866.87	1075.03
867.19	1076.81
867.50	1075.43
867.81	1078.45
868.12	1079.01
868.44	1080.98
868.75	1080.34
869.06	1082.15
869.37	1080.67
869.68	1079.36
870.00	1075.80
870.31	1074.80
870.62	1071.08
870.93	1072.48
871.24	1074.66
871.56	1076.97
871.87	1077.86
872.18	1081.14
872.49	1081.00
872.80	1082.54
873.12	1082.92
873.43	1083.88
873.74	1084.93
874.05	1082.50
874.36	1080.56
874.67	1077.72
874.98	1077.86
875.29	1076.25
875.61	1076.53
875.92	1076.81
876.23	1077.54
876.54	1077.28
876.85	1078.24
877.16	1081.56
877.47	1079.55
877.78	1079.64
878.09	1080.86
878.40	1079.85
878.72	1080.41
879.03	1080.86
879.34	1081.00
879.65	1077.21
879.96	1077.37
880.27	1074.31
880.58	1074.54
880.89	1077.42
881.20	1080.30
881.51	1080.74
881.82	1080.70
882.13	1081.23
882.44	1078.92
882.75	1078.66
883.06	1079.81
883.37	1083.11
883.68	1083.90
883.99	1083.32
884.30	1084.18
884.61	1081.54
884.92	1074.40
885.23	1075.20
885.54	1071.22
885.85	1071.73
886.16	1073.44
886.47	1077.09
886.78	1075.78
887.08	1082.87
887.39	1079.85
887.70	1079.57
888.01	1080.09
888.32	1082.10
888.63	1078.05
888.94	1079.99
889.25	1078.87
889.56	1079.31
889.87	1077.56
890.17	1077.79
890.48	1077.79
890.79	1078.33
891.10	1072.46
891.41	1071.54
891.72	1073.72
892.03	1075.52
892.34	1076.62
892.64	1083.06
892.95	1087.02
893.26	1086.31
893.57	1085.47
893.88	1083.46
894.18	1082.10
894.49	1077.82
894.80	1076.60
895.11	1075.27
895.42	1078.31
895.72	1077.33
896.03	1078.59
896.34	1080.63
896.65	1080.27
896.96	1077.91
897.26	1080.39
897.57	1078.28
897.88	1076.32
898.19	1075.55
898.49	1077.82
898.80	1077.00
899.11	1080.81
899.41	1079.67
899.72	1079.76
900.03	1074.24
900.34	1071.61
900.64	1068.45
900.95	1068.50
901.26	1069.06
901.56	1070.72
901.87	1072.55
902.18	1072.57
902.48	1076.39
902.79	1077.04
903.10	1079.01
903.40	1079.06
903.71	1080.51
904.02	1080.84
904.32	1080.34
904.63	1077.58
904.94	1077.51
905.24	1080.44
905.55	1080.60
905.85	1083.06
906.16	1087.41
906.47	1087.97
906.77	1085.63
907.08	1083.79
907.38	1083.97
907.69	1082.50
908.00	1083.36
908.30	1082.31
908.61	1082.76
908.91	1079.48
909.22	1076.04
909.52	1075.97
909.83	1073.93
910.14	1073.46
910.44	1076.60
910.75	1076.74
911.05	1075.59
911.36	1078.57
911.66	1078.80
911.97	1079.22
912.27	1083.25
912.58	1085.14
912.88	1084.16
913.19	1084.16
913.49	1080.79
913.80	1079.03
914.10	1078.00
914.41	1079.29
914.71	1079.97
915.01	1080.53
915.32	1083.41
915.62	1078.14
915.93	1080.88
916.23	1080.02
916.54	1081.63
916.84	1078.33
917.15	1083.32
917.45	1079.53
917.75	1078.75
918.06	1076.04
918.36	1077.07
918.67	1075.97
918.97	1077.21
919.27	1077.93
919.58	1081.51
919.88	1083.64
920.18	1086.34
920.49	1084.74
920.79	1084.42
921.10	1084.84
921.40	1081.63
921.70	1079.69
922.01	1080.18
922.31	1082.03
922.61	1081.77
922.92	1083.83
923.22	1084.30
923.52	1084.58
923.82	1081.80
924.13	1079.67
924.43	1078.66
924.73	1076.27
925.04	1073.98
925.34	1074.05
925.64	1073.98
925.94	1075.08
926.25	1078.12
926.55	1079.88
926.85	1081.63
927.15	1080.04
927.46	1079.92
927.76	1078.47
928.06	1080.20
928.36	1078.85
928.67	1079.62
928.97	1080.34
929.27	1080.95
929.57	1081.26
929.87	1082.31
930.18	1084.16
930.48	1082.50
930.78	1082.12
931.08	1081.21
931.38	1079.57
931.69	1078.17
931.99	1077.51
932.29	1075.50
932.59	1075.27
932.89	1077.04
933.19	1080.18
933.49	1080.20
933.80	1082.80
934.10	1082.83
934.40	1082.66
934.70	1079.22
935.00	1079.69
935.30	1082.31
935.60	1082.38
935.90	1082.36
936.20	1083.22
936.50	1084.00
936.81	1081.26
937.11	1079.78
937.41	1079.53
937.71	1080.20
938.01	1078.71
938.31	1078.47
938.61	1079.01
938.91	1081.63
939.21	1081.02
939.51	1080.88
939.81	1077.72
940.11	1079.34
940.41	1075.36
940.71	1074.47
941.01	1077.42
941.31	1082.97
941.61	1082.83
941.91	1083.81
942.21	1082.69
942.51	1077.58
942.81	1073.09
943.11	1070.96
943.41	1068.10
943.71	1072.34
944.01	1073.16
944.31	1072.67
944.61	1072.97
944.90	1075.27
945.20	1070.26
945.50	1073.49
945.80	1076.76
946.10	1077.82
946.40	1078.52
946.70	1080.13
947.00	1080.23
947.30	1078.87
947.60	1078.82
947.89	1080.27
948.19	1078.92
948.49	1077.23
948.79	1078.85
949.09	1078.50
949.39	1077.23
949.69	1079.24
949.98	1080.91
950.28	1079.71
950.58	1079.38
950.88	1078.33
951.18	1078.28
951.48	1078.05
951.77	1075.69
952.07	1074.45
952.37	1077.84
952.67	1080.84
952.97	1080.18
953.26	1083.62
953.56	1082.87
953.86	1081.58
954.16	1079.01
954.45	1077.04
954.75	1075.62
955.05	1078.28
955.35	1074.52
955.64	1074.35
955.94	1077.37
956.24	1078.36
956.54	1078.68
956.83	1078.61
957.13	1077.58
957.43	1074.59
957.72	1074.07
958.02	1070.42
958.32	1073.39
958.61	1072.53
958.91	1071.80
959.21	1071.22
959.50	1073.98
959.80	1071.45
960.10	1070.89
960.39	1072.41
960.69	1071.33
960.99	1072.46
961.28	1074.89
961.58	1079.13
961.87	1079.13
962.17	1078.47
962.47	1076.97
962.76	1075.97
963.06	1071.47
963.36	1072.01
963.65	1076.20
963.95	1074.49
964.24	1076.55
964.54	1077.61
964.83	1078.47
965.13	1076.95
965.42	1078.05
965.72	1074.84
966.02	1077.58
966.31	1077.28
966.61	1076.90
966.90	1076.86
967.20	1079.90
967.49	1078.99
967.79	1079.95
968.08	1080.77
968.38	1082.24
968.67	1083.62
968.97	1085.40
969.26	1084.44
969.56	1084.11
969.85	1081.70
970.15	1078.89
970.44	1076.23
970.74	1076.79
971.03	1075.03
971.32	1074.96
971.62	1075.64
971.91	1077.28
972.21	1077.35
972.50	1078.50
972.80	1081.00
973.09	1081.05
973.38	1080.48
973.68	1078.99
973.97	1077.96
974.27	1076.60
974.56	1076.20
974.85	1071.54
975.15	1076.34
975.44	1080.34
975.73	1080.67
976.03	1081.98
976.32	1084.72
976.61	1079.64
976.91	1076.11
977.20	1078.73
977.49	1078.78
977.79	1082.31
978.08	1083.79
978.37	1080.67
978.67	1077.96
978.96	1076.58
979.25	1075.45
979.55	1077.96
979.84	1083.46
980.13	1084.14
980.42	1082.59
980.72	1080.81
981.01	1075.92
981.30	1076.01
981.59	1074.21
981.89	1074.82
982.18	1075.36
982.47	1077.49
982.76	1075.17
983.06	1075.48
983.35	1073.02
983.64	1070.47
983.93	1069.58
984.22	1068.97
984.52	1072.36
984.81	1072.95
985.10	1075.57
985.39	1076.81
985.68	1078.03
985.97	1074.28
986.27	1076.58
986.56	1077.75
986.85	1078.40
987.14	1079.95
987.43	1083.43
987.72	1082.40
988.01	1082.19
988.31	1081.84
988.60	1080.41
988.89	1076.30
989.18	1075.80
989.47	1075.80
989.76	1076.06
990.05	1075.76
990.34	1079.95
990.63	1083.74
990.92	1083.79
991.21	1085.45
991.51	1084.81
991.80	1083.71
992.09	1082.19
992.38	1081.40
992.67	1077.09
992.96	1078.78
993.25	1077.23
993.54	1076.86
993.83	1077.37
994.12	1080.18
994.41	1080.13
994.70	1082.31
994.99	1082.66
995.28	1081.40
995.57	1078.57
995.86	1076.18
996.15	1073.74
996.44	1072.15
996.73	1071.57
997.02	1074.66
997.31	1078.75
997.59	1078.68
997.88	1078.75
998.17	1081.63
998.46	1079.38
998.75	1078.28
999.04	1078.57
999.33	1081.19
999.62	1081.07
999.91	1081.91
1000.20	1079.53
1000.49	1081.49
1000.77	1080.34
1001.06	1077.09
1001.35	1078.40
1001.64	1080.11
1001.93	1080.16
1002.22	1078.07
1002.51	1081.75
1002.79	1082.78
1003.08	1080.34
1003.37	1079.55
1003.66	1081.49
1003.95	1079.90
1004.23	1077.09
1004.52	1080.44
1004.81	1077.86
1005.10	1075.57
1005.39	1075.01
1005.67	1076.13
1005.96	1075.29
1006.25	1079.38
1006.54	1081.44
1006.83	1081.35
1007.11	1081.87
1007.40	1080.44
1007.69	1078.96
1007.97	1078.28
1008.26	1077.18
1008.55	1074.54
1008.84	1076.55
1009.12	1078.64
1009.41	1079.48
1009.70	1082.45
1009.98	1083.79
1010.27	1079.62
1010.56	1075.20
1010.85	1072.95
1011.13	1072.01
1011.42	1071.92
1011.71	1075.85
1011.99	1078.68
1012.28	1080.27
1012.56	1080.48
1012.85	1079.69
1013.14	1076.90
1013.42	1076.06
1013.71	1077.28
1014.00	1078.57
1014.28	1078.94
1014.57	1078.54
1014.85	1077.63
1015.14	1077.91
1015.43	1073.93
1015.71	1074.80
1016.00	1078.89
1016.28	1081.66
1016.57	1080.51
1016.85	1083.06
1017.14	1081.37
1017.43	1080.09
1017.71	1077.42
1018.00	1076.44
1018.28	1074.73
1018.57	1077.35
1018.85	1077.51
1019.14	1079.88
1019.42	1081.12
1019.71	1083.64
1019.99	1082.29
1020.28	1081.35
1020.56	1079.31
1020.85	1079.24
1021.13	1079.78
1021.42	1081.05
1021.70	1079.78
1021.99	1079.97
1022.27	1080.65
1022.55	1076.76
1022.84	1081.44
>>>>>End Processed Spectral Data<<<<<
