SpectraSuite Data File
++++++++++++++++++++++++++++++++++++
Date: Mon Aug 26 10:22:02 PDT 2019
User: corrico
Dark Spectrum Present: No
Reference Spectrum Present: No
Number of Sampled Component Spectra: 1
Spectrometers: USB2+H06089
Integration Time (usec): 2000 (USB2+H06089)
Spectra Averaged: 20 (USB2+H06089)
Boxcar Smoothing: 2 (USB2+H06089)
Correct for Electrical Dark: No (USB2+H06089)
Strobe/Lamp Enabled: No (USB2+H06089)
Correct for Detector Non-linearity: No (USB2+H06089)
Correct for Stray Light: No (USB2+H06089)
Number of Pixels in Processed Spectrum: 2048
>>>>>Begin Processed Spectral Data<<<<<
339.70	1021.29
340.07	1021.29
340.45	993.37
340.82	972.12
341.19	951.78
341.57	927.25
341.94	913.21
342.31	902.60
342.69	896.26
343.06	890.57
343.43	889.64
343.81	890.83
344.18	896.80
344.55	905.27
344.93	911.43
345.30	919.22
345.67	925.59
346.04	932.87
346.42	938.23
346.79	947.12
347.16	952.36
347.54	961.23
347.91	967.11
348.28	978.02
348.65	985.41
349.03	998.24
349.40	1010.97
349.77	1022.35
350.14	1028.97
350.52	1039.50
350.89	1045.77
351.26	1049.15
351.63	1053.73
352.01	1059.14
352.38	1064.22
352.75	1066.54
353.12	1073.32
353.50	1074.89
353.87	1077.44
354.24	1078.43
354.61	1078.12
354.98	1077.35
355.36	1078.24
355.73	1079.81
356.10	1078.73
356.47	1082.45
356.84	1082.22
357.22	1083.11
357.59	1080.67
357.96	1083.48
358.33	1084.04
358.70	1081.54
359.08	1079.03
359.45	1078.24
359.82	1073.32
360.19	1071.80
360.56	1073.88
360.94	1074.98
361.31	1077.16
361.68	1081.70
362.05	1082.97
362.42	1081.61
362.79	1084.60
363.16	1082.64
363.54	1077.58
363.91	1075.17
364.28	1078.82
364.65	1075.36
365.02	1077.47
365.39	1080.04
365.76	1078.45
366.14	1074.59
366.51	1072.76
366.88	1072.48
367.25	1068.08
367.62	1069.25
367.99	1070.40
368.36	1075.71
368.73	1071.22
369.10	1073.42
369.48	1074.91
369.85	1073.39
370.22	1070.82
370.59	1073.21
370.96	1075.69
371.33	1075.50
371.70	1077.07
372.07	1076.74
372.44	1076.32
372.81	1075.43
373.18	1075.45
373.55	1073.91
373.93	1071.31
374.30	1073.00
374.67	1072.29
375.04	1073.23
375.41	1075.08
375.78	1076.65
376.15	1074.87
376.52	1072.81
376.89	1072.78
377.26	1071.38
377.63	1071.78
378.00	1073.79
378.37	1078.61
378.74	1079.10
379.11	1082.38
379.48	1082.10
379.85	1081.75
380.22	1080.53
380.59	1079.46
380.96	1077.96
381.33	1080.09
381.70	1079.22
382.07	1075.87
382.44	1075.57
382.81	1076.44
383.18	1076.51
383.55	1078.10
383.92	1083.46
384.29	1082.73
384.66	1082.76
385.03	1081.73
385.40	1082.19
385.77	1080.48
386.14	1079.88
386.51	1077.21
386.88	1076.62
387.25	1074.45
387.62	1073.95
387.99	1077.89
388.36	1079.15
388.73	1079.62
389.10	1082.94
389.46	1083.46
389.83	1081.12
390.20	1083.50
390.57	1087.20
390.94	1085.80
391.31	1084.39
391.68	1085.96
392.05	1088.61
392.42	1085.31
392.79	1086.38
393.16	1087.97
393.53	1087.34
393.89	1083.39
394.26	1085.96
394.63	1084.74
395.00	1084.93
395.37	1087.18
395.74	1089.68
396.11	1089.07
396.48	1090.83
396.84	1090.92
397.21	1088.68
397.58	1087.23
397.95	1086.15
398.32	1088.42
398.69	1086.27
399.06	1086.76
399.42	1085.59
399.79	1088.04
400.16	1083.11
400.53	1085.07
400.90	1085.77
401.27	1087.83
401.64	1085.63
402.00	1090.03
402.37	1089.19
402.74	1089.54
403.11	1091.91
403.48	1089.82
403.84	1087.69
404.21	1089.66
404.58	1089.75
404.95	1087.79
405.32	1089.75
405.68	1093.33
406.05	1093.22
406.42	1092.52
406.79	1091.37
407.16	1091.93
407.52	1089.78
407.89	1089.75
408.26	1091.30
408.63	1090.53
408.99	1091.04
409.36	1093.52
409.73	1093.78
410.10	1093.31
410.47	1094.04
410.83	1096.63
411.20	1094.01
411.57	1094.69
411.94	1096.40
412.30	1097.62
412.67	1097.27
413.04	1097.80
413.40	1099.68
413.77	1097.13
414.14	1099.35
414.51	1101.18
414.87	1100.57
415.24	1099.82
415.61	1099.58
415.97	1097.57
416.34	1096.05
416.71	1097.08
417.08	1096.63
417.44	1101.36
417.81	1102.79
418.18	1102.13
418.54	1103.70
418.91	1105.86
419.28	1104.10
419.64	1104.80
420.01	1105.25
420.38	1107.85
420.74	1108.34
421.11	1112.74
421.48	1116.37
421.84	1121.26
422.21	1122.43
422.58	1125.26
422.94	1126.27
423.31	1126.08
423.68	1129.68
424.04	1131.09
424.41	1131.18
424.77	1133.71
425.14	1140.00
425.51	1142.28
425.87	1146.58
426.24	1152.41
426.61	1156.46
426.97	1164.04
427.34	1167.55
427.70	1173.59
428.07	1178.37
428.44	1185.41
428.80	1188.59
429.17	1199.81
429.53	1209.73
429.90	1220.10
430.27	1229.76
430.63	1239.24
431.00	1247.46
431.36	1258.15
431.73	1271.85
432.09	1283.36
432.46	1298.90
432.83	1319.01
433.19	1334.50
433.56	1355.61
433.92	1376.68
434.29	1398.26
434.65	1415.98
435.02	1438.52
435.38	1459.93
435.75	1488.63
436.11	1516.57
436.48	1551.03
436.84	1587.42
437.21	1625.69
437.57	1660.17
437.94	1700.63
438.30	1739.25
438.67	1784.45
439.03	1832.73
439.40	1889.73
439.76	1944.19
440.13	2009.44
440.49	2074.96
440.86	2141.87
441.22	2216.51
441.59	2293.72
441.95	2375.01
442.32	2458.69
442.68	2554.69
443.05	2649.49
443.41	2749.50
443.78	2852.01
444.14	2967.89
444.51	3082.70
444.87	3218.66
445.24	3358.60
445.60	3499.55
445.96	3642.32
446.33	3806.55
446.69	3958.81
447.06	4134.65
447.42	4328.56
447.79	4531.21
448.15	4745.30
448.51	4975.25
448.88	5220.38
449.24	5452.84
449.61	5730.17
449.97	6029.59
450.33	6335.46
450.70	6638.65
451.06	7006.98
451.43	7349.75
451.79	7725.10
452.15	8122.97
452.52	8547.80
452.88	8988.08
453.24	9479.31
453.61	10002.09
453.97	10543.58
454.34	11080.77
454.70	11686.97
455.06	12291.32
455.43	12876.36
455.79	13437.65
456.15	14129.58
456.52	14795.46
456.88	15610.41
457.24	16419.14
457.61	17338.13
457.97	18181.68
458.33	19051.28
458.70	19896.31
459.06	20724.69
459.42	21613.19
459.79	22406.51
460.15	23293.25
460.51	24066.72
460.88	24867.21
461.24	25593.57
461.60	26459.52
461.96	27223.52
462.33	27998.66
462.69	28808.39
463.05	29690.98
463.42	30542.54
463.78	31303.40
464.14	31973.10
464.50	32674.25
464.87	33183.18
465.23	33499.46
465.59	33892.81
465.95	34244.59
466.32	34500.88
466.68	34757.63
467.04	34982.68
467.40	35109.74
467.77	35238.94
468.13	35233.68
468.49	35081.82
468.85	34945.67
469.22	34854.60
469.58	34653.92
469.94	34514.08
470.30	34366.95
470.66	34047.98
471.03	33453.28
471.39	32981.89
471.75	32254.81
472.11	31569.15
472.47	31094.67
472.84	30657.41
473.20	30020.06
473.56	29637.83
473.92	29092.93
474.28	28532.25
474.65	27994.87
475.01	27532.73
475.37	26960.77
475.73	26509.91
476.09	26013.07
476.45	25567.75
476.81	25144.12
477.18	24676.60
477.54	24262.46
477.90	23865.97
478.26	23404.61
478.62	22999.18
478.98	22702.10
479.34	22429.10
479.71	22098.61
480.07	21781.91
480.43	21438.09
480.79	21014.90
481.15	20575.39
481.51	20194.42
481.87	19875.60
482.23	19543.10
482.59	19260.62
482.96	18950.69
483.32	18649.48
483.68	18272.89
484.04	17921.86
484.40	17546.62
484.76	17214.27
485.12	16856.19
485.48	16590.07
485.84	16298.51
486.20	16011.68
486.56	15683.39
486.92	15391.92
487.28	15034.13
487.64	14672.19
488.00	14334.00
488.37	13962.96
488.73	13560.99
489.09	13184.73
489.45	12847.90
489.81	12504.59
490.17	12209.90
490.53	11912.34
490.89	11598.01
491.25	11276.33
491.61	10937.96
491.97	10615.27
492.33	10325.58
492.69	10065.57
493.05	9796.62
493.41	9545.20
493.77	9270.84
494.13	9002.45
494.49	8729.03
494.85	8469.56
495.21	8226.44
495.57	8014.60
495.93	7783.38
496.29	7567.07
496.64	7376.17
497.00	7178.47
497.36	6981.09
497.72	6820.44
498.08	6665.10
498.44	6498.17
498.80	6338.80
499.16	6175.25
499.52	5998.84
499.88	5837.72
500.24	5698.29
500.60	5562.12
500.96	5439.43
501.32	5318.75
501.68	5199.31
502.03	5067.19
502.39	4944.29
502.75	4825.53
503.11	4716.23
503.47	4606.10
503.83	4505.74
504.19	4398.22
504.55	4289.97
504.91	4187.08
505.26	4086.62
505.62	3979.47
505.98	3884.47
506.34	3789.63
506.70	3699.57
507.06	3613.69
507.42	3530.30
507.78	3446.37
508.13	3371.35
508.49	3291.24
508.85	3224.72
509.21	3160.66
509.57	3098.59
509.93	3034.95
510.28	2974.40
510.64	2915.32
511.00	2850.94
511.36	2789.40
511.72	2730.96
512.07	2679.47
512.43	2627.39
512.79	2585.03
513.15	2541.19
513.51	2498.08
513.86	2453.21
514.22	2407.50
514.58	2356.62
514.94	2316.66
515.30	2276.78
515.65	2235.16
516.01	2199.78
516.37	2171.22
516.73	2136.77
517.08	2106.55
517.44	2074.63
517.80	2047.31
518.16	2018.99
518.51	1988.19
518.87	1957.67
519.23	1934.90
519.59	1900.84
519.94	1872.52
520.30	1852.56
520.66	1827.86
521.01	1808.86
521.37	1790.74
521.73	1770.69
522.09	1746.77
522.44	1727.06
522.80	1707.61
523.16	1683.13
523.51	1664.52
523.87	1645.19
524.23	1629.46
524.58	1607.92
524.94	1596.43
525.30	1580.42
525.65	1568.21
526.01	1552.34
526.37	1541.64
526.72	1527.29
527.08	1512.03
527.44	1498.74
527.79	1485.26
528.15	1471.24
528.51	1456.66
528.86	1443.13
529.22	1432.64
529.58	1422.81
529.93	1411.02
530.29	1403.43
530.65	1396.25
531.00	1384.26
531.36	1376.28
531.71	1370.62
532.07	1362.07
532.43	1351.12
532.78	1346.49
533.14	1339.91
533.49	1331.44
533.85	1325.40
534.21	1321.33
534.56	1309.46
534.92	1301.64
535.27	1293.24
535.63	1286.19
535.98	1277.14
536.34	1274.75
536.69	1270.40
537.05	1265.60
537.41	1261.24
537.76	1257.01
538.12	1252.40
538.47	1248.04
538.83	1243.83
539.18	1236.48
539.54	1233.16
539.89	1230.30
540.25	1222.67
540.60	1219.61
540.96	1216.38
541.31	1209.87
541.67	1205.33
542.02	1203.22
542.38	1200.46
542.73	1199.45
543.09	1197.30
543.44	1191.92
543.80	1189.74
544.15	1183.35
544.51	1181.92
544.86	1180.07
545.22	1176.10
545.57	1173.22
545.93	1172.23
546.28	1168.91
546.64	1168.30
546.99	1169.45
547.35	1169.03
547.70	1170.48
548.05	1162.78
548.41	1160.77
548.76	1157.84
549.12	1151.29
549.47	1145.27
549.83	1147.68
550.18	1144.99
550.53	1143.63
550.89	1145.53
551.24	1145.27
551.60	1142.98
551.95	1140.33
552.30	1137.69
552.66	1135.89
553.01	1134.11
553.37	1133.15
553.72	1132.80
554.07	1131.91
554.43	1132.09
554.78	1130.36
555.13	1131.56
555.49	1130.43
555.84	1131.81
556.19	1128.56
556.55	1126.71
556.90	1120.86
557.26	1120.25
557.61	1119.24
557.96	1120.18
558.32	1119.01
558.67	1118.38
559.02	1115.41
559.37	1111.68
559.73	1105.65
560.08	1108.90
560.43	1111.61
560.79	1114.31
561.14	1114.82
561.49	1119.08
561.85	1119.69
562.20	1121.35
562.55	1119.62
562.90	1120.23
563.26	1119.53
563.61	1114.52
563.96	1111.19
564.32	1111.26
564.67	1110.33
565.02	1107.96
565.37	1108.20
565.73	1107.96
566.08	1105.79
566.43	1105.79
566.78	1105.86
567.14	1104.57
567.49	1102.74
567.84	1101.88
568.19	1097.36
568.54	1098.09
568.90	1098.81
569.25	1097.71
569.60	1097.24
569.95	1098.23
570.31	1097.92
570.66	1101.03
571.01	1099.42
571.36	1097.64
571.71	1094.53
572.06	1092.07
572.42	1085.99
572.77	1087.09
573.12	1088.37
573.47	1090.55
573.82	1091.95
574.18	1093.62
574.53	1094.81
574.88	1093.33
575.23	1093.90
575.58	1091.49
575.93	1090.95
576.28	1092.09
576.64	1096.89
576.99	1097.06
577.34	1099.33
577.69	1099.42
578.04	1098.81
578.39	1093.17
578.74	1092.82
579.09	1089.87
579.44	1091.93
579.80	1091.13
580.15	1093.90
580.50	1095.11
580.85	1098.53
581.20	1095.51
581.55	1095.32
581.90	1095.58
582.25	1094.55
582.60	1090.36
582.95	1090.43
583.30	1087.76
583.65	1087.55
584.00	1088.91
584.35	1092.23
584.71	1093.33
585.06	1093.62
585.41	1093.47
585.76	1092.21
586.11	1087.55
586.46	1085.00
586.81	1086.57
587.16	1086.50
587.51	1085.96
587.86	1086.34
588.21	1086.83
588.56	1088.09
588.91	1084.44
589.26	1082.26
589.61	1081.89
589.96	1082.31
590.31	1082.97
590.66	1084.44
591.01	1086.80
591.36	1088.79
591.71	1091.42
592.06	1091.95
592.41	1093.19
592.76	1090.69
593.10	1092.12
593.45	1089.22
593.80	1086.94
594.15	1088.02
594.50	1089.12
594.85	1085.70
595.20	1087.30
595.55	1087.20
595.90	1086.80
596.25	1085.33
596.60	1087.25
596.95	1087.11
597.30	1086.15
597.64	1096.80
597.99	1097.57
598.34	1098.93
598.69	1095.72
599.04	1094.18
599.39	1083.57
599.74	1086.22
600.09	1084.67
600.44	1087.41
600.78	1087.48
601.13	1086.78
601.48	1084.89
601.83	1084.44
602.18	1084.51
602.53	1087.44
602.88	1087.95
603.22	1087.72
603.57	1088.40
603.92	1089.96
604.27	1088.79
604.62	1087.60
604.97	1086.45
605.31	1084.93
605.66	1083.53
606.01	1082.71
606.36	1084.56
606.71	1088.84
607.05	1089.05
607.40	1088.33
607.75	1087.83
608.10	1084.30
608.44	1077.91
608.79	1081.00
609.14	1082.66
609.49	1082.43
609.84	1085.28
610.18	1092.42
610.53	1091.84
610.88	1090.60
611.23	1088.93
611.57	1089.68
611.92	1085.45
612.27	1084.79
612.62	1083.97
612.96	1086.45
613.31	1084.21
613.66	1083.25
614.00	1082.10
614.35	1082.61
614.70	1081.82
615.05	1082.85
615.39	1082.05
615.74	1080.81
616.09	1080.18
616.43	1079.85
616.78	1076.51
617.13	1078.52
617.47	1079.50
617.82	1082.50
618.17	1081.16
618.51	1083.95
618.86	1086.29
619.21	1084.63
619.55	1079.95
619.90	1080.74
620.25	1081.00
620.59	1079.24
620.94	1080.44
621.29	1084.04
621.63	1086.94
621.98	1084.42
622.32	1082.12
622.67	1081.35
623.02	1078.43
623.36	1077.86
623.71	1079.43
624.05	1082.57
624.40	1084.91
624.75	1087.11
625.09	1086.50
625.44	1085.99
625.78	1086.99
626.13	1088.02
626.48	1088.63
626.82	1088.58
627.17	1088.75
627.51	1086.90
627.86	1085.26
628.20	1081.91
628.55	1083.32
628.89	1084.23
629.24	1081.96
629.58	1081.37
629.93	1082.94
630.28	1082.50
630.62	1079.22
630.97	1079.53
631.31	1079.29
631.66	1076.32
632.00	1075.90
632.35	1078.40
632.69	1077.54
633.04	1080.32
633.38	1084.93
633.73	1085.56
634.07	1086.10
634.42	1089.03
634.76	1086.66
635.11	1084.25
635.45	1084.32
635.79	1084.81
636.14	1082.64
636.48	1082.19
636.83	1085.35
637.17	1083.39
637.52	1086.03
637.86	1086.59
638.21	1086.17
638.55	1082.50
638.89	1082.80
639.24	1081.23
639.58	1082.57
639.93	1083.95
640.27	1084.11
640.61	1085.61
640.96	1085.54
641.30	1082.22
641.65	1081.56
641.99	1085.07
642.33	1081.70
642.68	1080.37
643.02	1080.06
643.37	1078.59
643.71	1077.07
644.05	1078.31
644.40	1077.09
644.74	1078.05
645.08	1080.25
645.43	1077.28
645.77	1077.35
646.11	1078.78
646.46	1079.43
646.80	1076.93
647.14	1077.56
647.49	1075.87
647.83	1072.08
648.17	1073.11
648.52	1075.03
648.86	1076.79
649.20	1079.43
649.55	1082.47
649.89	1082.01
650.23	1079.57
650.57	1080.93
650.92	1081.26
651.26	1082.17
651.60	1082.40
651.95	1084.86
652.29	1081.49
652.63	1080.84
652.97	1078.43
653.32	1080.48
653.66	1079.13
654.00	1079.22
654.34	1076.72
654.69	1077.82
655.03	1077.77
655.37	1079.38
655.71	1080.16
656.05	1083.62
656.40	1082.38
656.74	1080.98
657.08	1079.15
657.42	1077.51
657.76	1076.76
658.11	1078.89
658.45	1078.54
658.79	1082.57
659.13	1083.69
659.47	1084.37
659.82	1084.93
660.16	1086.85
660.50	1087.20
660.84	1087.53
661.18	1085.10
661.52	1083.29
661.87	1080.39
662.21	1078.00
662.55	1080.06
662.89	1084.49
663.23	1086.57
663.57	1090.71
663.91	1089.33
664.25	1087.37
664.60	1083.25
664.94	1082.97
665.28	1080.16
665.62	1082.31
665.96	1083.34
666.30	1085.10
666.64	1083.29
666.98	1080.53
667.32	1079.60
667.66	1079.06
668.01	1077.42
668.35	1078.45
668.69	1080.16
669.03	1079.36
669.37	1078.87
669.71	1078.07
670.05	1082.69
670.39	1084.30
670.73	1084.11
671.07	1084.35
671.41	1084.60
671.75	1079.83
672.09	1077.82
672.43	1079.31
672.77	1080.60
673.11	1082.24
673.45	1084.79
673.79	1087.34
674.13	1090.46
674.47	1091.37
674.81	1092.23
675.15	1088.51
675.49	1086.97
675.83	1083.43
676.17	1083.25
676.51	1079.55
676.85	1078.10
677.19	1075.50
677.53	1075.59
677.87	1073.98
678.21	1075.41
678.55	1079.01
678.89	1081.40
679.23	1080.77
679.57	1081.51
679.90	1082.83
680.24	1080.37
680.58	1081.98
680.92	1082.64
681.26	1079.38
681.60	1081.16
681.94	1082.97
682.28	1080.74
682.62	1079.64
682.96	1080.53
683.29	1079.08
683.63	1080.09
683.97	1081.12
684.31	1080.25
684.65	1081.94
684.99	1080.18
685.33	1079.46
685.67	1081.02
686.00	1080.60
686.34	1080.09
686.68	1083.01
687.02	1083.15
687.36	1081.75
687.70	1081.56
688.03	1082.57
688.37	1081.16
688.71	1078.64
689.05	1076.39
689.39	1078.73
689.72	1075.38
690.06	1074.56
690.40	1074.24
690.74	1075.24
691.08	1073.30
691.41	1076.58
691.75	1079.29
692.09	1083.71
692.43	1082.12
692.76	1084.77
693.10	1084.53
693.44	1080.06
693.78	1076.51
694.11	1078.19
694.45	1076.53
694.79	1073.16
695.13	1074.35
695.46	1076.53
695.80	1075.80
696.14	1078.96
696.48	1082.40
696.81	1083.57
697.15	1083.64
697.49	1083.90
697.82	1081.35
698.16	1081.07
698.50	1081.40
698.83	1080.23
699.17	1080.58
699.51	1081.02
699.84	1077.89
700.18	1079.34
700.52	1078.80
700.85	1077.40
701.19	1076.79
701.53	1075.87
701.86	1074.56
702.20	1076.27
702.54	1077.44
702.87	1078.71
703.21	1082.45
703.55	1081.42
703.88	1079.71
704.22	1078.61
704.55	1076.95
704.89	1077.44
705.23	1080.48
705.56	1081.12
705.90	1083.64
706.23	1086.62
706.57	1086.94
706.91	1083.53
707.24	1081.70
707.58	1078.38
707.91	1074.87
708.25	1074.28
708.58	1073.84
708.92	1075.27
709.26	1076.62
709.59	1076.81
709.93	1074.75
710.26	1075.94
710.60	1074.12
710.93	1072.57
711.27	1076.39
711.60	1078.33
711.94	1078.26
712.27	1083.48
712.61	1087.06
712.94	1083.86
713.28	1084.16
713.61	1086.73
713.95	1084.18
714.28	1084.39
714.62	1082.59
714.95	1079.97
715.29	1074.38
715.62	1073.98
715.96	1072.55
716.29	1073.79
716.63	1075.83
716.96	1078.59
717.29	1077.11
717.63	1077.72
717.96	1078.45
718.30	1075.94
718.63	1077.00
718.97	1078.85
719.30	1079.76
719.63	1076.69
719.97	1077.89
720.30	1074.73
720.64	1070.51
720.97	1071.59
721.30	1075.13
721.64	1073.67
721.97	1075.50
722.31	1078.82
722.64	1074.17
722.97	1074.68
723.31	1076.58
723.64	1077.04
723.97	1075.97
724.31	1079.13
724.64	1078.28
724.98	1077.61
725.31	1080.65
725.64	1078.26
725.98	1078.00
726.31	1078.89
726.64	1079.43
726.97	1074.35
727.31	1075.52
727.64	1077.30
727.97	1077.04
728.31	1076.81
728.64	1080.30
728.97	1083.53
729.31	1079.99
729.64	1079.50
729.97	1080.46
730.30	1078.64
730.64	1078.17
730.97	1082.10
731.30	1082.24
731.63	1079.24
731.97	1081.12
732.30	1081.19
732.63	1077.58
732.96	1076.88
733.30	1080.27
733.63	1076.41
733.96	1075.69
734.29	1076.30
734.63	1076.18
734.96	1076.86
735.29	1078.82
735.62	1079.41
735.95	1080.06
736.29	1081.35
736.62	1080.65
736.95	1082.83
737.28	1081.47
737.61	1079.92
737.94	1079.50
738.28	1078.52
738.61	1078.45
738.94	1079.90
739.27	1081.58
739.60	1083.50
739.93	1084.30
740.27	1082.33
740.60	1083.36
740.93	1082.50
741.26	1081.26
741.59	1080.53
741.92	1080.63
742.25	1077.49
742.58	1078.26
742.91	1075.08
743.25	1075.83
743.58	1073.28
743.91	1073.04
744.24	1070.47
744.57	1071.92
744.90	1072.27
745.23	1076.53
745.56	1080.46
745.89	1083.74
746.22	1086.69
746.55	1085.75
746.88	1080.98
747.21	1078.54
747.54	1079.01
747.87	1079.31
748.20	1081.44
748.53	1081.91
748.87	1082.59
749.20	1081.82
749.53	1080.06
749.86	1078.07
750.19	1080.88
750.52	1081.89
750.85	1081.30
751.18	1081.47
751.51	1084.28
751.84	1083.32
752.16	1081.30
752.49	1082.57
752.82	1080.70
753.15	1077.63
753.48	1078.82
753.81	1079.83
754.14	1079.10
754.47	1079.60
754.80	1079.31
755.13	1080.72
755.46	1082.26
755.79	1081.47
756.12	1082.78
756.45	1083.53
756.78	1081.49
757.11	1079.48
757.43	1080.58
757.76	1081.12
758.09	1081.35
758.42	1082.64
758.75	1082.15
759.08	1084.58
759.41	1081.42
759.74	1080.88
760.07	1080.93
760.39	1082.38
760.72	1079.06
761.05	1081.68
761.38	1083.13
761.71	1082.43
762.04	1079.83
762.36	1079.53
762.69	1080.79
763.02	1079.53
763.35	1075.80
763.68	1076.37
764.01	1078.36
764.33	1076.23
764.66	1076.15
764.99	1078.75
765.32	1079.48
765.65	1075.80
765.97	1076.69
766.30	1077.98
766.63	1079.83
766.96	1081.19
767.28	1083.20
767.61	1079.62
767.94	1079.31
768.27	1076.76
768.59	1075.10
768.92	1077.09
769.25	1081.12
769.58	1079.36
769.90	1077.11
770.23	1077.33
770.56	1073.95
770.89	1070.07
771.21	1072.04
771.54	1074.14
771.87	1073.86
772.19	1074.54
772.52	1078.05
772.85	1080.30
773.17	1079.43
773.50	1082.54
773.83	1083.04
774.15	1078.64
774.48	1077.18
774.81	1080.60
775.13	1079.81
775.46	1079.15
775.79	1081.96
776.11	1079.27
776.44	1081.42
776.77	1078.57
777.09	1081.35
777.42	1080.06
777.74	1082.78
778.07	1080.34
778.40	1081.66
778.72	1079.69
779.05	1079.92
779.37	1078.85
779.70	1078.87
780.03	1080.93
780.35	1081.33
780.68	1084.46
781.00	1081.70
781.33	1080.48
781.65	1076.48
781.98	1077.44
782.31	1076.01
782.63	1076.60
782.96	1075.78
783.28	1075.29
783.61	1072.04
783.93	1072.32
784.26	1076.69
784.58	1078.92
784.91	1079.06
785.23	1079.64
785.56	1080.86
785.88	1075.73
786.21	1076.18
786.53	1077.23
786.86	1078.14
787.18	1075.29
787.51	1078.14
787.83	1073.95
788.16	1074.98
788.48	1076.58
788.81	1076.18
789.13	1077.72
789.46	1078.52
789.78	1076.11
790.10	1074.19
790.43	1072.06
790.75	1069.98
791.08	1073.56
791.40	1078.96
791.73	1081.91
792.05	1085.54
792.37	1084.30
792.70	1083.83
793.02	1080.46
793.35	1077.89
793.67	1079.29
793.99	1079.99
794.32	1080.34
794.64	1082.10
794.96	1082.66
795.29	1081.00
795.61	1082.90
795.93	1079.03
796.26	1076.51
796.58	1076.93
796.91	1077.25
797.23	1074.38
797.55	1077.28
797.87	1076.69
798.20	1072.83
798.52	1073.39
798.84	1074.98
799.17	1073.88
799.49	1074.28
799.81	1075.87
800.14	1075.64
800.46	1075.69
800.78	1076.95
801.10	1077.84
801.43	1082.33
801.75	1080.91
802.07	1081.16
802.40	1081.51
802.72	1082.36
803.04	1076.86
803.36	1075.80
803.69	1074.19
804.01	1073.88
804.33	1072.25
804.65	1072.60
804.97	1074.03
805.30	1072.71
805.62	1074.98
805.94	1073.42
806.26	1076.39
806.58	1077.56
806.91	1079.67
807.23	1075.03
807.55	1076.93
807.87	1077.65
808.19	1078.12
808.52	1077.72
808.84	1078.89
809.16	1083.36
809.48	1082.92
809.80	1080.95
810.12	1080.74
810.44	1080.13
810.77	1076.83
811.09	1075.45
811.41	1075.94
811.73	1076.04
812.05	1078.54
812.37	1080.79
812.69	1080.63
813.01	1077.77
813.33	1077.40
813.66	1076.25
813.98	1075.15
814.30	1073.46
814.62	1076.44
814.94	1076.32
815.26	1074.28
815.58	1071.66
815.90	1075.48
816.22	1072.22
816.54	1071.59
816.86	1072.55
817.18	1075.15
817.50	1070.05
817.82	1073.53
818.14	1076.32
818.46	1078.82
818.78	1076.53
819.10	1080.53
819.42	1079.22
819.74	1079.13
820.06	1079.85
820.38	1079.74
820.70	1078.82
821.02	1078.33
821.34	1076.58
821.66	1075.45
821.98	1076.53
822.30	1077.30
822.62	1079.08
822.94	1079.62
823.26	1076.93
823.58	1075.08
823.90	1073.37
824.22	1074.49
824.54	1075.08
824.86	1077.93
825.18	1078.82
825.50	1078.47
825.81	1076.81
826.13	1074.63
826.45	1074.10
826.77	1077.37
827.09	1079.74
827.41	1079.38
827.73	1082.45
828.05	1084.81
828.36	1082.08
828.68	1081.30
829.00	1085.94
829.32	1087.20
829.64	1084.25
829.96	1085.17
830.28	1083.50
830.59	1078.57
830.91	1076.81
831.23	1078.26
831.55	1078.07
831.87	1079.67
832.19	1079.22
832.50	1077.79
832.82	1075.08
833.14	1073.67
833.46	1072.76
833.78	1076.06
834.09	1074.80
834.41	1075.83
834.73	1076.95
835.05	1078.31
835.36	1077.00
835.68	1079.41
836.00	1079.60
836.32	1078.92
836.63	1077.04
836.95	1075.36
837.27	1077.23
837.59	1074.52
837.90	1073.60
838.22	1075.48
838.54	1075.29
838.85	1070.37
839.17	1071.97
839.49	1076.60
839.80	1075.59
840.12	1077.96
840.44	1079.81
840.76	1083.01
841.07	1082.15
841.39	1083.88
841.71	1085.99
842.02	1083.79
842.34	1081.33
842.65	1079.76
842.97	1081.16
843.29	1078.45
843.60	1078.07
843.92	1078.45
844.24	1078.03
844.55	1074.94
844.87	1075.29
845.18	1081.35
845.50	1078.07
845.82	1074.63
846.13	1073.00
846.45	1072.04
846.76	1067.28
847.08	1069.41
847.40	1071.57
847.71	1073.51
848.03	1074.26
848.34	1076.08
848.66	1079.22
848.97	1078.82
849.29	1077.93
849.60	1079.41
849.92	1077.35
850.24	1078.31
850.55	1079.15
850.87	1078.71
851.18	1076.74
851.50	1077.07
851.81	1074.98
852.13	1074.59
852.44	1076.15
852.76	1075.03
853.07	1075.50
853.39	1073.70
853.70	1075.22
854.01	1075.99
854.33	1077.65
854.64	1079.71
854.96	1079.97
855.27	1078.45
855.59	1079.15
855.90	1079.29
856.22	1080.77
856.53	1084.02
856.84	1087.06
857.16	1085.17
857.47	1083.67
857.79	1082.64
858.10	1081.26
858.41	1077.35
858.73	1078.94
859.04	1081.09
859.36	1078.78
859.67	1077.68
859.98	1080.56
860.30	1079.57
860.61	1075.50
860.92	1074.26
861.24	1072.13
861.55	1071.80
861.87	1071.64
862.18	1073.46
862.49	1076.11
862.81	1077.61
863.12	1075.48
863.43	1075.83
863.74	1077.93
864.06	1082.92
864.37	1082.99
864.68	1084.63
865.00	1082.66
865.31	1081.37
865.62	1076.51
865.94	1077.91
866.25	1077.04
866.56	1079.67
866.87	1078.52
867.19	1079.17
867.50	1077.04
867.81	1077.70
868.12	1075.66
868.44	1075.62
868.75	1074.28
869.06	1076.30
869.37	1076.04
869.68	1078.61
870.00	1078.38
870.31	1080.18
870.62	1078.31
870.93	1081.54
871.24	1083.18
871.56	1083.22
871.87	1080.48
872.18	1082.43
872.49	1079.99
872.80	1076.11
873.12	1079.08
873.43	1080.20
873.74	1078.68
874.05	1078.19
874.36	1079.08
874.67	1078.47
874.98	1079.55
875.29	1076.90
875.61	1075.20
875.92	1076.27
876.23	1073.98
876.54	1076.06
876.85	1079.50
877.16	1080.95
877.47	1078.66
877.78	1080.30
878.09	1076.55
878.40	1074.87
878.72	1075.83
879.03	1077.65
879.34	1076.18
879.65	1075.71
879.96	1073.81
880.27	1072.20
880.58	1071.87
880.89	1071.43
881.20	1070.94
881.51	1074.49
881.82	1072.25
882.13	1073.44
882.44	1073.60
882.75	1075.29
883.06	1073.14
883.37	1077.04
883.68	1073.18
883.99	1075.57
884.30	1078.10
884.61	1081.09
884.92	1077.98
885.23	1079.10
885.54	1077.68
885.85	1075.41
886.16	1076.04
886.47	1077.63
886.78	1078.73
887.08	1079.43
887.39	1079.76
887.70	1079.95
888.01	1078.50
888.32	1075.05
888.63	1076.90
888.94	1077.42
889.25	1074.00
889.56	1074.42
889.87	1077.11
890.17	1076.46
890.48	1074.14
890.79	1073.86
891.10	1076.01
891.41	1077.77
891.72	1078.24
892.03	1078.92
892.34	1077.02
892.64	1074.87
892.95	1074.35
893.26	1068.76
893.57	1067.96
893.88	1071.57
894.18	1072.39
894.49	1070.02
894.80	1073.98
895.11	1073.98
895.42	1069.91
895.72	1067.03
896.03	1067.00
896.34	1065.22
896.65	1064.34
896.96	1069.25
897.26	1073.98
897.57	1073.58
897.88	1073.51
898.19	1075.13
898.49	1070.65
898.80	1070.33
899.11	1069.32
899.41	1072.11
899.72	1070.44
900.03	1075.66
900.34	1074.17
900.64	1076.13
900.95	1077.91
901.26	1077.82
901.56	1076.74
901.87	1078.99
902.18	1080.11
902.48	1077.09
902.79	1079.08
903.10	1078.73
903.40	1078.45
903.71	1077.77
904.02	1077.47
904.32	1078.05
904.63	1074.66
904.94	1074.89
905.24	1078.87
905.55	1079.41
905.85	1078.43
906.16	1081.96
906.47	1079.34
906.77	1077.14
907.08	1077.04
907.38	1079.36
907.69	1077.72
908.00	1082.29
908.30	1080.34
908.61	1079.81
908.91	1079.62
909.22	1081.26
909.52	1078.05
909.83	1079.34
910.14	1078.31
910.44	1078.87
910.75	1080.56
911.05	1081.98
911.36	1080.34
911.66	1081.49
911.97	1081.42
912.27	1074.33
912.58	1071.85
912.88	1073.72
913.19	1073.30
913.49	1068.69
913.80	1072.43
914.10	1074.47
914.41	1075.90
914.71	1077.42
915.01	1081.37
915.32	1082.83
915.62	1082.54
915.93	1081.63
916.23	1081.63
916.54	1081.19
916.84	1081.42
917.15	1081.84
917.45	1079.34
917.75	1077.56
918.06	1078.96
918.36	1079.88
918.67	1080.51
918.97	1079.76
919.27	1081.84
919.58	1077.54
919.88	1077.72
920.18	1073.91
920.49	1074.47
920.79	1071.40
921.10	1071.52
921.40	1067.45
921.70	1069.84
922.01	1072.39
922.31	1073.28
922.61	1076.32
922.92	1077.33
923.22	1076.48
923.52	1076.67
923.82	1078.00
924.13	1076.69
924.43	1079.76
924.73	1080.02
925.04	1078.52
925.34	1076.72
925.64	1078.66
925.94	1076.41
926.25	1077.56
926.55	1076.53
926.85	1078.07
927.15	1077.72
927.46	1079.57
927.76	1078.33
928.06	1079.69
928.36	1081.28
928.67	1081.44
928.97	1078.75
929.27	1081.30
929.57	1082.45
929.87	1081.49
930.18	1080.65
930.48	1082.36
930.78	1080.70
931.08	1077.75
931.38	1078.71
931.69	1077.28
931.99	1079.06
932.29	1079.06
932.59	1079.46
932.89	1079.08
933.19	1077.79
933.49	1073.37
933.80	1072.01
934.10	1072.69
934.40	1072.76
934.70	1075.62
935.00	1077.21
935.30	1075.73
935.60	1078.17
935.90	1078.14
936.20	1073.51
936.50	1072.34
936.81	1072.74
937.11	1070.72
937.41	1070.77
937.71	1073.28
938.01	1076.13
938.31	1078.33
938.61	1078.33
938.91	1074.80
939.21	1074.52
939.51	1074.75
939.81	1070.63
940.11	1069.48
940.41	1071.52
940.71	1072.04
941.01	1067.87
941.31	1069.67
941.61	1068.78
941.91	1069.09
942.21	1071.61
942.51	1073.65
942.81	1075.15
943.11	1079.50
943.41	1080.67
943.71	1080.98
944.01	1080.65
944.31	1080.09
944.61	1079.92
944.90	1077.75
945.20	1081.16
945.50	1082.19
945.80	1081.54
946.10	1079.95
946.40	1083.69
946.70	1077.23
947.00	1079.03
947.30	1079.64
947.60	1077.77
947.89	1074.66
948.19	1074.84
948.49	1075.05
948.79	1074.26
949.09	1075.15
949.39	1075.50
949.69	1077.70
949.98	1076.60
950.28	1078.75
950.58	1079.03
950.88	1078.12
951.18	1076.81
951.48	1078.19
951.77	1077.68
952.07	1078.89
952.37	1082.40
952.67	1083.01
952.97	1080.25
953.26	1079.78
953.56	1076.76
953.86	1072.64
954.16	1074.40
954.45	1074.24
954.75	1074.70
955.05	1078.07
955.35	1078.94
955.64	1076.90
955.94	1076.81
956.24	1076.04
956.54	1073.02
956.83	1073.72
957.13	1074.89
957.43	1076.04
957.72	1075.78
958.02	1077.89
958.32	1076.34
958.61	1075.41
958.91	1073.60
959.21	1074.05
959.50	1070.63
959.80	1070.09
960.10	1072.32
960.39	1076.32
960.69	1077.09
960.99	1077.04
961.28	1075.71
961.58	1074.40
961.87	1068.43
962.17	1068.36
962.47	1070.65
962.76	1073.23
963.06	1070.26
963.36	1072.71
963.65	1073.42
963.95	1075.27
964.24	1073.84
964.54	1072.74
964.83	1075.78
965.13	1075.15
965.42	1073.25
965.72	1076.93
966.02	1080.70
966.31	1078.99
966.61	1078.43
966.90	1077.18
967.20	1075.52
967.49	1073.42
967.79	1074.07
968.08	1074.26
968.38	1074.00
968.67	1076.15
968.97	1077.21
969.26	1073.16
969.56	1075.05
969.85	1078.64
970.15	1080.06
970.44	1079.38
970.74	1083.08
971.03	1081.16
971.32	1081.23
971.62	1076.83
971.91	1076.48
972.21	1073.60
972.50	1069.11
972.80	1068.59
973.09	1069.13
973.38	1071.17
973.68	1073.72
973.97	1080.23
974.27	1078.96
974.56	1076.95
974.85	1074.54
975.15	1074.59
975.44	1072.62
975.73	1074.82
976.03	1078.28
976.32	1078.50
976.61	1080.06
976.91	1081.09
977.20	1078.36
977.49	1075.50
977.79	1078.99
978.08	1075.83
978.37	1074.14
978.67	1075.50
978.96	1076.30
979.25	1075.08
979.55	1075.69
979.84	1077.89
980.13	1077.18
980.42	1078.12
980.72	1074.40
981.01	1075.29
981.30	1073.11
981.59	1072.74
981.89	1072.15
982.18	1076.39
982.47	1072.78
982.76	1072.46
983.06	1073.88
983.35	1073.74
983.64	1069.51
983.93	1071.66
984.22	1074.68
984.52	1071.90
984.81	1071.52
985.10	1072.20
985.39	1071.26
985.68	1069.46
985.97	1070.75
986.27	1071.80
986.56	1074.00
986.85	1076.53
987.14	1076.72
987.43	1077.54
987.72	1077.96
988.01	1079.03
988.31	1079.85
988.60	1079.31
988.89	1080.74
989.18	1079.13
989.47	1076.83
989.76	1075.59
990.05	1075.20
990.34	1075.05
990.63	1075.66
990.92	1074.38
991.21	1071.90
991.51	1071.29
991.80	1070.23
992.09	1071.43
992.38	1073.65
992.67	1074.77
992.96	1073.79
993.25	1075.64
993.54	1073.58
993.83	1073.16
994.12	1072.34
994.41	1075.24
994.70	1072.88
994.99	1071.75
995.28	1068.55
995.57	1070.89
995.86	1069.41
996.15	1070.63
996.44	1070.58
996.73	1073.14
997.02	1070.26
997.31	1071.71
997.59	1070.21
997.88	1072.60
998.17	1071.92
998.46	1075.97
998.75	1076.81
999.04	1075.48
999.33	1075.03
999.62	1077.42
999.91	1076.74
1000.20	1075.36
1000.49	1076.44
1000.77	1077.84
1001.06	1076.23
1001.35	1077.35
1001.64	1076.81
1001.93	1078.89
1002.22	1078.00
1002.51	1075.62
1002.79	1074.52
1003.08	1073.81
1003.37	1073.72
1003.66	1073.25
1003.95	1078.45
1004.23	1076.48
1004.52	1078.17
1004.81	1077.35
1005.10	1076.58
1005.39	1076.15
1005.67	1078.24
1005.96	1077.54
1006.25	1077.51
1006.54	1076.04
1006.83	1072.67
1007.11	1073.65
1007.40	1072.55
1007.69	1073.51
1007.97	1076.79
1008.26	1077.72
1008.55	1074.56
1008.84	1075.94
1009.12	1072.55
1009.41	1071.26
1009.70	1070.16
1009.98	1071.40
1010.27	1072.81
1010.56	1076.44
1010.85	1077.00
1011.13	1081.63
1011.42	1080.67
1011.71	1078.24
1011.99	1075.76
1012.28	1073.91
1012.56	1074.89
1012.85	1075.08
1013.14	1076.95
1013.42	1076.25
1013.71	1078.14
1014.00	1075.83
1014.28	1076.90
1014.57	1077.56
1014.85	1079.99
1015.14	1082.40
1015.43	1081.51
1015.71	1080.67
1016.00	1080.95
1016.28	1079.17
1016.57	1076.11
1016.85	1074.21
1017.14	1074.19
1017.43	1071.57
1017.71	1072.85
1018.00	1074.40
1018.28	1077.47
1018.57	1077.77
1018.85	1077.30
1019.14	1076.93
1019.42	1075.15
1019.71	1075.69
1019.99	1075.62
1020.28	1075.80
1020.56	1073.91
1020.85	1077.47
1021.13	1074.63
1021.42	1074.82
1021.70	1078.17
1021.99	1076.86
1022.27	1074.80
1022.55	1060.15
1022.84	1077.93
>>>>>End Processed Spectral Data<<<<<
