SpectraSuite Data File
++++++++++++++++++++++++++++++++++++
Date: Mon Aug 26 10:22:26 PDT 2019
User: corrico
Dark Spectrum Present: No
Reference Spectrum Present: No
Number of Sampled Component Spectra: 1
Spectrometers: USB2+H06089
Integration Time (usec): 2000 (USB2+H06089)
Spectra Averaged: 20 (USB2+H06089)
Boxcar Smoothing: 2 (USB2+H06089)
Correct for Electrical Dark: No (USB2+H06089)
Strobe/Lamp Enabled: No (USB2+H06089)
Correct for Detector Non-linearity: No (USB2+H06089)
Correct for Stray Light: No (USB2+H06089)
Number of Pixels in Processed Spectrum: 2048
>>>>>Begin Processed Spectral Data<<<<<
339.70	1024.69
340.07	1024.69
340.45	991.71
340.82	972.12
341.19	948.17
341.57	924.51
341.94	914.82
342.31	907.94
342.69	903.56
343.06	900.52
343.43	898.95
343.81	897.88
344.18	900.22
344.55	901.88
344.93	907.45
345.30	914.45
345.67	922.01
346.04	929.10
346.42	936.24
346.79	945.46
347.16	951.40
347.54	958.75
347.91	968.89
348.28	981.62
348.65	992.50
349.03	1006.13
349.40	1013.52
349.77	1023.68
350.14	1027.71
350.52	1032.86
350.89	1039.03
351.26	1045.63
351.63	1048.89
352.01	1055.63
352.38	1061.71
352.75	1064.24
353.12	1065.32
353.50	1068.74
353.87	1076.04
354.24	1078.89
354.61	1079.24
354.98	1082.40
355.36	1083.08
355.73	1074.96
356.10	1076.44
356.47	1078.96
356.84	1082.29
357.22	1085.73
357.59	1090.39
357.96	1086.38
358.33	1085.84
358.70	1084.07
359.08	1078.66
359.45	1079.99
359.82	1081.14
360.19	1082.01
360.56	1084.16
360.94	1087.51
361.31	1084.77
361.68	1085.96
362.05	1082.80
362.42	1079.78
362.79	1077.77
363.16	1076.93
363.54	1074.94
363.91	1078.75
364.28	1081.05
364.65	1080.16
365.02	1079.41
365.39	1078.59
365.76	1075.48
366.14	1070.54
366.51	1072.67
366.88	1073.02
367.25	1071.59
367.62	1070.00
367.99	1074.05
368.36	1071.50
368.73	1070.14
369.10	1069.34
369.48	1073.18
369.85	1070.33
370.22	1072.18
370.59	1070.30
370.96	1074.47
371.33	1071.59
371.70	1074.54
372.07	1076.55
372.44	1083.11
372.81	1081.63
373.18	1081.61
373.55	1076.60
373.93	1076.39
374.30	1073.84
374.67	1074.19
375.04	1075.24
375.41	1080.30
375.78	1080.56
376.15	1081.82
376.52	1080.95
376.89	1079.13
377.26	1080.23
377.63	1078.64
378.00	1079.62
378.37	1077.96
378.74	1076.55
379.11	1074.00
379.48	1073.30
379.85	1072.74
380.22	1075.45
380.59	1078.64
380.96	1077.33
381.33	1078.75
381.70	1075.94
382.07	1076.95
382.44	1076.13
382.81	1077.72
383.18	1078.28
383.55	1080.44
383.92	1081.37
384.29	1081.94
384.66	1084.09
385.03	1084.93
385.40	1082.73
385.77	1081.84
386.14	1080.74
386.51	1080.25
386.88	1076.39
387.25	1082.12
387.62	1082.73
387.99	1085.66
388.36	1084.81
388.73	1086.71
389.10	1085.84
389.46	1083.11
389.83	1079.88
390.20	1081.63
390.57	1081.84
390.94	1077.47
391.31	1080.02
391.68	1083.06
392.05	1081.09
392.42	1084.37
392.79	1088.16
393.16	1088.70
393.53	1088.84
393.89	1090.32
394.26	1087.32
394.63	1086.15
395.00	1085.21
395.37	1083.13
395.74	1083.22
396.11	1085.26
396.48	1088.26
396.84	1088.21
397.21	1090.03
397.58	1091.06
397.95	1089.92
398.32	1089.80
398.69	1087.11
399.06	1084.67
399.42	1082.38
399.79	1083.50
400.16	1081.70
400.53	1086.97
400.90	1088.70
401.27	1090.34
401.64	1088.19
402.00	1087.27
402.37	1085.75
402.74	1089.57
403.11	1092.98
403.48	1093.43
403.84	1094.27
404.21	1091.84
404.58	1090.97
404.95	1089.36
405.32	1093.03
405.68	1096.21
406.05	1097.66
406.42	1096.28
406.79	1097.88
407.16	1094.41
407.52	1093.29
407.89	1095.02
408.26	1093.52
408.63	1092.07
408.99	1092.96
409.36	1089.94
409.73	1092.12
410.10	1092.84
410.47	1092.40
410.83	1090.71
411.20	1091.44
411.57	1091.70
411.94	1093.76
412.30	1094.60
412.67	1097.48
413.04	1100.82
413.40	1099.89
413.77	1102.18
414.14	1105.72
414.51	1105.86
414.87	1104.90
415.24	1103.73
415.61	1105.06
415.97	1101.97
416.34	1103.45
416.71	1103.42
417.08	1106.23
417.44	1105.08
417.81	1104.62
418.18	1106.63
418.54	1108.59
418.91	1111.80
419.28	1111.99
419.64	1112.88
420.01	1109.86
420.38	1109.98
420.74	1109.02
421.11	1108.62
421.48	1110.58
421.84	1117.61
422.21	1121.23
422.58	1121.28
422.94	1128.33
423.31	1131.39
423.68	1133.43
424.04	1136.07
424.41	1140.45
424.77	1142.81
425.14	1148.55
425.51	1150.09
425.87	1153.79
426.24	1155.03
426.61	1158.85
426.97	1164.21
427.34	1169.40
427.70	1175.72
428.07	1187.03
428.44	1192.71
428.80	1198.49
429.17	1206.99
429.53	1213.68
429.90	1221.53
430.27	1230.37
430.63	1238.28
431.00	1247.39
431.36	1257.41
431.73	1266.46
432.09	1281.44
432.46	1298.20
432.83	1316.74
433.19	1334.92
433.56	1351.94
433.92	1369.63
434.29	1387.52
434.65	1406.90
435.02	1430.70
435.38	1461.36
435.75	1487.11
436.11	1520.55
436.48	1554.77
436.84	1586.79
437.21	1620.19
437.57	1656.02
437.94	1697.33
438.30	1739.42
438.67	1786.86
439.03	1840.18
439.40	1899.93
439.76	1957.25
440.13	2018.01
440.49	2087.69
440.86	2148.78
441.22	2218.31
441.59	2287.52
441.95	2368.22
442.32	2451.99
442.68	2550.72
443.05	2643.75
443.41	2745.85
443.78	2844.78
444.14	2946.15
444.51	3054.61
444.87	3197.78
445.24	3336.20
445.60	3491.17
445.96	3653.23
446.33	3829.28
446.69	3989.72
447.06	4170.51
447.42	4349.07
447.79	4537.76
448.15	4759.46
448.51	4990.21
448.88	5241.14
449.24	5485.70
449.61	5762.40
449.97	6035.82
450.33	6319.24
450.70	6594.34
451.06	6921.81
451.43	7237.97
451.79	7588.41
452.15	7986.33
452.52	8426.91
452.88	8904.43
453.24	9426.09
453.61	10015.25
453.97	10582.94
454.34	11138.16
454.70	11768.38
455.06	12417.76
455.43	13040.58
455.79	13638.02
456.15	14367.21
456.52	15023.64
456.88	15790.40
457.24	16515.76
457.61	17369.44
457.97	18119.09
458.33	18912.91
458.70	19678.26
459.06	20435.83
459.42	21263.18
459.79	22046.65
460.15	22946.35
460.51	23818.34
460.88	24765.75
461.24	25552.78
461.60	26526.11
461.96	27405.71
462.33	28236.88
462.69	29019.62
463.05	29875.93
463.42	30584.65
463.78	31211.30
464.14	31739.07
464.50	32334.29
464.87	32801.46
465.23	33153.27
465.59	33524.10
465.95	33872.16
466.32	34128.99
466.68	34369.67
467.04	34510.10
467.40	34642.13
467.77	34801.94
468.13	34781.84
468.49	34687.14
468.85	34614.04
469.22	34446.48
469.58	34075.04
469.94	33832.35
470.30	33516.26
470.66	33096.28
471.03	32500.19
471.39	32114.49
471.75	31461.79
472.11	30845.64
472.47	30473.52
472.84	30154.60
473.20	29663.60
473.56	29386.92
473.92	28989.38
474.28	28469.41
474.65	27973.38
475.01	27487.70
475.37	26919.65
475.73	26438.13
476.09	25926.98
476.45	25400.71
476.81	24884.86
477.18	24345.39
477.54	23888.26
477.90	23510.77
478.26	23096.36
478.62	22770.88
478.98	22476.35
479.34	22173.30
479.71	21770.17
480.07	21434.27
480.43	21055.97
480.79	20682.17
481.15	20315.17
481.51	20012.24
481.87	19753.56
482.23	19489.06
482.59	19231.69
482.96	18967.68
483.32	18676.91
483.68	18292.32
484.04	17941.59
484.40	17579.53
484.76	17212.39
485.12	16832.36
485.48	16529.94
485.84	16175.35
486.20	15815.66
486.56	15441.36
486.92	15138.12
487.28	14787.79
487.64	14434.72
488.00	14107.77
488.37	13797.34
488.73	13432.26
489.09	13076.57
489.45	12765.56
489.81	12452.35
490.17	12157.96
490.53	11877.75
490.89	11577.37
491.25	11276.96
491.61	10971.66
491.97	10646.11
492.33	10320.90
492.69	10029.92
493.05	9721.16
493.41	9435.78
493.77	9161.42
494.13	8908.31
494.49	8658.06
494.85	8416.80
495.21	8196.39
495.57	7979.42
495.93	7769.22
496.29	7567.75
496.64	7391.69
497.00	7194.81
497.36	7001.22
497.72	6802.93
498.08	6616.83
498.44	6427.49
498.80	6251.76
499.16	6089.98
499.52	5943.35
499.88	5814.38
500.24	5698.10
500.60	5577.75
500.96	5467.87
501.32	5357.30
501.68	5237.02
502.03	5108.31
502.39	4981.17
502.75	4843.34
503.11	4719.46
503.47	4597.63
503.83	4479.32
504.19	4360.79
504.55	4255.09
504.91	4148.88
505.26	4049.29
505.62	3958.13
505.98	3875.20
506.34	3786.92
506.70	3700.06
507.06	3611.89
507.42	3523.98
507.78	3442.23
508.13	3365.04
508.49	3285.92
508.85	3214.80
509.21	3145.63
509.57	3077.85
509.93	3011.45
510.28	2945.24
510.64	2885.76
511.00	2829.59
511.36	2772.15
511.72	2714.60
512.07	2671.51
512.43	2615.50
512.79	2555.98
513.15	2502.38
513.51	2453.40
513.86	2408.43
514.22	2370.71
514.58	2336.91
514.94	2300.61
515.30	2269.08
515.65	2228.33
516.01	2194.11
516.37	2161.27
516.73	2132.39
517.08	2099.95
517.44	2068.24
517.80	2039.80
518.16	2014.43
518.51	1990.77
518.87	1965.77
519.23	1943.23
519.59	1914.91
519.94	1886.33
520.30	1859.18
520.66	1832.76
521.01	1808.30
521.37	1789.88
521.73	1767.62
522.09	1749.08
522.44	1733.21
522.80	1712.80
523.16	1686.78
523.51	1667.56
523.87	1646.36
524.23	1626.91
524.58	1609.80
524.94	1599.55
525.30	1582.11
525.65	1562.24
526.01	1544.59
526.37	1532.30
526.72	1515.87
527.08	1504.19
527.44	1496.26
527.79	1483.95
528.15	1467.40
528.51	1454.78
528.86	1442.26
529.22	1428.97
529.58	1417.92
529.93	1408.21
530.29	1399.24
530.65	1393.02
531.00	1385.48
531.36	1379.02
531.71	1370.85
532.07	1362.57
532.43	1351.52
532.78	1339.30
533.14	1330.55
533.49	1323.69
533.85	1314.63
534.21	1306.91
534.56	1302.51
534.92	1293.64
535.27	1285.56
535.63	1279.13
535.98	1274.30
536.34	1267.21
536.69	1263.40
537.05	1259.47
537.41	1256.40
537.76	1250.88
538.12	1251.04
538.47	1245.33
538.83	1245.07
539.18	1241.35
539.54	1238.66
539.89	1233.06
540.25	1229.25
540.60	1223.12
540.96	1218.32
541.31	1214.74
541.67	1207.88
542.02	1204.30
542.38	1200.55
542.73	1197.51
543.09	1193.11
543.44	1191.05
543.80	1188.41
544.15	1187.42
544.51	1183.87
544.86	1182.30
545.22	1180.45
545.57	1180.17
545.93	1176.87
546.28	1175.93
546.64	1175.67
546.99	1176.10
547.35	1175.81
547.70	1174.36
548.05	1170.01
548.41	1165.52
548.76	1162.54
549.12	1157.04
549.47	1151.78
549.83	1150.61
550.18	1149.88
550.53	1147.38
550.89	1142.42
551.24	1137.87
551.60	1140.75
551.95	1137.57
552.30	1135.84
552.66	1136.21
553.01	1133.92
553.37	1128.11
553.72	1127.83
554.07	1126.17
554.43	1126.08
554.78	1129.43
555.13	1126.97
555.49	1125.31
555.84	1122.87
556.19	1123.15
556.55	1118.21
556.90	1119.74
557.26	1117.58
557.61	1117.02
557.96	1113.56
558.32	1117.58
558.67	1119.13
559.02	1119.81
559.37	1123.90
559.73	1121.49
560.08	1118.33
560.43	1117.14
560.79	1112.25
561.14	1106.86
561.49	1112.13
561.85	1114.61
562.20	1110.12
562.55	1115.48
562.90	1115.62
563.26	1110.40
563.61	1111.24
563.96	1111.75
564.32	1108.83
564.67	1109.34
565.02	1111.97
565.37	1110.84
565.73	1110.77
566.08	1110.89
566.43	1106.30
566.78	1104.50
567.14	1099.23
567.49	1099.96
567.84	1100.31
568.19	1100.85
568.54	1100.59
568.90	1104.03
569.25	1102.02
569.60	1100.89
569.95	1102.81
570.31	1103.38
570.66	1099.12
571.01	1100.92
571.36	1102.30
571.71	1103.38
572.06	1102.74
572.42	1106.75
572.77	1104.38
573.12	1103.09
573.47	1101.32
573.82	1099.77
574.18	1096.82
574.53	1098.04
574.88	1097.17
575.23	1095.07
575.58	1093.97
575.93	1092.56
576.28	1094.01
576.64	1094.29
576.99	1096.52
577.34	1098.48
577.69	1102.37
578.04	1100.82
578.39	1101.67
578.74	1098.60
579.09	1094.29
579.44	1089.26
579.80	1087.93
580.15	1084.60
580.50	1085.89
580.85	1091.88
581.20	1097.20
581.55	1096.26
581.90	1100.73
582.25	1099.61
582.60	1098.20
582.95	1096.66
583.30	1097.27
583.65	1093.71
584.00	1094.18
584.35	1092.07
584.71	1092.84
585.06	1092.26
585.41	1089.22
585.76	1088.07
586.11	1087.53
586.46	1083.32
586.81	1081.19
587.16	1081.58
587.51	1082.76
587.86	1080.95
588.21	1080.27
588.56	1080.88
588.91	1082.66
589.26	1083.93
589.61	1088.89
589.96	1089.71
590.31	1089.78
590.66	1090.85
591.01	1089.96
591.36	1085.73
591.71	1086.73
592.06	1087.67
592.41	1087.46
592.76	1087.48
593.10	1090.46
593.45	1091.11
593.80	1091.39
594.15	1091.18
594.50	1092.09
594.85	1088.30
595.20	1088.44
595.55	1088.02
595.90	1086.73
596.25	1087.44
596.60	1090.85
596.95	1090.46
597.30	1092.56
597.64	1106.04
597.99	1105.88
598.34	1103.07
598.69	1102.49
599.04	1101.06
599.39	1085.75
599.74	1083.48
600.09	1082.31
600.44	1082.54
600.78	1079.27
601.13	1081.80
601.48	1080.39
601.83	1080.09
602.18	1081.96
602.53	1086.90
602.88	1085.12
603.22	1086.10
603.57	1088.23
603.92	1082.12
604.27	1078.17
604.62	1079.92
604.97	1081.30
605.31	1083.15
605.66	1087.23
606.01	1086.87
606.36	1085.56
606.71	1083.20
607.05	1079.64
607.40	1078.75
607.75	1078.26
608.10	1080.27
608.44	1080.41
608.79	1082.97
609.14	1080.04
609.49	1081.56
609.84	1078.31
610.18	1079.57
610.53	1077.14
610.88	1079.57
611.23	1079.48
611.57	1080.86
611.92	1080.86
612.27	1081.63
612.62	1083.22
612.96	1082.03
613.31	1083.90
613.66	1083.71
614.00	1087.83
614.35	1088.09
614.70	1090.76
615.05	1090.46
615.39	1091.20
615.74	1088.63
616.09	1086.03
616.43	1083.62
616.78	1081.89
617.13	1083.46
617.47	1082.85
617.82	1082.92
618.17	1085.17
618.51	1088.04
618.86	1085.75
619.21	1084.21
619.55	1084.23
619.90	1083.67
620.25	1083.18
620.59	1084.84
620.94	1084.63
621.29	1085.14
621.63	1083.32
621.98	1085.28
622.32	1084.35
622.67	1084.07
623.02	1084.84
623.36	1086.71
623.71	1081.51
624.05	1081.26
624.40	1083.60
624.75	1085.24
625.09	1085.56
625.44	1086.06
625.78	1086.10
626.13	1084.04
626.48	1081.28
626.82	1080.34
627.17	1081.56
627.51	1082.10
627.86	1084.11
628.20	1084.96
628.55	1082.36
628.89	1079.48
629.24	1077.63
629.58	1075.94
629.93	1074.98
630.28	1078.03
630.62	1081.70
630.97	1083.86
631.31	1084.39
631.66	1085.21
632.00	1086.08
632.35	1082.64
632.69	1079.60
633.04	1080.93
633.38	1081.19
633.73	1079.99
634.07	1081.00
634.42	1085.21
634.76	1082.87
635.11	1082.59
635.45	1084.37
635.79	1085.84
636.14	1082.36
636.48	1082.52
636.83	1082.52
637.17	1080.72
637.52	1078.99
637.86	1077.35
638.21	1078.40
638.55	1074.68
638.89	1075.08
639.24	1079.71
639.58	1080.74
639.93	1079.29
640.27	1083.08
640.61	1082.36
640.96	1078.85
641.30	1080.65
641.65	1083.95
641.99	1082.87
642.33	1081.66
642.68	1083.25
643.02	1080.77
643.37	1078.12
643.71	1078.87
644.05	1083.57
644.40	1082.29
644.74	1084.30
645.08	1083.79
645.43	1084.11
645.77	1080.67
646.11	1080.91
646.46	1083.55
646.80	1083.27
647.14	1079.34
647.49	1077.63
647.83	1078.17
648.17	1078.12
648.52	1081.02
648.86	1082.92
649.20	1086.73
649.55	1086.08
649.89	1082.03
650.23	1080.91
650.57	1084.67
650.92	1085.12
651.26	1085.38
651.60	1085.31
651.95	1087.02
652.29	1084.70
652.63	1086.22
652.97	1086.43
653.32	1086.94
653.66	1084.67
654.00	1085.63
654.34	1079.13
654.69	1079.03
655.03	1079.97
655.37	1079.83
655.71	1077.56
656.05	1079.99
656.40	1078.80
656.74	1081.54
657.08	1085.00
657.42	1088.19
657.76	1088.86
658.11	1091.77
658.45	1089.59
658.79	1089.71
659.13	1090.01
659.47	1090.53
659.82	1086.48
660.16	1085.59
660.50	1082.47
660.84	1079.78
661.18	1078.19
661.52	1079.71
661.87	1080.20
662.21	1080.53
662.55	1081.96
662.89	1080.16
663.23	1079.50
663.57	1075.13
663.91	1071.80
664.25	1068.43
664.60	1071.36
664.94	1073.77
665.28	1077.72
665.62	1081.19
665.96	1084.00
666.30	1081.49
666.64	1079.41
666.98	1077.42
667.32	1076.41
667.66	1077.75
668.01	1079.99
668.35	1082.85
668.69	1085.54
669.03	1086.62
669.37	1086.10
669.71	1086.24
670.05	1082.66
670.39	1081.49
670.73	1078.31
671.07	1078.36
671.41	1077.58
671.75	1080.30
672.09	1081.00
672.43	1083.06
672.77	1083.67
673.11	1083.74
673.45	1082.47
673.79	1084.28
674.13	1083.60
674.47	1081.14
674.81	1080.02
675.15	1080.67
675.49	1077.54
675.83	1077.58
676.17	1078.50
676.51	1080.16
676.85	1078.36
677.19	1081.42
677.53	1081.58
677.87	1083.48
678.21	1082.29
678.55	1084.67
678.89	1081.91
679.23	1081.16
679.57	1078.57
679.90	1082.50
680.24	1077.35
680.58	1075.90
680.92	1080.51
681.26	1080.81
681.60	1077.84
681.94	1081.61
682.28	1082.50
682.62	1078.71
682.96	1078.26
683.29	1078.38
683.63	1079.22
683.97	1084.14
684.31	1086.13
684.65	1085.61
684.99	1086.94
685.33	1085.89
685.67	1084.09
686.00	1081.21
686.34	1082.10
686.68	1080.93
687.02	1081.23
687.36	1076.86
687.70	1079.08
688.03	1078.33
688.37	1076.95
688.71	1077.82
689.05	1082.29
689.39	1080.53
689.72	1082.69
690.06	1082.57
690.40	1080.06
690.74	1081.56
691.08	1083.22
691.41	1085.05
691.75	1083.83
692.09	1086.92
692.43	1083.48
692.76	1085.91
693.10	1084.77
693.44	1088.98
693.78	1086.31
694.11	1084.91
694.45	1079.97
694.79	1077.40
695.13	1075.45
695.46	1076.27
695.80	1078.14
696.14	1080.98
696.48	1081.37
696.81	1081.49
697.15	1083.04
697.49	1081.47
697.82	1081.47
698.16	1080.98
698.50	1079.48
698.83	1080.39
699.17	1083.08
699.51	1082.59
699.84	1084.46
700.18	1086.06
700.52	1083.83
700.85	1081.87
701.19	1080.79
701.53	1077.37
701.86	1077.40
702.20	1077.28
702.54	1079.20
702.87	1078.61
703.21	1082.64
703.55	1082.10
703.88	1083.25
704.22	1083.93
704.55	1085.89
704.89	1084.86
705.23	1085.63
705.56	1086.20
705.90	1084.89
706.23	1084.65
706.57	1085.61
706.91	1085.80
707.24	1083.39
707.58	1083.20
707.91	1078.94
708.25	1076.69
708.58	1074.87
708.92	1073.00
709.26	1073.11
709.59	1077.11
709.93	1074.77
710.26	1074.63
710.60	1075.69
710.93	1074.80
711.27	1073.25
711.60	1075.87
711.94	1074.21
712.27	1072.60
712.61	1073.04
712.94	1073.46
713.28	1075.48
713.61	1077.40
713.95	1077.35
714.28	1076.65
714.62	1078.33
714.95	1077.30
715.29	1078.28
715.62	1079.69
715.96	1078.68
716.29	1079.29
716.63	1077.86
716.96	1075.29
717.29	1076.34
717.63	1078.31
717.96	1076.67
718.30	1080.09
718.63	1083.43
718.97	1082.05
719.30	1081.68
719.63	1080.65
719.97	1077.65
720.30	1076.88
720.64	1077.51
720.97	1074.24
721.30	1075.59
721.64	1073.95
721.97	1072.95
722.31	1075.45
722.64	1079.20
722.97	1078.21
723.31	1080.20
723.64	1078.87
723.97	1075.27
724.31	1073.49
724.64	1074.84
724.98	1076.79
725.31	1075.87
725.64	1077.04
725.98	1075.94
726.31	1075.48
726.64	1073.02
726.97	1074.59
727.31	1075.69
727.64	1079.85
727.97	1078.68
728.31	1079.31
728.64	1077.63
728.97	1078.40
729.31	1078.61
729.64	1080.44
729.97	1081.35
730.30	1085.82
730.64	1085.33
730.97	1079.74
731.30	1079.06
731.63	1075.05
731.97	1072.71
732.30	1070.80
732.63	1070.80
732.96	1071.15
733.30	1074.05
733.63	1075.15
733.96	1077.61
734.29	1079.57
734.63	1080.04
734.96	1079.22
735.29	1076.76
735.62	1074.12
735.95	1076.88
736.29	1078.73
736.62	1078.59
736.95	1083.01
737.28	1083.22
737.61	1081.12
737.94	1077.09
738.28	1080.44
738.61	1080.48
738.94	1082.64
739.27	1084.35
739.60	1083.76
739.93	1081.70
740.27	1078.75
740.60	1079.62
740.93	1080.09
741.26	1079.57
741.59	1079.22
741.92	1080.09
742.25	1079.55
742.58	1077.63
742.91	1080.23
743.25	1081.40
743.58	1082.47
743.91	1082.10
744.24	1083.88
744.57	1083.22
744.90	1082.03
745.23	1078.26
745.56	1077.11
745.89	1073.53
746.22	1075.01
746.55	1077.04
746.88	1077.72
747.21	1078.28
747.54	1081.05
747.87	1083.20
748.20	1082.57
748.53	1085.94
748.87	1085.35
749.20	1081.63
749.53	1077.70
749.86	1077.93
750.19	1075.57
750.52	1076.95
750.85	1078.78
751.18	1079.17
751.51	1078.00
751.84	1077.86
752.16	1077.07
752.49	1075.31
752.82	1075.99
753.15	1075.78
753.48	1077.02
753.81	1078.03
754.14	1082.71
754.47	1082.10
754.80	1082.19
755.13	1080.72
755.46	1079.41
755.79	1073.65
756.12	1073.95
756.45	1072.06
756.78	1072.08
757.11	1074.45
757.43	1078.75
757.76	1080.11
758.09	1081.09
758.42	1080.60
758.75	1079.90
759.08	1080.13
759.41	1081.37
759.74	1078.52
760.07	1078.96
760.39	1076.32
760.72	1073.14
761.05	1073.93
761.38	1078.12
761.71	1079.08
762.04	1081.21
762.36	1084.35
762.69	1082.83
763.02	1084.21
763.35	1086.03
763.68	1081.94
764.01	1081.05
764.33	1078.12
764.66	1076.46
764.99	1075.29
765.32	1077.37
765.65	1078.05
765.97	1078.61
766.30	1078.21
766.63	1078.07
766.96	1079.69
767.28	1079.29
767.61	1078.17
767.94	1076.62
768.27	1075.45
768.59	1074.75
768.92	1075.17
769.25	1077.72
769.58	1077.63
769.90	1078.99
770.23	1079.34
770.56	1080.51
770.89	1081.28
771.21	1080.32
771.54	1082.47
771.87	1083.95
772.19	1084.25
772.52	1083.04
772.85	1085.73
773.17	1083.39
773.50	1082.15
773.83	1080.86
774.15	1080.72
774.48	1082.47
774.81	1082.90
775.13	1085.47
775.46	1084.96
775.79	1082.33
776.11	1078.26
776.44	1076.27
776.77	1074.07
777.09	1076.32
777.42	1077.47
777.74	1076.86
778.07	1078.19
778.40	1077.58
778.72	1072.06
779.05	1075.08
779.37	1080.32
779.70	1082.52
780.03	1079.97
780.35	1081.33
780.68	1079.46
781.00	1076.97
781.33	1076.15
781.65	1079.17
781.98	1081.16
782.31	1077.56
782.63	1075.59
782.96	1075.94
783.28	1078.12
783.61	1076.76
783.93	1079.74
784.26	1079.90
784.58	1079.74
784.91	1078.36
785.23	1079.43
785.56	1080.13
785.88	1082.33
786.21	1083.29
786.53	1081.49
786.86	1080.70
787.18	1078.82
787.51	1078.89
787.83	1076.08
788.16	1075.31
788.48	1075.31
788.81	1078.50
789.13	1078.61
789.46	1077.09
789.78	1075.22
790.10	1075.17
790.43	1074.14
790.75	1072.64
791.08	1074.28
791.40	1074.56
791.73	1072.36
792.05	1071.36
792.37	1071.43
792.70	1071.12
793.02	1075.69
793.35	1079.22
793.67	1079.99
793.99	1083.25
794.32	1084.44
794.64	1081.51
794.96	1080.60
795.29	1079.76
795.61	1074.82
795.93	1074.91
796.26	1076.74
796.58	1081.37
796.91	1082.69
797.23	1084.11
797.55	1082.50
797.87	1079.62
798.20	1072.95
798.52	1072.39
798.84	1070.80
799.17	1070.09
799.49	1071.75
799.81	1078.33
800.14	1079.71
800.46	1081.54
800.78	1080.72
801.10	1080.67
801.43	1076.25
801.75	1072.18
802.07	1073.42
802.40	1076.41
802.72	1079.29
803.04	1077.98
803.36	1082.47
803.69	1084.37
804.01	1084.72
804.33	1082.22
804.65	1087.65
804.97	1082.80
805.30	1077.58
805.62	1077.77
805.94	1078.59
806.26	1074.52
806.58	1079.20
806.91	1080.39
807.23	1078.14
807.55	1080.02
807.87	1079.01
808.19	1073.95
808.52	1074.82
808.84	1072.55
809.16	1072.55
809.48	1075.34
809.80	1077.09
810.12	1074.33
810.44	1077.86
810.77	1074.66
811.09	1073.00
811.41	1072.62
811.73	1076.51
812.05	1072.57
812.37	1071.92
812.69	1068.43
813.01	1068.64
813.33	1067.75
813.66	1071.50
813.98	1072.83
814.30	1075.08
814.62	1077.35
814.94	1074.82
815.26	1075.08
815.58	1073.63
815.90	1071.12
816.22	1071.15
816.54	1074.38
816.86	1072.81
817.18	1074.40
817.50	1079.67
817.82	1078.71
818.14	1079.36
818.46	1079.29
818.78	1079.64
819.10	1079.71
819.42	1078.78
819.74	1078.31
820.06	1076.79
820.38	1073.21
820.70	1072.25
821.02	1071.85
821.34	1070.84
821.66	1073.23
821.98	1074.05
822.30	1074.14
822.62	1075.83
822.94	1076.60
823.26	1075.83
823.58	1077.49
823.90	1077.28
824.22	1079.13
824.54	1080.18
824.86	1081.73
825.18	1087.46
825.50	1086.29
825.81	1087.13
826.13	1086.38
826.45	1086.13
826.77	1078.26
827.09	1078.52
827.41	1075.69
827.73	1074.42
828.05	1074.26
828.36	1073.86
828.68	1073.77
829.00	1073.11
829.32	1074.07
829.64	1073.81
829.96	1072.76
830.28	1074.42
830.59	1075.45
830.91	1072.57
831.23	1073.67
831.55	1078.26
831.87	1076.58
832.19	1077.40
832.50	1080.16
832.82	1076.76
833.14	1077.82
833.46	1077.40
833.78	1076.11
834.09	1077.04
834.41	1079.27
834.73	1075.22
835.05	1075.05
835.36	1076.20
835.68	1074.14
836.00	1072.55
836.32	1074.14
836.63	1076.25
836.95	1076.55
837.27	1078.40
837.59	1080.27
837.90	1081.54
838.22	1080.67
838.54	1080.04
838.85	1078.21
839.17	1078.68
839.49	1080.34
839.80	1083.15
840.12	1083.20
840.44	1084.70
840.76	1082.22
841.07	1081.61
841.39	1080.44
841.71	1080.98
842.02	1081.98
842.34	1085.14
842.65	1084.42
842.97	1082.52
843.29	1081.26
843.60	1083.27
843.92	1082.97
844.24	1080.77
844.55	1080.81
844.87	1080.06
845.18	1076.06
845.50	1075.38
845.82	1076.30
846.13	1075.52
846.45	1078.66
846.76	1080.18
847.08	1081.16
847.40	1081.26
847.71	1081.02
848.03	1077.65
848.34	1075.22
848.66	1071.80
848.97	1072.13
849.29	1073.35
849.60	1075.94
849.92	1073.67
850.24	1075.08
850.55	1075.94
850.87	1073.93
851.18	1071.12
851.50	1071.26
851.81	1070.70
852.13	1068.08
852.44	1069.16
852.76	1068.01
853.07	1071.50
853.39	1072.15
853.70	1074.26
854.01	1074.63
854.33	1077.79
854.64	1075.05
854.96	1073.65
855.27	1071.92
855.59	1072.53
855.90	1074.56
856.22	1077.02
856.53	1075.36
856.84	1075.55
857.16	1076.55
857.47	1072.85
857.79	1071.78
858.10	1075.36
858.41	1075.80
858.73	1078.21
859.04	1078.68
859.36	1079.13
859.67	1076.83
859.98	1077.65
860.30	1072.29
860.61	1074.05
860.92	1074.52
861.24	1077.93
861.55	1079.22
861.87	1082.71
862.18	1078.80
862.49	1082.26
862.81	1081.07
863.12	1082.12
863.43	1078.71
863.74	1080.20
864.06	1077.28
864.37	1076.69
864.68	1074.68
865.00	1079.76
865.31	1081.09
865.62	1080.30
865.94	1080.23
866.25	1078.92
866.56	1074.45
866.87	1072.15
867.19	1075.10
867.50	1076.67
867.81	1076.32
868.12	1075.43
868.44	1074.31
868.75	1070.89
869.06	1070.35
869.37	1073.09
869.68	1075.99
870.00	1079.31
870.31	1080.37
870.62	1079.67
870.93	1076.13
871.24	1072.53
871.56	1071.66
871.87	1070.44
872.18	1071.19
872.49	1073.30
872.80	1076.23
873.12	1074.40
873.43	1077.68
873.74	1076.13
874.05	1076.46
874.36	1075.29
874.67	1081.61
874.98	1078.12
875.29	1079.71
875.61	1080.32
875.92	1079.03
876.23	1074.26
876.54	1073.18
876.85	1072.57
877.16	1070.35
877.47	1072.55
877.78	1074.17
878.09	1076.13
878.40	1078.54
878.72	1084.39
879.03	1084.00
879.34	1085.77
879.65	1085.94
879.96	1083.60
880.27	1079.97
880.58	1077.61
880.89	1076.18
881.20	1078.89
881.51	1081.40
881.82	1079.62
882.13	1084.65
882.44	1083.95
882.75	1080.02
883.06	1077.21
883.37	1077.00
883.68	1074.66
883.99	1073.32
884.30	1075.13
884.61	1077.07
884.92	1077.84
885.23	1075.48
885.54	1075.41
885.85	1077.56
886.16	1077.40
886.47	1079.46
886.78	1079.97
887.08	1077.91
887.39	1075.13
887.70	1075.92
888.01	1075.62
888.32	1078.40
888.63	1085.00
888.94	1085.47
889.25	1082.45
889.56	1078.50
889.87	1078.10
890.17	1073.21
890.48	1069.16
890.79	1070.96
891.10	1072.20
891.41	1067.45
891.72	1065.86
892.03	1071.92
892.34	1070.02
892.64	1069.46
892.95	1074.26
893.26	1080.02
893.57	1077.58
893.88	1076.93
894.18	1079.13
894.49	1078.50
894.80	1078.54
895.11	1080.37
895.42	1080.25
895.72	1079.46
896.03	1083.29
896.34	1084.09
896.65	1083.53
896.96	1087.27
897.26	1086.08
897.57	1081.35
897.88	1075.03
898.19	1073.53
898.49	1073.44
898.80	1076.27
899.11	1077.21
899.41	1081.63
899.72	1081.16
900.03	1081.54
900.34	1082.71
900.64	1082.78
900.95	1083.39
901.26	1083.55
901.56	1082.66
901.87	1080.13
902.18	1081.02
902.48	1080.04
902.79	1080.34
903.10	1078.78
903.40	1077.61
903.71	1075.78
904.02	1071.59
904.32	1071.05
904.63	1069.27
904.94	1068.69
905.24	1069.23
905.55	1070.44
905.85	1071.17
906.16	1073.56
906.47	1075.01
906.77	1074.84
907.08	1073.04
907.38	1074.42
907.69	1071.33
908.00	1069.70
908.30	1069.09
908.61	1069.88
908.91	1067.99
909.22	1070.61
909.52	1071.94
909.83	1074.33
910.14	1077.47
910.44	1078.57
910.75	1078.82
911.05	1080.18
911.36	1078.75
911.66	1075.10
911.97	1075.01
912.27	1072.76
912.58	1069.16
912.88	1067.82
913.19	1070.23
913.49	1071.85
913.80	1071.85
914.10	1074.68
914.41	1077.00
914.71	1077.18
915.01	1076.27
915.32	1079.99
915.62	1080.13
915.93	1080.70
916.23	1079.57
916.54	1078.36
916.84	1077.33
917.15	1075.41
917.45	1074.00
917.75	1075.03
918.06	1072.78
918.36	1073.49
918.67	1074.24
918.97	1076.90
919.27	1078.05
919.58	1080.74
919.88	1078.40
920.18	1078.54
920.49	1075.36
920.79	1075.01
921.10	1075.31
921.40	1076.60
921.70	1075.03
922.01	1074.77
922.31	1073.67
922.61	1074.66
922.92	1074.98
923.22	1077.02
923.52	1076.15
923.82	1076.55
924.13	1074.59
924.43	1071.05
924.73	1070.98
925.04	1074.56
925.34	1073.84
925.64	1075.80
925.94	1075.45
926.25	1073.16
926.55	1071.08
926.85	1073.93
927.15	1073.37
927.46	1077.09
927.76	1082.31
928.06	1082.47
928.36	1078.57
928.67	1079.31
928.97	1080.30
929.27	1078.21
929.57	1078.36
929.87	1080.63
930.18	1078.71
930.48	1078.54
930.78	1077.02
931.08	1077.65
931.38	1077.98
931.69	1076.86
931.99	1075.52
932.29	1080.93
932.59	1078.64
932.89	1078.61
933.19	1082.29
933.49	1080.74
933.80	1075.36
934.10	1079.83
934.40	1079.57
934.70	1076.04
935.00	1080.06
935.30	1079.03
935.60	1077.51
935.90	1077.44
936.20	1079.36
936.50	1075.78
936.81	1076.23
937.11	1076.25
937.41	1078.21
937.71	1077.14
938.01	1079.10
938.31	1083.01
938.61	1079.08
938.91	1078.85
939.21	1079.67
939.51	1079.90
939.81	1076.41
940.11	1076.79
940.41	1074.47
940.71	1074.68
941.01	1070.54
941.31	1070.65
941.61	1072.90
941.91	1068.55
942.21	1068.08
942.51	1070.94
942.81	1071.26
943.11	1072.55
943.41	1076.32
943.71	1078.66
944.01	1079.15
944.31	1079.34
944.61	1079.78
944.90	1082.61
945.20	1083.53
945.50	1080.09
945.80	1079.22
946.10	1078.45
946.40	1079.10
946.70	1075.41
947.00	1080.27
947.30	1081.42
947.60	1080.67
947.89	1077.91
948.19	1078.85
948.49	1074.47
948.79	1072.01
949.09	1070.42
949.39	1070.21
949.69	1070.16
949.98	1073.98
950.28	1076.51
950.58	1079.17
950.88	1079.06
951.18	1076.97
951.48	1072.18
951.77	1073.44
952.07	1075.38
952.37	1076.34
952.67	1076.41
952.97	1082.38
953.26	1082.57
953.56	1077.37
953.86	1075.71
954.16	1075.71
954.45	1074.75
954.75	1074.24
955.05	1076.13
955.35	1078.99
955.64	1079.99
955.94	1079.27
956.24	1077.75
956.54	1074.94
956.83	1073.23
957.13	1072.69
957.43	1073.60
957.72	1074.12
958.02	1077.72
958.32	1075.41
958.61	1076.01
958.91	1077.14
959.21	1078.19
959.50	1075.27
959.80	1076.93
960.10	1077.98
960.39	1071.85
960.69	1069.86
960.99	1072.08
961.28	1069.18
961.58	1069.41
961.87	1072.71
962.17	1074.68
962.47	1075.92
962.76	1081.42
963.06	1081.26
963.36	1080.60
963.65	1077.82
963.95	1075.48
964.24	1073.58
964.54	1073.35
964.83	1072.43
965.13	1072.95
965.42	1071.17
965.72	1071.36
966.02	1071.05
966.31	1071.85
966.61	1073.51
966.90	1074.68
967.20	1075.90
967.49	1076.51
967.79	1076.13
968.08	1076.18
968.38	1077.54
968.67	1074.87
968.97	1074.54
969.26	1075.34
969.56	1075.71
969.85	1077.89
970.15	1080.72
970.44	1080.32
970.74	1082.54
971.03	1081.98
971.32	1079.31
971.62	1078.33
971.91	1075.22
972.21	1073.72
972.50	1074.42
972.80	1075.80
973.09	1073.49
973.38	1075.24
973.68	1070.98
973.97	1069.95
974.27	1070.89
974.56	1071.50
974.85	1073.11
975.15	1076.79
975.44	1076.41
975.73	1073.74
976.03	1077.09
976.32	1077.91
976.61	1078.31
976.91	1080.09
977.20	1082.24
977.49	1082.17
977.79	1083.55
978.08	1084.89
978.37	1084.16
978.67	1082.69
978.96	1082.71
979.25	1077.28
979.55	1075.78
979.84	1076.27
980.13	1076.18
980.42	1076.32
980.72	1079.99
981.01	1081.47
981.30	1083.48
981.59	1084.63
981.89	1082.17
982.18	1082.24
982.47	1079.53
982.76	1074.19
983.06	1075.62
983.35	1073.60
983.64	1070.82
983.93	1073.11
984.22	1074.89
984.52	1073.16
984.81	1075.83
985.10	1078.66
985.39	1077.96
985.68	1079.95
985.97	1078.75
986.27	1079.88
986.56	1077.11
986.85	1076.32
987.14	1075.34
987.43	1076.01
987.72	1075.85
988.01	1079.10
988.31	1080.72
988.60	1080.11
988.89	1079.97
989.18	1077.28
989.47	1076.34
989.76	1075.76
990.05	1075.71
990.34	1076.27
990.63	1078.94
990.92	1078.45
991.21	1078.89
991.51	1077.68
991.80	1075.45
992.09	1075.50
992.38	1075.69
992.67	1073.67
992.96	1075.22
993.25	1074.59
993.54	1073.56
993.83	1072.95
994.12	1074.21
994.41	1073.25
994.70	1073.79
994.99	1072.15
995.28	1073.00
995.57	1070.75
995.86	1073.25
996.15	1077.98
996.44	1074.28
996.73	1075.48
997.02	1077.23
997.31	1073.18
997.59	1068.85
997.88	1072.27
998.17	1071.33
998.46	1068.38
998.75	1068.97
999.04	1071.10
999.33	1073.07
999.62	1070.89
999.91	1074.28
1000.20	1077.51
1000.49	1077.68
1000.77	1079.15
1001.06	1080.48
1001.35	1078.80
1001.64	1077.72
1001.93	1076.18
1002.22	1075.05
1002.51	1073.46
1002.79	1075.10
1003.08	1074.54
1003.37	1076.18
1003.66	1076.90
1003.95	1077.61
1004.23	1074.28
1004.52	1071.73
1004.81	1071.47
1005.10	1069.27
1005.39	1069.02
1005.67	1073.63
1005.96	1077.79
1006.25	1077.28
1006.54	1078.78
1006.83	1079.03
1007.11	1075.76
1007.40	1075.17
1007.69	1072.92
1007.97	1072.34
1008.26	1074.91
1008.55	1075.10
1008.84	1075.24
1009.12	1077.35
1009.41	1077.58
1009.70	1077.18
1009.98	1077.75
1010.27	1076.15
1010.56	1073.32
1010.85	1072.57
1011.13	1069.32
1011.42	1068.67
1011.71	1072.06
1011.99	1074.21
1012.28	1071.38
1012.56	1073.79
1012.85	1072.55
1013.14	1070.35
1013.42	1071.01
1013.71	1073.21
1014.00	1070.23
1014.28	1073.25
1014.57	1076.58
1014.85	1080.11
1015.14	1080.37
1015.43	1085.12
1015.71	1086.80
1016.00	1081.54
1016.28	1075.94
1016.57	1077.79
1016.85	1075.52
1017.14	1074.56
1017.43	1077.65
1017.71	1080.51
1018.00	1077.86
1018.28	1076.44
1018.57	1075.90
1018.85	1074.42
1019.14	1073.56
1019.42	1075.71
1019.71	1078.50
1019.99	1077.82
1020.28	1074.05
1020.56	1074.24
1020.85	1072.43
1021.13	1070.12
1021.42	1068.92
1021.70	1072.76
1021.99	1073.14
1022.27	1073.04
1022.55	1078.05
1022.84	1070.56
>>>>>End Processed Spectral Data<<<<<
