SpectraSuite Data File
++++++++++++++++++++++++++++++++++++
Date: Mon Aug 26 10:22:01 PDT 2019
User: corrico
Dark Spectrum Present: No
Reference Spectrum Present: No
Number of Sampled Component Spectra: 1
Spectrometers: USB2+H06089
Integration Time (usec): 2000 (USB2+H06089)
Spectra Averaged: 20 (USB2+H06089)
Boxcar Smoothing: 2 (USB2+H06089)
Correct for Electrical Dark: No (USB2+H06089)
Strobe/Lamp Enabled: No (USB2+H06089)
Correct for Detector Non-linearity: No (USB2+H06089)
Correct for Stray Light: No (USB2+H06089)
Number of Pixels in Processed Spectrum: 2048
>>>>>Begin Processed Spectral Data<<<<<
339.70	1035.57
340.07	1035.57
340.45	1004.49
340.82	981.08
341.19	953.67
341.57	928.35
341.94	911.94
342.31	903.03
342.69	900.59
343.06	901.06
343.43	898.53
343.81	900.43
344.18	904.22
344.55	906.63
344.93	911.69
345.30	918.03
345.67	921.94
346.04	928.79
346.42	938.20
346.79	946.79
347.16	959.39
347.54	972.82
347.91	982.58
348.28	990.44
348.65	1000.65
349.03	1004.65
349.40	1011.16
349.77	1018.55
350.14	1025.53
350.52	1028.83
350.89	1035.01
351.26	1038.64
351.63	1046.06
352.01	1054.86
352.38	1062.18
352.75	1068.62
353.12	1073.42
353.50	1073.77
353.87	1071.45
354.24	1072.32
354.61	1074.21
354.98	1077.37
355.36	1081.23
355.73	1087.02
356.10	1090.48
356.47	1090.03
356.84	1089.54
357.22	1087.30
357.59	1085.75
357.96	1086.90
358.33	1090.39
358.70	1093.22
359.08	1092.66
359.45	1088.89
359.82	1084.49
360.19	1081.94
360.56	1078.00
360.94	1080.72
361.31	1081.66
361.68	1080.02
362.05	1076.93
362.42	1074.38
362.79	1073.04
363.16	1070.33
363.54	1072.01
363.91	1073.44
364.28	1077.18
364.65	1077.11
365.02	1077.96
365.39	1074.28
365.76	1073.93
366.14	1071.99
366.51	1070.44
366.88	1073.00
367.25	1073.81
367.62	1072.71
367.99	1073.51
368.36	1077.49
368.73	1075.38
369.10	1078.10
369.48	1078.47
369.85	1081.33
370.22	1078.59
370.59	1077.28
370.96	1077.65
371.33	1075.27
371.70	1071.97
372.07	1071.52
372.44	1072.18
372.81	1073.81
373.18	1077.04
373.55	1079.03
373.93	1077.51
374.30	1076.32
374.67	1073.21
375.04	1071.26
375.41	1068.01
375.78	1070.35
376.15	1074.05
376.52	1075.69
376.89	1079.01
377.26	1084.30
377.63	1081.37
378.00	1079.15
378.37	1078.85
378.74	1079.53
379.11	1078.05
379.48	1081.30
379.85	1082.36
380.22	1085.40
380.59	1084.35
380.96	1081.73
381.33	1080.91
381.70	1079.85
382.07	1077.14
382.44	1074.49
382.81	1073.91
383.18	1075.29
383.55	1076.93
383.92	1075.83
384.29	1077.28
384.66	1077.79
385.03	1076.46
385.40	1076.27
385.77	1076.25
386.14	1079.36
386.51	1082.31
386.88	1082.03
387.25	1082.87
387.62	1080.77
387.99	1080.86
388.36	1080.53
388.73	1083.06
389.10	1084.96
389.46	1090.48
389.83	1088.63
390.20	1087.32
390.57	1086.83
390.94	1086.43
391.31	1084.25
391.68	1085.33
392.05	1084.70
392.42	1085.82
392.79	1083.50
393.16	1081.87
393.53	1081.14
393.89	1081.23
394.26	1079.22
394.63	1083.39
395.00	1084.65
395.37	1087.60
395.74	1089.24
396.11	1093.64
396.48	1089.03
396.84	1089.87
397.21	1089.64
397.58	1089.00
397.95	1086.50
398.32	1088.51
398.69	1086.71
399.06	1084.63
399.42	1085.40
399.79	1082.87
400.16	1083.83
400.53	1086.06
400.90	1083.57
401.27	1084.04
401.64	1085.10
402.00	1083.06
402.37	1083.39
402.74	1089.03
403.11	1088.89
403.48	1091.44
403.84	1096.03
404.21	1096.89
404.58	1094.50
404.95	1094.04
405.32	1093.83
405.68	1093.08
406.05	1089.80
406.42	1089.82
406.79	1093.38
407.16	1093.33
407.52	1093.64
407.89	1098.09
408.26	1099.09
408.63	1093.76
408.99	1090.90
409.36	1088.65
409.73	1087.41
410.10	1085.17
410.47	1089.10
410.83	1089.64
411.20	1089.73
411.57	1087.93
411.94	1087.27
412.30	1087.27
412.67	1090.64
413.04	1090.10
413.40	1091.77
413.77	1094.74
414.14	1094.81
414.51	1095.02
414.87	1096.05
415.24	1098.65
415.61	1096.75
415.97	1097.71
416.34	1097.36
416.71	1098.62
417.08	1098.18
417.44	1100.45
417.81	1101.69
418.18	1102.84
418.54	1105.58
418.91	1103.77
419.28	1109.88
419.64	1109.06
420.01	1107.56
420.38	1108.81
420.74	1112.43
421.11	1107.45
421.48	1108.81
421.84	1115.24
422.21	1116.67
422.58	1116.86
422.94	1122.15
423.31	1123.86
423.68	1121.26
424.04	1121.37
424.41	1126.10
424.77	1128.16
425.14	1131.60
425.51	1135.91
425.87	1141.78
426.24	1143.68
426.61	1150.02
426.97	1158.89
427.34	1165.40
427.70	1169.14
428.07	1175.18
428.44	1177.24
428.80	1182.20
429.17	1186.86
429.53	1194.09
429.90	1205.52
430.27	1218.32
430.63	1224.92
431.00	1238.19
431.36	1254.04
431.73	1264.17
432.09	1276.08
432.46	1290.38
432.83	1303.12
433.19	1312.27
433.56	1329.26
433.92	1348.99
434.29	1368.04
434.65	1390.02
435.02	1416.80
435.38	1442.50
435.75	1465.20
436.11	1493.94
436.48	1523.95
436.84	1552.20
437.21	1585.41
437.57	1618.95
437.94	1654.10
438.30	1691.46
438.67	1732.93
439.03	1776.28
439.40	1831.91
439.76	1884.06
440.13	1943.77
440.49	2009.00
440.86	2073.81
441.22	2133.75
441.59	2206.61
441.95	2287.19
442.32	2362.77
442.68	2448.25
443.05	2542.01
443.41	2635.23
443.78	2726.40
444.14	2831.77
444.51	2944.32
444.87	3071.46
445.24	3197.57
445.60	3336.18
445.96	3470.52
446.33	3616.13
446.69	3764.03
447.06	3931.30
447.42	4103.83
447.79	4286.41
448.15	4495.72
448.51	4697.43
448.88	4919.29
449.24	5128.68
449.61	5389.95
449.97	5652.67
450.33	5935.13
450.70	6205.37
451.06	6550.57
451.43	6856.25
451.79	7194.88
452.15	7551.97
452.52	7939.19
452.88	8317.09
453.24	8755.05
453.61	9237.23
453.97	9720.15
454.34	10205.27
454.70	10764.05
455.06	11321.41
455.43	11843.70
455.79	12363.48
456.15	12999.34
456.52	13593.32
456.88	14321.01
457.24	15073.12
457.61	15917.96
457.97	16680.69
458.33	17480.57
458.70	18247.21
459.06	18969.95
459.42	19742.37
459.79	20477.25
460.15	21288.58
460.51	22017.49
460.88	22788.37
461.24	23491.63
461.60	24322.52
461.96	25002.14
462.33	25640.40
462.69	26312.49
463.05	27065.74
463.42	27759.78
463.78	28448.46
464.14	29118.77
464.50	29789.22
464.87	30275.39
465.23	30562.88
465.59	30891.56
465.95	31158.31
466.32	31361.07
466.68	31567.72
467.04	31749.06
467.40	31843.11
467.77	31951.66
468.13	31939.65
468.49	31772.70
468.85	31655.42
469.22	31582.35
469.58	31386.40
469.94	31248.84
470.30	31109.96
470.66	30794.92
471.03	30278.01
471.39	29863.50
471.75	29206.14
472.11	28573.26
472.47	28121.98
472.84	27679.43
473.20	27070.89
473.56	26677.17
473.92	26165.46
474.28	25657.05
474.65	25174.92
475.01	24774.17
475.37	24275.38
475.73	23896.35
476.09	23452.50
476.45	23040.96
476.81	22642.81
477.18	22212.15
477.54	21810.19
477.90	21464.02
478.26	21061.47
478.62	20685.47
478.98	20445.66
479.34	20235.94
479.71	19964.30
480.07	19707.76
480.43	19453.92
480.79	19075.46
481.15	18659.45
481.51	18287.54
481.87	17965.09
482.23	17613.44
482.59	17321.58
482.96	17035.19
483.32	16748.55
483.68	16423.94
484.04	16126.76
484.40	15814.51
484.76	15527.93
485.12	15247.84
485.48	15023.81
485.84	14773.65
486.20	14523.98
486.56	14235.02
486.92	13948.28
487.28	13626.32
487.64	13292.86
488.00	12981.29
488.37	12652.40
488.73	12305.27
489.09	11949.56
489.45	11649.88
489.81	11338.44
490.17	11057.02
490.53	10778.68
490.89	10478.79
491.25	10169.72
491.61	9858.29
491.97	9569.58
492.33	9299.25
492.69	9073.48
493.05	8855.35
493.41	8649.24
493.77	8423.45
494.13	8189.09
494.49	7957.38
494.85	7735.00
495.21	7518.95
495.57	7338.70
495.93	7149.38
496.29	6957.50
496.64	6778.24
497.00	6596.40
497.36	6414.28
497.72	6264.84
498.08	6125.02
498.44	5971.81
498.80	5819.44
499.16	5646.96
499.52	5477.32
499.88	5320.53
500.24	5171.32
500.60	5039.62
500.96	4933.55
501.32	4828.48
501.68	4719.06
502.03	4618.58
502.39	4510.68
502.75	4407.56
503.11	4304.69
503.47	4213.90
503.83	4119.65
504.19	4024.86
504.55	3928.54
504.91	3838.36
505.26	3750.69
505.62	3663.64
505.98	3581.56
506.34	3500.11
506.70	3416.36
507.06	3336.22
507.42	3256.97
507.78	3188.37
508.13	3123.44
508.49	3057.28
508.85	2989.99
509.21	2929.32
509.57	2869.08
509.93	2807.40
510.28	2751.25
510.64	2701.19
511.00	2645.34
511.36	2593.43
511.72	2548.68
512.07	2504.28
512.43	2458.52
512.79	2422.74
513.15	2386.60
513.51	2344.56
513.86	2311.68
514.22	2270.60
514.58	2226.34
514.94	2183.09
515.30	2142.32
515.65	2098.76
516.01	2063.44
516.37	2032.64
516.73	2007.71
517.08	1981.31
517.44	1954.39
517.80	1935.13
518.16	1907.28
518.51	1879.89
518.87	1857.31
519.23	1838.80
519.59	1812.96
519.94	1792.73
520.30	1770.92
520.66	1748.40
521.01	1728.67
521.37	1710.07
521.73	1690.57
522.09	1670.56
522.44	1655.27
522.80	1636.15
523.16	1623.35
523.51	1606.08
523.87	1588.64
524.23	1571.62
524.58	1555.82
524.94	1537.50
525.30	1525.98
525.65	1513.46
526.01	1500.82
526.37	1485.84
526.72	1472.83
527.08	1460.33
527.44	1447.88
527.79	1437.58
528.15	1430.00
528.51	1417.73
528.86	1409.26
529.22	1399.57
529.58	1387.54
529.93	1382.16
530.29	1376.94
530.65	1366.33
531.00	1359.45
531.36	1350.35
531.71	1336.14
532.07	1326.38
532.43	1319.03
532.78	1309.90
533.14	1304.22
533.49	1296.89
533.85	1293.12
534.21	1285.89
534.56	1281.28
534.92	1279.31
535.27	1276.81
535.63	1266.93
535.98	1261.08
536.34	1256.33
536.69	1246.45
537.05	1239.50
537.41	1235.03
537.76	1233.81
538.12	1226.53
538.47	1223.59
538.83	1218.04
539.18	1220.43
539.54	1215.86
539.89	1216.07
540.25	1214.57
540.60	1212.94
540.96	1204.42
541.31	1201.98
541.67	1196.46
542.02	1190.70
542.38	1187.12
542.73	1185.39
543.09	1181.88
543.44	1182.23
543.80	1179.65
544.15	1179.75
544.51	1176.73
544.86	1172.19
545.22	1168.04
545.57	1163.78
545.93	1160.79
546.28	1159.08
546.64	1159.55
546.99	1156.72
547.35	1157.18
547.70	1155.08
548.05	1152.60
548.41	1148.41
548.76	1147.59
549.12	1146.65
549.47	1142.58
549.83	1142.74
550.18	1140.47
550.53	1136.73
550.89	1134.72
551.24	1136.28
551.60	1134.34
551.95	1133.66
552.30	1132.61
552.66	1133.05
553.01	1131.56
553.37	1133.90
553.72	1134.74
554.07	1137.80
554.43	1131.81
554.78	1127.67
555.13	1123.60
555.49	1117.84
555.84	1113.02
556.19	1113.84
556.55	1113.09
556.90	1110.84
557.26	1112.06
557.61	1113.46
557.96	1112.69
558.32	1112.67
558.67	1115.64
559.02	1116.65
559.37	1112.92
559.73	1112.20
560.08	1110.87
560.43	1104.55
560.79	1104.69
561.14	1104.59
561.49	1106.09
561.85	1107.99
562.20	1104.80
562.55	1105.06
562.90	1104.08
563.26	1099.49
563.61	1098.67
563.96	1101.92
564.32	1097.73
564.67	1097.36
565.02	1098.25
565.37	1098.83
565.73	1099.44
566.08	1100.61
566.43	1099.58
566.78	1101.92
567.14	1099.02
567.49	1097.50
567.84	1098.13
568.19	1101.32
568.54	1100.94
568.90	1102.49
569.25	1105.36
569.60	1105.18
569.95	1100.94
570.31	1098.41
570.66	1096.07
571.01	1095.63
571.36	1093.19
571.71	1096.28
572.06	1097.17
572.42	1098.74
572.77	1095.14
573.12	1095.89
573.47	1096.63
573.82	1092.66
574.18	1092.42
574.53	1091.44
574.88	1090.62
575.23	1091.18
575.58	1094.60
575.93	1096.03
576.28	1097.97
576.64	1096.56
576.99	1095.28
577.34	1094.18
577.69	1092.59
578.04	1091.32
578.39	1093.08
578.74	1094.62
579.09	1095.79
579.44	1095.42
579.80	1096.35
580.15	1095.25
580.50	1090.62
580.85	1090.64
581.20	1088.28
581.55	1087.83
581.90	1086.92
582.25	1086.71
582.60	1085.28
582.95	1088.79
583.30	1085.70
583.65	1087.58
584.00	1089.66
584.35	1088.44
584.71	1084.65
585.06	1088.65
585.41	1089.52
585.76	1086.78
586.11	1086.66
586.46	1090.01
586.81	1089.33
587.16	1085.96
587.51	1087.93
587.86	1091.25
588.21	1089.61
588.56	1088.77
588.91	1091.51
589.26	1093.57
589.61	1088.96
589.96	1088.19
590.31	1090.36
590.66	1091.25
591.01	1087.04
591.36	1089.50
591.71	1089.05
592.06	1086.10
592.41	1081.75
592.76	1084.23
593.10	1085.17
593.45	1083.60
593.80	1081.44
594.15	1082.97
594.50	1081.28
594.85	1077.84
595.20	1075.80
595.55	1078.03
595.90	1077.21
596.25	1078.82
596.60	1079.10
596.95	1079.71
597.30	1078.03
597.64	1091.74
597.99	1091.11
598.34	1092.26
598.69	1096.68
599.04	1096.80
599.39	1083.74
599.74	1085.26
600.09	1087.97
600.44	1084.84
600.78	1086.80
601.13	1088.61
601.48	1084.79
601.83	1083.71
602.18	1083.69
602.53	1082.66
602.88	1083.22
603.22	1085.99
603.57	1083.69
603.92	1085.75
604.27	1085.99
604.62	1081.61
604.97	1079.22
605.31	1083.36
605.66	1080.98
606.01	1083.32
606.36	1086.48
606.71	1086.97
607.05	1081.68
607.40	1082.24
607.75	1081.77
608.10	1081.26
608.44	1083.36
608.79	1088.72
609.14	1088.33
609.49	1088.16
609.84	1086.15
610.18	1084.23
610.53	1081.89
610.88	1084.02
611.23	1085.59
611.57	1090.15
611.92	1091.56
612.27	1091.11
612.62	1091.65
612.96	1087.09
613.31	1084.46
613.66	1081.44
614.00	1080.23
614.35	1079.64
614.70	1081.16
615.05	1082.99
615.39	1084.16
615.74	1083.50
616.09	1084.21
616.43	1085.03
616.78	1085.05
617.13	1086.15
617.47	1087.90
617.82	1088.23
618.17	1087.93
618.51	1083.71
618.86	1083.67
619.21	1081.58
619.55	1077.00
619.90	1076.93
620.25	1080.23
620.59	1078.75
620.94	1077.77
621.29	1081.02
621.63	1083.36
621.98	1082.22
622.32	1082.01
622.67	1081.19
623.02	1081.23
623.36	1081.19
623.71	1081.98
624.05	1084.79
624.40	1088.58
624.75	1086.15
625.09	1083.41
625.44	1084.53
625.78	1083.18
626.13	1080.70
626.48	1080.20
626.82	1079.15
627.17	1077.14
627.51	1080.20
627.86	1084.11
628.20	1086.08
628.55	1087.16
628.89	1085.47
629.24	1082.73
629.58	1081.44
629.93	1082.17
630.28	1080.32
630.62	1083.43
630.97	1083.83
631.31	1083.93
631.66	1085.12
632.00	1085.35
632.35	1086.08
632.69	1085.91
633.04	1085.14
633.38	1083.76
633.73	1083.06
634.07	1082.03
634.42	1080.41
634.76	1081.28
635.11	1084.28
635.45	1087.30
635.79	1086.24
636.14	1087.34
636.48	1085.54
636.83	1086.41
637.17	1084.60
637.52	1084.74
637.86	1081.05
638.21	1084.07
638.55	1078.45
638.89	1081.28
639.24	1083.27
639.58	1088.37
639.93	1087.39
640.27	1088.04
640.61	1086.29
640.96	1085.00
641.30	1084.67
641.65	1082.83
641.99	1084.00
642.33	1082.94
642.68	1080.51
643.02	1078.73
643.37	1080.18
643.71	1078.96
644.05	1082.78
644.40	1081.75
644.74	1084.51
645.08	1084.16
645.43	1084.81
645.77	1083.08
646.11	1084.89
646.46	1082.08
646.80	1082.61
647.14	1084.18
647.49	1079.95
647.83	1079.64
648.17	1079.74
648.52	1077.23
648.86	1075.15
649.20	1077.04
649.55	1076.48
649.89	1075.57
650.23	1078.19
650.57	1077.68
650.92	1079.88
651.26	1078.45
651.60	1080.13
651.95	1080.91
652.29	1081.70
652.63	1079.36
652.97	1080.93
653.32	1082.05
653.66	1079.85
654.00	1080.32
654.34	1081.05
654.69	1081.84
655.03	1082.08
655.37	1082.22
655.71	1080.74
656.05	1081.73
656.40	1084.96
656.74	1083.57
657.08	1084.00
657.42	1085.28
657.76	1084.02
658.11	1079.64
658.45	1077.91
658.79	1079.08
659.13	1078.21
659.47	1075.57
659.82	1079.53
660.16	1082.36
660.50	1081.73
660.84	1086.06
661.18	1087.32
661.52	1085.42
661.87	1083.74
662.21	1083.20
662.55	1080.67
662.89	1081.30
663.23	1081.26
663.57	1082.85
663.91	1083.81
664.25	1082.36
664.60	1081.56
664.94	1079.90
665.28	1078.07
665.62	1075.17
665.96	1075.99
666.30	1078.40
666.64	1079.67
666.98	1079.08
667.32	1079.46
667.66	1075.48
668.01	1077.42
668.35	1078.17
668.69	1078.73
669.03	1080.44
669.37	1085.24
669.71	1084.46
670.05	1084.77
670.39	1084.44
670.73	1084.30
671.07	1084.91
671.41	1081.91
671.75	1077.49
672.09	1078.33
672.43	1079.34
672.77	1078.36
673.11	1081.23
673.45	1083.97
673.79	1085.94
674.13	1086.03
674.47	1087.46
674.81	1086.20
675.15	1087.09
675.49	1084.60
675.83	1082.80
676.17	1081.98
676.51	1083.74
676.85	1084.89
677.19	1084.14
677.53	1084.60
677.87	1081.61
678.21	1081.30
678.55	1078.19
678.89	1079.99
679.23	1079.43
679.57	1081.75
679.90	1080.04
680.24	1083.34
680.58	1082.97
680.92	1082.47
681.26	1084.32
681.60	1086.31
681.94	1084.86
682.28	1085.12
682.62	1085.42
682.96	1079.50
683.29	1079.36
683.63	1078.59
683.97	1077.82
684.31	1078.31
684.65	1079.27
684.99	1078.10
685.33	1077.61
685.67	1078.75
686.00	1077.98
686.34	1081.58
686.68	1082.31
687.02	1081.37
687.36	1079.71
687.70	1078.87
688.03	1080.67
688.37	1081.61
688.71	1084.72
689.05	1085.99
689.39	1088.77
689.72	1085.12
690.06	1082.59
690.40	1082.24
690.74	1081.07
691.08	1079.88
691.41	1079.01
691.75	1081.82
692.09	1084.53
692.43	1087.37
692.76	1090.48
693.10	1094.22
693.44	1091.39
693.78	1087.37
694.11	1084.28
694.45	1079.55
694.79	1079.53
695.13	1080.58
695.46	1080.09
695.80	1081.54
696.14	1086.31
696.48	1084.53
696.81	1085.49
697.15	1086.43
697.49	1084.37
697.82	1081.14
698.16	1080.25
698.50	1079.31
698.83	1080.56
699.17	1082.40
699.51	1085.99
699.84	1084.39
700.18	1084.18
700.52	1081.35
700.85	1079.83
701.19	1076.86
701.53	1075.17
701.86	1076.69
702.20	1081.61
702.54	1084.58
702.87	1086.27
703.21	1091.98
703.55	1090.57
703.88	1087.32
704.22	1084.49
704.55	1084.53
704.89	1081.91
705.23	1080.95
705.56	1079.62
705.90	1080.20
706.23	1079.60
706.57	1080.53
706.91	1082.90
707.24	1083.01
707.58	1081.94
707.91	1081.51
708.25	1079.90
708.58	1077.02
708.92	1079.27
709.26	1085.24
709.59	1082.57
709.93	1084.56
710.26	1084.21
710.60	1082.12
710.93	1078.66
711.27	1082.01
711.60	1081.05
711.94	1081.47
712.27	1081.87
712.61	1082.33
712.94	1079.31
713.28	1077.44
713.61	1075.99
713.95	1076.04
714.28	1075.41
714.62	1077.98
714.95	1079.99
715.29	1084.21
715.62	1087.16
715.96	1087.18
716.29	1086.06
716.63	1084.44
716.96	1081.47
717.29	1078.28
717.63	1075.87
717.96	1074.38
718.30	1078.28
718.63	1079.69
718.97	1078.19
719.30	1080.27
719.63	1080.18
719.97	1079.74
720.30	1079.46
720.64	1081.75
720.97	1084.35
721.30	1087.97
721.64	1087.02
721.97	1083.81
722.31	1083.60
722.64	1081.84
722.97	1080.23
723.31	1080.79
723.64	1083.39
723.97	1085.47
724.31	1083.41
724.64	1081.42
724.98	1078.73
725.31	1078.57
725.64	1077.16
725.98	1076.41
726.31	1078.31
726.64	1079.53
726.97	1079.41
727.31	1077.96
727.64	1080.18
727.97	1080.37
728.31	1082.59
728.64	1083.88
728.97	1084.86
729.31	1084.35
729.64	1085.89
729.97	1083.34
730.30	1082.38
730.64	1081.19
730.97	1079.83
731.30	1075.78
731.63	1074.21
731.97	1076.27
732.30	1079.06
732.63	1082.61
732.96	1085.00
733.30	1087.04
733.63	1087.55
733.96	1085.26
734.29	1081.42
734.63	1080.13
734.96	1081.09
735.29	1079.17
735.62	1079.90
735.95	1079.64
736.29	1079.36
736.62	1078.75
736.95	1078.07
737.28	1078.14
737.61	1079.83
737.94	1080.60
738.28	1079.41
738.61	1079.88
738.94	1081.26
739.27	1081.51
739.60	1083.64
739.93	1085.31
740.27	1086.31
740.60	1085.87
740.93	1085.75
741.26	1081.73
741.59	1080.48
741.92	1079.34
742.25	1077.75
742.58	1078.31
742.91	1080.34
743.25	1082.50
743.58	1081.37
743.91	1083.69
744.24	1081.51
744.57	1081.80
744.90	1078.73
745.23	1077.37
745.56	1075.80
745.89	1076.08
746.22	1074.54
746.55	1076.55
746.88	1079.24
747.21	1076.67
747.54	1077.61
747.87	1079.29
748.20	1077.40
748.53	1079.06
748.87	1084.39
749.20	1088.65
749.53	1088.58
749.86	1089.73
750.19	1086.17
750.52	1082.15
750.85	1075.13
751.18	1076.83
751.51	1076.18
751.84	1079.62
752.16	1080.18
752.49	1080.88
752.82	1079.81
753.15	1077.98
753.48	1075.20
753.81	1076.34
754.14	1077.00
754.47	1075.03
754.80	1077.28
755.13	1076.13
755.46	1076.11
755.79	1077.98
756.12	1082.64
756.45	1083.06
756.78	1086.62
757.11	1083.88
757.43	1085.38
757.76	1082.50
758.09	1081.00
758.42	1080.46
758.75	1080.13
759.08	1076.23
759.41	1075.45
759.74	1080.72
760.07	1078.17
760.39	1080.18
760.72	1083.79
761.05	1082.61
761.38	1079.99
761.71	1083.41
762.04	1084.37
762.36	1084.32
762.69	1087.13
763.02	1086.97
763.35	1085.94
763.68	1084.02
764.01	1080.93
764.33	1078.36
764.66	1079.20
764.99	1079.43
765.32	1081.19
765.65	1082.76
765.97	1083.95
766.30	1082.12
766.63	1082.19
766.96	1082.31
767.28	1082.94
767.61	1082.08
767.94	1085.35
768.27	1083.53
768.59	1084.79
768.92	1081.96
769.25	1082.08
769.58	1076.88
769.90	1076.39
770.23	1075.57
770.56	1074.75
770.89	1075.69
771.21	1075.69
771.54	1078.03
771.87	1074.77
772.19	1079.38
772.52	1079.34
772.85	1079.36
773.17	1078.94
773.50	1079.85
773.83	1079.74
774.15	1077.79
774.48	1080.20
774.81	1079.74
775.13	1081.73
775.46	1079.10
775.79	1083.32
776.11	1080.91
776.44	1079.92
776.77	1079.64
777.09	1080.44
777.42	1078.68
777.74	1082.64
778.07	1083.71
778.40	1082.33
778.72	1082.80
779.05	1080.11
779.37	1077.11
779.70	1076.18
780.03	1077.72
780.35	1079.41
780.68	1082.52
781.00	1083.55
781.33	1085.52
781.65	1085.63
781.98	1081.30
782.31	1082.69
782.63	1082.19
782.96	1082.52
783.28	1081.63
783.61	1083.74
783.93	1078.99
784.26	1077.51
784.58	1074.96
784.91	1072.32
785.23	1073.93
785.56	1076.04
785.88	1078.36
786.21	1077.65
786.53	1079.95
786.86	1076.34
787.18	1076.60
787.51	1077.00
787.83	1079.29
788.16	1080.37
788.48	1079.74
788.81	1079.22
789.13	1074.17
789.46	1072.46
789.78	1071.36
790.10	1073.56
790.43	1072.67
790.75	1076.86
791.08	1076.25
791.40	1076.08
791.73	1080.04
792.05	1080.74
792.37	1080.46
792.70	1083.41
793.02	1082.78
793.35	1080.02
793.67	1077.72
793.99	1076.30
794.32	1075.36
794.64	1079.83
794.96	1077.68
795.29	1081.51
795.61	1081.26
795.93	1080.06
796.26	1076.01
796.58	1079.08
796.91	1076.83
797.23	1077.54
797.55	1078.28
797.87	1078.33
798.20	1075.76
798.52	1077.61
798.84	1079.74
799.17	1079.17
799.49	1079.17
799.81	1079.55
800.14	1080.16
800.46	1079.50
800.78	1080.32
801.10	1082.61
801.43	1083.34
801.75	1082.64
802.07	1084.42
802.40	1082.15
802.72	1079.88
803.04	1081.07
803.36	1078.21
803.69	1078.26
804.01	1078.14
804.33	1080.51
804.65	1078.07
804.97	1079.36
805.30	1075.13
805.62	1080.95
805.94	1080.60
806.26	1080.84
806.58	1080.25
806.91	1081.21
807.23	1077.84
807.55	1079.22
807.87	1080.44
808.19	1080.16
808.52	1082.50
808.84	1084.30
809.16	1080.37
809.48	1081.66
809.80	1082.10
810.12	1080.70
810.44	1075.76
810.77	1073.23
811.09	1070.33
811.41	1068.29
811.73	1066.21
812.05	1069.37
812.37	1073.81
812.69	1074.77
813.01	1079.67
813.33	1081.58
813.66	1080.70
813.98	1081.14
814.30	1083.67
814.62	1082.73
814.94	1082.97
815.26	1085.54
815.58	1081.82
815.90	1079.24
816.22	1078.92
816.54	1077.37
816.86	1075.36
817.18	1079.22
817.50	1077.82
817.82	1075.31
818.14	1076.88
818.46	1079.20
818.78	1079.03
819.10	1080.88
819.42	1083.41
819.74	1083.34
820.06	1078.36
820.38	1077.23
820.70	1076.39
821.02	1073.21
821.34	1073.79
821.66	1077.00
821.98	1074.66
822.30	1074.87
822.62	1077.49
822.94	1078.10
823.26	1079.50
823.58	1081.68
823.90	1081.68
824.22	1081.75
824.54	1080.74
824.86	1080.20
825.18	1082.19
825.50	1083.81
825.81	1085.59
826.13	1087.46
826.45	1084.67
826.77	1082.87
827.09	1082.33
827.41	1082.01
827.73	1078.82
828.05	1077.58
828.36	1077.47
828.68	1076.25
829.00	1074.96
829.32	1077.84
829.64	1079.08
829.96	1078.12
830.28	1078.47
830.59	1077.96
830.91	1076.23
831.23	1076.90
831.55	1074.73
831.87	1072.11
832.19	1070.35
832.50	1069.65
832.82	1069.93
833.14	1071.57
833.46	1072.57
833.78	1075.41
834.09	1075.20
834.41	1076.15
834.73	1075.76
835.05	1074.21
835.36	1071.64
835.68	1075.50
836.00	1073.77
836.32	1075.90
836.63	1081.49
836.95	1080.79
837.27	1078.99
837.59	1081.94
837.90	1082.64
838.22	1080.46
838.54	1081.56
838.85	1077.82
839.17	1075.43
839.49	1075.15
839.80	1077.40
840.12	1077.35
840.44	1080.48
840.76	1079.95
841.07	1077.91
841.39	1071.78
841.71	1071.71
842.02	1071.73
842.34	1075.01
842.65	1077.23
842.97	1080.25
843.29	1080.58
843.60	1078.05
843.92	1072.18
844.24	1069.46
844.55	1071.87
844.87	1072.43
845.18	1076.27
845.50	1078.99
845.82	1080.30
846.13	1078.68
846.45	1078.99
846.76	1077.56
847.08	1078.14
847.40	1077.75
847.71	1077.33
848.03	1078.99
848.34	1077.96
848.66	1077.04
848.97	1079.48
849.29	1077.14
849.60	1073.53
849.92	1072.60
850.24	1073.81
850.55	1070.23
850.87	1069.06
851.18	1071.92
851.50	1072.13
851.81	1069.55
852.13	1071.71
852.44	1077.37
852.76	1077.16
853.07	1080.27
853.39	1084.58
853.70	1084.32
854.01	1082.47
854.33	1080.09
854.64	1074.77
854.96	1074.54
855.27	1074.84
855.59	1072.15
855.90	1070.68
856.22	1076.90
856.53	1074.75
856.84	1073.70
857.16	1075.50
857.47	1080.25
857.79	1075.59
858.10	1078.71
858.41	1081.00
858.73	1081.56
859.04	1078.82
859.36	1080.77
859.67	1078.24
859.98	1076.39
860.30	1075.73
860.61	1076.86
860.92	1078.33
861.24	1079.36
861.55	1078.64
861.87	1080.16
862.18	1079.71
862.49	1079.08
862.81	1078.07
863.12	1077.33
863.43	1077.16
863.74	1078.00
864.06	1079.31
864.37	1079.27
864.68	1084.46
865.00	1081.37
865.31	1078.36
865.62	1076.51
865.94	1076.30
866.25	1074.77
866.56	1077.35
866.87	1080.56
867.19	1077.07
867.50	1075.57
867.81	1073.63
868.12	1074.56
868.44	1075.55
868.75	1079.85
869.06	1079.43
869.37	1077.77
869.68	1077.00
870.00	1074.98
870.31	1076.32
870.62	1078.64
870.93	1077.35
871.24	1077.18
871.56	1079.99
871.87	1073.23
872.18	1072.48
872.49	1077.68
872.80	1078.89
873.12	1073.16
873.43	1075.41
873.74	1074.40
874.05	1073.70
874.36	1072.18
874.67	1073.46
874.98	1072.60
875.29	1074.68
875.61	1072.13
875.92	1073.70
876.23	1072.76
876.54	1076.13
876.85	1071.99
877.16	1073.93
877.47	1072.53
877.78	1075.43
878.09	1074.96
878.40	1076.15
878.72	1074.40
879.03	1076.08
879.34	1074.07
879.65	1076.97
879.96	1083.76
880.27	1086.55
880.58	1083.67
880.89	1086.29
881.20	1083.08
881.51	1079.13
881.82	1075.80
882.13	1078.10
882.44	1079.92
882.75	1080.46
883.06	1082.15
883.37	1083.22
883.68	1081.16
883.99	1076.67
884.30	1076.15
884.61	1075.59
884.92	1076.86
885.23	1078.96
885.54	1082.03
885.85	1083.15
886.16	1082.54
886.47	1082.50
886.78	1080.88
887.08	1081.26
887.39	1078.05
887.70	1072.95
888.01	1075.50
888.32	1076.37
888.63	1073.23
888.94	1075.17
889.25	1080.25
889.56	1077.02
889.87	1076.72
890.17	1078.00
890.48	1076.41
890.79	1075.83
891.10	1073.02
891.41	1073.88
891.72	1072.74
892.03	1073.70
892.34	1071.90
892.64	1075.59
892.95	1076.79
893.26	1078.64
893.57	1079.22
893.88	1079.88
894.18	1079.17
894.49	1078.03
894.80	1080.95
895.11	1079.97
895.42	1078.68
895.72	1077.72
896.03	1075.43
896.34	1074.17
896.65	1074.33
896.96	1078.17
897.26	1083.06
897.57	1085.82
897.88	1084.14
898.19	1084.91
898.49	1081.02
898.80	1076.39
899.11	1075.24
899.41	1073.91
899.72	1074.87
900.03	1077.61
900.34	1078.19
900.64	1077.40
900.95	1077.56
901.26	1076.74
901.56	1074.21
901.87	1070.96
902.18	1072.53
902.48	1072.13
902.79	1072.67
903.10	1074.35
903.40	1076.72
903.71	1073.72
904.02	1076.44
904.32	1076.13
904.63	1077.42
904.94	1077.91
905.24	1078.47
905.55	1073.77
905.85	1073.70
906.16	1071.82
906.47	1071.71
906.77	1069.11
907.08	1072.53
907.38	1072.29
907.69	1071.59
908.00	1070.30
908.30	1074.31
908.61	1073.25
908.91	1074.17
909.22	1075.13
909.52	1077.33
909.83	1077.18
910.14	1080.46
910.44	1081.70
910.75	1081.02
911.05	1079.43
911.36	1078.64
911.66	1076.74
911.97	1072.67
912.27	1071.66
912.58	1073.09
912.88	1074.17
913.19	1073.84
913.49	1078.33
913.80	1079.27
914.10	1078.38
914.41	1079.15
914.71	1080.65
915.01	1078.61
915.32	1078.71
915.62	1078.19
915.93	1077.37
916.23	1074.84
916.54	1073.56
916.84	1075.59
917.15	1077.14
917.45	1078.57
917.75	1079.74
918.06	1083.06
918.36	1080.60
918.67	1079.55
918.97	1076.74
919.27	1075.71
919.58	1071.50
919.88	1072.27
920.18	1071.47
920.49	1073.81
920.79	1075.90
921.10	1081.40
921.40	1083.46
921.70	1083.64
922.01	1083.39
922.31	1081.98
922.61	1078.61
922.92	1076.60
923.22	1078.47
923.52	1080.44
923.82	1083.01
924.13	1079.92
924.43	1079.38
924.73	1078.96
925.04	1077.84
925.34	1074.66
925.64	1076.58
925.94	1078.92
926.25	1080.06
926.55	1080.30
926.85	1079.62
927.15	1078.54
927.46	1075.20
927.76	1070.12
928.06	1065.76
928.36	1067.66
928.67	1069.55
928.97	1072.11
929.27	1075.78
929.57	1077.96
929.87	1075.45
930.18	1074.82
930.48	1075.43
930.78	1073.77
931.08	1075.73
931.38	1079.53
931.69	1078.24
931.99	1077.02
932.29	1078.45
932.59	1076.20
932.89	1073.32
933.19	1076.58
933.49	1078.59
933.80	1076.08
934.10	1074.63
934.40	1076.41
934.70	1075.94
935.00	1073.67
935.30	1078.05
935.60	1081.63
935.90	1082.80
936.20	1084.00
936.50	1085.77
936.81	1084.84
937.11	1081.73
937.41	1079.97
937.71	1079.03
938.01	1078.68
938.31	1077.33
938.61	1081.00
938.91	1082.97
939.21	1080.60
939.51	1078.71
939.81	1079.34
940.11	1077.91
940.41	1079.38
940.71	1081.61
941.01	1083.86
941.31	1084.25
941.61	1083.53
941.91	1080.37
942.21	1078.33
942.51	1078.52
942.81	1076.76
943.11	1078.59
943.41	1077.44
943.71	1079.81
944.01	1074.49
944.31	1074.59
944.61	1071.01
944.90	1071.78
945.20	1071.12
945.50	1073.84
945.80	1076.06
946.10	1077.28
946.40	1077.82
946.70	1077.16
947.00	1075.64
947.30	1073.84
947.60	1073.09
947.89	1072.69
948.19	1071.57
948.49	1072.04
948.79	1073.11
949.09	1075.27
949.39	1075.17
949.69	1073.93
949.98	1075.41
950.28	1075.73
950.58	1076.65
950.88	1077.56
951.18	1078.73
951.48	1079.24
951.77	1079.41
952.07	1077.00
952.37	1073.86
952.67	1073.46
952.97	1074.33
953.26	1073.35
953.56	1072.53
953.86	1075.66
954.16	1078.59
954.45	1076.08
954.75	1079.15
955.05	1077.91
955.35	1077.42
955.64	1077.40
955.94	1078.38
956.24	1071.45
956.54	1074.68
956.83	1073.14
957.13	1071.75
957.43	1073.98
957.72	1078.10
958.02	1077.11
958.32	1079.50
958.61	1076.90
958.91	1076.39
959.21	1075.38
959.50	1074.98
959.80	1073.04
960.10	1074.82
960.39	1074.12
960.69	1077.65
960.99	1078.66
961.28	1078.96
961.58	1078.92
961.87	1080.95
962.17	1078.92
962.47	1081.33
962.76	1080.95
963.06	1081.82
963.36	1078.14
963.65	1075.17
963.95	1073.98
964.24	1076.04
964.54	1077.56
964.83	1078.59
965.13	1083.90
965.42	1083.29
965.72	1080.09
966.02	1077.58
966.31	1076.62
966.61	1075.31
966.90	1073.23
967.20	1075.31
967.49	1075.34
967.79	1076.72
968.08	1075.59
968.38	1076.39
968.67	1076.04
968.97	1076.81
969.26	1077.84
969.56	1077.91
969.85	1079.36
970.15	1081.02
970.44	1082.57
970.74	1082.52
971.03	1082.76
971.32	1080.88
971.62	1077.23
971.91	1076.86
972.21	1076.13
972.50	1074.00
972.80	1073.23
973.09	1076.39
973.38	1075.99
973.68	1076.83
973.97	1077.54
974.27	1076.48
974.56	1076.39
974.85	1073.81
975.15	1072.48
975.44	1074.42
975.73	1076.44
976.03	1078.64
976.32	1075.97
976.61	1072.67
976.91	1069.79
977.20	1069.51
977.49	1065.72
977.79	1071.75
978.08	1073.98
978.37	1076.15
978.67	1076.08
978.96	1078.00
979.25	1077.75
979.55	1081.16
979.84	1081.26
980.13	1084.49
980.42	1085.21
980.72	1084.32
981.01	1081.19
981.30	1080.98
981.59	1081.02
981.89	1079.76
982.18	1082.97
982.47	1085.82
982.76	1087.69
983.06	1086.99
983.35	1087.16
983.64	1082.78
983.93	1079.43
984.22	1074.19
984.52	1073.04
984.81	1072.20
985.10	1072.62
985.39	1076.65
985.68	1078.59
985.97	1077.98
986.27	1078.24
986.56	1077.84
986.85	1075.99
987.14	1076.62
987.43	1078.54
987.72	1080.23
988.01	1082.22
988.31	1080.79
988.60	1082.76
988.89	1079.36
989.18	1074.40
989.47	1072.15
989.76	1073.28
990.05	1073.63
990.34	1076.27
990.63	1080.58
990.92	1081.19
991.21	1083.22
991.51	1080.27
991.80	1078.94
992.09	1076.08
992.38	1076.11
992.67	1073.67
992.96	1075.03
993.25	1077.77
993.54	1080.77
993.83	1081.82
994.12	1082.66
994.41	1081.54
994.70	1078.61
994.99	1079.95
995.28	1076.95
995.57	1076.11
995.86	1076.95
996.15	1073.74
996.44	1073.07
996.73	1077.02
997.02	1075.97
997.31	1075.36
997.59	1077.42
997.88	1075.59
998.17	1073.49
998.46	1072.29
998.75	1068.38
999.04	1070.47
999.33	1071.10
999.62	1070.87
999.91	1072.36
1000.20	1072.81
1000.49	1072.95
1000.77	1073.14
1001.06	1075.34
1001.35	1079.01
1001.64	1082.69
1001.93	1081.94
1002.22	1082.10
1002.51	1077.49
1002.79	1074.45
1003.08	1074.52
1003.37	1076.32
1003.66	1074.89
1003.95	1078.68
1004.23	1077.79
1004.52	1077.72
1004.81	1074.96
1005.10	1075.20
1005.39	1076.01
1005.67	1075.52
1005.96	1073.30
1006.25	1076.76
1006.54	1076.83
1006.83	1077.72
1007.11	1079.34
1007.40	1081.40
1007.69	1076.15
1007.97	1076.88
1008.26	1074.07
1008.55	1074.47
1008.84	1074.98
1009.12	1078.33
1009.41	1079.92
1009.70	1080.91
1009.98	1080.18
1010.27	1079.90
1010.56	1080.79
1010.85	1077.89
1011.13	1079.76
1011.42	1078.14
1011.71	1078.96
1011.99	1078.07
1012.28	1078.64
1012.56	1076.90
1012.85	1077.61
1013.14	1073.37
1013.42	1071.64
1013.71	1073.70
1014.00	1073.14
1014.28	1073.79
1014.57	1078.59
1014.85	1080.46
1015.14	1080.41
1015.43	1076.79
1015.71	1078.00
1016.00	1075.94
1016.28	1074.82
1016.57	1072.36
1016.85	1076.55
1017.14	1074.03
1017.43	1074.54
1017.71	1073.63
1018.00	1072.29
1018.28	1072.20
1018.57	1075.69
1018.85	1076.15
1019.14	1078.57
1019.42	1081.28
1019.71	1084.30
1019.99	1083.39
1020.28	1078.87
1020.56	1078.26
1020.85	1078.94
1021.13	1072.53
1021.42	1072.50
1021.70	1077.14
1021.99	1075.45
1022.27	1072.90
1022.55	1069.39
1022.84	1072.43
>>>>>End Processed Spectral Data<<<<<
