SpectraSuite Data File
++++++++++++++++++++++++++++++++++++
Date: Mon Aug 26 10:22:17 PDT 2019
User: corrico
Dark Spectrum Present: No
Reference Spectrum Present: No
Number of Sampled Component Spectra: 1
Spectrometers: USB2+H06089
Integration Time (usec): 2000 (USB2+H06089)
Spectra Averaged: 20 (USB2+H06089)
Boxcar Smoothing: 2 (USB2+H06089)
Correct for Electrical Dark: No (USB2+H06089)
Strobe/Lamp Enabled: No (USB2+H06089)
Correct for Detector Non-linearity: No (USB2+H06089)
Correct for Stray Light: No (USB2+H06089)
Number of Pixels in Processed Spectrum: 2048
>>>>>Begin Processed Spectral Data<<<<<
339.70	1030.42
340.07	1030.42
340.45	994.59
340.82	970.97
341.19	949.27
341.57	925.33
341.94	912.32
342.31	904.38
342.69	900.92
343.06	893.78
343.43	892.45
343.81	895.21
344.18	899.68
344.55	903.05
344.93	910.61
345.30	914.54
345.67	920.37
346.04	929.33
346.42	938.74
346.79	947.47
347.16	958.54
347.54	969.75
347.91	976.80
348.28	986.28
348.65	992.25
349.03	1003.11
349.40	1012.00
349.77	1022.16
350.14	1026.84
350.52	1038.00
350.89	1041.42
351.26	1047.65
351.63	1052.98
352.01	1058.25
352.38	1058.93
352.75	1062.02
353.12	1066.02
353.50	1068.50
353.87	1072.48
354.24	1075.85
354.61	1079.97
354.98	1081.61
355.36	1081.28
355.73	1082.12
356.10	1085.33
356.47	1088.35
356.84	1088.26
357.22	1088.56
357.59	1089.22
357.96	1087.76
358.33	1085.61
358.70	1083.41
359.08	1082.66
359.45	1084.98
359.82	1082.78
360.19	1080.86
360.56	1081.12
360.94	1083.25
361.31	1079.46
361.68	1081.49
362.05	1082.69
362.42	1081.49
362.79	1077.14
363.16	1077.04
363.54	1074.75
363.91	1071.57
364.28	1072.25
364.65	1075.69
365.02	1076.06
365.39	1077.49
365.76	1079.88
366.14	1079.50
366.51	1076.69
366.88	1076.58
367.25	1075.85
367.62	1073.88
367.99	1073.23
368.36	1074.56
368.73	1073.58
369.10	1073.16
369.48	1072.90
369.85	1072.97
370.22	1073.70
370.59	1072.27
370.96	1071.64
371.33	1072.15
371.70	1075.90
372.07	1077.75
372.44	1077.51
372.81	1078.12
373.18	1079.83
373.55	1077.51
373.93	1074.63
374.30	1078.87
374.67	1079.55
375.04	1077.96
375.41	1078.17
375.78	1079.01
376.15	1076.90
376.52	1076.06
376.89	1076.32
377.26	1076.06
377.63	1075.78
378.00	1076.72
378.37	1080.09
378.74	1081.77
379.11	1080.74
379.48	1082.69
379.85	1084.93
380.22	1083.25
380.59	1081.54
380.96	1083.13
381.33	1077.86
381.70	1075.31
382.07	1076.65
382.44	1076.79
382.81	1076.18
383.18	1077.47
383.55	1078.47
383.92	1078.45
384.29	1083.60
384.66	1081.51
385.03	1084.65
385.40	1088.96
385.77	1088.12
386.14	1084.70
386.51	1088.09
386.88	1090.24
387.25	1089.31
387.62	1088.47
387.99	1089.66
388.36	1088.98
388.73	1086.34
389.10	1084.35
389.46	1085.84
389.83	1083.79
390.20	1083.90
390.57	1084.65
390.94	1082.29
391.31	1079.74
391.68	1078.68
392.05	1079.57
392.42	1078.94
392.79	1080.11
393.16	1081.00
393.53	1082.94
393.89	1084.39
394.26	1084.79
394.63	1082.76
395.00	1085.87
395.37	1085.91
395.74	1086.08
396.11	1087.39
396.48	1091.91
396.84	1091.49
397.21	1093.17
397.58	1092.66
397.95	1090.71
398.32	1087.86
398.69	1087.88
399.06	1086.34
399.42	1087.88
399.79	1089.17
400.16	1092.02
400.53	1091.16
400.90	1091.65
401.27	1087.72
401.64	1089.14
402.00	1084.93
402.37	1083.50
402.74	1085.73
403.11	1087.79
403.48	1084.51
403.84	1087.88
404.21	1088.84
404.58	1087.62
404.95	1085.54
405.32	1091.63
405.68	1092.02
406.05	1094.55
406.42	1092.91
406.79	1097.27
407.16	1091.93
407.52	1088.93
407.89	1086.80
408.26	1090.53
408.63	1089.29
408.99	1090.24
409.36	1092.49
409.73	1093.78
410.10	1088.86
410.47	1088.56
410.83	1090.36
411.20	1092.35
411.57	1092.54
411.94	1095.04
412.30	1093.38
412.67	1095.02
413.04	1095.07
413.40	1096.26
413.77	1097.34
414.14	1100.33
414.51	1100.36
414.87	1102.86
415.24	1103.28
415.61	1102.53
415.97	1101.11
416.34	1100.47
416.71	1100.47
417.08	1101.60
417.44	1103.94
417.81	1107.59
418.18	1107.87
418.54	1107.24
418.91	1110.16
419.28	1109.04
419.64	1108.83
420.01	1110.35
420.38	1107.59
420.74	1108.92
421.11	1114.49
421.48	1117.32
421.84	1119.34
422.21	1126.01
422.58	1127.13
422.94	1128.51
423.31	1131.49
423.68	1136.75
424.04	1137.29
424.41	1142.04
424.77	1143.75
425.14	1147.05
425.51	1146.65
425.87	1152.97
426.24	1155.31
426.61	1160.95
426.97	1165.52
427.34	1170.81
427.70	1174.93
428.07	1178.90
428.44	1185.41
428.80	1190.89
429.17	1199.62
429.53	1208.51
429.90	1220.61
430.27	1231.40
430.63	1241.72
431.00	1255.51
431.36	1263.14
431.73	1271.75
432.09	1284.49
432.46	1302.37
432.83	1314.70
433.19	1334.90
433.56	1354.98
433.92	1375.93
434.29	1396.11
434.65	1421.15
435.02	1443.29
435.38	1470.65
435.75	1498.06
436.11	1525.42
436.48	1557.28
436.84	1594.44
437.21	1630.18
437.57	1665.53
437.94	1710.93
438.30	1758.61
438.67	1806.12
439.03	1855.58
439.40	1909.95
439.76	1961.30
440.13	2020.12
440.49	2084.22
440.86	2147.44
441.22	2221.45
441.59	2298.03
441.95	2379.88
442.32	2462.41
442.68	2561.32
443.05	2651.59
443.41	2753.45
443.78	2851.50
444.14	2963.59
444.51	3071.25
444.87	3216.46
445.24	3355.67
445.60	3511.30
445.96	3668.32
446.33	3844.94
446.69	4006.62
447.06	4185.14
447.42	4368.96
447.79	4560.67
448.15	4776.12
448.51	5006.24
448.88	5263.44
449.24	5507.09
449.61	5788.73
449.97	6063.23
450.33	6352.89
450.70	6619.50
451.06	6948.47
451.43	7253.34
451.79	7621.35
452.15	8023.17
452.52	8480.81
452.88	8953.51
453.24	9515.56
453.61	10111.93
453.97	10683.19
454.34	11228.28
454.70	11879.23
455.06	12493.26
455.43	13099.65
455.79	13692.81
456.15	14422.83
456.52	15076.33
456.88	15859.59
457.24	16586.44
457.61	17439.92
457.97	18224.49
458.33	19017.02
458.70	19805.22
459.06	20595.17
459.42	21442.00
459.79	22221.75
460.15	23131.94
460.51	23999.78
460.88	24914.93
461.24	25717.10
461.60	26665.91
461.96	27554.92
462.33	28403.15
462.69	29230.08
463.05	30127.17
463.42	30901.41
463.78	31581.48
464.14	32143.40
464.50	32747.89
464.87	33204.20
465.23	33521.43
465.59	33841.88
465.95	34150.69
466.32	34388.41
466.68	34617.16
467.04	34780.27
467.40	34920.65
467.77	35074.59
468.13	35062.58
468.49	34976.52
468.85	34886.27
469.22	34719.88
469.58	34360.42
469.94	34095.80
470.30	33776.04
470.66	33357.41
471.03	32755.47
471.39	32361.84
471.75	31728.77
472.11	31132.52
472.47	30791.34
472.84	30501.67
473.20	30023.95
473.56	29754.88
473.92	29313.99
474.28	28792.99
474.65	28304.71
475.01	27852.96
475.37	27316.77
475.73	26891.87
476.09	26374.65
476.45	25855.03
476.81	25350.44
477.18	24809.30
477.54	24344.40
477.90	23984.34
478.26	23551.99
478.62	23170.23
478.98	22869.73
479.34	22517.64
479.71	22078.09
480.07	21699.43
480.43	21321.70
480.79	20913.30
481.15	20562.68
481.51	20241.54
481.87	19995.08
482.23	19704.97
482.59	19456.50
482.96	19176.29
483.32	18884.12
483.68	18501.35
484.04	18157.57
484.40	17769.44
484.76	17394.67
485.12	17021.17
485.48	16717.88
485.84	16362.01
486.20	16004.63
486.56	15634.26
486.92	15327.65
487.28	14964.61
487.64	14604.45
488.00	14297.40
488.37	13977.33
488.73	13601.25
489.09	13245.65
489.45	12938.06
489.81	12608.54
490.17	12299.28
490.53	12005.99
490.89	11707.99
491.25	11401.52
491.61	11085.46
491.97	10773.74
492.33	10454.14
492.69	10148.02
493.05	9840.83
493.41	9556.85
493.77	9274.61
494.13	9029.41
494.49	8782.06
494.85	8535.58
495.21	8307.50
495.57	8080.33
495.93	7859.17
496.29	7654.75
496.64	7477.45
497.00	7275.06
497.36	7086.44
497.72	6896.69
498.08	6707.30
498.44	6524.59
498.80	6359.94
499.16	6189.03
499.52	6027.35
499.88	5887.31
500.24	5750.77
500.60	5618.08
500.96	5497.01
501.32	5375.02
501.68	5251.48
502.03	5125.56
502.39	4994.68
502.75	4862.21
503.11	4739.49
503.47	4616.45
503.83	4487.74
504.19	4372.57
504.55	4268.22
504.91	4165.55
505.26	4070.82
505.62	3989.86
505.98	3903.94
506.34	3816.36
506.70	3729.60
507.06	3640.14
507.42	3550.45
507.78	3467.50
508.13	3392.44
508.49	3318.76
508.85	3249.25
509.21	3186.73
509.57	3126.37
509.93	3058.31
510.28	2992.40
510.64	2927.17
511.00	2859.99
511.36	2797.01
511.72	2737.79
512.07	2687.66
512.43	2635.14
512.79	2579.27
513.15	2524.92
513.51	2478.28
513.86	2425.97
514.22	2389.41
514.58	2351.91
514.94	2321.76
515.30	2288.18
515.65	2250.78
516.01	2215.71
516.37	2190.34
516.73	2152.85
517.08	2119.94
517.44	2095.06
517.80	2062.25
518.16	2030.86
518.51	2004.25
518.87	1977.99
519.23	1946.23
519.59	1921.58
519.94	1895.83
520.30	1874.14
520.66	1846.00
521.01	1825.36
521.37	1805.91
521.73	1784.99
522.09	1761.37
522.44	1742.46
522.80	1723.45
523.16	1700.42
523.51	1677.81
523.87	1657.05
524.23	1641.18
524.58	1620.38
524.94	1602.14
525.30	1584.85
525.65	1568.25
526.01	1549.60
526.37	1534.95
526.72	1519.41
527.08	1504.52
527.44	1494.57
527.79	1481.33
528.15	1470.28
528.51	1458.93
528.86	1451.32
529.22	1437.86
529.58	1425.71
529.93	1411.30
530.29	1403.17
530.65	1388.12
531.00	1377.52
531.36	1369.66
531.71	1367.34
532.07	1356.25
532.43	1348.99
532.78	1339.61
533.14	1333.92
533.49	1322.57
533.85	1319.31
534.21	1314.87
534.56	1312.15
534.92	1303.44
535.27	1299.63
535.63	1291.09
535.98	1286.29
536.34	1279.50
536.69	1276.15
537.05	1269.69
537.41	1265.53
537.76	1258.79
538.12	1253.08
538.47	1248.00
538.83	1242.08
539.18	1239.57
539.54	1236.55
539.89	1233.32
540.25	1225.43
540.60	1222.53
540.96	1214.29
541.31	1210.60
541.67	1205.87
542.02	1206.03
542.38	1200.84
542.73	1195.48
543.09	1189.95
543.44	1186.30
543.80	1182.77
544.15	1183.21
544.51	1185.04
544.86	1184.12
545.22	1183.26
545.57	1182.02
545.93	1177.80
546.28	1177.15
546.64	1174.29
546.99	1170.41
547.35	1168.93
547.70	1166.05
548.05	1160.09
548.41	1160.13
548.76	1160.32
549.12	1158.10
549.47	1155.12
549.83	1156.22
550.18	1153.88
550.53	1150.63
550.89	1148.45
551.24	1149.16
551.60	1145.67
551.95	1139.84
552.30	1141.34
552.66	1139.54
553.01	1137.78
553.37	1136.28
553.72	1135.79
554.07	1131.41
554.43	1128.16
554.78	1128.65
555.13	1127.44
555.49	1127.74
555.84	1127.83
556.19	1126.73
556.55	1122.22
556.90	1122.08
557.26	1121.26
557.61	1120.51
557.96	1120.44
558.32	1122.22
558.67	1120.34
559.02	1120.04
559.37	1118.85
559.73	1118.35
560.08	1118.19
560.43	1117.49
560.79	1115.78
561.14	1114.89
561.49	1112.34
561.85	1109.55
562.20	1111.31
562.55	1107.64
562.90	1104.50
563.26	1104.73
563.61	1104.78
563.96	1102.04
564.32	1104.22
564.67	1107.05
565.02	1105.67
565.37	1106.63
565.73	1106.70
566.08	1105.69
566.43	1100.54
566.78	1099.82
567.14	1094.41
567.49	1091.77
567.84	1092.37
568.19	1092.07
568.54	1091.25
568.90	1090.88
569.25	1095.07
569.60	1095.51
569.95	1099.12
570.31	1102.18
570.66	1102.16
571.01	1101.08
571.36	1100.61
571.71	1098.27
572.06	1096.40
572.42	1102.70
572.77	1100.22
573.12	1100.31
573.47	1101.92
573.82	1100.87
574.18	1093.08
574.53	1090.24
574.88	1089.17
575.23	1087.81
575.58	1087.55
575.93	1090.67
576.28	1092.77
576.64	1093.71
576.99	1090.39
577.34	1088.44
577.69	1090.76
578.04	1091.63
578.39	1090.92
578.74	1096.42
579.09	1100.45
579.44	1098.41
579.80	1097.31
580.15	1093.45
580.50	1089.50
580.85	1084.60
581.20	1084.72
581.55	1086.78
581.90	1088.68
582.25	1089.26
582.60	1090.29
582.95	1092.47
583.30	1090.43
583.65	1090.48
584.00	1090.29
584.35	1091.98
584.71	1090.34
585.06	1090.22
585.41	1088.35
585.76	1089.99
586.11	1090.03
586.46	1087.81
586.81	1088.23
587.16	1090.81
587.51	1089.78
587.86	1090.36
588.21	1087.83
588.56	1086.80
588.91	1087.81
589.26	1085.49
589.61	1085.63
589.96	1085.40
590.31	1085.47
590.66	1082.57
591.01	1084.98
591.36	1085.75
591.71	1090.92
592.06	1091.34
592.41	1090.53
592.76	1093.19
593.10	1089.59
593.45	1090.17
593.80	1086.92
594.15	1089.59
594.50	1087.11
594.85	1090.13
595.20	1086.29
595.55	1088.89
595.90	1091.77
596.25	1090.50
596.60	1089.85
596.95	1090.17
597.30	1089.05
597.64	1094.93
597.99	1093.90
598.34	1090.76
598.69	1088.70
599.04	1089.52
599.39	1081.02
599.74	1083.13
600.09	1085.14
600.44	1087.11
600.78	1084.53
601.13	1084.77
601.48	1085.26
601.83	1084.09
602.18	1085.42
602.53	1086.87
602.88	1085.99
603.22	1085.33
603.57	1087.74
603.92	1086.52
604.27	1088.91
604.62	1089.29
604.97	1087.69
605.31	1087.13
605.66	1085.45
606.01	1084.51
606.36	1082.10
606.71	1082.03
607.05	1083.55
607.40	1086.66
607.75	1086.38
608.10	1085.63
608.44	1083.39
608.79	1083.69
609.14	1084.00
609.49	1080.13
609.84	1082.69
610.18	1085.19
610.53	1083.43
610.88	1081.61
611.23	1088.07
611.57	1087.04
611.92	1088.61
612.27	1085.56
612.62	1087.51
612.96	1083.41
613.31	1082.08
613.66	1081.35
614.00	1083.18
614.35	1080.51
614.70	1083.43
615.05	1086.50
615.39	1089.78
615.74	1089.19
616.09	1092.05
616.43	1091.81
616.78	1091.23
617.13	1086.29
617.47	1088.19
617.82	1085.33
618.17	1083.32
618.51	1081.51
618.86	1083.48
619.21	1083.32
619.55	1085.91
619.90	1087.20
620.25	1088.02
620.59	1089.78
620.94	1087.58
621.29	1089.87
621.63	1089.68
621.98	1088.42
622.32	1084.98
622.67	1084.09
623.02	1077.51
623.36	1079.08
623.71	1080.67
624.05	1082.61
624.40	1085.66
624.75	1089.52
625.09	1086.36
625.44	1086.38
625.78	1085.12
626.13	1084.89
626.48	1086.69
626.82	1087.30
627.17	1087.30
627.51	1086.64
627.86	1085.68
628.20	1083.71
628.55	1083.36
628.89	1080.48
629.24	1081.98
629.58	1083.48
629.93	1083.27
630.28	1082.17
630.62	1082.69
630.97	1081.77
631.31	1080.27
631.66	1075.45
632.00	1080.56
632.35	1082.38
632.69	1082.50
633.04	1083.93
633.38	1088.16
633.73	1085.56
634.07	1085.82
634.42	1087.30
634.76	1085.89
635.11	1085.87
635.45	1086.97
635.79	1089.00
636.14	1088.86
636.48	1089.52
636.83	1090.71
637.17	1088.19
637.52	1083.01
637.86	1082.40
638.21	1081.47
638.55	1078.80
638.89	1079.10
639.24	1083.39
639.58	1082.26
639.93	1084.25
640.27	1084.60
640.61	1085.07
640.96	1084.53
641.30	1083.22
641.65	1084.28
641.99	1085.19
642.33	1082.26
642.68	1082.12
643.02	1082.03
643.37	1078.64
643.71	1081.16
644.05	1084.96
644.40	1080.63
644.74	1081.89
645.08	1082.99
645.43	1079.06
645.77	1077.23
646.11	1081.09
646.46	1083.46
646.80	1083.67
647.14	1084.63
647.49	1086.85
647.83	1086.01
648.17	1083.41
648.52	1081.51
648.86	1082.78
649.20	1084.39
649.55	1082.54
649.89	1083.81
650.23	1084.65
650.57	1084.60
650.92	1085.21
651.26	1086.76
651.60	1088.33
651.95	1089.31
652.29	1088.56
652.63	1086.97
652.97	1085.68
653.32	1083.50
653.66	1082.24
654.00	1081.87
654.34	1076.90
654.69	1078.64
655.03	1081.96
655.37	1081.80
655.71	1081.09
656.05	1084.14
656.40	1084.46
656.74	1082.92
657.08	1082.83
657.42	1082.64
657.76	1079.10
658.11	1077.11
658.45	1077.61
658.79	1076.08
659.13	1073.46
659.47	1075.90
659.82	1077.89
660.16	1075.52
660.50	1077.11
660.84	1080.98
661.18	1082.71
661.52	1081.89
661.87	1084.16
662.21	1085.61
662.55	1084.56
662.89	1083.64
663.23	1085.68
663.57	1081.30
663.91	1080.18
664.25	1081.12
664.60	1081.21
664.94	1079.10
665.28	1081.94
665.62	1083.97
665.96	1082.85
666.30	1083.50
666.64	1082.92
666.98	1082.69
667.32	1079.90
667.66	1080.72
668.01	1080.84
668.35	1081.68
668.69	1082.54
669.03	1082.59
669.37	1082.24
669.71	1079.90
670.05	1081.61
670.39	1081.82
670.73	1082.45
671.07	1081.91
671.41	1085.38
671.75	1083.93
672.09	1082.38
672.43	1080.74
672.77	1079.53
673.11	1079.57
673.45	1079.31
673.79	1080.58
674.13	1080.58
674.47	1080.58
674.81	1080.74
675.15	1081.49
675.49	1080.39
675.83	1086.31
676.17	1089.43
676.51	1087.97
676.85	1089.33
677.19	1088.21
677.53	1084.25
677.87	1083.69
678.21	1081.98
678.55	1079.43
678.89	1080.77
679.23	1082.19
679.57	1080.09
679.90	1078.19
680.24	1079.90
680.58	1078.45
680.92	1076.41
681.26	1076.58
681.60	1079.64
681.94	1080.32
682.28	1081.77
682.62	1080.65
682.96	1084.46
683.29	1086.87
683.63	1087.39
683.97	1085.24
684.31	1086.73
684.65	1082.38
684.99	1075.92
685.33	1073.60
685.67	1077.35
686.00	1080.51
686.34	1082.87
686.68	1086.22
687.02	1084.93
687.36	1084.09
687.70	1081.23
688.03	1080.60
688.37	1082.69
688.71	1084.81
689.05	1083.76
689.39	1084.84
689.72	1083.41
690.06	1082.47
690.40	1083.60
690.74	1080.11
691.08	1079.29
691.41	1081.49
691.75	1079.57
692.09	1079.34
692.43	1083.34
692.76	1084.09
693.10	1081.91
693.44	1082.01
693.78	1080.77
694.11	1078.73
694.45	1078.33
694.79	1079.20
695.13	1081.02
695.46	1083.95
695.80	1086.24
696.14	1085.40
696.48	1089.68
696.81	1088.70
697.15	1083.81
697.49	1081.28
697.82	1079.95
698.16	1076.65
698.50	1079.10
698.83	1078.80
699.17	1080.84
699.51	1081.77
699.84	1081.19
700.18	1080.02
700.52	1084.37
700.85	1085.77
701.19	1084.93
701.53	1083.39
701.86	1082.47
702.20	1083.60
702.54	1082.45
702.87	1082.59
703.21	1083.18
703.55	1083.95
703.88	1081.54
704.22	1081.09
704.55	1079.64
704.89	1080.56
705.23	1081.54
705.56	1082.45
705.90	1078.64
706.23	1080.34
706.57	1079.78
706.91	1077.75
707.24	1075.66
707.58	1080.25
707.91	1080.74
708.25	1082.03
708.58	1081.07
708.92	1083.71
709.26	1083.08
709.59	1084.70
709.93	1081.63
710.26	1083.50
710.60	1084.51
710.93	1082.61
711.27	1079.08
711.60	1080.37
711.94	1081.02
712.27	1077.91
712.61	1079.36
712.94	1080.63
713.28	1079.27
713.61	1077.77
713.95	1078.07
714.28	1079.13
714.62	1080.46
714.95	1084.23
715.29	1082.54
715.62	1084.58
715.96	1083.36
716.29	1084.89
716.63	1081.12
716.96	1079.27
717.29	1077.42
717.63	1076.58
717.96	1076.37
718.30	1078.19
718.63	1079.55
718.97	1077.54
719.30	1075.73
719.63	1074.14
719.97	1075.80
720.30	1075.69
720.64	1077.65
720.97	1081.28
721.30	1079.27
721.64	1077.42
721.97	1081.33
722.31	1079.36
722.64	1079.78
722.97	1082.61
723.31	1084.93
723.64	1084.35
723.97	1087.93
724.31	1082.47
724.64	1082.26
724.98	1082.92
725.31	1081.49
725.64	1079.43
725.98	1083.60
726.31	1084.63
726.64	1080.79
726.97	1085.21
727.31	1085.28
727.64	1086.08
727.97	1085.40
728.31	1086.62
728.64	1082.83
728.97	1083.43
729.31	1082.10
729.64	1077.96
729.97	1078.50
730.30	1078.68
730.64	1078.73
730.97	1075.99
731.30	1077.47
731.63	1076.58
731.97	1076.81
732.30	1073.53
732.63	1077.96
732.96	1077.77
733.30	1075.36
733.63	1075.34
733.96	1076.55
734.29	1074.00
734.63	1076.32
734.96	1081.44
735.29	1081.63
735.62	1081.77
735.95	1081.33
736.29	1080.91
736.62	1078.85
736.95	1076.15
737.28	1077.96
737.61	1077.56
737.94	1077.04
738.28	1078.28
738.61	1077.16
738.94	1077.49
739.27	1080.63
739.60	1081.51
739.93	1080.86
740.27	1082.73
740.60	1083.86
740.93	1082.64
741.26	1082.29
741.59	1082.29
741.92	1083.01
742.25	1079.31
742.58	1080.11
742.91	1079.71
743.25	1081.47
743.58	1080.72
743.91	1082.50
744.24	1080.81
744.57	1079.17
744.90	1075.01
745.23	1077.21
745.56	1081.33
745.89	1083.60
746.22	1084.58
746.55	1086.57
746.88	1084.07
747.21	1080.56
747.54	1084.53
747.87	1085.54
748.20	1086.06
748.53	1086.50
748.87	1085.66
749.20	1082.92
749.53	1083.90
749.86	1082.80
750.19	1079.41
750.52	1079.03
750.85	1074.49
751.18	1071.24
751.51	1068.24
751.84	1069.84
752.16	1070.30
752.49	1074.19
752.82	1076.01
753.15	1079.99
753.48	1082.54
753.81	1082.83
754.14	1078.28
754.47	1076.46
754.80	1076.74
755.13	1076.39
755.46	1073.32
755.79	1075.43
756.12	1078.66
756.45	1079.69
756.78	1082.45
757.11	1085.35
757.43	1084.70
757.76	1084.07
758.09	1084.70
758.42	1082.64
758.75	1083.81
759.08	1086.17
759.41	1087.79
759.74	1086.97
760.07	1088.96
760.39	1086.17
760.72	1085.49
761.05	1082.76
761.38	1081.96
761.71	1079.46
762.04	1079.36
762.36	1077.63
762.69	1077.33
763.02	1077.89
763.35	1077.82
763.68	1076.44
764.01	1080.37
764.33	1078.99
764.66	1077.63
764.99	1075.85
765.32	1080.06
765.65	1078.31
765.97	1081.12
766.30	1079.50
766.63	1082.43
766.96	1081.07
767.28	1079.41
767.61	1079.41
767.94	1080.95
768.27	1080.18
768.59	1078.07
768.92	1081.35
769.25	1080.44
769.58	1081.42
769.90	1083.13
770.23	1085.84
770.56	1080.77
770.89	1079.85
771.21	1076.76
771.54	1076.37
771.87	1074.70
772.19	1074.56
772.52	1076.37
772.85	1078.19
773.17	1075.73
773.50	1075.99
773.83	1078.24
774.15	1077.79
774.48	1072.60
774.81	1073.09
775.13	1072.43
775.46	1073.04
775.79	1073.93
776.11	1078.24
776.44	1079.20
776.77	1082.29
777.09	1081.28
777.42	1080.04
777.74	1078.99
778.07	1077.33
778.40	1073.04
778.72	1072.08
779.05	1074.42
779.37	1076.55
779.70	1074.96
780.03	1074.31
780.35	1077.33
780.68	1076.83
781.00	1077.42
781.33	1079.22
781.65	1082.57
781.98	1083.04
782.31	1079.27
782.63	1077.07
782.96	1076.88
783.28	1078.94
783.61	1075.99
783.93	1078.00
784.26	1080.95
784.58	1084.18
784.91	1082.08
785.23	1084.70
785.56	1084.44
785.88	1085.03
786.21	1083.25
786.53	1080.95
786.86	1081.00
787.18	1080.30
787.51	1076.44
787.83	1074.00
788.16	1076.23
788.48	1075.64
788.81	1076.46
789.13	1077.09
789.46	1079.90
789.78	1080.98
790.10	1080.58
790.43	1079.57
790.75	1080.79
791.08	1078.12
791.40	1076.20
791.73	1076.37
792.05	1079.95
792.37	1078.31
792.70	1080.13
793.02	1081.47
793.35	1081.49
793.67	1076.06
793.99	1078.94
794.32	1078.38
794.64	1075.48
794.96	1074.52
795.29	1076.90
795.61	1076.37
795.93	1078.71
796.26	1081.33
796.58	1083.88
796.91	1085.91
797.23	1086.03
797.55	1083.48
797.87	1084.44
798.20	1081.42
798.52	1077.93
798.84	1076.01
799.17	1074.73
799.49	1074.96
799.81	1077.23
800.14	1077.40
800.46	1075.38
800.78	1075.24
801.10	1073.81
801.43	1072.71
801.75	1073.49
802.07	1078.31
802.40	1080.72
802.72	1080.70
803.04	1080.98
803.36	1086.06
803.69	1084.16
804.01	1084.25
804.33	1083.50
804.65	1082.73
804.97	1078.80
805.30	1080.84
805.62	1079.08
805.94	1078.92
806.26	1079.29
806.58	1079.62
806.91	1078.68
807.23	1079.13
807.55	1078.10
807.87	1078.50
808.19	1078.03
808.52	1076.30
808.84	1074.77
809.16	1076.76
809.48	1075.48
809.80	1076.32
810.12	1076.81
810.44	1082.59
810.77	1083.50
811.09	1085.54
811.41	1087.04
811.73	1088.63
812.05	1082.76
812.37	1081.42
812.69	1081.66
813.01	1080.44
813.33	1079.97
813.66	1081.51
813.98	1082.38
814.30	1079.99
814.62	1079.24
814.94	1079.20
815.26	1080.72
815.58	1082.19
815.90	1083.76
816.22	1083.76
816.54	1088.35
816.86	1084.77
817.18	1081.47
817.50	1083.27
817.82	1082.97
818.14	1078.28
818.46	1080.53
818.78	1082.52
819.10	1080.37
819.42	1081.30
819.74	1079.41
820.06	1077.54
820.38	1076.93
820.70	1075.38
821.02	1073.58
821.34	1073.81
821.66	1076.01
821.98	1074.38
822.30	1077.44
822.62	1078.17
822.94	1080.95
823.26	1078.73
823.58	1079.24
823.90	1078.66
824.22	1078.26
824.54	1076.18
824.86	1076.69
825.18	1079.41
825.50	1078.24
825.81	1079.41
826.13	1079.17
826.45	1080.09
826.77	1077.72
827.09	1077.35
827.41	1076.30
827.73	1075.45
828.05	1077.68
828.36	1075.27
828.68	1075.43
829.00	1075.08
829.32	1078.87
829.64	1078.94
829.96	1081.19
830.28	1082.69
830.59	1083.34
830.91	1078.66
831.23	1077.28
831.55	1077.63
831.87	1077.09
832.19	1079.53
832.50	1082.26
832.82	1081.42
833.14	1078.80
833.46	1076.65
833.78	1072.06
834.09	1072.53
834.41	1073.09
834.73	1076.23
835.05	1075.57
835.36	1074.70
835.68	1073.49
836.00	1074.40
836.32	1074.24
836.63	1076.95
836.95	1076.13
837.27	1075.29
837.59	1074.73
837.90	1076.18
838.22	1073.07
838.54	1076.13
838.85	1075.03
839.17	1077.58
839.49	1075.01
839.80	1078.50
840.12	1079.53
840.44	1081.05
840.76	1077.77
841.07	1077.25
841.39	1073.07
841.71	1070.91
842.02	1072.74
842.34	1073.60
842.65	1075.52
842.97	1079.29
843.29	1081.66
843.60	1082.92
843.92	1083.08
844.24	1080.23
844.55	1080.32
844.87	1077.72
845.18	1076.79
845.50	1075.97
845.82	1079.03
846.13	1077.35
846.45	1082.54
846.76	1082.52
847.08	1080.79
847.40	1077.49
847.71	1078.12
848.03	1074.40
848.34	1072.88
848.66	1073.49
848.97	1078.82
849.29	1078.05
849.60	1078.21
849.92	1074.98
850.24	1077.30
850.55	1074.56
850.87	1075.05
851.18	1073.44
851.50	1076.25
851.81	1075.62
852.13	1076.83
852.44	1077.61
852.76	1081.37
853.07	1082.10
853.39	1085.33
853.70	1084.42
854.01	1082.01
854.33	1081.21
854.64	1078.33
854.96	1076.13
855.27	1077.91
855.59	1077.11
855.90	1076.97
856.22	1080.11
856.53	1079.53
856.84	1078.28
857.16	1082.85
857.47	1082.61
857.79	1083.50
858.10	1081.84
858.41	1077.82
858.73	1076.34
859.04	1074.68
859.36	1072.53
859.67	1073.60
859.98	1076.13
860.30	1077.21
860.61	1078.14
860.92	1079.36
861.24	1076.60
861.55	1075.62
861.87	1075.41
862.18	1075.45
862.49	1073.84
862.81	1075.13
863.12	1075.45
863.43	1072.83
863.74	1071.59
864.06	1074.98
864.37	1075.41
864.68	1076.25
865.00	1076.55
865.31	1077.77
865.62	1076.48
865.94	1078.54
866.25	1078.47
866.56	1080.16
866.87	1078.99
867.19	1079.97
867.50	1073.95
867.81	1073.72
868.12	1073.65
868.44	1074.59
868.75	1072.46
869.06	1077.72
869.37	1077.37
869.68	1076.46
870.00	1077.63
870.31	1075.57
870.62	1076.32
870.93	1077.28
871.24	1078.99
871.56	1078.80
871.87	1080.18
872.18	1079.10
872.49	1076.23
872.80	1077.37
873.12	1077.35
873.43	1079.08
873.74	1079.08
874.05	1081.94
874.36	1078.78
874.67	1077.68
874.98	1077.84
875.29	1076.53
875.61	1076.32
875.92	1076.53
876.23	1077.37
876.54	1075.24
876.85	1075.10
877.16	1075.48
877.47	1074.26
877.78	1072.92
878.09	1073.63
878.40	1077.33
878.72	1078.33
879.03	1077.49
879.34	1076.60
879.65	1078.80
879.96	1076.06
880.27	1074.00
880.58	1078.43
880.89	1077.18
881.20	1076.86
881.51	1081.28
881.82	1080.25
882.13	1076.95
882.44	1083.46
882.75	1079.99
883.06	1076.97
883.37	1078.33
883.68	1081.07
883.99	1080.18
884.30	1082.61
884.61	1082.85
884.92	1083.22
885.23	1084.42
885.54	1079.13
885.85	1081.44
886.16	1077.28
886.47	1078.87
886.78	1075.29
887.08	1076.06
887.39	1073.39
887.70	1076.37
888.01	1074.07
888.32	1074.80
888.63	1076.55
888.94	1078.57
889.25	1079.08
889.56	1081.54
889.87	1084.77
890.17	1083.25
890.48	1083.36
890.79	1085.77
891.10	1085.35
891.41	1083.97
891.72	1084.49
892.03	1081.91
892.34	1079.78
892.64	1079.15
892.95	1079.53
893.26	1082.01
893.57	1082.85
893.88	1081.40
894.18	1082.80
894.49	1079.13
894.80	1076.13
895.11	1076.18
895.42	1074.61
895.72	1075.52
896.03	1079.88
896.34	1079.83
896.65	1078.45
896.96	1082.61
897.26	1078.99
897.57	1074.17
897.88	1076.72
898.19	1078.66
898.49	1076.74
898.80	1077.70
899.11	1081.05
899.41	1079.90
899.72	1075.87
900.03	1076.08
900.34	1078.28
900.64	1076.41
900.95	1076.23
901.26	1076.88
901.56	1075.17
901.87	1074.10
902.18	1077.11
902.48	1077.93
902.79	1079.90
903.10	1080.65
903.40	1077.47
903.71	1075.52
904.02	1072.01
904.32	1069.95
904.63	1070.30
904.94	1071.75
905.24	1074.66
905.55	1078.75
905.85	1079.83
906.16	1076.83
906.47	1076.32
906.77	1074.28
907.08	1074.54
907.38	1075.57
907.69	1081.07
908.00	1085.17
908.30	1084.84
908.61	1082.80
908.91	1085.52
909.22	1083.36
909.52	1082.87
909.83	1083.62
910.14	1085.00
910.44	1082.15
910.75	1082.66
911.05	1081.23
911.36	1079.36
911.66	1077.49
911.97	1074.96
912.27	1078.05
912.58	1078.40
912.88	1077.04
913.19	1079.15
913.49	1081.89
913.80	1081.47
914.10	1082.57
914.41	1083.36
914.71	1082.90
915.01	1083.36
915.32	1081.14
915.62	1080.63
915.93	1080.60
916.23	1078.96
916.54	1077.23
916.84	1074.94
917.15	1071.68
917.45	1072.85
917.75	1075.80
918.06	1076.83
918.36	1080.70
918.67	1078.73
918.97	1077.18
919.27	1075.52
919.58	1076.76
919.88	1076.62
920.18	1079.88
920.49	1080.65
920.79	1082.80
921.10	1082.59
921.40	1080.44
921.70	1080.58
922.01	1081.26
922.31	1079.29
922.61	1078.45
922.92	1078.19
923.22	1079.20
923.52	1079.17
923.82	1080.67
924.13	1081.09
924.43	1082.10
924.73	1079.83
925.04	1078.00
925.34	1074.94
925.64	1071.75
925.94	1072.22
926.25	1072.27
926.55	1076.74
926.85	1078.92
927.15	1083.53
927.46	1082.10
927.76	1080.98
928.06	1078.43
928.36	1074.52
928.67	1075.66
928.97	1079.88
929.27	1081.75
929.57	1081.00
929.87	1084.14
930.18	1081.91
930.48	1075.08
930.78	1071.10
931.08	1068.88
931.38	1071.31
931.69	1069.62
931.99	1071.12
932.29	1073.84
932.59	1079.43
932.89	1076.69
933.19	1074.49
933.49	1073.49
933.80	1073.42
934.10	1071.17
934.40	1072.90
934.70	1074.75
935.00	1075.27
935.30	1074.75
935.60	1072.83
935.90	1071.03
936.20	1073.09
936.50	1073.65
936.81	1076.15
937.11	1077.72
937.41	1079.27
937.71	1082.57
938.01	1084.46
938.31	1085.84
938.61	1087.83
938.91	1091.44
939.21	1087.65
939.51	1084.23
939.81	1081.77
940.11	1078.50
940.41	1074.40
940.71	1076.55
941.01	1081.02
941.31	1083.79
941.61	1084.65
941.91	1083.83
942.21	1082.22
942.51	1080.39
942.81	1076.44
943.11	1076.20
943.41	1078.82
943.71	1075.83
944.01	1074.45
944.31	1073.49
944.61	1076.15
944.90	1071.36
945.20	1075.17
945.50	1073.65
945.80	1077.30
946.10	1074.63
946.40	1077.63
946.70	1075.90
947.00	1077.51
947.30	1078.10
947.60	1080.06
947.89	1078.40
948.19	1080.77
948.49	1080.30
948.79	1079.90
949.09	1077.58
949.39	1079.34
949.69	1079.08
949.98	1079.99
950.28	1081.87
950.58	1082.33
950.88	1081.42
951.18	1076.58
951.48	1077.96
951.77	1074.56
952.07	1074.14
952.37	1072.95
952.67	1076.23
952.97	1078.43
953.26	1076.95
953.56	1078.78
953.86	1078.87
954.16	1077.65
954.45	1075.71
954.75	1076.46
955.05	1074.19
955.35	1076.04
955.64	1076.04
955.94	1072.11
956.24	1074.84
956.54	1079.55
956.83	1081.12
957.13	1080.81
957.43	1082.31
957.72	1080.13
958.02	1076.51
958.32	1074.26
958.61	1077.75
958.91	1080.67
959.21	1081.80
959.50	1080.65
959.80	1080.16
960.10	1076.27
960.39	1073.86
960.69	1072.88
960.99	1075.99
961.28	1074.47
961.58	1075.99
961.87	1076.97
962.17	1075.01
962.47	1070.89
962.76	1072.39
963.06	1075.41
963.36	1077.30
963.65	1080.53
963.95	1082.69
964.24	1084.23
964.54	1080.37
964.83	1079.60
965.13	1080.65
965.42	1080.58
965.72	1078.68
966.02	1082.22
966.31	1080.37
966.61	1078.68
966.90	1079.15
967.20	1080.77
967.49	1079.08
967.79	1079.15
968.08	1077.58
968.38	1080.09
968.67	1080.77
968.97	1078.61
969.26	1077.61
969.56	1078.17
969.85	1074.42
970.15	1074.45
970.44	1076.62
970.74	1080.46
971.03	1082.83
971.32	1085.89
971.62	1083.41
971.91	1084.98
972.21	1084.16
972.50	1084.51
972.80	1080.27
973.09	1081.96
973.38	1082.87
973.68	1081.42
973.97	1078.10
974.27	1079.99
974.56	1079.53
974.85	1076.81
975.15	1076.06
975.44	1074.07
975.73	1074.63
976.03	1075.38
976.32	1076.67
976.61	1077.93
976.91	1081.28
977.20	1079.10
977.49	1078.43
977.79	1075.05
978.08	1073.14
978.37	1075.20
978.67	1078.26
978.96	1077.25
979.25	1079.85
979.55	1081.37
979.84	1077.30
980.13	1077.09
980.42	1075.80
980.72	1075.34
981.01	1078.54
981.30	1084.67
981.59	1082.45
981.89	1083.32
982.18	1082.78
982.47	1079.69
982.76	1077.04
983.06	1075.76
983.35	1077.33
983.64	1078.45
983.93	1079.41
984.22	1077.82
984.52	1079.76
984.81	1078.52
985.10	1077.47
985.39	1075.52
985.68	1074.68
985.97	1077.86
986.27	1081.87
986.56	1082.66
986.85	1081.54
987.14	1082.59
987.43	1080.27
987.72	1078.17
988.01	1078.89
988.31	1079.85
988.60	1078.82
988.89	1077.07
989.18	1075.36
989.47	1072.39
989.76	1074.00
990.05	1077.21
990.34	1079.34
990.63	1081.96
990.92	1084.16
991.21	1082.78
991.51	1081.96
991.80	1079.95
992.09	1077.79
992.38	1075.73
992.67	1077.56
992.96	1074.33
993.25	1072.90
993.54	1073.04
993.83	1072.64
994.12	1075.24
994.41	1079.81
994.70	1084.91
994.99	1084.09
995.28	1085.96
995.57	1083.57
995.86	1080.65
996.15	1079.85
996.44	1081.42
996.73	1078.47
997.02	1076.46
997.31	1078.12
997.59	1077.30
997.88	1075.22
998.17	1079.10
998.46	1079.08
998.75	1073.09
999.04	1073.95
999.33	1075.36
999.62	1070.54
999.91	1071.03
1000.20	1073.81
1000.49	1069.55
1000.77	1068.90
1001.06	1075.27
1001.35	1075.31
1001.64	1076.46
1001.93	1077.11
1002.22	1077.35
1002.51	1073.35
1002.79	1074.19
1003.08	1074.40
1003.37	1074.75
1003.66	1076.53
1003.95	1078.00
1004.23	1077.49
1004.52	1077.28
1004.81	1081.28
1005.10	1075.80
1005.39	1074.14
1005.67	1071.75
1005.96	1072.29
1006.25	1068.55
1006.54	1070.42
1006.83	1073.14
1007.11	1074.73
1007.40	1073.42
1007.69	1073.67
1007.97	1075.29
1008.26	1073.51
1008.55	1071.15
1008.84	1070.87
1009.12	1073.14
1009.41	1074.33
1009.70	1073.35
1009.98	1076.13
1010.27	1077.61
1010.56	1077.42
1010.85	1076.60
1011.13	1078.59
1011.42	1078.28
1011.71	1079.01
1011.99	1074.66
1012.28	1075.31
1012.56	1075.59
1012.85	1078.00
1013.14	1076.97
1013.42	1078.43
1013.71	1073.44
1014.00	1073.51
1014.28	1073.07
1014.57	1073.46
1014.85	1075.31
1015.14	1080.48
1015.43	1080.20
1015.71	1079.85
1016.00	1079.69
1016.28	1080.18
1016.57	1079.29
1016.85	1076.83
1017.14	1076.08
1017.43	1077.72
1017.71	1076.93
1018.00	1076.08
1018.28	1077.00
1018.57	1075.99
1018.85	1073.70
1019.14	1073.98
1019.42	1074.00
1019.71	1073.81
1019.99	1075.17
1020.28	1073.63
1020.56	1069.79
1020.85	1070.98
1021.13	1074.96
1021.42	1074.40
1021.70	1076.37
1021.99	1078.89
1022.27	1082.92
1022.55	1071.38
1022.84	1097.83
>>>>>End Processed Spectral Data<<<<<
