SpectraSuite Data File
++++++++++++++++++++++++++++++++++++
Date: Mon Aug 26 10:22:30 PDT 2019
User: corrico
Dark Spectrum Present: No
Reference Spectrum Present: No
Number of Sampled Component Spectra: 1
Spectrometers: USB2+H06089
Integration Time (usec): 2000 (USB2+H06089)
Spectra Averaged: 20 (USB2+H06089)
Boxcar Smoothing: 2 (USB2+H06089)
Correct for Electrical Dark: No (USB2+H06089)
Strobe/Lamp Enabled: No (USB2+H06089)
Correct for Detector Non-linearity: No (USB2+H06089)
Correct for Stray Light: No (USB2+H06089)
Number of Pixels in Processed Spectrum: 2048
>>>>>Begin Processed Spectral Data<<<<<
339.70	1027.03
340.07	1027.03
340.45	995.41
340.82	973.10
341.19	951.22
341.57	927.69
341.94	918.05
342.31	907.57
342.69	901.69
343.06	897.22
343.43	895.09
343.81	892.94
344.18	897.67
344.55	904.20
344.93	908.71
345.30	913.75
345.67	925.87
346.04	931.81
346.42	938.20
346.79	948.01
347.16	958.12
347.54	962.36
347.91	969.85
348.28	980.05
348.65	990.28
349.03	999.01
349.40	1006.08
349.77	1015.58
350.14	1023.12
350.52	1028.24
350.89	1033.93
351.26	1041.80
351.63	1049.40
352.01	1057.43
352.38	1062.67
352.75	1067.38
353.12	1073.77
353.50	1078.57
353.87	1075.99
354.24	1077.49
354.61	1080.30
354.98	1082.40
355.36	1080.30
355.73	1084.35
356.10	1085.24
356.47	1086.50
356.84	1084.72
357.22	1086.57
357.59	1085.05
357.96	1084.11
358.33	1081.42
358.70	1081.98
359.08	1079.57
359.45	1081.21
359.82	1081.98
360.19	1083.60
360.56	1079.69
360.94	1079.53
361.31	1076.37
361.68	1074.89
362.05	1075.20
362.42	1078.36
362.79	1078.31
363.16	1082.22
363.54	1081.21
363.91	1079.24
364.28	1078.36
364.65	1077.84
365.02	1073.07
365.39	1076.37
365.76	1077.58
366.14	1078.03
366.51	1073.67
366.88	1074.14
367.25	1071.97
367.62	1068.97
367.99	1066.56
368.36	1073.09
368.73	1076.01
369.10	1073.67
369.48	1075.76
369.85	1075.64
370.22	1073.28
370.59	1072.18
370.96	1073.28
371.33	1075.05
371.70	1076.72
372.07	1076.60
372.44	1074.54
372.81	1074.54
373.18	1073.30
373.55	1072.39
373.93	1073.30
374.30	1074.68
374.67	1078.14
375.04	1077.07
375.41	1076.51
375.78	1078.12
376.15	1077.93
376.52	1075.29
376.89	1075.69
377.26	1077.02
377.63	1076.79
378.00	1076.32
378.37	1077.23
378.74	1077.09
379.11	1077.65
379.48	1077.40
379.85	1079.71
380.22	1081.47
380.59	1084.46
380.96	1085.66
381.33	1087.04
381.70	1088.44
382.07	1086.34
382.44	1082.52
382.81	1081.56
383.18	1078.19
383.55	1075.38
383.92	1077.07
384.29	1080.86
384.66	1082.01
385.03	1083.62
385.40	1084.93
385.77	1086.24
386.14	1087.30
386.51	1086.55
386.88	1084.93
387.25	1086.03
387.62	1086.15
387.99	1084.07
388.36	1084.49
388.73	1088.61
389.10	1087.13
389.46	1084.16
389.83	1083.55
390.20	1083.93
390.57	1080.44
390.94	1080.65
391.31	1081.80
391.68	1080.63
392.05	1080.32
392.42	1081.30
392.79	1080.65
393.16	1082.05
393.53	1083.08
393.89	1084.44
394.26	1083.60
394.63	1085.33
395.00	1086.87
395.37	1087.39
395.74	1086.08
396.11	1088.98
396.48	1089.71
396.84	1088.96
397.21	1091.98
397.58	1094.88
397.95	1092.23
398.32	1091.18
398.69	1091.09
399.06	1087.62
399.42	1083.93
399.79	1083.57
400.16	1084.16
400.53	1084.28
400.90	1085.59
401.27	1090.24
401.64	1094.25
402.00	1095.79
402.37	1095.93
402.74	1096.24
403.11	1093.87
403.48	1097.06
403.84	1093.57
404.21	1092.40
404.58	1090.50
404.95	1087.65
405.32	1083.86
405.68	1084.81
406.05	1084.96
406.42	1082.54
406.79	1089.78
407.16	1090.78
407.52	1092.40
407.89	1095.07
408.26	1100.29
408.63	1094.74
408.99	1093.10
409.36	1091.34
409.73	1086.15
410.10	1086.80
410.47	1088.23
410.83	1089.61
411.20	1093.66
411.57	1098.65
411.94	1096.96
412.30	1094.65
412.67	1091.84
413.04	1092.35
413.40	1090.48
413.77	1093.12
414.14	1093.73
414.51	1093.90
414.87	1092.33
415.24	1096.40
415.61	1096.12
415.97	1100.50
416.34	1103.89
416.71	1107.92
417.08	1108.92
417.44	1110.96
417.81	1109.95
418.18	1108.57
418.54	1104.45
418.91	1102.13
419.28	1100.40
419.64	1103.59
420.01	1109.55
420.38	1115.52
420.74	1118.33
421.11	1119.08
421.48	1119.71
421.84	1120.79
422.21	1117.91
422.58	1119.10
422.94	1123.93
423.31	1128.96
423.68	1132.02
424.04	1136.42
424.41	1136.99
424.77	1139.77
425.14	1141.55
425.51	1142.35
425.87	1145.58
426.24	1151.89
426.61	1157.00
426.97	1160.18
427.34	1167.79
427.70	1175.63
428.07	1182.77
428.44	1188.88
428.80	1197.96
429.17	1203.32
429.53	1209.68
429.90	1220.05
430.27	1231.85
430.63	1239.29
431.00	1248.04
431.36	1259.72
431.73	1268.27
432.09	1278.14
432.46	1296.02
432.83	1315.54
433.19	1332.54
433.56	1352.36
433.92	1373.71
434.29	1393.72
434.65	1414.18
435.02	1440.41
435.38	1469.06
435.75	1492.63
436.11	1522.57
436.48	1556.50
436.84	1592.27
437.21	1625.92
437.57	1665.62
437.94	1707.77
438.30	1751.52
438.67	1795.94
439.03	1848.37
439.40	1903.51
439.76	1958.49
440.13	2021.29
440.49	2086.10
440.86	2147.58
441.22	2218.73
441.59	2288.51
441.95	2365.30
442.32	2449.53
442.68	2546.60
443.05	2639.21
443.41	2740.74
443.78	2836.59
444.14	2937.44
444.51	3036.70
444.87	3172.22
445.24	3314.15
445.60	3471.62
445.96	3629.80
446.33	3810.93
446.69	3976.38
447.06	4151.10
447.42	4332.28
447.79	4523.09
448.15	4740.99
448.51	4968.07
448.88	5229.32
449.24	5463.37
449.61	5742.32
449.97	6013.77
450.33	6293.12
450.70	6549.83
451.06	6879.02
451.43	7179.22
451.79	7538.63
452.15	7936.62
452.52	8387.43
452.88	8853.17
453.24	9374.97
453.61	9944.98
453.97	10495.10
454.34	11035.11
454.70	11681.94
455.06	12332.56
455.43	12954.37
455.79	13559.92
456.15	14265.96
456.52	14898.94
456.88	15664.74
457.24	16374.39
457.61	17223.65
457.97	17977.94
458.33	18754.13
458.70	19507.92
459.06	20278.33
459.42	21091.41
459.79	21879.77
460.15	22782.33
460.51	23644.23
460.88	24556.95
461.24	25333.82
461.60	26294.07
461.96	27159.95
462.33	27966.64
462.69	28741.85
463.05	29590.76
463.42	30274.62
463.78	30898.39
464.14	31417.06
464.50	31982.51
464.87	32459.20
465.23	32811.06
465.59	33161.72
465.95	33495.90
466.32	33755.72
466.68	33970.23
467.04	34091.28
467.40	34208.47
467.77	34355.60
468.13	34356.61
468.49	34256.50
468.85	34205.48
469.22	34056.95
469.58	33709.03
469.94	33454.07
470.30	33160.45
470.66	32730.40
471.03	32140.75
471.39	31766.34
471.75	31143.07
472.11	30544.01
472.47	30200.14
472.84	29893.44
473.20	29398.25
473.56	29138.64
473.92	28718.21
474.28	28202.80
474.65	27710.07
475.01	27236.95
475.37	26642.90
475.73	26181.47
476.09	25651.78
476.45	25121.23
476.81	24609.89
477.18	24072.69
477.54	23624.29
477.90	23269.11
478.26	22879.09
478.62	22549.12
478.98	22281.57
479.34	21965.51
479.71	21550.62
480.07	21208.02
480.43	20850.92
480.79	20476.36
481.15	20126.48
481.51	19833.61
481.87	19581.34
482.23	19296.87
482.59	19040.77
482.96	18764.50
483.32	18468.89
483.68	18095.88
484.04	17756.52
484.40	17389.13
484.76	17027.82
485.12	16670.09
485.48	16353.46
485.84	16013.88
486.20	15671.48
486.56	15308.60
486.92	15000.73
487.28	14640.26
487.64	14266.78
488.00	13939.65
488.37	13624.75
488.73	13258.43
489.09	12922.54
489.45	12619.54
489.81	12306.05
490.17	12007.44
490.53	11734.18
490.89	11439.09
491.25	11156.77
491.61	10853.77
491.97	10536.76
492.33	10218.31
492.69	9922.82
493.05	9619.74
493.41	9334.22
493.77	9064.82
494.13	8808.21
494.49	8555.99
494.85	8319.88
495.21	8101.93
495.57	7893.90
495.93	7688.03
496.29	7492.55
496.64	7309.75
497.00	7111.39
497.36	6911.48
497.72	6720.50
498.08	6542.22
498.44	6364.90
498.80	6203.64
499.16	6045.58
499.52	5903.98
499.88	5785.57
500.24	5666.88
500.60	5550.02
500.96	5436.36
501.32	5316.01
501.68	5181.41
502.03	5047.32
502.39	4919.90
502.75	4787.33
503.11	4662.37
503.47	4542.04
503.83	4428.55
504.19	4310.38
504.55	4214.49
504.91	4121.26
505.26	4031.50
505.62	3949.33
505.98	3863.17
506.34	3765.10
506.70	3671.36
507.06	3580.48
507.42	3496.15
507.78	3414.75
508.13	3346.52
508.49	3275.79
508.85	3209.34
509.21	3140.53
509.57	3077.15
509.93	3006.86
510.28	2939.48
510.64	2872.56
511.00	2807.43
511.36	2746.67
511.72	2691.17
512.07	2647.10
512.43	2603.75
512.79	2550.69
513.15	2505.33
513.51	2458.22
513.86	2405.77
514.22	2360.80
514.58	2321.69
514.94	2278.77
515.30	2246.26
515.65	2210.07
516.01	2177.03
516.37	2142.67
516.73	2114.39
517.08	2088.39
517.44	2061.19
517.80	2033.57
518.16	2007.36
518.51	1980.40
518.87	1946.30
519.23	1920.50
519.59	1895.55
519.94	1872.31
520.30	1847.99
520.66	1826.41
521.01	1805.63
521.37	1784.54
521.73	1765.07
522.09	1748.33
522.44	1732.75
522.80	1710.49
523.16	1689.75
523.51	1668.29
523.87	1648.32
524.23	1625.01
524.58	1608.21
524.94	1590.00
525.30	1572.37
525.65	1554.68
526.01	1541.85
526.37	1526.73
526.72	1515.19
527.08	1502.58
527.44	1490.22
527.79	1477.14
528.15	1465.01
528.51	1451.09
528.86	1440.58
529.22	1429.06
529.58	1418.53
529.93	1408.42
530.29	1401.61
530.65	1390.07
531.00	1380.66
531.36	1370.08
531.71	1361.84
532.07	1353.88
532.43	1346.95
532.78	1341.43
533.14	1336.59
533.49	1330.99
533.85	1322.94
534.21	1313.65
534.56	1306.63
534.92	1298.62
535.27	1291.98
535.63	1286.08
535.98	1282.45
536.34	1274.16
536.69	1270.28
537.05	1263.68
537.41	1256.80
537.76	1253.68
538.12	1250.10
538.47	1246.90
538.83	1244.86
539.18	1236.22
539.54	1228.08
539.89	1222.88
540.25	1217.85
540.60	1208.32
540.96	1209.45
541.31	1211.63
541.67	1207.08
542.02	1206.62
542.38	1206.48
542.73	1203.78
543.09	1199.43
543.44	1196.34
543.80	1187.28
544.15	1184.08
544.51	1181.53
544.86	1179.37
545.22	1179.98
545.57	1180.80
545.93	1178.95
546.28	1176.17
546.64	1175.44
546.99	1173.05
547.35	1167.97
547.70	1168.35
548.05	1165.52
548.41	1160.23
548.76	1156.39
549.12	1154.12
549.47	1148.62
549.83	1147.80
550.18	1143.59
550.53	1140.03
550.89	1141.20
551.24	1142.13
551.60	1137.69
551.95	1139.65
552.30	1138.83
552.66	1137.15
553.01	1134.25
553.37	1134.53
553.72	1132.21
554.07	1130.24
554.43	1127.93
554.78	1128.16
555.13	1128.11
555.49	1128.28
555.84	1131.95
556.19	1131.32
556.55	1128.26
556.90	1127.11
557.26	1125.33
557.61	1120.23
557.96	1118.24
558.32	1117.93
558.67	1113.32
559.02	1112.88
559.37	1113.23
559.73	1112.25
560.08	1110.35
560.43	1113.77
560.79	1113.35
561.14	1112.15
561.49	1113.09
561.85	1113.14
562.20	1106.98
562.55	1104.17
562.90	1102.51
563.26	1101.48
563.61	1104.15
563.96	1108.69
564.32	1109.48
564.67	1112.29
565.02	1113.32
565.37	1107.96
565.73	1107.45
566.08	1108.38
566.43	1103.02
566.78	1101.46
567.14	1104.92
567.49	1103.66
567.84	1102.37
568.19	1102.35
568.54	1100.59
568.90	1095.51
569.25	1096.89
569.60	1095.35
569.95	1098.46
570.31	1101.64
570.66	1101.57
571.01	1097.83
571.36	1098.32
571.71	1096.61
572.06	1092.98
572.42	1096.96
572.77	1098.41
573.12	1095.58
573.47	1093.36
573.82	1092.14
574.18	1089.94
574.53	1090.88
574.88	1096.63
575.23	1099.37
575.58	1100.43
575.93	1099.61
576.28	1099.19
576.64	1097.38
576.99	1097.01
577.34	1095.21
577.69	1096.96
578.04	1096.17
578.39	1096.49
578.74	1094.74
579.09	1097.22
579.44	1094.36
579.80	1092.02
580.15	1088.58
580.50	1090.71
580.85	1090.41
581.20	1090.78
581.55	1091.79
581.90	1091.70
582.25	1091.34
582.60	1091.53
582.95	1093.47
583.30	1093.05
583.65	1093.45
584.00	1092.16
584.35	1089.80
584.71	1085.82
585.06	1084.11
585.41	1083.57
585.76	1085.49
586.11	1084.65
586.46	1090.10
586.81	1092.19
587.16	1092.98
587.51	1090.20
587.86	1091.77
588.21	1086.83
588.56	1085.66
588.91	1083.90
589.26	1082.01
589.61	1079.57
589.96	1084.56
590.31	1082.50
590.66	1084.25
591.01	1084.63
591.36	1091.25
591.71	1088.61
592.06	1092.68
592.41	1091.32
592.76	1096.70
593.10	1093.45
593.45	1089.99
593.80	1088.51
594.15	1086.64
594.50	1082.57
594.85	1082.57
595.20	1084.84
595.55	1084.11
595.90	1088.82
596.25	1089.26
596.60	1084.72
596.95	1081.16
597.30	1079.55
597.64	1086.83
597.99	1087.81
598.34	1091.49
598.69	1097.17
599.04	1098.44
599.39	1088.14
599.74	1088.28
600.09	1088.28
600.44	1085.40
600.78	1085.12
601.13	1087.81
601.48	1087.55
601.83	1086.55
602.18	1088.07
602.53	1088.35
602.88	1086.71
603.22	1088.44
603.57	1089.43
603.92	1089.10
604.27	1089.96
604.62	1090.08
604.97	1088.84
605.31	1089.96
605.66	1089.82
606.01	1087.95
606.36	1086.76
606.71	1086.41
607.05	1086.73
607.40	1085.54
607.75	1087.34
608.10	1087.48
608.44	1085.03
608.79	1085.82
609.14	1087.51
609.49	1087.39
609.84	1088.37
610.18	1087.02
610.53	1084.51
610.88	1082.61
611.23	1083.22
611.57	1081.73
611.92	1085.03
612.27	1086.85
612.62	1089.36
612.96	1088.23
613.31	1088.51
613.66	1087.90
614.00	1087.06
614.35	1084.51
614.70	1085.21
615.05	1083.93
615.39	1084.74
615.74	1083.64
616.09	1082.64
616.43	1079.76
616.78	1083.08
617.13	1084.04
617.47	1084.74
617.82	1085.80
618.17	1087.02
618.51	1084.49
618.86	1080.04
619.21	1076.23
619.55	1077.70
619.90	1079.36
620.25	1079.85
620.59	1081.47
620.94	1084.18
621.29	1083.29
621.63	1081.98
621.98	1081.00
622.32	1081.84
622.67	1081.77
623.02	1081.09
623.36	1081.70
623.71	1083.83
624.05	1086.20
624.40	1085.14
624.75	1085.77
625.09	1087.32
625.44	1085.40
625.78	1085.35
626.13	1083.18
626.48	1084.09
626.82	1082.61
627.17	1079.55
627.51	1077.77
627.86	1080.46
628.20	1079.01
628.55	1080.67
628.89	1083.71
629.24	1082.08
629.58	1083.86
629.93	1084.67
630.28	1084.44
630.62	1085.10
630.97	1086.17
631.31	1085.61
631.66	1086.59
632.00	1082.54
632.35	1083.53
632.69	1084.21
633.04	1082.57
633.38	1083.48
633.73	1085.10
634.07	1084.96
634.42	1083.79
634.76	1085.61
635.11	1082.52
635.45	1082.90
635.79	1080.86
636.14	1081.19
636.48	1081.77
636.83	1079.88
637.17	1079.81
637.52	1081.26
637.86	1080.58
638.21	1080.44
638.55	1084.74
638.89	1085.73
639.24	1085.31
639.58	1087.55
639.93	1089.57
640.27	1090.34
640.61	1090.76
640.96	1088.51
641.30	1088.09
641.65	1083.95
641.99	1082.50
642.33	1080.30
642.68	1082.64
643.02	1082.50
643.37	1084.18
643.71	1082.26
644.05	1083.06
644.40	1084.53
644.74	1084.35
645.08	1082.92
645.43	1084.51
645.77	1083.83
646.11	1082.71
646.46	1081.02
646.80	1081.42
647.14	1080.74
647.49	1078.89
647.83	1080.79
648.17	1083.22
648.52	1083.76
648.86	1082.50
649.20	1085.59
649.55	1085.87
649.89	1084.09
650.23	1082.50
650.57	1084.70
650.92	1081.94
651.26	1079.17
651.60	1080.95
651.95	1084.16
652.29	1079.85
652.63	1080.95
652.97	1084.56
653.32	1082.83
653.66	1081.44
654.00	1083.97
654.34	1083.20
654.69	1078.28
655.03	1078.66
655.37	1075.62
655.71	1076.58
656.05	1082.15
656.40	1082.90
656.74	1080.67
657.08	1080.06
657.42	1080.30
657.76	1078.00
658.11	1077.86
658.45	1077.79
658.79	1081.30
659.13	1081.23
659.47	1079.69
659.82	1080.37
660.16	1081.12
660.50	1079.27
660.84	1082.05
661.18	1082.99
661.52	1083.25
661.87	1086.01
662.21	1087.69
662.55	1087.02
662.89	1088.26
663.23	1089.43
663.57	1089.19
663.91	1090.10
664.25	1086.27
664.60	1086.66
664.94	1083.88
665.28	1082.50
665.62	1079.95
665.96	1082.80
666.30	1082.22
666.64	1084.39
666.98	1083.01
667.32	1083.76
667.66	1080.44
668.01	1077.14
668.35	1077.75
668.69	1078.14
669.03	1078.24
669.37	1082.05
669.71	1086.08
670.05	1080.32
670.39	1080.67
670.73	1082.97
671.07	1080.34
671.41	1080.95
671.75	1085.28
672.09	1085.33
672.43	1083.90
672.77	1083.04
673.11	1079.95
673.45	1079.74
673.79	1081.47
674.13	1080.51
674.47	1082.43
674.81	1084.25
675.15	1082.83
675.49	1081.87
675.83	1084.32
676.17	1083.32
676.51	1082.69
676.85	1083.36
677.19	1084.18
677.53	1081.26
677.87	1084.07
678.21	1083.22
678.55	1084.49
678.89	1082.73
679.23	1082.19
679.57	1078.87
679.90	1079.53
680.24	1079.38
680.58	1076.86
680.92	1076.67
681.26	1078.47
681.60	1074.73
681.94	1073.44
682.28	1079.55
682.62	1080.51
682.96	1081.68
683.29	1084.23
683.63	1085.26
683.97	1083.43
684.31	1081.47
684.65	1077.28
684.99	1079.08
685.33	1082.17
685.67	1079.36
686.00	1080.88
686.34	1085.31
686.68	1080.58
687.02	1078.40
687.36	1079.27
687.70	1080.11
688.03	1074.89
688.37	1076.25
688.71	1074.35
689.05	1073.84
689.39	1072.20
689.72	1076.32
690.06	1077.68
690.40	1078.57
690.74	1079.85
691.08	1082.76
691.41	1080.16
691.75	1079.90
692.09	1081.80
692.43	1081.91
692.76	1078.99
693.10	1082.01
693.44	1083.20
693.78	1080.30
694.11	1081.66
694.45	1081.26
694.79	1080.02
695.13	1080.46
695.46	1081.37
695.80	1081.23
696.14	1085.70
696.48	1085.94
696.81	1084.09
697.15	1087.11
697.49	1089.24
697.82	1086.13
698.16	1088.07
698.50	1087.51
698.83	1085.24
699.17	1081.51
699.51	1083.41
699.84	1082.47
700.18	1083.32
700.52	1080.84
700.85	1082.76
701.19	1082.17
701.53	1081.40
701.86	1080.84
702.20	1081.56
702.54	1081.56
702.87	1077.35
703.21	1077.61
703.55	1079.76
703.88	1078.89
704.22	1075.59
704.55	1077.82
704.89	1076.81
705.23	1073.70
705.56	1078.03
705.90	1079.50
706.23	1080.74
706.57	1082.31
706.91	1082.97
707.24	1080.95
707.58	1080.74
707.91	1078.03
708.25	1076.83
708.58	1079.50
708.92	1077.86
709.26	1078.80
709.59	1082.26
709.93	1085.77
710.26	1085.75
710.60	1086.31
710.93	1088.09
711.27	1087.11
711.60	1086.83
711.94	1084.72
712.27	1086.76
712.61	1085.89
712.94	1088.65
713.28	1086.36
713.61	1087.53
713.95	1083.18
714.28	1078.94
714.62	1075.36
714.95	1073.91
715.29	1072.85
715.62	1072.50
715.96	1076.39
716.29	1079.17
716.63	1077.18
716.96	1078.59
717.29	1080.93
717.63	1078.73
717.96	1075.29
718.30	1078.40
718.63	1076.27
718.97	1078.47
719.30	1079.46
719.63	1080.51
719.97	1079.74
720.30	1083.62
720.64	1082.94
720.97	1085.24
721.30	1087.20
721.64	1088.09
721.97	1086.34
722.31	1088.96
722.64	1086.29
722.97	1085.35
723.31	1084.02
723.64	1081.28
723.97	1078.19
724.31	1080.04
724.64	1080.13
724.98	1082.36
725.31	1085.66
725.64	1086.99
725.98	1086.69
726.31	1086.57
726.64	1083.88
726.97	1082.22
727.31	1081.42
727.64	1080.48
727.97	1080.98
728.31	1080.67
728.64	1079.36
728.97	1077.16
729.31	1078.24
729.64	1077.33
729.97	1077.84
730.30	1078.50
730.64	1077.56
730.97	1077.25
731.30	1076.39
731.63	1075.15
731.97	1076.18
732.30	1077.14
732.63	1075.22
732.96	1076.97
733.30	1079.90
733.63	1081.94
733.96	1085.24
734.29	1085.49
734.63	1087.30
734.96	1085.24
735.29	1079.76
735.62	1078.52
735.95	1080.02
736.29	1077.75
736.62	1079.06
736.95	1081.87
737.28	1080.11
737.61	1079.03
737.94	1078.31
738.28	1076.18
738.61	1078.36
738.94	1079.81
739.27	1078.66
739.60	1077.82
739.93	1078.24
740.27	1075.92
740.60	1077.58
740.93	1079.88
741.26	1080.41
741.59	1079.48
741.92	1079.43
742.25	1076.48
742.58	1071.33
742.91	1072.81
743.25	1076.11
743.58	1074.61
743.91	1076.95
744.24	1081.89
744.57	1081.14
744.90	1079.53
745.23	1081.58
745.56	1084.35
745.89	1082.19
746.22	1081.68
746.55	1082.22
746.88	1084.16
747.21	1079.71
747.54	1078.40
747.87	1077.42
748.20	1078.07
748.53	1076.97
748.87	1077.16
749.20	1079.34
749.53	1081.89
749.86	1084.28
750.19	1082.10
750.52	1085.47
750.85	1083.25
751.18	1079.64
751.51	1075.13
751.84	1076.39
752.16	1072.97
752.49	1078.14
752.82	1079.71
753.15	1079.29
753.48	1078.07
753.81	1079.20
754.14	1077.04
754.47	1080.30
754.80	1081.26
755.13	1083.97
755.46	1082.45
755.79	1084.81
756.12	1083.86
756.45	1084.98
756.78	1084.86
757.11	1087.34
757.43	1084.53
757.76	1082.08
758.09	1083.36
758.42	1082.54
758.75	1082.43
759.08	1082.78
759.41	1082.17
759.74	1082.80
760.07	1080.88
760.39	1080.16
760.72	1082.61
761.05	1084.35
761.38	1081.61
761.71	1084.09
762.04	1084.84
762.36	1083.48
762.69	1082.78
763.02	1083.93
763.35	1083.25
763.68	1080.46
764.01	1076.60
764.33	1077.49
764.66	1078.71
764.99	1079.78
765.32	1081.61
765.65	1083.25
765.97	1080.56
766.30	1077.98
766.63	1077.44
766.96	1077.40
767.28	1076.44
767.61	1077.18
767.94	1079.76
768.27	1078.71
768.59	1079.83
768.92	1081.30
769.25	1079.92
769.58	1077.93
769.90	1077.14
770.23	1074.96
770.56	1077.07
770.89	1080.34
771.21	1081.47
771.54	1082.08
771.87	1083.95
772.19	1083.04
772.52	1079.74
772.85	1078.00
773.17	1078.80
773.50	1078.89
773.83	1081.98
774.15	1086.62
774.48	1085.80
774.81	1086.10
775.13	1084.44
775.46	1081.66
775.79	1079.85
776.11	1083.06
776.44	1082.08
776.77	1081.23
777.09	1081.51
777.42	1083.67
777.74	1083.90
778.07	1086.66
778.40	1086.64
778.72	1085.70
779.05	1085.82
779.37	1082.97
779.70	1079.48
780.03	1079.03
780.35	1078.89
780.68	1074.87
781.00	1073.44
781.33	1074.26
781.65	1072.53
781.98	1071.40
782.31	1073.51
782.63	1074.59
782.96	1072.20
783.28	1074.19
783.61	1075.08
783.93	1074.96
784.26	1073.18
784.58	1075.69
784.91	1077.49
785.23	1078.33
785.56	1075.73
785.88	1079.13
786.21	1080.25
786.53	1078.73
786.86	1076.55
787.18	1077.35
787.51	1078.07
787.83	1076.69
788.16	1076.11
788.48	1076.18
788.81	1077.16
789.13	1072.76
789.46	1069.27
789.78	1070.16
790.10	1074.03
790.43	1075.94
790.75	1078.82
791.08	1081.80
791.40	1080.91
791.73	1079.95
792.05	1078.19
792.37	1080.41
792.70	1080.06
793.02	1082.19
793.35	1081.07
793.67	1079.99
793.99	1079.13
794.32	1081.49
794.64	1078.82
794.96	1078.64
795.29	1080.74
795.61	1076.79
795.93	1076.83
796.26	1078.43
796.58	1079.92
796.91	1076.15
797.23	1077.33
797.55	1076.41
797.87	1078.61
798.20	1076.88
798.52	1078.50
798.84	1082.31
799.17	1081.35
799.49	1079.76
799.81	1079.20
800.14	1083.90
800.46	1081.51
800.78	1080.77
801.10	1077.91
801.43	1077.61
801.75	1072.95
802.07	1073.32
802.40	1074.42
802.72	1076.88
803.04	1078.00
803.36	1081.30
803.69	1081.12
804.01	1082.54
804.33	1082.36
804.65	1081.26
804.97	1079.41
805.30	1079.46
805.62	1076.74
805.94	1076.44
806.26	1074.84
806.58	1077.61
806.91	1076.72
807.23	1079.85
807.55	1081.05
807.87	1083.11
808.19	1078.50
808.52	1081.96
808.84	1079.76
809.16	1079.62
809.48	1083.90
809.80	1085.96
810.12	1081.91
810.44	1082.78
810.77	1081.12
811.09	1078.71
811.41	1080.06
811.73	1084.11
812.05	1084.49
812.37	1088.35
812.69	1087.86
813.01	1085.96
813.33	1079.53
813.66	1077.79
813.98	1072.71
814.30	1072.95
814.62	1074.24
814.94	1078.38
815.26	1079.15
815.58	1083.39
815.90	1080.67
816.22	1079.41
816.54	1080.98
816.86	1079.53
817.18	1074.63
817.50	1076.95
817.82	1075.90
818.14	1076.23
818.46	1077.02
818.78	1077.84
819.10	1075.15
819.42	1074.38
819.74	1070.42
820.06	1069.18
820.38	1072.15
820.70	1070.96
821.02	1071.80
821.34	1074.07
821.66	1076.39
821.98	1072.01
822.30	1073.70
822.62	1072.50
822.94	1075.92
823.26	1075.50
823.58	1079.83
823.90	1083.20
824.22	1083.13
824.54	1078.14
824.86	1076.53
825.18	1075.03
825.50	1074.87
825.81	1077.18
826.13	1080.46
826.45	1085.66
826.77	1087.25
827.09	1087.18
827.41	1090.29
827.73	1087.41
828.05	1082.12
828.36	1081.42
828.68	1081.80
829.00	1078.14
829.32	1078.66
829.64	1082.31
829.96	1082.29
830.28	1080.70
830.59	1082.33
830.91	1084.00
831.23	1083.67
831.55	1083.32
831.87	1082.57
832.19	1078.38
832.50	1072.85
832.82	1071.24
833.14	1069.67
833.46	1067.66
833.78	1070.68
834.09	1071.57
834.41	1067.96
834.73	1072.01
835.05	1074.42
835.36	1075.90
835.68	1076.90
836.00	1078.43
836.32	1075.57
836.63	1076.41
836.95	1077.35
837.27	1079.48
837.59	1079.46
837.90	1078.96
838.22	1075.45
838.54	1072.60
838.85	1072.46
839.17	1072.22
839.49	1075.20
839.80	1077.82
840.12	1077.58
840.44	1075.99
840.76	1079.15
841.07	1076.55
841.39	1076.53
841.71	1074.73
842.02	1075.99
842.34	1077.42
842.65	1077.79
842.97	1078.75
843.29	1082.05
843.60	1080.23
843.92	1077.04
844.24	1079.60
844.55	1076.95
844.87	1076.30
845.18	1078.36
845.50	1077.58
845.82	1074.54
846.13	1076.74
846.45	1078.50
846.76	1078.07
847.08	1081.33
847.40	1083.18
847.71	1078.45
848.03	1076.51
848.34	1077.93
848.66	1076.34
848.97	1073.21
849.29	1079.78
849.60	1081.75
849.92	1078.85
850.24	1076.13
850.55	1078.40
850.87	1075.27
851.18	1074.28
851.50	1078.64
851.81	1082.12
852.13	1083.50
852.44	1083.55
852.76	1078.75
853.07	1077.23
853.39	1076.86
853.70	1074.19
854.01	1074.42
854.33	1079.43
854.64	1077.68
854.96	1079.29
855.27	1082.17
855.59	1081.26
855.90	1079.53
856.22	1081.19
856.53	1080.56
856.84	1077.33
857.16	1078.61
857.47	1079.46
857.79	1079.60
858.10	1078.80
858.41	1077.61
858.73	1076.55
859.04	1078.00
859.36	1076.72
859.67	1077.68
859.98	1081.21
860.30	1083.18
860.61	1082.17
860.92	1084.60
861.24	1083.55
861.55	1080.70
861.87	1080.25
862.18	1081.26
862.49	1079.95
862.81	1081.33
863.12	1081.63
863.43	1078.94
863.74	1078.31
864.06	1078.80
864.37	1074.33
864.68	1076.53
865.00	1078.71
865.31	1075.34
865.62	1070.42
865.94	1073.42
866.25	1074.89
866.56	1071.64
866.87	1076.55
867.19	1081.33
867.50	1077.30
867.81	1076.37
868.12	1078.99
868.44	1074.35
868.75	1073.60
869.06	1076.41
869.37	1073.14
869.68	1074.03
870.00	1074.49
870.31	1074.89
870.62	1075.66
870.93	1077.77
871.24	1077.47
871.56	1081.73
871.87	1080.60
872.18	1080.88
872.49	1081.28
872.80	1079.83
873.12	1074.89
873.43	1077.44
873.74	1075.80
874.05	1075.90
874.36	1078.14
874.67	1078.05
874.98	1075.85
875.29	1076.51
875.61	1076.86
875.92	1074.68
876.23	1076.62
876.54	1079.64
876.85	1079.53
877.16	1082.83
877.47	1086.78
877.78	1087.81
878.09	1084.02
878.40	1083.57
878.72	1077.68
879.03	1072.85
879.34	1072.57
879.65	1073.98
879.96	1077.04
880.27	1078.71
880.58	1080.91
880.89	1081.47
881.20	1080.09
881.51	1078.85
881.82	1077.11
882.13	1075.43
882.44	1070.56
882.75	1070.09
883.06	1068.85
883.37	1069.16
883.68	1069.60
883.99	1074.66
884.30	1074.89
884.61	1077.63
884.92	1080.88
885.23	1079.71
885.54	1081.19
885.85	1083.46
886.16	1080.81
886.47	1079.20
886.78	1078.89
887.08	1077.68
887.39	1076.06
887.70	1074.91
888.01	1074.17
888.32	1077.16
888.63	1075.73
888.94	1076.60
889.25	1079.48
889.56	1078.21
889.87	1081.47
890.17	1084.58
890.48	1086.20
890.79	1083.46
891.10	1086.27
891.41	1080.63
891.72	1078.68
892.03	1076.44
892.34	1076.83
892.64	1074.73
892.95	1074.26
893.26	1072.06
893.57	1070.61
893.88	1071.85
894.18	1071.99
894.49	1073.39
894.80	1075.15
895.11	1077.72
895.42	1075.24
895.72	1075.83
896.03	1075.55
896.34	1075.05
896.65	1075.66
896.96	1075.34
897.26	1076.86
897.57	1078.73
897.88	1080.70
898.19	1082.36
898.49	1084.42
898.80	1083.39
899.11	1082.50
899.41	1081.07
899.72	1080.06
900.03	1078.00
900.34	1076.23
900.64	1076.72
900.95	1077.61
901.26	1075.38
901.56	1077.86
901.87	1078.28
902.18	1079.43
902.48	1077.79
902.79	1080.11
903.10	1082.19
903.40	1082.64
903.71	1080.02
904.02	1080.72
904.32	1079.88
904.63	1078.80
904.94	1078.64
905.24	1077.93
905.55	1077.00
905.85	1075.08
906.16	1071.12
906.47	1071.33
906.77	1074.70
907.08	1075.24
907.38	1076.34
907.69	1079.67
908.00	1082.57
908.30	1081.58
908.61	1082.08
908.91	1080.46
909.22	1079.20
909.52	1075.69
909.83	1074.91
910.14	1073.79
910.44	1077.44
910.75	1078.47
911.05	1081.73
911.36	1083.22
911.66	1084.37
911.97	1081.35
912.27	1082.17
912.58	1080.44
912.88	1076.01
913.19	1072.32
913.49	1071.24
913.80	1069.62
914.10	1070.05
914.41	1074.14
914.71	1075.43
915.01	1075.69
915.32	1076.01
915.62	1076.04
915.93	1074.84
916.23	1075.48
916.54	1076.20
916.84	1078.71
917.15	1078.66
917.45	1076.86
917.75	1078.59
918.06	1078.47
918.36	1075.20
918.67	1074.66
918.97	1074.54
919.27	1072.69
919.58	1076.11
919.88	1074.98
920.18	1074.80
920.49	1079.95
920.79	1082.31
921.10	1078.33
921.40	1080.95
921.70	1078.21
922.01	1074.70
922.31	1071.73
922.61	1074.45
922.92	1074.75
923.22	1079.29
923.52	1081.21
923.82	1085.45
924.13	1082.99
924.43	1081.44
924.73	1079.38
925.04	1077.44
925.34	1074.56
925.64	1074.84
925.94	1073.77
926.25	1075.15
926.55	1076.74
926.85	1075.97
927.15	1072.57
927.46	1074.07
927.76	1073.67
928.06	1072.29
928.36	1073.63
928.67	1076.97
928.97	1077.14
929.27	1078.68
929.57	1076.48
929.87	1076.06
930.18	1078.24
930.48	1077.02
930.78	1077.40
931.08	1079.76
931.38	1078.80
931.69	1074.77
931.99	1077.11
932.29	1076.04
932.59	1077.42
932.89	1078.96
933.19	1080.53
933.49	1078.40
933.80	1076.01
934.10	1074.66
934.40	1073.70
934.70	1073.09
935.00	1072.06
935.30	1075.69
935.60	1075.55
935.90	1074.21
936.20	1077.65
936.50	1080.20
936.81	1074.03
937.11	1073.35
937.41	1076.83
937.71	1074.98
938.01	1074.98
938.31	1077.61
938.61	1076.81
938.91	1073.98
939.21	1074.42
939.51	1073.93
939.81	1075.76
940.11	1077.25
940.41	1081.89
940.71	1079.15
941.01	1080.20
941.31	1079.88
941.61	1081.47
941.91	1080.91
942.21	1079.97
942.51	1076.93
942.81	1074.49
943.11	1072.95
943.41	1071.47
943.71	1074.96
944.01	1078.12
944.31	1079.31
944.61	1080.02
944.90	1080.79
945.20	1081.98
945.50	1080.98
945.80	1077.84
946.10	1076.01
946.40	1074.66
946.70	1071.66
947.00	1073.81
947.30	1076.79
947.60	1077.75
947.89	1076.18
948.19	1075.73
948.49	1073.37
948.79	1072.97
949.09	1072.53
949.39	1074.77
949.69	1078.99
949.98	1078.54
950.28	1079.64
950.58	1080.20
950.88	1077.68
951.18	1075.94
951.48	1078.68
951.77	1079.60
952.07	1079.55
952.37	1082.24
952.67	1080.04
952.97	1079.69
953.26	1077.44
953.56	1078.89
953.86	1077.42
954.16	1081.49
954.45	1082.15
954.75	1086.38
955.05	1085.70
955.35	1086.22
955.64	1080.37
955.94	1079.64
956.24	1075.15
956.54	1074.07
956.83	1069.88
957.13	1071.82
957.43	1068.83
957.72	1068.99
958.02	1068.76
958.32	1071.45
958.61	1073.63
958.91	1073.88
959.21	1074.98
959.50	1075.83
959.80	1076.06
960.10	1072.92
960.39	1075.17
960.69	1075.94
960.99	1076.74
961.28	1075.83
961.58	1078.89
961.87	1078.03
962.17	1077.09
962.47	1075.34
962.76	1076.88
963.06	1078.14
963.36	1078.00
963.65	1076.46
963.95	1078.66
964.24	1079.03
964.54	1076.27
964.83	1078.40
965.13	1082.05
965.42	1080.23
965.72	1078.73
966.02	1080.72
966.31	1078.45
966.61	1075.57
966.90	1075.31
967.20	1077.42
967.49	1078.17
967.79	1076.65
968.08	1078.05
968.38	1075.17
968.67	1077.07
968.97	1074.12
969.26	1077.11
969.56	1074.87
969.85	1076.58
970.15	1071.03
970.44	1072.36
970.74	1071.52
971.03	1072.97
971.32	1078.50
971.62	1082.97
971.91	1081.42
972.21	1081.30
972.50	1080.11
972.80	1077.65
973.09	1075.90
973.38	1076.93
973.68	1077.14
973.97	1077.49
974.27	1076.95
974.56	1076.37
974.85	1076.08
975.15	1074.33
975.44	1071.52
975.73	1071.33
976.03	1070.82
976.32	1072.92
976.61	1074.73
976.91	1078.80
977.20	1079.67
977.49	1081.94
977.79	1081.96
978.08	1077.65
978.37	1077.70
978.67	1075.27
978.96	1073.32
979.25	1071.08
979.55	1075.24
979.84	1075.92
980.13	1076.13
980.42	1075.20
980.72	1076.20
981.01	1077.47
981.30	1077.18
981.59	1077.79
981.89	1079.85
982.18	1079.92
982.47	1078.40
982.76	1079.22
983.06	1080.25
983.35	1077.58
983.64	1076.55
983.93	1076.18
984.22	1075.34
984.52	1071.03
984.81	1074.14
985.10	1074.49
985.39	1074.19
985.68	1075.73
985.97	1079.71
986.27	1077.72
986.56	1079.64
986.85	1078.82
987.14	1076.06
987.43	1073.56
987.72	1071.64
988.01	1070.58
988.31	1070.07
988.60	1069.48
988.89	1074.17
989.18	1078.52
989.47	1075.15
989.76	1078.59
990.05	1078.71
990.34	1073.21
990.63	1067.03
990.92	1068.83
991.21	1067.54
991.51	1069.88
991.80	1071.80
992.09	1077.30
992.38	1077.23
992.67	1076.69
992.96	1075.05
993.25	1079.53
993.54	1079.71
993.83	1077.84
994.12	1076.93
994.41	1079.74
994.70	1075.52
994.99	1074.35
995.28	1077.30
995.57	1078.43
995.86	1076.53
996.15	1076.39
996.44	1073.93
996.73	1074.38
997.02	1075.24
997.31	1075.10
997.59	1076.25
997.88	1078.66
998.17	1079.27
998.46	1077.18
998.75	1080.39
999.04	1078.50
999.33	1079.46
999.62	1080.81
999.91	1084.58
1000.20	1081.21
1000.49	1082.45
1000.77	1078.94
1001.06	1074.68
1001.35	1072.48
1001.64	1071.68
1001.93	1068.36
1002.22	1068.59
1002.51	1072.48
1002.79	1072.34
1003.08	1073.79
1003.37	1076.72
1003.66	1079.10
1003.95	1078.82
1004.23	1078.07
1004.52	1073.91
1004.81	1075.15
1005.10	1075.24
1005.39	1073.98
1005.67	1074.14
1005.96	1075.22
1006.25	1075.66
1006.54	1076.11
1006.83	1075.76
1007.11	1079.64
1007.40	1083.60
1007.69	1086.87
1007.97	1086.90
1008.26	1084.53
1008.55	1080.67
1008.84	1080.41
1009.12	1076.65
1009.41	1077.35
1009.70	1075.20
1009.98	1076.86
1010.27	1075.66
1010.56	1074.49
1010.85	1075.48
1011.13	1079.03
1011.42	1076.48
1011.71	1074.87
1011.99	1075.90
1012.28	1076.88
1012.56	1078.61
1012.85	1078.94
1013.14	1080.48
1013.42	1079.62
1013.71	1077.42
1014.00	1074.77
1014.28	1075.34
1014.57	1076.67
1014.85	1077.47
1015.14	1076.67
1015.43	1080.72
1015.71	1083.69
1016.00	1080.60
1016.28	1084.28
1016.57	1082.76
1016.85	1081.19
1017.14	1077.28
1017.43	1078.61
1017.71	1075.29
1018.00	1075.43
1018.28	1075.38
1018.57	1078.61
1018.85	1077.30
1019.14	1080.06
1019.42	1082.90
1019.71	1084.14
1019.99	1081.84
1020.28	1084.30
1020.56	1080.84
1020.85	1080.13
1021.13	1078.82
1021.42	1078.59
1021.70	1080.88
1021.99	1083.48
1022.27	1080.16
1022.55	1088.47
1022.84	1064.71
>>>>>End Processed Spectral Data<<<<<
