SpectraSuite Data File
++++++++++++++++++++++++++++++++++++
Date: Mon Aug 26 10:22:02 PDT 2019
User: corrico
Dark Spectrum Present: No
Reference Spectrum Present: No
Number of Sampled Component Spectra: 1
Spectrometers: USB2+H06089
Integration Time (usec): 2000 (USB2+H06089)
Spectra Averaged: 20 (USB2+H06089)
Boxcar Smoothing: 2 (USB2+H06089)
Correct for Electrical Dark: No (USB2+H06089)
Strobe/Lamp Enabled: No (USB2+H06089)
Correct for Detector Non-linearity: No (USB2+H06089)
Correct for Stray Light: No (USB2+H06089)
Number of Pixels in Processed Spectrum: 2048
>>>>>Begin Processed Spectral Data<<<<<
339.70	1024.92
340.07	1024.92
340.45	991.97
340.82	971.11
341.19	947.57
341.57	921.84
341.94	911.92
342.31	905.93
342.69	898.93
343.06	897.24
343.43	899.58
343.81	901.04
344.18	902.16
344.55	905.90
344.93	908.95
345.30	911.03
345.67	920.56
346.04	928.07
346.42	938.09
346.79	948.78
347.16	960.11
347.54	970.57
347.91	978.48
348.28	990.16
348.65	999.48
349.03	1010.06
349.40	1013.73
349.77	1024.03
350.14	1030.91
350.52	1039.99
350.89	1043.95
351.26	1049.10
351.63	1052.33
352.01	1057.20
352.38	1058.32
352.75	1061.92
353.12	1068.92
353.50	1071.87
353.87	1072.41
354.24	1076.13
354.61	1079.01
354.98	1078.38
355.36	1081.02
355.73	1084.11
356.10	1083.79
356.47	1083.93
356.84	1086.92
357.22	1086.13
357.59	1082.73
357.96	1080.98
358.33	1083.01
358.70	1081.84
359.08	1080.84
359.45	1083.93
359.82	1081.63
360.19	1078.96
360.56	1079.20
360.94	1078.94
361.31	1077.65
361.68	1078.38
362.05	1075.62
362.42	1072.29
362.79	1072.08
363.16	1069.81
363.54	1071.52
363.91	1073.00
364.28	1078.26
364.65	1078.31
365.02	1076.72
365.39	1076.30
365.76	1076.37
366.14	1070.61
366.51	1070.96
366.88	1072.85
367.25	1073.28
367.62	1073.70
367.99	1073.02
368.36	1070.12
368.73	1067.68
369.10	1068.69
369.48	1068.48
369.85	1069.81
370.22	1071.36
370.59	1077.42
370.96	1075.55
371.33	1076.53
371.70	1079.57
372.07	1081.84
372.44	1077.07
372.81	1077.35
373.18	1076.30
373.55	1073.07
373.93	1072.55
374.30	1074.66
374.67	1076.76
375.04	1074.94
375.41	1073.37
375.78	1070.37
376.15	1069.37
376.52	1066.93
376.89	1069.13
377.26	1071.57
377.63	1073.63
378.00	1078.40
378.37	1080.95
378.74	1079.10
379.11	1079.13
379.48	1081.12
379.85	1077.93
380.22	1079.10
380.59	1083.48
380.96	1082.54
381.33	1080.70
381.70	1078.59
382.07	1078.68
382.44	1079.13
382.81	1077.16
383.18	1077.21
383.55	1078.94
383.92	1077.09
384.29	1075.71
384.66	1080.32
385.03	1081.61
385.40	1081.82
385.77	1081.58
386.14	1081.26
386.51	1079.83
386.88	1079.08
387.25	1080.81
387.62	1078.47
387.99	1078.31
388.36	1077.00
388.73	1076.51
389.10	1074.03
389.46	1079.43
389.83	1082.01
390.20	1082.92
390.57	1085.28
390.94	1089.40
391.31	1089.26
391.68	1090.57
392.05	1089.38
392.42	1086.43
392.79	1083.81
393.16	1083.81
393.53	1081.00
393.89	1080.56
394.26	1082.03
394.63	1080.91
395.00	1079.29
395.37	1081.80
395.74	1085.35
396.11	1085.94
396.48	1087.02
396.84	1084.96
397.21	1082.54
397.58	1083.11
397.95	1082.03
398.32	1080.77
398.69	1082.50
399.06	1082.17
399.42	1083.34
399.79	1086.22
400.16	1090.71
400.53	1093.90
400.90	1094.65
401.27	1095.86
401.64	1093.57
402.00	1093.59
402.37	1089.05
402.74	1088.00
403.11	1085.40
403.48	1087.02
403.84	1082.47
404.21	1085.68
404.58	1084.81
404.95	1086.03
405.32	1087.79
405.68	1091.77
406.05	1086.69
406.42	1089.54
406.79	1088.75
407.16	1086.13
407.52	1086.27
407.89	1090.29
408.26	1091.20
408.63	1093.62
408.99	1095.09
409.36	1092.84
409.73	1095.86
410.10	1094.69
410.47	1093.15
410.83	1096.66
411.20	1098.06
411.57	1093.87
411.94	1095.35
412.30	1095.82
412.67	1094.20
413.04	1096.03
413.40	1099.96
413.77	1101.85
414.14	1101.34
414.51	1100.10
414.87	1099.33
415.24	1098.23
415.61	1093.99
415.97	1093.94
416.34	1097.57
416.71	1099.49
417.08	1100.66
417.44	1104.22
417.81	1104.76
418.18	1102.49
418.54	1104.05
418.91	1105.65
419.28	1108.92
419.64	1113.77
420.01	1116.37
420.38	1117.16
420.74	1120.93
421.11	1118.07
421.48	1116.69
421.84	1117.16
422.21	1119.92
422.58	1119.67
422.94	1126.03
423.31	1131.70
423.68	1135.28
424.04	1138.02
424.41	1142.23
424.77	1145.01
425.14	1146.70
425.51	1151.96
425.87	1156.65
426.24	1158.54
426.61	1163.08
426.97	1168.35
427.34	1172.75
427.70	1177.64
428.07	1182.84
428.44	1188.15
428.80	1193.51
429.17	1201.65
429.53	1204.37
429.90	1218.16
430.27	1228.62
430.63	1241.91
431.00	1252.07
431.36	1269.30
431.73	1279.29
432.09	1295.56
432.46	1312.48
432.83	1330.13
433.19	1347.31
433.56	1372.09
433.92	1391.57
434.29	1410.55
434.65	1432.92
435.02	1454.71
435.38	1476.27
435.75	1502.60
436.11	1532.61
436.48	1566.47
436.84	1603.71
437.21	1641.70
437.57	1681.25
437.94	1726.78
438.30	1771.86
438.67	1823.72
439.03	1877.23
439.40	1936.61
439.76	1991.40
440.13	2055.18
440.49	2119.19
440.86	2185.10
441.22	2255.78
441.59	2331.85
441.95	2416.49
442.32	2506.60
442.68	2605.55
443.05	2711.21
443.41	2816.04
443.78	2919.61
444.14	3027.67
444.51	3143.92
444.87	3279.96
445.24	3418.94
445.60	3569.08
445.96	3725.48
446.33	3901.23
446.69	4061.72
447.06	4250.16
447.42	4448.16
447.79	4654.83
448.15	4886.99
448.51	5129.05
448.88	5395.96
449.24	5647.22
449.61	5943.79
449.97	6246.16
450.33	6560.31
450.70	6858.87
451.06	7228.04
451.43	7569.64
451.79	7950.64
452.15	8364.86
452.52	8814.11
452.88	9261.45
453.24	9784.45
453.61	10354.20
453.97	10923.56
454.34	11480.94
454.70	12126.20
455.06	12763.25
455.43	13370.90
455.79	13949.71
456.15	14663.48
456.52	15359.60
456.88	16196.58
457.24	17002.68
457.61	17968.76
457.97	18850.89
458.33	19726.99
458.70	20539.23
459.06	21337.56
459.42	22190.90
459.79	23003.16
460.15	23940.75
460.51	24824.73
460.88	25754.72
461.24	26602.74
461.60	27552.39
461.96	28400.13
462.33	29234.84
462.69	30092.22
463.05	30993.33
463.42	31860.75
463.78	32646.70
464.14	33316.26
464.50	33995.51
464.87	34483.49
465.23	34747.83
465.59	35066.40
465.95	35377.71
466.32	35620.45
466.68	35858.18
467.04	36080.11
467.40	36231.40
467.77	36377.40
468.13	36393.29
468.49	36332.86
468.85	36273.90
469.22	36174.50
469.58	35927.01
469.94	35720.90
470.30	35469.46
470.66	35109.46
471.03	34535.19
471.39	34131.38
471.75	33467.84
472.11	32814.73
472.47	32330.43
472.84	31901.08
473.20	31283.86
473.56	30928.78
473.92	30430.29
474.28	29891.78
474.65	29343.79
475.01	28804.65
475.37	28140.35
475.73	27588.55
476.09	26995.95
476.45	26462.75
476.81	25975.76
477.18	25478.74
477.54	25059.69
477.90	24711.61
478.26	24254.13
478.62	23858.91
478.98	23535.21
479.34	23221.65
479.71	22781.30
480.07	22422.38
480.43	22041.48
480.79	21621.94
481.15	21178.38
481.51	20842.87
481.87	20559.99
482.23	20262.32
482.59	20004.77
482.96	19696.12
483.32	19378.54
483.68	18997.73
484.04	18655.19
484.40	18256.95
484.76	17924.85
485.12	17572.55
485.48	17263.35
485.84	16917.37
486.20	16616.56
486.56	16246.01
486.92	15929.15
487.28	15582.61
487.64	15224.34
488.00	14872.63
488.37	14531.54
488.73	14104.21
489.09	13690.03
489.45	13326.68
489.81	12954.12
490.17	12620.52
490.53	12328.14
490.89	12022.82
491.25	11691.23
491.61	11349.87
491.97	11004.64
492.33	10672.96
492.69	10369.88
493.05	10078.91
493.41	9808.30
493.77	9539.06
494.13	9278.80
494.49	9018.88
494.85	8774.88
495.21	8526.57
495.57	8294.06
495.93	8065.30
496.29	7834.94
496.64	7625.25
497.00	7412.80
497.36	7213.09
497.72	7023.32
498.08	6862.05
498.44	6681.69
498.80	6520.57
499.16	6351.30
499.52	6182.81
499.88	6018.45
500.24	5879.75
500.60	5746.55
500.96	5618.39
501.32	5497.97
501.68	5365.23
502.03	5224.12
502.39	5086.03
502.75	4948.15
503.11	4820.03
503.47	4707.50
503.83	4602.80
504.19	4496.08
504.55	4397.96
504.91	4304.62
505.26	4202.03
505.62	4093.55
505.98	3994.85
506.34	3894.91
506.70	3791.18
507.06	3703.36
507.42	3618.56
507.78	3541.09
508.13	3466.92
508.49	3390.03
508.85	3315.53
509.21	3247.42
509.57	3173.23
509.93	3100.25
510.28	3029.07
510.64	2968.48
511.00	2902.69
511.36	2846.30
511.72	2788.80
512.07	2749.08
512.43	2694.75
512.79	2647.33
513.15	2593.52
513.51	2542.06
513.86	2488.29
514.22	2437.62
514.58	2389.94
514.94	2346.15
515.30	2314.56
515.65	2278.11
516.01	2249.51
516.37	2220.16
516.73	2196.62
517.08	2160.17
517.44	2121.20
517.80	2087.64
518.16	2054.29
518.51	2019.95
518.87	1993.74
519.23	1971.20
519.59	1946.48
519.94	1917.74
520.30	1892.70
520.66	1863.44
521.01	1837.11
521.37	1810.54
521.73	1787.72
522.09	1766.05
522.44	1743.11
522.80	1720.18
523.16	1702.27
523.51	1683.76
523.87	1660.89
524.23	1646.29
524.58	1632.17
524.94	1616.21
525.30	1595.99
525.65	1582.18
526.01	1567.64
526.37	1550.89
526.72	1535.98
527.08	1527.27
527.44	1515.94
527.79	1502.06
528.15	1491.30
528.51	1480.90
528.86	1468.36
529.22	1455.67
529.58	1447.34
529.93	1436.48
530.29	1420.12
530.65	1408.44
531.00	1400.11
531.36	1389.37
531.71	1381.08
532.07	1375.53
532.43	1368.72
532.78	1361.12
533.14	1350.65
533.49	1339.58
533.85	1330.64
534.21	1322.50
534.56	1310.68
534.92	1306.18
535.27	1301.95
535.63	1298.69
535.98	1293.22
536.34	1288.37
536.69	1279.27
537.05	1270.63
537.41	1262.25
537.76	1255.70
538.12	1252.12
538.47	1250.06
538.83	1248.09
539.18	1242.75
539.54	1237.37
539.89	1229.83
540.25	1225.46
540.60	1221.39
540.96	1218.79
541.31	1213.90
541.67	1213.45
542.02	1207.86
542.38	1205.40
542.73	1202.01
543.09	1200.74
543.44	1196.81
543.80	1197.72
544.15	1192.03
544.51	1189.60
544.86	1187.47
545.22	1182.27
545.57	1177.27
545.93	1175.53
546.28	1170.15
546.64	1166.94
546.99	1166.69
547.35	1163.08
547.70	1163.41
548.05	1159.90
548.41	1160.48
548.76	1159.45
549.12	1157.93
549.47	1153.28
549.83	1157.14
550.18	1153.91
550.53	1151.52
550.89	1148.03
551.24	1147.75
551.60	1144.48
551.95	1142.25
552.30	1142.32
552.66	1144.31
553.01	1142.46
553.37	1139.56
553.72	1136.07
554.07	1132.98
554.43	1128.79
554.78	1125.75
555.13	1123.46
555.49	1122.26
555.84	1121.44
556.19	1118.07
556.55	1118.45
556.90	1120.34
557.26	1118.75
557.61	1116.97
557.96	1120.53
558.32	1121.58
558.67	1118.00
559.02	1119.06
559.37	1118.99
559.73	1115.29
560.08	1109.09
560.43	1112.13
560.79	1108.31
561.14	1107.24
561.49	1109.62
561.85	1111.87
562.20	1110.47
562.55	1113.14
562.90	1115.50
563.26	1114.12
563.61	1115.31
563.96	1114.17
564.32	1112.06
564.67	1109.25
565.02	1107.61
565.37	1108.66
565.73	1106.82
566.08	1110.16
566.43	1109.25
566.78	1109.77
567.14	1108.20
567.49	1108.85
567.84	1105.79
568.19	1104.92
568.54	1103.96
568.90	1104.78
569.25	1102.04
569.60	1098.23
569.95	1099.35
570.31	1094.62
570.66	1091.74
571.01	1095.84
571.36	1097.88
571.71	1094.11
572.06	1098.95
572.42	1097.52
572.77	1096.40
573.12	1095.16
573.47	1094.97
573.82	1097.01
574.18	1095.53
574.53	1093.22
574.88	1096.47
575.23	1094.41
575.58	1090.74
575.93	1091.42
576.28	1091.09
576.64	1089.19
576.99	1093.55
577.34	1093.10
577.69	1096.19
578.04	1094.22
578.39	1096.00
578.74	1094.65
579.09	1094.83
579.44	1092.73
579.80	1094.01
580.15	1092.49
580.50	1092.45
580.85	1092.14
581.20	1091.95
581.55	1093.15
581.90	1094.43
582.25	1094.50
582.60	1093.43
582.95	1091.86
583.30	1093.05
583.65	1089.87
584.00	1088.96
584.35	1091.93
584.71	1093.08
585.06	1089.66
585.41	1088.89
585.76	1089.71
586.11	1089.47
586.46	1089.71
586.81	1090.76
587.16	1094.79
587.51	1097.41
587.86	1096.24
588.21	1094.39
588.56	1096.78
588.91	1093.08
589.26	1092.52
589.61	1092.66
589.96	1093.57
590.31	1090.71
590.66	1093.01
591.01	1091.37
591.36	1092.40
591.71	1089.50
592.06	1089.94
592.41	1091.56
592.76	1092.35
593.10	1092.73
593.45	1094.67
593.80	1092.26
594.15	1087.20
594.50	1083.86
594.85	1083.34
595.20	1084.00
595.55	1086.57
595.90	1089.99
596.25	1092.26
596.60	1088.63
596.95	1087.32
597.30	1086.55
597.64	1095.86
597.99	1095.58
598.34	1095.60
598.69	1096.96
599.04	1098.02
599.39	1087.93
599.74	1086.17
600.09	1087.27
600.44	1086.06
600.78	1083.86
601.13	1082.69
601.48	1082.08
601.83	1080.16
602.18	1084.65
602.53	1084.04
602.88	1082.38
603.22	1083.81
603.57	1087.32
603.92	1086.59
604.27	1086.45
604.62	1083.90
604.97	1084.21
605.31	1082.10
605.66	1079.95
606.01	1082.54
606.36	1085.70
606.71	1085.17
607.05	1085.87
607.40	1083.67
607.75	1082.03
608.10	1083.62
608.44	1085.05
608.79	1086.43
609.14	1088.65
609.49	1087.79
609.84	1086.90
610.18	1085.59
610.53	1085.17
610.88	1083.88
611.23	1084.14
611.57	1086.17
611.92	1087.11
612.27	1084.28
612.62	1082.52
612.96	1084.72
613.31	1082.57
613.66	1080.98
614.00	1082.38
614.35	1085.31
614.70	1083.60
615.05	1085.00
615.39	1085.61
615.74	1087.46
616.09	1083.22
616.43	1083.74
616.78	1081.56
617.13	1082.85
617.47	1078.78
617.82	1083.25
618.17	1083.13
618.51	1084.32
618.86	1081.26
619.21	1083.15
619.55	1082.69
619.90	1082.59
620.25	1079.34
620.59	1079.03
620.94	1076.44
621.29	1076.53
621.63	1076.53
621.98	1079.36
622.32	1081.61
622.67	1086.50
623.02	1086.13
623.36	1086.59
623.71	1088.65
624.05	1087.37
624.40	1085.33
624.75	1084.56
625.09	1085.70
625.44	1085.77
625.78	1083.67
626.13	1082.94
626.48	1083.18
626.82	1082.29
627.17	1079.53
627.51	1083.25
627.86	1086.03
628.20	1085.24
628.55	1082.24
628.89	1083.22
629.24	1081.28
629.58	1079.20
629.93	1077.49
630.28	1077.02
630.62	1075.05
630.97	1076.83
631.31	1081.40
631.66	1081.35
632.00	1083.46
632.35	1088.35
632.69	1085.42
633.04	1082.19
633.38	1083.41
633.73	1084.72
634.07	1083.79
634.42	1087.04
634.76	1088.04
635.11	1090.13
635.45	1086.94
635.79	1086.59
636.14	1085.17
636.48	1080.32
636.83	1077.47
637.17	1080.41
637.52	1077.47
637.86	1075.57
638.21	1076.39
638.55	1077.07
638.89	1075.97
639.24	1080.23
639.58	1085.84
639.93	1089.52
640.27	1093.40
640.61	1095.42
640.96	1090.99
641.30	1087.69
641.65	1083.34
641.99	1077.70
642.33	1076.37
642.68	1077.37
643.02	1076.04
643.37	1077.25
643.71	1078.26
644.05	1079.36
644.40	1079.76
644.74	1082.57
645.08	1081.61
645.43	1084.58
645.77	1084.28
646.11	1082.57
646.46	1083.29
646.80	1087.55
647.14	1085.00
647.49	1084.79
647.83	1084.23
648.17	1080.84
648.52	1080.70
648.86	1081.91
649.20	1080.95
649.55	1082.59
649.89	1082.45
650.23	1080.63
650.57	1082.19
650.92	1081.84
651.26	1082.90
651.60	1085.54
651.95	1085.75
652.29	1083.13
652.63	1082.97
652.97	1083.41
653.32	1081.21
653.66	1082.97
654.00	1082.87
654.34	1082.64
654.69	1082.17
655.03	1081.87
655.37	1077.56
655.71	1079.88
656.05	1081.49
656.40	1082.33
656.74	1081.58
657.08	1083.93
657.42	1080.20
657.76	1078.92
658.11	1075.52
658.45	1074.84
658.79	1075.94
659.13	1075.22
659.47	1077.11
659.82	1079.71
660.16	1082.57
660.50	1080.09
660.84	1081.05
661.18	1080.18
661.52	1079.15
661.87	1078.92
662.21	1081.12
662.55	1082.59
662.89	1081.14
663.23	1081.58
663.57	1082.05
663.91	1075.71
664.25	1076.48
664.60	1077.47
664.94	1074.07
665.28	1071.99
665.62	1076.93
665.96	1076.08
666.30	1072.92
666.64	1077.25
666.98	1081.96
667.32	1080.56
667.66	1081.44
668.01	1084.70
668.35	1082.52
668.69	1077.23
669.03	1080.44
669.37	1080.27
669.71	1080.41
670.05	1078.31
670.39	1077.33
670.73	1076.11
671.07	1073.00
671.41	1072.83
671.75	1076.04
672.09	1078.00
672.43	1076.04
672.77	1080.41
673.11	1080.37
673.45	1078.26
673.79	1078.87
674.13	1078.10
674.47	1076.72
674.81	1079.90
675.15	1083.64
675.49	1083.15
675.83	1083.97
676.17	1085.66
676.51	1079.71
676.85	1077.72
677.19	1077.37
677.53	1079.71
677.87	1078.64
678.21	1081.42
678.55	1082.59
678.89	1083.57
679.23	1081.42
679.57	1083.57
679.90	1084.11
680.24	1082.59
680.58	1084.37
680.92	1086.87
681.26	1083.18
681.60	1080.93
681.94	1081.63
682.28	1078.52
682.62	1080.74
682.96	1079.76
683.29	1083.18
683.63	1083.57
683.97	1084.60
684.31	1078.73
684.65	1079.95
684.99	1079.01
685.33	1079.20
685.67	1079.10
686.00	1081.70
686.34	1082.38
686.68	1080.37
687.02	1079.64
687.36	1083.43
687.70	1083.74
688.03	1083.43
688.37	1080.98
688.71	1081.19
689.05	1078.24
689.39	1078.52
689.72	1077.75
690.06	1080.74
690.40	1081.80
690.74	1081.80
691.08	1083.06
691.41	1083.90
691.75	1085.03
692.09	1084.98
692.43	1085.56
692.76	1085.45
693.10	1087.88
693.44	1090.36
693.78	1086.97
694.11	1086.24
694.45	1083.67
694.79	1082.52
695.13	1076.25
695.46	1075.59
695.80	1075.15
696.14	1076.86
696.48	1076.01
696.81	1080.18
697.15	1080.34
697.49	1080.48
697.82	1080.93
698.16	1082.87
698.50	1078.19
698.83	1079.15
699.17	1078.78
699.51	1076.86
699.84	1075.80
700.18	1078.47
700.52	1080.93
700.85	1082.50
701.19	1082.59
701.53	1080.81
701.86	1079.60
702.20	1079.27
702.54	1080.46
702.87	1077.72
703.21	1080.60
703.55	1082.78
703.88	1079.74
704.22	1074.96
704.55	1078.82
704.89	1076.97
705.23	1074.52
705.56	1078.89
705.90	1083.34
706.23	1083.79
706.57	1082.83
706.91	1084.39
707.24	1080.70
707.58	1078.68
707.91	1077.44
708.25	1077.37
708.58	1078.33
708.92	1078.54
709.26	1077.86
709.59	1077.82
709.93	1080.39
710.26	1081.98
710.60	1083.34
710.93	1085.84
711.27	1085.26
711.60	1084.81
711.94	1084.21
712.27	1084.65
712.61	1085.28
712.94	1085.49
713.28	1084.79
713.61	1082.85
713.95	1082.71
714.28	1076.55
714.62	1077.35
714.95	1074.91
715.29	1077.54
715.62	1077.98
715.96	1080.41
716.29	1083.13
716.63	1084.09
716.96	1083.71
717.29	1084.49
717.63	1085.80
717.96	1082.29
718.30	1086.27
718.63	1083.69
718.97	1083.43
719.30	1087.48
719.63	1090.41
719.97	1088.49
720.30	1089.45
720.64	1087.23
720.97	1082.66
721.30	1079.53
721.64	1080.16
721.97	1080.02
722.31	1079.92
722.64	1078.40
722.97	1077.65
723.31	1076.41
723.64	1076.11
723.97	1080.74
724.31	1081.68
724.64	1082.10
724.98	1082.61
725.31	1083.62
725.64	1080.46
725.98	1083.64
726.31	1085.28
726.64	1082.87
726.97	1080.93
727.31	1080.23
727.64	1076.58
727.97	1074.17
728.31	1074.31
728.64	1076.72
728.97	1077.49
729.31	1080.25
729.64	1083.93
729.97	1085.07
730.30	1083.90
730.64	1082.29
730.97	1082.15
731.30	1081.21
731.63	1080.41
731.97	1078.17
732.30	1078.71
732.63	1077.07
732.96	1076.20
733.30	1077.28
733.63	1080.37
733.96	1083.76
734.29	1086.10
734.63	1087.30
734.96	1084.46
735.29	1082.80
735.62	1082.80
735.95	1080.44
736.29	1080.11
736.62	1080.95
736.95	1084.74
737.28	1080.79
737.61	1081.02
737.94	1081.09
738.28	1081.09
738.61	1077.65
738.94	1078.52
739.27	1079.22
739.60	1078.92
739.93	1080.41
740.27	1079.41
740.60	1077.18
740.93	1073.53
741.26	1072.76
741.59	1071.59
741.92	1074.96
742.25	1079.41
742.58	1085.14
742.91	1083.97
743.25	1084.21
743.58	1083.64
743.91	1080.04
744.24	1076.72
744.57	1077.68
744.90	1081.96
745.23	1080.84
745.56	1084.70
745.89	1083.55
746.22	1085.31
746.55	1082.43
746.88	1082.87
747.21	1078.96
747.54	1079.15
747.87	1076.69
748.20	1077.56
748.53	1076.81
748.87	1078.00
749.20	1077.75
749.53	1080.25
749.86	1081.19
750.19	1081.14
750.52	1080.74
750.85	1081.87
751.18	1079.97
751.51	1079.64
751.84	1080.53
752.16	1081.75
752.49	1080.09
752.82	1080.46
753.15	1076.97
753.48	1075.31
753.81	1074.42
754.14	1077.91
754.47	1076.44
754.80	1078.89
755.13	1079.78
755.46	1080.53
755.79	1080.60
756.12	1080.23
756.45	1080.79
756.78	1080.18
757.11	1080.44
757.43	1080.11
757.76	1079.36
758.09	1077.02
758.42	1073.65
758.75	1074.00
759.08	1074.80
759.41	1076.48
759.74	1077.77
760.07	1082.19
760.39	1081.33
760.72	1081.05
761.05	1079.62
761.38	1076.86
761.71	1075.34
762.04	1074.54
762.36	1071.43
762.69	1073.04
763.02	1074.10
763.35	1073.07
763.68	1075.76
764.01	1078.96
764.33	1079.50
764.66	1081.14
764.99	1084.46
765.32	1083.95
765.65	1082.61
765.97	1081.61
766.30	1078.57
766.63	1075.83
766.96	1074.03
767.28	1074.00
767.61	1075.73
767.94	1078.38
768.27	1082.40
768.59	1085.68
768.92	1084.98
769.25	1084.16
769.58	1085.45
769.90	1082.83
770.23	1078.85
770.56	1082.10
770.89	1079.24
771.21	1078.36
771.54	1078.68
771.87	1077.54
772.19	1074.26
772.52	1076.76
772.85	1075.24
773.17	1073.21
773.50	1075.83
773.83	1074.96
774.15	1075.94
774.48	1080.30
774.81	1081.40
775.13	1082.08
775.46	1082.31
775.79	1081.51
776.11	1078.24
776.44	1079.64
776.77	1076.44
777.09	1078.17
777.42	1075.38
777.74	1072.60
778.07	1073.98
778.40	1076.90
778.72	1073.28
779.05	1079.74
779.37	1084.28
779.70	1084.16
780.03	1084.14
780.35	1084.84
780.68	1083.27
781.00	1083.46
781.33	1080.56
781.65	1079.83
781.98	1080.27
782.31	1075.55
782.63	1071.52
782.96	1072.60
783.28	1073.30
783.61	1075.22
783.93	1076.76
784.26	1079.01
784.58	1078.17
784.91	1077.58
785.23	1078.57
785.56	1079.95
785.88	1079.67
786.21	1079.97
786.53	1079.48
786.86	1079.74
787.18	1077.77
787.51	1074.56
787.83	1076.13
788.16	1074.68
788.48	1073.74
788.81	1076.60
789.13	1081.42
789.46	1078.96
789.78	1082.26
790.10	1080.60
790.43	1077.23
790.75	1075.27
791.08	1074.61
791.40	1072.88
791.73	1075.48
792.05	1077.37
792.37	1075.62
792.70	1075.59
793.02	1074.91
793.35	1073.65
793.67	1073.07
793.99	1074.54
794.32	1078.85
794.64	1079.71
794.96	1078.38
795.29	1080.81
795.61	1079.85
795.93	1077.77
796.26	1075.22
796.58	1076.08
796.91	1073.98
797.23	1077.70
797.55	1078.68
797.87	1080.65
798.20	1079.71
798.52	1082.33
798.84	1079.57
799.17	1076.86
799.49	1078.14
799.81	1078.03
800.14	1075.15
800.46	1075.64
800.78	1075.69
801.10	1074.24
801.43	1075.24
801.75	1077.11
802.07	1076.08
802.40	1075.48
802.72	1077.21
803.04	1076.48
803.36	1073.14
803.69	1073.30
804.01	1076.62
804.33	1075.73
804.65	1074.59
804.97	1077.58
805.30	1078.28
805.62	1075.31
805.94	1075.73
806.26	1079.03
806.58	1077.93
806.91	1075.97
807.23	1078.96
807.55	1078.57
807.87	1080.88
808.19	1082.31
808.52	1082.59
808.84	1080.06
809.16	1083.06
809.48	1077.93
809.80	1077.21
810.12	1078.31
810.44	1079.99
810.77	1076.30
811.09	1078.03
811.41	1076.20
811.73	1075.22
812.05	1075.17
812.37	1074.89
812.69	1073.32
813.01	1072.85
813.33	1073.79
813.66	1072.34
813.98	1072.18
814.30	1074.24
814.62	1078.43
814.94	1078.40
815.26	1074.98
815.58	1074.10
815.90	1071.47
816.22	1067.99
816.54	1070.72
816.86	1075.62
817.18	1074.94
817.50	1077.21
817.82	1079.43
818.14	1078.05
818.46	1076.32
818.78	1079.41
819.10	1079.06
819.42	1077.68
819.74	1078.43
820.06	1080.91
820.38	1082.38
820.70	1082.05
821.02	1082.99
821.34	1084.11
821.66	1080.34
821.98	1079.64
822.30	1080.84
822.62	1082.69
822.94	1077.91
823.26	1079.24
823.58	1074.91
823.90	1073.65
824.22	1073.67
824.54	1077.04
824.86	1074.96
825.18	1073.98
825.50	1073.88
825.81	1068.78
826.13	1068.29
826.45	1070.58
826.77	1075.59
827.09	1080.51
827.41	1082.38
827.73	1080.98
828.05	1081.77
828.36	1081.16
828.68	1078.07
829.00	1076.62
829.32	1078.24
829.64	1077.07
829.96	1077.77
830.28	1076.27
830.59	1079.48
830.91	1077.30
831.23	1081.02
831.55	1080.77
831.87	1083.57
832.19	1083.18
832.50	1087.27
832.82	1085.38
833.14	1087.62
833.46	1084.91
833.78	1084.77
834.09	1081.33
834.41	1080.84
834.73	1077.02
835.05	1077.93
835.36	1078.89
835.68	1079.81
836.00	1080.41
836.32	1083.48
836.63	1083.11
836.95	1082.29
837.27	1082.50
837.59	1082.38
837.90	1079.53
838.22	1077.33
838.54	1077.14
838.85	1077.00
839.17	1076.27
839.49	1076.58
839.80	1079.01
840.12	1077.35
840.44	1077.16
840.76	1075.05
841.07	1073.72
841.39	1072.78
841.71	1073.23
842.02	1073.65
842.34	1075.38
842.65	1076.53
842.97	1078.05
843.29	1077.21
843.60	1078.59
843.92	1080.16
844.24	1078.66
844.55	1080.27
844.87	1084.65
845.18	1083.55
845.50	1080.86
845.82	1080.72
846.13	1075.76
846.45	1073.11
846.76	1072.36
847.08	1075.24
847.40	1075.64
847.71	1076.06
848.03	1075.15
848.34	1074.40
848.66	1072.46
848.97	1072.34
849.29	1077.91
849.60	1079.90
849.92	1078.68
850.24	1077.93
850.55	1081.16
850.87	1079.74
851.18	1080.04
851.50	1081.87
851.81	1083.01
852.13	1083.48
852.44	1079.71
852.76	1078.80
853.07	1079.57
853.39	1079.24
853.70	1077.40
854.01	1080.81
854.33	1077.28
854.64	1075.97
854.96	1076.72
855.27	1074.33
855.59	1072.46
855.90	1075.10
856.22	1076.90
856.53	1077.00
856.84	1077.82
857.16	1076.13
857.47	1078.40
857.79	1076.62
858.10	1074.77
858.41	1076.67
858.73	1078.68
859.04	1077.93
859.36	1077.89
859.67	1083.15
859.98	1081.40
860.30	1080.02
860.61	1079.29
860.92	1078.96
861.24	1073.56
861.55	1074.42
861.87	1077.28
862.18	1076.34
862.49	1077.14
862.81	1077.96
863.12	1080.79
863.43	1078.59
863.74	1078.43
864.06	1078.52
864.37	1077.98
864.68	1075.57
865.00	1078.14
865.31	1079.48
865.62	1080.39
865.94	1079.85
866.25	1081.58
866.56	1081.91
866.87	1081.02
867.19	1079.46
867.50	1080.11
867.81	1078.31
868.12	1077.84
868.44	1078.87
868.75	1080.58
869.06	1082.54
869.37	1083.32
869.68	1079.60
870.00	1079.71
870.31	1080.58
870.62	1078.94
870.93	1077.28
871.24	1077.63
871.56	1076.69
871.87	1075.85
872.18	1078.31
872.49	1080.70
872.80	1081.98
873.12	1080.23
873.43	1078.38
873.74	1076.11
874.05	1074.98
874.36	1074.94
874.67	1072.74
874.98	1076.41
875.29	1075.52
875.61	1074.98
875.92	1075.59
876.23	1081.75
876.54	1077.86
876.85	1077.75
877.16	1076.58
877.47	1074.73
877.78	1070.58
878.09	1071.82
878.40	1072.71
878.72	1073.44
879.03	1073.65
879.34	1073.28
879.65	1073.56
879.96	1074.77
880.27	1075.76
880.58	1075.45
880.89	1078.43
881.20	1077.37
881.51	1076.04
881.82	1073.72
882.13	1074.98
882.44	1073.95
882.75	1075.43
883.06	1077.70
883.37	1079.31
883.68	1078.66
883.99	1080.60
884.30	1080.04
884.61	1082.59
884.92	1085.63
885.23	1086.36
885.54	1086.10
885.85	1084.11
886.16	1079.17
886.47	1076.32
886.78	1075.66
887.08	1071.10
887.39	1072.95
887.70	1076.90
888.01	1074.80
888.32	1072.76
888.63	1073.11
888.94	1071.45
889.25	1067.17
889.56	1067.26
889.87	1067.73
890.17	1067.89
890.48	1069.09
890.79	1072.88
891.10	1076.11
891.41	1077.49
891.72	1080.23
892.03	1080.13
892.34	1076.15
892.64	1076.93
892.95	1076.46
893.26	1077.68
893.57	1079.95
893.88	1082.10
894.18	1078.38
894.49	1079.10
894.80	1078.57
895.11	1074.49
895.42	1073.18
895.72	1076.97
896.03	1077.93
896.34	1075.78
896.65	1077.91
896.96	1079.57
897.26	1076.51
897.57	1078.82
897.88	1076.46
898.19	1077.44
898.49	1076.60
898.80	1077.51
899.11	1073.91
899.41	1077.75
899.72	1077.79
900.03	1075.13
900.34	1077.23
900.64	1077.93
900.95	1080.30
901.26	1079.50
901.56	1081.35
901.87	1078.87
902.18	1079.17
902.48	1078.31
902.79	1076.81
903.10	1078.59
903.40	1076.62
903.71	1075.69
904.02	1074.31
904.32	1077.58
904.63	1076.58
904.94	1079.85
905.24	1081.47
905.55	1082.05
905.85	1079.92
906.16	1081.54
906.47	1081.02
906.77	1080.48
907.08	1080.91
907.38	1078.96
907.69	1078.00
908.00	1079.24
908.30	1080.06
908.61	1077.44
908.91	1078.26
909.22	1075.92
909.52	1074.33
909.83	1073.51
910.14	1077.72
910.44	1079.13
910.75	1080.60
911.05	1079.76
911.36	1081.35
911.66	1079.92
911.97	1079.67
912.27	1079.74
912.58	1084.02
912.88	1079.92
913.19	1082.19
913.49	1080.77
913.80	1080.93
914.10	1077.56
914.41	1081.96
914.71	1077.98
915.01	1079.67
915.32	1083.43
915.62	1084.63
915.93	1079.03
916.23	1078.89
916.54	1077.70
916.84	1073.93
917.15	1070.61
917.45	1072.78
917.75	1073.84
918.06	1073.91
918.36	1074.89
918.67	1074.84
918.97	1078.57
919.27	1076.51
919.58	1075.43
919.88	1073.81
920.18	1075.76
920.49	1072.85
920.79	1072.76
921.10	1076.58
921.40	1075.87
921.70	1079.62
922.01	1080.88
922.31	1080.51
922.61	1080.11
922.92	1081.68
923.22	1077.84
923.52	1074.66
923.82	1074.54
924.13	1073.63
924.43	1073.49
924.73	1075.85
925.04	1077.79
925.34	1079.74
925.64	1080.11
925.94	1081.91
926.25	1081.02
926.55	1081.30
926.85	1079.41
927.15	1079.99
927.46	1077.30
927.76	1076.41
928.06	1079.60
928.36	1081.73
928.67	1078.43
928.97	1079.50
929.27	1077.65
929.57	1074.98
929.87	1071.99
930.18	1072.88
930.48	1070.51
930.78	1071.26
931.08	1069.02
931.38	1073.00
931.69	1076.93
931.99	1076.08
932.29	1079.31
932.59	1079.81
932.89	1077.98
933.19	1074.12
933.49	1075.99
933.80	1072.88
934.10	1077.70
934.40	1077.18
934.70	1076.83
935.00	1077.93
935.30	1076.01
935.60	1073.04
935.90	1074.28
936.20	1074.87
936.50	1073.65
936.81	1074.45
937.11	1074.10
937.41	1072.95
937.71	1074.89
938.01	1075.55
938.31	1077.65
938.61	1075.55
938.91	1078.12
939.21	1075.43
939.51	1076.88
939.81	1076.65
940.11	1078.64
940.41	1078.10
940.71	1078.21
941.01	1078.50
941.31	1080.04
941.61	1082.76
941.91	1081.09
942.21	1085.42
942.51	1083.95
942.81	1082.52
943.11	1077.84
943.41	1079.74
943.71	1077.00
944.01	1076.65
944.31	1073.81
944.61	1075.87
944.90	1073.53
945.20	1071.50
945.50	1072.25
945.80	1071.82
946.10	1072.83
946.40	1074.91
946.70	1079.41
947.00	1080.30
947.30	1083.90
947.60	1082.80
947.89	1083.29
948.19	1081.05
948.49	1078.50
948.79	1075.34
949.09	1073.86
949.39	1070.84
949.69	1070.51
949.98	1071.24
950.28	1073.37
950.58	1072.53
950.88	1074.47
951.18	1074.63
951.48	1073.95
951.77	1076.74
952.07	1076.76
952.37	1076.83
952.67	1077.91
952.97	1078.87
953.26	1074.00
953.56	1075.03
953.86	1073.74
954.16	1071.82
954.45	1074.31
954.75	1078.89
955.05	1079.81
955.35	1080.41
955.64	1082.76
955.94	1079.60
956.24	1074.05
956.54	1072.53
956.83	1072.15
957.13	1073.79
957.43	1073.46
957.72	1077.47
958.02	1080.48
958.32	1083.32
958.61	1080.95
958.91	1082.69
959.21	1083.18
959.50	1081.75
959.80	1078.31
960.10	1076.34
960.39	1079.08
960.69	1076.90
960.99	1077.98
961.28	1078.94
961.58	1079.74
961.87	1074.31
962.17	1076.41
962.47	1073.88
962.76	1075.73
963.06	1076.51
963.36	1080.41
963.65	1081.54
963.95	1081.56
964.24	1079.17
964.54	1080.16
964.83	1076.67
965.13	1075.78
965.42	1077.49
965.72	1078.43
966.02	1076.51
966.31	1080.27
966.61	1080.04
966.90	1078.92
967.20	1079.55
967.49	1076.72
967.79	1073.37
968.08	1074.31
968.38	1074.45
968.67	1074.61
968.97	1078.64
969.26	1080.30
969.56	1077.61
969.85	1077.96
970.15	1077.89
970.44	1076.83
970.74	1073.32
971.03	1074.35
971.32	1076.41
971.62	1075.22
971.91	1074.75
972.21	1078.82
972.50	1076.34
972.80	1075.27
973.09	1075.41
973.38	1074.49
973.68	1072.48
973.97	1075.20
974.27	1071.31
974.56	1070.33
974.85	1072.15
975.15	1073.81
975.44	1072.18
975.73	1075.29
976.03	1075.57
976.32	1074.91
976.61	1075.29
976.91	1074.26
977.20	1074.75
977.49	1073.42
977.79	1068.74
978.08	1068.13
978.37	1069.55
978.67	1068.64
978.96	1069.62
979.25	1075.48
979.55	1075.29
979.84	1077.09
980.13	1074.00
980.42	1074.77
980.72	1073.28
981.01	1073.81
981.30	1075.62
981.59	1079.57
981.89	1077.63
982.18	1079.57
982.47	1079.08
982.76	1075.62
983.06	1075.85
983.35	1077.00
983.64	1073.86
983.93	1077.49
984.22	1078.21
984.52	1077.58
984.81	1078.54
985.10	1083.20
985.39	1081.75
985.68	1080.91
985.97	1077.40
986.27	1078.24
986.56	1077.02
986.85	1073.18
987.14	1073.81
987.43	1078.21
987.72	1081.26
988.01	1080.16
988.31	1082.05
988.60	1081.21
988.89	1078.94
989.18	1076.53
989.47	1075.94
989.76	1073.11
990.05	1074.54
990.34	1077.18
990.63	1078.73
990.92	1081.33
991.21	1082.24
991.51	1081.54
991.80	1080.04
992.09	1080.39
992.38	1079.27
992.67	1083.34
992.96	1083.27
993.25	1083.76
993.54	1079.48
993.83	1081.58
994.12	1079.74
994.41	1079.99
994.70	1081.80
994.99	1080.98
995.28	1075.34
995.57	1071.99
995.86	1069.58
996.15	1067.61
996.44	1068.67
996.73	1072.76
997.02	1073.42
997.31	1073.39
997.59	1072.15
997.88	1071.64
998.17	1068.83
998.46	1073.32
998.75	1075.34
999.04	1078.07
999.33	1079.22
999.62	1076.90
999.91	1073.67
1000.20	1073.11
1000.49	1073.11
1000.77	1072.29
1001.06	1073.93
1001.35	1072.97
1001.64	1074.31
1001.93	1071.01
1002.22	1074.26
1002.51	1076.65
1002.79	1079.10
1003.08	1077.68
1003.37	1080.77
1003.66	1079.55
1003.95	1076.04
1004.23	1074.26
1004.52	1077.89
1004.81	1077.40
1005.10	1075.24
1005.39	1079.20
1005.67	1078.99
1005.96	1077.42
1006.25	1077.68
1006.54	1079.46
1006.83	1077.84
1007.11	1080.70
1007.40	1077.11
1007.69	1076.53
1007.97	1075.59
1008.26	1074.91
1008.55	1073.91
1008.84	1077.56
1009.12	1075.85
1009.41	1074.52
1009.70	1075.57
1009.98	1073.30
1010.27	1072.88
1010.56	1076.23
1010.85	1078.64
1011.13	1078.40
1011.42	1079.76
1011.71	1078.54
1011.99	1077.84
1012.28	1076.55
1012.56	1075.66
1012.85	1074.68
1013.14	1076.60
1013.42	1073.53
1013.71	1074.24
1014.00	1074.52
1014.28	1076.93
1014.57	1074.66
1014.85	1076.53
1015.14	1076.97
1015.43	1074.66
1015.71	1073.32
1016.00	1075.29
1016.28	1075.64
1016.57	1075.62
1016.85	1080.51
1017.14	1081.14
1017.43	1079.08
1017.71	1076.69
1018.00	1075.27
1018.28	1075.64
1018.57	1074.70
1018.85	1075.83
1019.14	1077.56
1019.42	1079.29
1019.71	1076.51
1019.99	1077.86
1020.28	1075.03
1020.56	1075.59
1020.85	1075.52
1021.13	1077.35
1021.42	1076.18
1021.70	1077.49
1021.99	1077.82
1022.27	1075.24
1022.55	1080.39
1022.84	1067.75
>>>>>End Processed Spectral Data<<<<<
