SpectraSuite Data File
++++++++++++++++++++++++++++++++++++
Date: Mon Aug 26 10:21:55 PDT 2019
User: corrico
Dark Spectrum Present: No
Reference Spectrum Present: No
Number of Sampled Component Spectra: 1
Spectrometers: USB2+H06089
Integration Time (usec): 2000 (USB2+H06089)
Spectra Averaged: 20 (USB2+H06089)
Boxcar Smoothing: 2 (USB2+H06089)
Correct for Electrical Dark: No (USB2+H06089)
Strobe/Lamp Enabled: No (USB2+H06089)
Correct for Detector Non-linearity: No (USB2+H06089)
Correct for Stray Light: No (USB2+H06089)
Number of Pixels in Processed Spectrum: 2048
>>>>>Begin Processed Spectral Data<<<<<
339.70	1027.85
340.07	1027.85
340.45	992.25
340.82	971.79
341.19	944.45
341.57	917.96
341.94	909.44
342.31	900.50
342.69	893.69
343.06	893.87
343.43	892.17
343.81	890.95
344.18	892.98
344.55	896.00
344.93	900.68
345.30	908.83
345.67	917.02
346.04	926.20
346.42	933.97
346.79	939.40
347.16	949.60
347.54	958.50
347.91	965.31
348.28	975.91
348.65	987.85
349.03	995.41
349.40	1005.33
349.77	1013.78
350.14	1019.68
350.52	1028.43
350.89	1035.83
351.26	1041.47
351.63	1047.81
352.01	1055.44
352.38	1060.50
352.75	1065.55
353.12	1069.62
353.50	1072.18
353.87	1073.28
354.24	1073.21
354.61	1074.03
354.98	1073.56
355.36	1073.74
355.73	1074.40
356.10	1077.75
356.47	1077.82
356.84	1080.11
357.22	1081.37
357.59	1083.55
357.96	1081.21
358.33	1081.82
358.70	1081.35
359.08	1082.71
359.45	1079.81
359.82	1078.61
360.19	1076.11
360.56	1075.71
360.94	1074.96
361.31	1076.44
361.68	1077.75
362.05	1077.14
362.42	1070.23
362.79	1069.18
363.16	1065.13
363.54	1062.42
363.91	1056.68
364.28	1066.32
364.65	1067.45
365.02	1068.55
365.39	1070.35
365.76	1076.25
366.14	1071.82
366.51	1067.54
366.88	1068.01
367.25	1066.00
367.62	1064.99
367.99	1062.88
368.36	1064.57
368.73	1066.77
369.10	1066.02
369.48	1067.24
369.85	1069.32
370.22	1067.05
370.59	1065.01
370.96	1070.65
371.33	1070.23
371.70	1067.42
372.07	1069.06
372.44	1069.88
372.81	1067.59
373.18	1066.68
373.55	1072.85
373.93	1074.10
374.30	1076.67
374.67	1075.78
375.04	1072.67
375.41	1069.65
375.78	1069.02
376.15	1066.84
376.52	1066.25
376.89	1069.60
377.26	1068.24
377.63	1065.76
378.00	1065.15
378.37	1067.45
378.74	1067.54
379.11	1067.17
379.48	1070.75
379.85	1072.48
380.22	1069.60
380.59	1072.13
380.96	1075.78
381.33	1074.47
381.70	1072.29
382.07	1073.56
382.44	1074.07
382.81	1072.92
383.18	1074.52
383.55	1075.05
383.92	1074.28
384.29	1072.74
384.66	1071.85
385.03	1071.10
385.40	1071.36
385.77	1073.65
386.14	1071.64
386.51	1074.12
386.88	1073.02
387.25	1072.78
387.62	1073.32
387.99	1075.03
388.36	1070.12
388.73	1071.36
389.10	1072.32
389.46	1070.54
389.83	1070.28
390.20	1076.13
390.57	1079.20
390.94	1079.06
391.31	1078.47
391.68	1079.69
392.05	1075.55
392.42	1072.92
392.79	1071.92
393.16	1072.06
393.53	1071.33
393.89	1072.97
394.26	1073.37
394.63	1071.33
395.00	1075.31
395.37	1076.01
395.74	1075.62
396.11	1075.10
396.48	1080.88
396.84	1077.07
397.21	1074.80
397.58	1077.07
397.95	1076.60
398.32	1074.19
398.69	1077.86
399.06	1079.67
399.42	1078.82
399.79	1079.38
400.16	1079.50
400.53	1077.56
400.90	1077.47
401.27	1074.49
401.64	1074.63
402.00	1073.35
402.37	1072.39
402.74	1073.32
403.11	1077.47
403.48	1075.97
403.84	1076.67
404.21	1077.30
404.58	1077.86
404.95	1074.03
405.32	1073.04
405.68	1072.62
406.05	1072.74
406.42	1071.08
406.79	1071.50
407.16	1076.88
407.52	1078.80
407.89	1079.22
408.26	1076.34
408.63	1079.78
408.99	1077.42
409.36	1077.02
409.73	1077.91
410.10	1083.97
410.47	1082.59
410.83	1083.20
411.20	1083.53
411.57	1087.27
411.94	1090.46
412.30	1092.96
412.67	1094.43
413.04	1095.02
413.40	1089.19
413.77	1086.66
414.14	1082.85
414.51	1080.86
414.87	1080.84
415.24	1084.65
415.61	1082.33
415.97	1085.49
416.34	1085.14
416.71	1086.55
417.08	1083.32
417.44	1081.89
417.81	1080.46
418.18	1079.71
418.54	1078.03
418.91	1079.90
419.28	1083.15
419.64	1085.00
420.01	1086.76
420.38	1088.91
420.74	1090.60
421.11	1092.52
421.48	1089.17
421.84	1093.97
422.21	1093.97
422.58	1092.89
422.94	1092.05
423.31	1095.79
423.68	1094.27
424.04	1093.83
424.41	1093.15
424.77	1094.46
425.14	1097.52
425.51	1098.60
425.87	1101.50
426.24	1105.44
426.61	1106.49
426.97	1106.98
427.34	1108.27
427.70	1113.98
428.07	1115.43
428.44	1117.96
428.80	1121.70
429.17	1125.89
429.53	1127.60
429.90	1133.94
430.27	1138.02
430.63	1143.87
431.00	1152.97
431.36	1157.23
431.73	1159.55
432.09	1165.73
432.46	1170.17
432.83	1171.48
433.19	1174.97
433.56	1186.82
433.92	1192.18
434.29	1202.75
434.65	1213.97
435.02	1224.43
435.38	1234.07
435.75	1248.30
436.11	1258.11
436.48	1269.83
436.84	1286.03
437.21	1297.38
437.57	1311.61
437.94	1328.28
438.30	1345.39
438.67	1361.63
439.03	1382.62
439.40	1407.74
439.76	1431.14
440.13	1456.73
440.49	1485.47
440.86	1512.76
441.22	1537.19
441.59	1567.57
441.95	1603.78
442.32	1635.07
442.68	1670.11
443.05	1708.87
443.41	1749.74
443.78	1792.38
444.14	1845.02
444.51	1898.76
444.87	1955.61
445.24	2006.68
445.60	2058.76
445.96	2110.91
446.33	2173.84
446.69	2236.59
447.06	2310.06
447.42	2390.72
447.79	2473.34
448.15	2562.32
448.51	2655.88
448.88	2752.77
449.24	2838.09
449.61	2947.02
449.97	3056.20
450.33	3173.37
450.70	3293.79
451.06	3434.10
451.43	3564.45
451.79	3712.00
452.15	3873.54
452.52	4039.93
452.88	4207.72
453.24	4392.62
453.61	4599.97
453.97	4804.04
454.34	5010.62
454.70	5253.19
455.06	5496.42
455.43	5717.41
455.79	5936.65
456.15	6204.99
456.52	6457.96
456.88	6757.92
457.24	7064.77
457.61	7440.89
457.97	7772.36
458.33	8114.45
458.70	8452.00
459.06	8782.84
459.42	9119.85
459.79	9456.51
460.15	9841.86
460.51	10206.75
460.88	10586.06
461.24	10909.17
461.60	11283.30
461.96	11612.22
462.33	11919.34
462.69	12244.65
463.05	12589.39
463.42	12883.46
463.78	13185.92
464.14	13489.77
464.50	13778.73
464.87	14007.12
465.23	14186.08
465.59	14390.67
465.95	14579.57
466.32	14746.59
466.68	14895.22
467.04	14994.85
467.40	14988.93
467.77	14981.65
468.13	14941.49
468.49	14898.77
468.85	14903.88
469.22	14923.28
469.58	14877.59
469.94	14840.38
470.30	14770.00
470.66	14631.13
471.03	14437.69
471.39	14308.58
471.75	14054.17
472.11	13798.93
472.47	13607.29
472.84	13407.97
473.20	13137.68
473.56	12975.32
473.92	12789.67
474.28	12617.55
474.65	12459.98
475.01	12284.51
475.37	12084.70
475.73	11892.33
476.09	11672.35
476.45	11460.92
476.81	11284.21
477.18	11112.70
477.54	10969.06
477.90	10834.11
478.26	10683.66
478.62	10529.81
478.98	10354.95
479.34	10192.45
479.71	10004.08
480.07	9841.25
480.43	9698.03
480.79	9566.82
481.15	9409.75
481.51	9291.44
481.87	9169.14
482.23	9009.19
482.59	8862.51
482.96	8742.46
483.32	8607.46
483.68	8460.62
484.04	8339.38
484.40	8194.45
484.76	8049.76
485.12	7907.45
485.48	7781.77
485.84	7619.68
486.20	7464.18
486.56	7314.53
486.92	7177.56
487.28	7031.98
487.64	6905.98
488.00	6777.54
488.37	6635.96
488.73	6478.86
489.09	6297.70
489.45	6146.76
489.81	6016.72
490.17	5896.79
490.53	5780.02
490.89	5672.59
491.25	5536.98
491.61	5400.29
491.97	5271.07
492.33	5131.74
492.69	5004.42
493.05	4892.54
493.41	4775.86
493.77	4644.54
494.13	4538.72
494.49	4442.20
494.85	4342.26
495.21	4253.01
495.57	4177.01
495.93	4086.95
496.29	3997.49
496.64	3921.90
497.00	3831.76
497.36	3734.65
497.72	3648.66
498.08	3577.49
498.44	3502.99
498.80	3429.89
499.16	3361.36
499.52	3289.08
499.88	3212.43
500.24	3135.52
500.60	3074.86
500.96	3017.75
501.32	2960.03
501.68	2896.25
502.03	2837.83
502.39	2783.25
502.75	2719.70
503.11	2671.14
503.47	2634.41
503.83	2605.65
504.19	2564.29
504.55	2531.10
504.91	2489.02
505.26	2439.45
505.62	2385.97
505.98	2342.15
506.34	2296.42
506.70	2252.20
507.06	2215.93
507.42	2178.80
507.78	2142.88
508.13	2114.53
508.49	2087.41
508.85	2057.96
509.21	2029.01
509.57	2000.15
509.93	1966.19
510.28	1934.73
510.64	1903.25
511.00	1871.14
511.36	1839.61
511.72	1811.36
512.07	1786.60
512.43	1766.52
512.79	1745.90
513.15	1729.05
513.51	1708.08
513.86	1689.47
514.22	1666.95
514.58	1648.86
514.94	1624.10
515.30	1604.58
515.65	1583.47
516.01	1571.46
516.37	1557.95
516.73	1548.76
517.08	1537.08
517.44	1525.70
517.80	1509.83
518.16	1496.54
518.51	1483.78
518.87	1473.53
519.23	1460.21
519.59	1448.93
519.94	1437.67
520.30	1427.05
520.66	1416.80
521.01	1407.41
521.37	1395.61
521.73	1381.81
522.09	1367.01
522.44	1357.72
522.80	1348.62
523.16	1340.24
523.51	1335.09
523.87	1328.91
524.23	1321.40
524.58	1316.53
524.94	1309.11
525.30	1303.98
525.65	1296.26
526.01	1289.45
526.37	1282.47
526.72	1277.91
527.08	1264.80
527.44	1259.42
527.79	1250.50
528.15	1241.16
528.51	1237.56
528.86	1237.65
529.22	1234.38
529.58	1232.50
529.93	1231.78
530.29	1223.40
530.65	1216.42
531.00	1212.02
531.36	1209.33
531.71	1204.07
532.07	1202.08
532.43	1199.45
532.78	1196.39
533.14	1190.79
533.49	1185.83
533.85	1182.02
534.21	1178.88
534.56	1174.43
534.92	1171.04
535.27	1169.61
535.63	1166.78
535.98	1165.70
536.34	1165.54
536.69	1163.06
537.05	1160.74
537.41	1156.88
537.76	1150.37
538.12	1144.57
538.47	1141.13
538.83	1142.28
539.18	1141.71
539.54	1141.32
539.89	1144.22
540.25	1144.31
540.60	1138.53
540.96	1138.90
541.31	1138.48
541.67	1131.98
542.02	1127.06
542.38	1123.67
542.73	1119.29
543.09	1117.72
543.44	1118.14
543.80	1121.14
544.15	1123.53
544.51	1124.32
544.86	1122.47
545.22	1121.73
545.57	1121.94
545.93	1122.01
546.28	1117.54
546.64	1117.72
546.99	1116.41
547.35	1113.58
547.70	1111.68
548.05	1116.95
548.41	1115.78
548.76	1117.82
549.12	1117.75
549.47	1117.86
549.83	1114.63
550.18	1114.56
550.53	1110.05
550.89	1110.54
551.24	1105.46
551.60	1104.83
551.95	1108.29
552.30	1110.23
552.66	1109.74
553.01	1111.45
553.37	1107.85
553.72	1101.76
554.07	1099.77
554.43	1096.70
554.78	1097.08
555.13	1098.76
555.49	1097.36
555.84	1097.73
556.19	1101.29
556.55	1098.60
556.90	1095.72
557.26	1096.31
557.61	1097.34
557.96	1090.85
558.32	1090.99
558.67	1092.21
559.02	1093.31
559.37	1091.72
559.73	1092.82
560.08	1094.13
560.43	1095.23
560.79	1097.36
561.14	1099.28
561.49	1102.39
561.85	1102.88
562.20	1099.26
562.55	1094.65
562.90	1091.88
563.26	1087.53
563.61	1087.65
563.96	1088.68
564.32	1091.34
564.67	1090.17
565.02	1094.88
565.37	1094.69
565.73	1094.79
566.08	1092.05
566.43	1091.88
566.78	1087.44
567.14	1086.01
567.49	1086.76
567.84	1085.14
568.19	1085.07
568.54	1086.20
568.90	1086.38
569.25	1086.01
569.60	1088.14
569.95	1086.34
570.31	1085.94
570.66	1087.02
571.01	1086.01
571.36	1084.25
571.71	1083.86
572.06	1083.74
572.42	1080.41
572.77	1080.02
573.12	1082.71
573.47	1082.94
573.82	1083.18
574.18	1086.80
574.53	1084.16
574.88	1082.71
575.23	1083.97
575.58	1080.60
575.93	1079.55
576.28	1082.85
576.64	1081.14
576.99	1082.19
577.34	1085.52
577.69	1084.49
578.04	1083.48
578.39	1084.39
578.74	1082.97
579.09	1081.70
579.44	1083.25
579.80	1084.14
580.15	1084.58
580.50	1086.85
580.85	1084.44
581.20	1080.74
581.55	1080.77
581.90	1079.01
582.25	1075.34
582.60	1079.10
582.95	1081.02
583.30	1080.39
583.65	1082.29
584.00	1082.31
584.35	1081.42
584.71	1082.24
585.06	1082.05
585.41	1080.48
585.76	1082.29
586.11	1084.09
586.46	1080.84
586.81	1082.05
587.16	1082.05
587.51	1083.62
587.86	1079.03
588.21	1080.13
588.56	1080.06
588.91	1082.43
589.26	1078.26
589.61	1081.30
589.96	1082.10
590.31	1079.83
590.66	1081.07
591.01	1082.54
591.36	1082.01
591.71	1080.09
592.06	1082.64
592.41	1082.45
592.76	1078.73
593.10	1078.28
593.45	1079.01
593.80	1078.24
594.15	1075.43
594.50	1080.46
594.85	1081.61
595.20	1081.35
595.55	1079.31
595.90	1077.65
596.25	1077.35
596.60	1079.17
596.95	1081.21
597.30	1082.47
597.64	1096.17
597.99	1095.60
598.34	1092.68
598.69	1090.34
599.04	1088.77
599.39	1077.58
599.74	1077.09
600.09	1078.31
600.44	1081.70
600.78	1086.48
601.13	1088.47
601.48	1089.29
601.83	1088.33
602.18	1083.93
602.53	1078.28
602.88	1077.91
603.22	1077.47
603.57	1077.44
603.92	1076.60
604.27	1078.03
604.62	1073.07
604.97	1072.39
605.31	1071.24
605.66	1070.98
606.01	1070.42
606.36	1071.68
606.71	1070.89
607.05	1071.61
607.40	1074.82
607.75	1076.25
608.10	1078.59
608.44	1080.39
608.79	1080.27
609.14	1079.34
609.49	1080.88
609.84	1082.43
610.18	1081.47
610.53	1078.07
610.88	1078.36
611.23	1076.88
611.57	1073.16
611.92	1076.01
612.27	1077.47
612.62	1078.47
612.96	1081.00
613.31	1082.33
613.66	1078.03
614.00	1077.56
614.35	1079.71
614.70	1074.89
615.05	1076.13
615.39	1076.60
615.74	1081.77
616.09	1080.98
616.43	1084.89
616.78	1083.71
617.13	1082.26
617.47	1076.46
617.82	1076.67
618.17	1076.83
618.51	1075.94
618.86	1080.11
619.21	1083.15
619.55	1082.26
619.90	1080.32
620.25	1083.06
620.59	1080.81
620.94	1077.93
621.29	1075.29
621.63	1074.75
621.98	1069.13
622.32	1072.13
622.67	1078.10
623.02	1079.08
623.36	1080.67
623.71	1083.11
624.05	1083.08
624.40	1075.64
624.75	1073.35
625.09	1070.02
625.44	1070.00
625.78	1067.66
626.13	1070.40
626.48	1068.78
626.82	1073.07
627.17	1074.28
627.51	1076.06
627.86	1077.82
628.20	1079.95
628.55	1076.81
628.89	1074.47
629.24	1073.42
629.58	1070.82
629.93	1072.22
630.28	1074.10
630.62	1077.86
630.97	1079.03
631.31	1083.60
631.66	1081.12
632.00	1080.44
632.35	1078.89
632.69	1077.68
633.04	1074.35
633.38	1076.32
633.73	1075.76
634.07	1073.95
634.42	1074.12
634.76	1074.68
635.11	1074.21
635.45	1074.80
635.79	1075.03
636.14	1072.36
636.48	1069.86
636.83	1070.56
637.17	1070.58
637.52	1069.53
637.86	1073.58
638.21	1077.89
638.55	1079.95
638.89	1081.61
639.24	1081.19
639.58	1081.23
639.93	1081.42
640.27	1082.57
640.61	1079.41
640.96	1083.32
641.30	1079.74
641.65	1076.18
641.99	1074.33
642.33	1074.61
642.68	1072.95
643.02	1072.81
643.37	1073.86
643.71	1071.08
644.05	1072.20
644.40	1072.83
644.74	1075.90
645.08	1076.90
645.43	1079.55
645.77	1079.64
646.11	1078.71
646.46	1076.34
646.80	1078.21
647.14	1077.84
647.49	1076.01
647.83	1078.89
648.17	1083.39
648.52	1081.37
648.86	1082.71
649.20	1082.05
649.55	1079.92
649.89	1076.18
650.23	1072.76
650.57	1072.48
650.92	1074.24
651.26	1072.95
651.60	1071.36
651.95	1072.20
652.29	1073.11
652.63	1073.28
652.97	1073.09
653.32	1074.61
653.66	1079.10
654.00	1075.59
654.34	1078.50
654.69	1077.37
655.03	1078.54
655.37	1073.63
655.71	1075.99
656.05	1075.20
656.40	1078.96
656.74	1079.08
657.08	1080.95
657.42	1080.70
657.76	1078.05
658.11	1076.30
658.45	1076.97
658.79	1081.47
659.13	1081.70
659.47	1082.94
659.82	1083.32
660.16	1082.66
660.50	1080.18
660.84	1081.07
661.18	1082.90
661.52	1083.83
661.87	1084.51
662.21	1083.83
662.55	1083.79
662.89	1081.07
663.23	1076.62
663.57	1073.23
663.91	1072.92
664.25	1071.24
664.60	1071.80
664.94	1074.98
665.28	1076.62
665.62	1076.34
665.96	1077.51
666.30	1081.58
666.64	1079.71
666.98	1081.30
667.32	1083.15
667.66	1082.12
668.01	1079.55
668.35	1081.84
668.69	1083.27
669.03	1081.70
669.37	1082.40
669.71	1077.98
670.05	1080.84
670.39	1079.78
670.73	1079.24
671.07	1078.43
671.41	1083.18
671.75	1079.74
672.09	1077.96
672.43	1079.50
672.77	1081.30
673.11	1079.50
673.45	1078.71
673.79	1078.10
674.13	1075.24
674.47	1071.68
674.81	1072.62
675.15	1074.75
675.49	1075.41
675.83	1076.04
676.17	1076.58
676.51	1076.27
676.85	1078.05
677.19	1079.20
677.53	1080.93
677.87	1081.63
678.21	1081.73
678.55	1076.60
678.89	1075.03
679.23	1075.83
679.57	1074.19
679.90	1071.78
680.24	1073.67
680.58	1070.47
680.92	1068.52
681.26	1071.08
681.60	1072.57
681.94	1071.68
682.28	1074.56
682.62	1077.68
682.96	1075.64
683.29	1076.53
683.63	1080.34
683.97	1078.26
684.31	1073.74
684.65	1072.25
684.99	1070.96
685.33	1070.33
685.67	1071.15
686.00	1072.53
686.34	1076.27
686.68	1076.39
687.02	1072.39
687.36	1072.83
687.70	1076.06
688.03	1076.95
688.37	1077.35
688.71	1081.54
689.05	1083.15
689.39	1082.17
689.72	1079.76
690.06	1076.60
690.40	1075.64
690.74	1074.19
691.08	1071.03
691.41	1070.91
691.75	1073.14
692.09	1069.02
692.43	1067.71
692.76	1070.05
693.10	1071.94
693.44	1073.42
693.78	1077.07
694.11	1077.79
694.45	1078.05
694.79	1076.51
695.13	1076.69
695.46	1075.73
695.80	1076.41
696.14	1075.52
696.48	1076.44
696.81	1077.79
697.15	1077.42
697.49	1077.89
697.82	1076.39
698.16	1076.39
698.50	1072.43
698.83	1072.62
699.17	1073.74
699.51	1074.49
699.84	1075.17
700.18	1076.58
700.52	1078.03
700.85	1077.68
701.19	1078.80
701.53	1076.58
701.86	1078.52
702.20	1078.12
702.54	1081.00
702.87	1079.81
703.21	1082.08
703.55	1081.84
703.88	1081.09
704.22	1076.27
704.55	1076.86
704.89	1074.70
705.23	1071.50
705.56	1071.92
705.90	1075.10
706.23	1078.82
706.57	1084.72
706.91	1085.33
707.24	1086.62
707.58	1083.41
707.91	1080.72
708.25	1075.57
708.58	1077.72
708.92	1075.92
709.26	1075.13
709.59	1073.77
709.93	1074.31
710.26	1074.56
710.60	1078.59
710.93	1083.95
711.27	1085.19
711.60	1085.14
711.94	1085.26
712.27	1081.61
712.61	1079.17
712.94	1076.76
713.28	1076.81
713.61	1076.39
713.95	1076.44
714.28	1075.71
714.62	1076.34
714.95	1077.49
715.29	1076.13
715.62	1076.86
715.96	1076.88
716.29	1080.11
716.63	1079.20
716.96	1078.89
717.29	1078.75
717.63	1077.42
717.96	1075.69
718.30	1076.06
718.63	1075.62
718.97	1074.24
719.30	1077.61
719.63	1073.60
719.97	1071.01
720.30	1069.11
720.64	1068.97
720.97	1066.02
721.30	1068.59
721.64	1068.83
721.97	1073.21
722.31	1074.66
722.64	1075.43
722.97	1074.17
723.31	1075.34
723.64	1072.41
723.97	1071.66
724.31	1073.16
724.64	1075.48
724.98	1075.24
725.31	1075.85
725.64	1075.45
725.98	1073.42
726.31	1072.15
726.64	1072.46
726.97	1071.45
727.31	1070.30
727.64	1069.44
727.97	1069.39
728.31	1069.53
728.64	1070.77
728.97	1073.14
729.31	1076.44
729.64	1076.76
729.97	1074.17
730.30	1074.42
730.64	1074.98
730.97	1073.21
731.30	1074.05
731.63	1079.64
731.97	1079.13
732.30	1075.17
732.63	1077.25
732.96	1076.67
733.30	1074.80
733.63	1075.83
733.96	1079.20
734.29	1077.02
734.63	1080.30
734.96	1077.70
735.29	1078.21
735.62	1077.93
735.95	1076.76
736.29	1075.94
736.62	1078.66
736.95	1078.10
737.28	1079.57
737.61	1078.14
737.94	1074.73
738.28	1075.99
738.61	1080.60
738.94	1079.20
739.27	1080.72
739.60	1081.09
739.93	1077.21
740.27	1072.39
740.60	1071.12
740.93	1070.44
741.26	1075.36
741.59	1077.65
741.92	1079.99
742.25	1081.56
742.58	1083.29
742.91	1080.98
743.25	1079.85
743.58	1079.57
743.91	1080.93
744.24	1078.59
744.57	1076.41
744.90	1075.99
745.23	1073.14
745.56	1070.54
745.89	1070.70
746.22	1072.48
746.55	1072.67
746.88	1073.86
747.21	1077.63
747.54	1081.82
747.87	1080.27
748.20	1083.36
748.53	1083.34
748.87	1079.90
749.20	1076.86
749.53	1075.59
749.86	1073.93
750.19	1074.19
750.52	1075.24
750.85	1075.83
751.18	1076.06
751.51	1072.95
751.84	1071.82
752.16	1070.80
752.49	1072.85
752.82	1072.76
753.15	1074.89
753.48	1075.31
753.81	1076.25
754.14	1075.10
754.47	1077.56
754.80	1077.23
755.13	1078.17
755.46	1075.83
755.79	1077.84
756.12	1077.30
756.45	1076.23
756.78	1075.29
757.11	1077.72
757.43	1074.70
757.76	1074.24
758.09	1078.19
758.42	1078.19
758.75	1077.93
759.08	1079.83
759.41	1080.02
759.74	1074.54
760.07	1076.53
760.39	1073.23
760.72	1074.33
761.05	1072.78
761.38	1074.77
761.71	1072.74
762.04	1076.30
762.36	1073.21
762.69	1074.52
763.02	1077.54
763.35	1078.64
763.68	1078.50
764.01	1077.61
764.33	1077.14
764.66	1075.36
764.99	1073.04
765.32	1071.17
765.65	1072.43
765.97	1071.15
766.30	1071.26
766.63	1071.01
766.96	1072.34
767.28	1074.40
767.61	1076.13
767.94	1076.25
768.27	1077.89
768.59	1078.03
768.92	1078.68
769.25	1077.35
769.58	1078.03
769.90	1078.26
770.23	1080.53
770.56	1077.51
770.89	1080.72
771.21	1081.33
771.54	1082.19
771.87	1080.32
772.19	1076.27
772.52	1074.38
772.85	1073.00
773.17	1072.53
773.50	1071.22
773.83	1073.67
774.15	1073.21
774.48	1071.54
774.81	1070.51
775.13	1072.01
775.46	1073.49
775.79	1074.52
776.11	1075.83
776.44	1078.78
776.77	1080.41
777.09	1080.41
777.42	1078.66
777.74	1080.79
778.07	1079.36
778.40	1075.80
778.72	1074.66
779.05	1078.24
779.37	1078.68
779.70	1079.90
780.03	1081.49
780.35	1082.64
780.68	1079.34
781.00	1077.11
781.33	1075.10
781.65	1074.10
781.98	1075.83
782.31	1075.83
782.63	1077.82
782.96	1076.83
783.28	1078.57
783.61	1075.15
783.93	1077.11
784.26	1073.09
784.58	1074.26
784.91	1070.63
785.23	1070.37
785.56	1068.29
785.88	1070.23
786.21	1073.00
786.53	1076.30
786.86	1078.73
787.18	1078.85
787.51	1078.57
787.83	1077.25
788.16	1078.94
788.48	1079.53
788.81	1077.23
789.13	1075.76
789.46	1073.72
789.78	1071.71
790.10	1069.55
790.43	1073.58
790.75	1074.89
791.08	1075.87
791.40	1076.04
791.73	1078.96
792.05	1076.04
792.37	1074.42
792.70	1073.14
793.02	1073.58
793.35	1070.82
793.67	1073.18
793.99	1073.25
794.32	1074.42
794.64	1074.66
794.96	1077.84
795.29	1077.82
795.61	1078.85
795.93	1077.14
796.26	1077.40
796.58	1076.08
796.91	1073.72
797.23	1074.31
797.55	1075.43
797.87	1073.46
798.20	1071.36
798.52	1072.04
798.84	1073.28
799.17	1072.36
799.49	1071.59
799.81	1075.69
800.14	1075.41
800.46	1073.86
800.78	1076.46
801.10	1076.76
801.43	1075.50
801.75	1078.52
802.07	1079.81
802.40	1077.89
802.72	1073.81
803.04	1071.90
803.36	1069.18
803.69	1067.61
804.01	1069.16
804.33	1075.57
804.65	1076.41
804.97	1075.87
805.30	1075.64
805.62	1076.44
805.94	1075.43
806.26	1075.38
806.58	1075.29
806.91	1078.43
807.23	1074.96
807.55	1073.95
807.87	1073.18
808.19	1074.35
808.52	1069.46
808.84	1071.94
809.16	1072.13
809.48	1072.67
809.80	1073.25
810.12	1076.41
810.44	1078.10
810.77	1077.47
811.09	1077.98
811.41	1078.33
811.73	1077.96
812.05	1076.11
812.37	1075.52
812.69	1077.09
813.01	1077.75
813.33	1076.39
813.66	1076.39
813.98	1080.37
814.30	1080.27
814.62	1079.15
814.94	1082.85
815.26	1081.00
815.58	1081.58
815.90	1080.39
816.22	1080.77
816.54	1076.88
816.86	1076.48
817.18	1072.64
817.50	1070.98
817.82	1072.50
818.14	1073.74
818.46	1075.73
818.78	1075.52
819.10	1075.71
819.42	1073.65
819.74	1074.14
820.06	1071.80
820.38	1071.59
820.70	1072.62
821.02	1073.09
821.34	1068.76
821.66	1073.30
821.98	1075.92
822.30	1077.63
822.62	1079.22
822.94	1080.27
823.26	1075.78
823.58	1073.18
823.90	1068.43
824.22	1065.20
824.54	1067.87
824.86	1067.42
825.18	1068.03
825.50	1071.01
825.81	1071.57
826.13	1070.19
826.45	1070.80
826.77	1070.96
827.09	1073.23
827.41	1076.37
827.73	1077.49
828.05	1081.02
828.36	1081.70
828.68	1079.41
829.00	1075.10
829.32	1075.03
829.64	1074.03
829.96	1071.22
830.28	1067.75
830.59	1068.85
830.91	1069.44
831.23	1070.84
831.55	1074.73
831.87	1076.18
832.19	1076.25
832.50	1076.39
832.82	1070.65
833.14	1069.51
833.46	1071.22
833.78	1071.26
834.09	1069.65
834.41	1074.49
834.73	1073.98
835.05	1074.61
835.36	1077.33
835.68	1077.35
836.00	1075.17
836.32	1075.01
836.63	1074.03
836.95	1072.11
837.27	1074.38
837.59	1073.65
837.90	1075.85
838.22	1076.76
838.54	1074.68
838.85	1071.52
839.17	1071.54
839.49	1068.45
839.80	1069.60
840.12	1073.23
840.44	1073.93
840.76	1075.05
841.07	1075.22
841.39	1072.18
841.71	1070.63
842.02	1074.94
842.34	1074.45
842.65	1073.11
842.97	1073.18
843.29	1074.03
843.60	1075.15
843.92	1076.37
844.24	1077.72
844.55	1079.50
844.87	1081.54
845.18	1078.54
845.50	1075.66
845.82	1075.83
846.13	1075.55
846.45	1073.32
846.76	1072.15
847.08	1076.60
847.40	1075.13
847.71	1073.67
848.03	1073.18
848.34	1074.45
848.66	1073.46
848.97	1074.14
849.29	1074.35
849.60	1074.40
849.92	1075.17
850.24	1072.69
850.55	1074.26
850.87	1075.22
851.18	1074.35
851.50	1069.72
851.81	1069.65
852.13	1071.12
852.44	1072.15
852.76	1072.06
853.07	1075.34
853.39	1078.26
853.70	1076.18
854.01	1075.43
854.33	1076.53
854.64	1074.80
854.96	1072.48
855.27	1071.26
855.59	1070.56
855.90	1071.92
856.22	1074.87
856.53	1076.86
856.84	1079.53
857.16	1080.84
857.47	1081.75
857.79	1078.73
858.10	1075.45
858.41	1077.18
858.73	1078.10
859.04	1076.44
859.36	1078.10
859.67	1080.63
859.98	1075.24
860.30	1073.28
860.61	1071.12
860.92	1069.88
861.24	1069.11
861.55	1071.64
861.87	1070.98
862.18	1072.06
862.49	1071.26
862.81	1071.73
863.12	1072.76
863.43	1073.23
863.74	1072.83
864.06	1076.20
864.37	1076.90
864.68	1078.36
865.00	1079.88
865.31	1080.51
865.62	1076.81
865.94	1076.32
866.25	1074.77
866.56	1074.28
866.87	1073.46
867.19	1075.59
867.50	1075.08
867.81	1075.43
868.12	1074.61
868.44	1077.51
868.75	1076.48
869.06	1076.93
869.37	1075.34
869.68	1077.56
870.00	1078.12
870.31	1079.29
870.62	1077.37
870.93	1078.14
871.24	1076.53
871.56	1073.44
871.87	1072.64
872.18	1074.49
872.49	1078.78
872.80	1078.21
873.12	1074.75
873.43	1074.56
873.74	1073.44
874.05	1069.53
874.36	1071.12
874.67	1077.58
874.98	1078.85
875.29	1079.99
875.61	1082.26
875.92	1080.74
876.23	1078.40
876.54	1078.82
876.85	1079.85
877.16	1077.58
877.47	1074.66
877.78	1073.81
878.09	1075.43
878.40	1072.62
878.72	1071.82
879.03	1075.71
879.34	1079.36
879.65	1074.98
879.96	1074.07
880.27	1071.90
880.58	1073.39
880.89	1068.99
881.20	1068.81
881.51	1069.79
881.82	1073.11
882.13	1072.11
882.44	1073.14
882.75	1074.66
883.06	1074.49
883.37	1073.67
883.68	1071.78
883.99	1074.31
884.30	1074.59
884.61	1073.86
884.92	1074.63
885.23	1076.83
885.54	1073.81
885.85	1071.59
886.16	1073.46
886.47	1073.42
886.78	1069.91
887.08	1072.69
887.39	1073.72
887.70	1073.00
888.01	1070.14
888.32	1071.05
888.63	1070.19
888.94	1071.66
889.25	1070.98
889.56	1071.03
889.87	1072.34
890.17	1072.32
890.48	1075.64
890.79	1077.72
891.10	1077.56
891.41	1077.30
891.72	1076.67
892.03	1074.61
892.34	1076.32
892.64	1077.72
892.95	1079.50
893.26	1078.00
893.57	1075.34
893.88	1074.42
894.18	1076.81
894.49	1071.29
894.80	1070.47
895.11	1070.98
895.42	1069.37
895.72	1065.62
896.03	1068.55
896.34	1072.83
896.65	1072.46
896.96	1072.36
897.26	1078.43
897.57	1079.88
897.88	1077.21
898.19	1076.15
898.49	1075.73
898.80	1072.46
899.11	1071.87
899.41	1071.59
899.72	1073.49
900.03	1074.10
900.34	1072.50
900.64	1074.94
900.95	1075.62
901.26	1076.23
901.56	1076.15
901.87	1078.94
902.18	1076.74
902.48	1077.02
902.79	1076.27
903.10	1077.75
903.40	1074.87
903.71	1074.73
904.02	1074.54
904.32	1076.30
904.63	1074.17
904.94	1075.69
905.24	1077.09
905.55	1077.37
905.85	1077.72
906.16	1078.26
906.47	1075.59
906.77	1073.84
907.08	1075.05
907.38	1074.10
907.69	1075.83
908.00	1078.14
908.30	1079.46
908.61	1074.45
908.91	1074.75
909.22	1075.08
909.52	1074.75
909.83	1074.54
910.14	1078.14
910.44	1078.47
910.75	1077.33
911.05	1076.67
911.36	1076.58
911.66	1076.93
911.97	1075.31
912.27	1074.40
912.58	1074.56
912.88	1073.21
913.19	1072.08
913.49	1073.49
913.80	1075.80
914.10	1074.59
914.41	1075.27
914.71	1074.49
915.01	1073.30
915.32	1071.17
915.62	1074.98
915.93	1075.31
916.23	1077.49
916.54	1080.20
916.84	1082.26
917.15	1078.40
917.45	1077.77
917.75	1076.48
918.06	1075.34
918.36	1073.16
918.67	1076.97
918.97	1078.85
919.27	1080.32
919.58	1078.38
919.88	1077.44
920.18	1072.90
920.49	1069.93
920.79	1067.68
921.10	1067.87
921.40	1069.37
921.70	1070.98
922.01	1075.31
922.31	1078.05
922.61	1077.91
922.92	1078.21
923.22	1078.87
923.52	1078.99
923.82	1078.12
924.13	1079.76
924.43	1079.81
924.73	1081.82
925.04	1078.57
925.34	1076.74
925.64	1073.60
925.94	1070.47
926.25	1067.64
926.55	1070.65
926.85	1069.77
927.15	1070.77
927.46	1073.70
927.76	1075.66
928.06	1073.56
928.36	1075.83
928.67	1075.05
928.97	1076.53
929.27	1074.82
929.57	1072.08
929.87	1070.33
930.18	1072.27
930.48	1069.86
930.78	1071.52
931.08	1072.36
931.38	1068.71
931.69	1070.02
931.99	1072.41
932.29	1069.44
932.59	1069.51
932.89	1073.11
933.19	1071.03
933.49	1069.79
933.80	1072.53
934.10	1074.28
934.40	1075.97
934.70	1075.73
935.00	1074.98
935.30	1074.19
935.60	1074.03
935.90	1072.55
936.20	1071.31
936.50	1067.80
936.81	1067.45
937.11	1065.08
937.41	1066.30
937.71	1071.43
938.01	1076.55
938.31	1077.84
938.61	1079.41
938.91	1077.93
939.21	1076.41
939.51	1077.58
939.81	1075.03
940.11	1077.16
940.41	1078.14
940.71	1075.45
941.01	1072.18
941.31	1073.18
941.61	1070.21
941.91	1073.65
942.21	1073.14
942.51	1074.28
942.81	1075.27
943.11	1077.89
943.41	1074.54
943.71	1077.16
944.01	1077.02
944.31	1074.38
944.61	1074.33
944.90	1075.92
945.20	1072.53
945.50	1070.51
945.80	1072.04
946.10	1070.72
946.40	1068.97
946.70	1072.43
947.00	1074.54
947.30	1075.66
947.60	1074.10
947.89	1074.00
948.19	1072.67
948.49	1073.42
948.79	1068.76
949.09	1071.08
949.39	1069.44
949.69	1071.05
949.98	1072.27
950.28	1076.32
950.58	1075.87
950.88	1076.48
951.18	1076.81
951.48	1075.29
951.77	1075.55
952.07	1074.68
952.37	1076.27
952.67	1072.88
952.97	1070.19
953.26	1069.95
953.56	1070.72
953.86	1068.41
954.16	1071.36
954.45	1071.45
954.75	1071.73
955.05	1072.71
955.35	1072.95
955.64	1071.75
955.94	1073.65
956.24	1075.13
956.54	1072.92
956.83	1074.56
957.13	1070.82
957.43	1072.18
957.72	1074.45
958.02	1076.08
958.32	1077.47
958.61	1082.10
958.91	1083.36
959.21	1081.89
959.50	1082.15
959.80	1082.10
960.10	1082.26
960.39	1083.90
960.69	1080.65
960.99	1081.30
961.28	1080.56
961.58	1078.99
961.87	1073.11
962.17	1076.48
962.47	1075.52
962.76	1075.59
963.06	1077.49
963.36	1079.29
963.65	1076.81
963.95	1076.48
964.24	1073.28
964.54	1072.29
964.83	1072.18
965.13	1072.15
965.42	1072.15
965.72	1076.44
966.02	1075.73
966.31	1075.13
966.61	1074.40
966.90	1075.87
967.20	1075.76
967.49	1074.59
967.79	1073.30
968.08	1074.17
968.38	1075.57
968.67	1075.31
968.97	1075.10
969.26	1079.78
969.56	1077.51
969.85	1072.50
970.15	1073.51
970.44	1075.94
970.74	1074.80
971.03	1078.00
971.32	1079.97
971.62	1078.64
971.91	1076.58
972.21	1077.07
972.50	1075.24
972.80	1073.51
973.09	1075.22
973.38	1078.47
973.68	1076.81
973.97	1076.13
974.27	1077.07
974.56	1077.40
974.85	1074.84
975.15	1073.09
975.44	1072.55
975.73	1072.74
976.03	1069.02
976.32	1067.94
976.61	1069.41
976.91	1070.94
977.20	1071.64
977.49	1074.33
977.79	1075.05
978.08	1072.60
978.37	1071.94
978.67	1072.95
978.96	1074.56
979.25	1073.11
979.55	1073.86
979.84	1072.11
980.13	1069.23
980.42	1065.29
980.72	1068.08
981.01	1072.20
981.30	1074.87
981.59	1078.03
981.89	1080.98
982.18	1081.96
982.47	1082.90
982.76	1083.90
983.06	1084.00
983.35	1083.18
983.64	1082.03
983.93	1080.77
984.22	1081.07
984.52	1081.49
984.81	1079.38
985.10	1076.44
985.39	1071.31
985.68	1070.12
985.97	1068.38
986.27	1067.59
986.56	1066.82
986.85	1070.26
987.14	1073.07
987.43	1073.30
987.72	1072.41
988.01	1075.78
988.31	1073.98
988.60	1068.27
988.89	1071.73
989.18	1074.66
989.47	1074.82
989.76	1074.91
990.05	1076.97
990.34	1073.88
990.63	1074.17
990.92	1074.52
991.21	1075.97
991.51	1077.98
991.80	1078.26
992.09	1077.47
992.38	1073.53
992.67	1072.57
992.96	1072.20
993.25	1071.08
993.54	1069.95
993.83	1074.47
994.12	1073.23
994.41	1070.30
994.70	1071.15
994.99	1071.19
995.28	1069.37
995.57	1073.21
995.86	1077.28
996.15	1078.54
996.44	1079.67
996.73	1079.01
997.02	1076.08
997.31	1073.95
997.59	1071.38
997.88	1071.40
998.17	1072.53
998.46	1070.70
998.75	1070.54
999.04	1072.36
999.33	1074.21
999.62	1077.77
999.91	1080.77
1000.20	1081.66
1000.49	1083.06
1000.77	1082.57
1001.06	1075.90
1001.35	1077.02
1001.64	1076.32
1001.93	1075.08
1002.22	1072.74
1002.51	1077.33
1002.79	1073.46
1003.08	1074.70
1003.37	1073.72
1003.66	1076.01
1003.95	1073.35
1004.23	1076.32
1004.52	1077.91
1004.81	1076.18
1005.10	1074.40
1005.39	1075.59
1005.67	1075.55
1005.96	1073.11
1006.25	1073.53
1006.54	1072.74
1006.83	1073.16
1007.11	1071.80
1007.40	1073.44
1007.69	1075.08
1007.97	1075.36
1008.26	1074.68
1008.55	1075.62
1008.84	1075.05
1009.12	1074.84
1009.41	1076.23
1009.70	1073.98
1009.98	1074.00
1010.27	1076.88
1010.56	1075.10
1010.85	1074.10
1011.13	1077.91
1011.42	1077.75
1011.71	1072.53
1011.99	1074.10
1012.28	1076.25
1012.56	1075.78
1012.85	1075.08
1013.14	1076.32
1013.42	1074.49
1013.71	1070.09
1014.00	1067.99
1014.28	1070.80
1014.57	1072.92
1014.85	1076.23
1015.14	1077.91
1015.43	1077.77
1015.71	1075.78
1016.00	1076.04
1016.28	1074.47
1016.57	1077.09
1016.85	1076.93
1017.14	1075.55
1017.43	1072.48
1017.71	1070.26
1018.00	1071.08
1018.28	1073.60
1018.57	1074.17
1018.85	1077.35
1019.14	1077.02
1019.42	1073.81
1019.71	1071.87
1019.99	1072.32
1020.28	1068.59
1020.56	1071.03
1020.85	1069.84
1021.13	1070.75
1021.42	1069.88
1021.70	1071.24
1021.99	1072.92
1022.27	1074.31
1022.55	1083.90
1022.84	1071.03
>>>>>End Processed Spectral Data<<<<<
