SpectraSuite Data File
++++++++++++++++++++++++++++++++++++
Date: Mon Aug 26 10:22:08 PDT 2019
User: corrico
Dark Spectrum Present: No
Reference Spectrum Present: No
Number of Sampled Component Spectra: 1
Spectrometers: USB2+H06089
Integration Time (usec): 2000 (USB2+H06089)
Spectra Averaged: 20 (USB2+H06089)
Boxcar Smoothing: 2 (USB2+H06089)
Correct for Electrical Dark: No (USB2+H06089)
Strobe/Lamp Enabled: No (USB2+H06089)
Correct for Detector Non-linearity: No (USB2+H06089)
Correct for Stray Light: No (USB2+H06089)
Number of Pixels in Processed Spectrum: 2048
>>>>>Begin Processed Spectral Data<<<<<
339.70	1026.21
340.07	1026.21
340.45	992.79
340.82	969.43
341.19	946.96
341.57	924.51
341.94	911.03
342.31	905.90
342.69	902.07
343.06	899.05
343.43	893.66
343.81	897.20
344.18	899.21
344.55	902.04
344.93	906.33
345.30	915.52
345.67	919.88
346.04	930.36
346.42	941.15
346.79	948.43
347.16	956.44
347.54	965.85
347.91	968.30
348.28	978.53
348.65	992.15
349.03	999.88
349.40	1010.43
349.77	1023.89
350.14	1029.48
350.52	1036.23
350.89	1045.84
351.26	1049.17
351.63	1056.26
352.01	1064.41
352.38	1066.93
352.75	1067.78
353.12	1072.78
353.50	1075.57
353.87	1077.02
354.24	1078.36
354.61	1080.79
354.98	1083.01
355.36	1080.46
355.73	1081.84
356.10	1082.92
356.47	1083.32
356.84	1085.82
357.22	1086.45
357.59	1085.61
357.96	1087.11
358.33	1089.00
358.70	1087.48
359.08	1087.51
359.45	1086.97
359.82	1086.17
360.19	1082.76
360.56	1084.07
360.94	1084.74
361.31	1085.94
361.68	1085.07
362.05	1085.96
362.42	1084.56
362.79	1083.25
363.16	1079.34
363.54	1077.51
363.91	1077.96
364.28	1074.31
364.65	1071.24
365.02	1072.29
365.39	1071.10
365.76	1070.00
366.14	1071.08
366.51	1071.36
366.88	1071.71
367.25	1072.62
367.62	1072.67
367.99	1071.78
368.36	1072.71
368.73	1072.83
369.10	1073.49
369.48	1075.01
369.85	1076.65
370.22	1076.53
370.59	1076.67
370.96	1077.47
371.33	1077.35
371.70	1077.33
372.07	1079.71
372.44	1079.08
372.81	1075.69
373.18	1075.99
373.55	1075.13
373.93	1074.10
374.30	1071.05
374.67	1076.74
375.04	1074.47
375.41	1075.05
375.78	1074.91
376.15	1078.71
376.52	1079.85
376.89	1083.53
377.26	1081.56
377.63	1085.40
378.00	1085.12
378.37	1082.59
378.74	1081.47
379.11	1082.40
379.48	1079.95
379.85	1078.12
380.22	1078.94
380.59	1080.44
380.96	1082.80
381.33	1083.71
381.70	1086.62
382.07	1083.97
382.44	1080.30
382.81	1079.97
383.18	1078.26
383.55	1079.03
383.92	1081.14
384.29	1083.81
384.66	1086.62
385.03	1087.72
385.40	1085.91
385.77	1086.92
386.14	1084.23
386.51	1082.33
386.88	1083.22
387.25	1081.02
387.62	1079.76
387.99	1080.25
388.36	1080.06
388.73	1079.34
389.10	1085.24
389.46	1085.28
389.83	1087.37
390.20	1088.89
390.57	1087.16
390.94	1085.35
391.31	1087.13
391.68	1087.48
392.05	1085.68
392.42	1086.71
392.79	1085.21
393.16	1085.91
393.53	1085.82
393.89	1087.60
394.26	1088.61
394.63	1093.22
395.00	1091.81
395.37	1093.62
395.74	1090.88
396.11	1088.19
396.48	1085.47
396.84	1088.00
397.21	1085.73
397.58	1088.56
397.95	1088.68
398.32	1083.97
398.69	1082.76
399.06	1084.30
399.42	1083.36
399.79	1086.87
400.16	1091.49
400.53	1091.02
400.90	1089.22
401.27	1091.27
401.64	1092.66
402.00	1094.88
402.37	1092.05
402.74	1093.97
403.11	1092.12
403.48	1092.37
403.84	1090.78
404.21	1094.95
404.58	1097.03
404.95	1098.90
405.32	1098.23
405.68	1096.07
406.05	1092.59
406.42	1089.66
406.79	1089.40
407.16	1091.18
407.52	1091.44
407.89	1094.01
408.26	1097.71
408.63	1099.12
408.99	1097.48
409.36	1101.57
409.73	1103.07
410.10	1102.49
410.47	1101.81
410.83	1105.76
411.20	1105.01
411.57	1106.18
411.94	1103.16
412.30	1102.02
412.67	1094.81
413.04	1098.25
413.40	1094.97
413.77	1096.26
414.14	1096.24
414.51	1102.13
414.87	1099.49
415.24	1102.21
415.61	1106.23
415.97	1107.12
416.34	1106.75
416.71	1106.84
417.08	1107.17
417.44	1104.99
417.81	1108.36
418.18	1114.00
418.54	1112.48
418.91	1114.91
419.28	1117.63
419.64	1117.09
420.01	1115.03
420.38	1118.33
420.74	1121.80
421.11	1126.73
421.48	1128.58
421.84	1130.55
422.21	1134.88
422.58	1133.54
422.94	1133.62
423.31	1138.81
423.68	1139.63
424.04	1143.33
424.41	1149.06
424.77	1155.03
425.14	1159.52
425.51	1165.31
425.87	1169.38
426.24	1171.34
426.61	1174.95
426.97	1180.89
427.34	1190.82
427.70	1197.56
428.07	1204.98
428.44	1212.84
428.80	1221.24
429.17	1229.53
429.53	1240.51
429.90	1253.68
430.27	1265.13
430.63	1278.05
431.00	1293.29
431.36	1306.09
431.73	1321.07
432.09	1336.42
432.46	1353.72
432.83	1369.03
433.19	1392.22
433.56	1415.13
433.92	1442.73
434.29	1469.04
434.65	1498.20
435.02	1530.15
435.38	1562.71
435.75	1593.60
436.11	1632.13
436.48	1673.67
436.84	1710.91
437.21	1761.16
437.57	1809.21
437.94	1859.53
438.30	1912.76
438.67	1976.09
439.03	2031.42
439.40	2101.73
439.76	2167.99
440.13	2238.39
440.49	2316.94
440.86	2397.86
441.22	2480.69
441.59	2573.49
441.95	2680.24
442.32	2783.11
442.68	2905.14
443.05	3032.87
443.41	3160.14
443.78	3292.29
444.14	3429.05
444.51	3564.31
444.87	3727.82
445.24	3902.14
445.60	4083.86
445.96	4269.04
446.33	4488.23
446.69	4689.75
447.06	4903.12
447.42	5120.81
447.79	5363.71
448.15	5619.88
448.51	5890.47
448.88	6217.84
449.24	6527.40
449.61	6879.79
449.97	7236.70
450.33	7621.79
450.70	7972.99
451.06	8408.98
451.43	8812.30
451.79	9278.49
452.15	9771.10
452.52	10302.31
452.88	10850.86
453.24	11485.52
453.61	12175.89
453.97	12863.42
454.34	13566.96
454.70	14387.02
455.06	15192.21
455.43	15963.37
455.79	16672.46
456.15	17482.61
456.52	18224.39
456.88	19133.95
457.24	20024.76
457.61	21150.51
457.97	22221.44
458.33	23311.15
458.70	24374.10
459.06	25390.60
459.42	26408.15
459.79	27332.99
460.15	28405.49
460.51	29395.75
460.88	30508.49
461.24	31493.64
461.60	32662.43
461.96	33725.97
462.33	34762.10
462.69	35802.75
463.05	36935.90
463.42	37963.23
463.78	38889.80
464.14	39643.43
464.50	40372.84
464.87	40870.58
465.23	41199.98
465.59	41587.08
465.95	41922.22
466.32	42156.79
466.68	42432.23
467.04	42597.00
467.40	42612.61
467.77	42719.95
468.13	42648.28
468.49	42480.96
468.85	42352.84
469.22	42233.33
469.58	41980.11
469.94	41833.64
470.30	41620.30
470.66	41258.96
471.03	40747.35
471.39	40393.22
471.75	39702.93
472.11	38987.57
472.47	38495.73
472.84	37994.45
473.20	37269.12
473.56	36842.30
473.92	36275.03
474.28	35659.00
474.65	34996.79
475.01	34281.71
475.37	33468.51
475.73	32762.58
476.09	32054.74
476.45	31402.34
476.81	30882.60
477.18	30309.00
477.54	29847.21
477.90	29371.78
478.26	28797.86
478.62	28268.80
478.98	27836.30
479.34	27391.08
479.71	26840.42
480.07	26414.23
480.43	25982.43
480.79	25493.56
481.15	25020.35
481.51	24645.86
481.87	24327.27
482.23	23958.68
482.59	23636.49
482.96	23305.70
483.32	22991.36
483.68	22590.85
484.04	22238.51
484.40	21812.51
484.76	21377.40
485.12	20917.81
485.48	20473.74
485.84	19967.13
486.20	19528.10
486.56	19102.17
486.92	18727.49
487.28	18326.49
487.64	17932.37
488.00	17560.62
488.37	17162.33
488.73	16713.46
489.09	16244.58
489.45	15816.57
489.81	15360.33
490.17	14921.15
490.53	14522.39
490.89	14129.16
491.25	13715.77
491.61	13318.28
491.97	12926.38
492.33	12523.86
492.69	12158.15
493.05	11824.55
493.41	11501.39
493.77	11179.69
494.13	10872.47
494.49	10578.21
494.85	10292.60
495.21	10021.38
495.57	9763.29
495.93	9493.92
496.29	9233.93
496.64	8997.86
497.00	8739.12
497.36	8480.39
497.72	8243.37
498.08	8029.25
498.44	7802.46
498.80	7588.25
499.16	7390.59
499.52	7187.11
499.88	6998.34
500.24	6818.52
500.60	6661.40
500.96	6503.72
501.32	6352.94
501.68	6193.62
502.03	6022.69
502.39	5856.04
502.75	5691.22
503.11	5535.69
503.47	5390.16
503.83	5260.38
504.19	5128.02
504.55	5014.83
504.91	4903.40
505.26	4786.37
505.62	4663.92
505.98	4557.19
506.34	4431.20
506.70	4312.46
507.06	4203.06
507.42	4101.70
507.78	3998.29
508.13	3911.04
508.49	3821.77
508.85	3742.84
509.21	3662.49
509.57	3581.39
509.93	3492.90
510.28	3406.95
510.64	3321.24
511.00	3241.81
511.36	3171.31
511.72	3109.33
512.07	3054.21
512.43	2994.04
512.79	2937.70
513.15	2873.83
513.51	2807.29
513.86	2750.71
514.22	2699.15
514.58	2646.54
514.94	2597.36
515.30	2553.45
515.65	2503.53
516.01	2457.87
516.37	2415.43
516.73	2377.40
517.08	2342.45
517.44	2301.05
517.80	2262.13
518.16	2228.14
518.51	2193.13
518.87	2160.29
519.23	2131.53
519.59	2098.06
519.94	2065.22
520.30	2036.57
520.66	2006.54
521.01	1979.41
521.37	1956.73
521.73	1928.55
522.09	1902.74
522.44	1875.59
522.80	1852.39
523.16	1827.75
523.51	1806.61
523.87	1782.34
524.23	1762.84
524.58	1735.44
524.94	1717.49
525.30	1696.05
525.65	1679.43
526.01	1663.23
526.37	1650.83
526.72	1632.97
527.08	1616.19
527.44	1598.31
527.79	1577.92
528.15	1561.58
528.51	1542.60
528.86	1532.79
529.22	1520.76
529.58	1509.97
529.93	1495.13
530.29	1485.44
530.65	1470.09
531.00	1455.86
531.36	1442.71
531.71	1432.71
532.07	1423.89
532.43	1411.79
532.78	1400.86
533.14	1392.10
533.49	1383.91
533.85	1373.47
534.21	1364.44
534.56	1358.68
534.92	1353.65
535.27	1347.24
535.63	1338.72
535.98	1333.82
536.34	1327.06
536.69	1316.60
537.05	1305.93
537.41	1296.12
537.76	1287.01
538.12	1283.18
538.47	1276.81
538.83	1273.13
539.18	1269.16
539.54	1264.83
539.89	1257.71
540.25	1255.11
540.60	1250.57
540.96	1247.29
541.31	1244.42
541.67	1240.76
542.02	1236.22
542.38	1234.07
542.73	1229.67
543.09	1225.74
543.44	1219.23
543.80	1214.83
544.15	1209.31
544.51	1207.27
544.86	1204.79
545.22	1203.18
545.57	1200.13
545.93	1199.69
546.28	1195.94
546.64	1192.27
546.99	1189.58
547.35	1189.83
547.70	1184.76
548.05	1183.33
548.41	1181.36
548.76	1181.71
549.12	1179.04
549.47	1176.96
549.83	1173.40
550.18	1172.89
550.53	1165.96
550.89	1161.09
551.24	1158.71
551.60	1156.90
551.95	1151.57
552.30	1149.72
552.66	1149.25
553.01	1150.58
553.37	1148.15
553.72	1147.82
554.07	1146.89
554.43	1143.21
554.78	1139.93
555.13	1139.26
555.49	1138.62
555.84	1140.24
556.19	1142.11
556.55	1140.24
556.90	1140.82
557.26	1136.54
557.61	1133.97
557.96	1131.53
558.32	1127.25
558.67	1125.94
559.02	1126.97
559.37	1123.74
559.73	1124.28
560.08	1126.43
560.43	1124.96
560.79	1125.70
561.14	1126.66
561.49	1124.02
561.85	1125.77
562.20	1127.86
562.55	1124.02
562.90	1120.88
563.26	1122.15
563.61	1118.26
563.96	1113.42
564.32	1113.53
564.67	1110.89
565.02	1104.76
565.37	1104.33
565.73	1103.16
566.08	1100.54
566.43	1103.31
566.78	1103.73
567.14	1100.82
567.49	1100.40
567.84	1101.34
568.19	1101.22
568.54	1104.71
568.90	1106.18
569.25	1104.87
569.60	1104.08
569.95	1104.50
570.31	1101.90
570.66	1100.50
571.01	1100.33
571.36	1101.88
571.71	1100.00
572.06	1098.90
572.42	1098.79
572.77	1101.71
573.12	1101.62
573.47	1100.22
573.82	1100.64
574.18	1102.95
574.53	1098.95
574.88	1095.21
575.23	1093.01
575.58	1093.50
575.93	1092.16
576.28	1094.62
576.64	1094.29
576.99	1096.07
577.34	1096.00
577.69	1092.30
578.04	1093.08
578.39	1096.35
578.74	1095.56
579.09	1095.77
579.44	1096.85
579.80	1094.50
580.15	1095.02
580.50	1097.97
580.85	1095.53
581.20	1095.93
581.55	1095.60
581.90	1091.37
582.25	1086.48
582.60	1087.34
582.95	1088.00
583.30	1086.57
583.65	1089.29
584.00	1091.95
584.35	1093.71
584.71	1093.97
585.06	1095.56
585.41	1097.80
585.76	1098.11
586.11	1093.45
586.46	1090.06
586.81	1087.60
587.16	1085.38
587.51	1088.14
587.86	1086.17
588.21	1087.69
588.56	1090.27
588.91	1090.92
589.26	1086.71
589.61	1091.65
589.96	1096.33
590.31	1097.50
590.66	1095.86
591.01	1096.49
591.36	1097.10
591.71	1093.73
592.06	1090.55
592.41	1088.68
592.76	1088.82
593.10	1088.19
593.45	1086.34
593.80	1087.67
594.15	1089.71
594.50	1087.09
594.85	1083.95
595.20	1085.91
595.55	1084.00
595.90	1081.37
596.25	1085.82
596.60	1086.20
596.95	1085.75
597.30	1088.16
597.64	1101.99
597.99	1103.05
598.34	1104.31
598.69	1105.86
599.04	1104.24
599.39	1094.53
599.74	1089.43
600.09	1090.50
600.44	1091.18
600.78	1093.59
601.13	1091.79
601.48	1091.79
601.83	1090.20
602.18	1088.14
602.53	1087.60
602.88	1086.52
603.22	1088.58
603.57	1086.80
603.92	1084.89
604.27	1081.35
604.62	1080.32
604.97	1077.07
605.31	1081.05
605.66	1080.65
606.01	1081.96
606.36	1082.80
606.71	1085.40
607.05	1084.42
607.40	1086.10
607.75	1089.26
608.10	1090.10
608.44	1090.78
608.79	1091.93
609.14	1094.20
609.49	1090.53
609.84	1090.83
610.18	1092.49
610.53	1094.48
610.88	1091.58
611.23	1094.36
611.57	1092.73
611.92	1093.55
612.27	1092.33
612.62	1094.57
612.96	1092.59
613.31	1092.68
613.66	1091.16
614.00	1088.65
614.35	1085.31
614.70	1084.14
615.05	1088.30
615.39	1087.30
615.74	1085.96
616.09	1084.79
616.43	1087.44
616.78	1081.61
617.13	1081.61
617.47	1083.48
617.82	1088.91
618.17	1087.02
618.51	1087.67
618.86	1084.14
619.21	1083.62
619.55	1079.31
619.90	1081.70
620.25	1083.06
620.59	1083.41
620.94	1081.02
621.29	1082.73
621.63	1080.95
621.98	1080.72
622.32	1082.43
622.67	1083.95
623.02	1083.90
623.36	1085.94
623.71	1086.85
624.05	1088.19
624.40	1088.21
624.75	1088.56
625.09	1086.08
625.44	1084.53
625.78	1084.67
626.13	1085.17
626.48	1085.68
626.82	1083.01
627.17	1082.92
627.51	1080.53
627.86	1081.47
628.20	1080.53
628.55	1084.00
628.89	1083.04
629.24	1084.04
629.58	1081.54
629.93	1082.73
630.28	1079.99
630.62	1084.02
630.97	1087.39
631.31	1090.69
631.66	1089.75
632.00	1090.43
632.35	1087.67
632.69	1082.92
633.04	1083.53
633.38	1082.69
633.73	1085.05
634.07	1085.54
634.42	1088.61
634.76	1086.76
635.11	1088.21
635.45	1085.61
635.79	1084.44
636.14	1085.59
636.48	1083.83
636.83	1083.15
637.17	1084.51
637.52	1085.73
637.86	1081.21
638.21	1080.48
638.55	1079.08
638.89	1080.86
639.24	1080.93
639.58	1081.40
639.93	1081.26
640.27	1079.15
640.61	1078.38
640.96	1077.79
641.30	1081.19
641.65	1084.16
641.99	1086.62
642.33	1085.45
642.68	1084.02
643.02	1083.93
643.37	1082.17
643.71	1082.85
644.05	1081.12
644.40	1082.17
644.74	1080.95
645.08	1082.15
645.43	1083.08
645.77	1083.18
646.11	1082.45
646.46	1085.14
646.80	1083.27
647.14	1081.28
647.49	1083.64
647.83	1087.25
648.17	1081.40
648.52	1081.63
648.86	1082.22
649.20	1081.47
649.55	1081.91
649.89	1085.91
650.23	1087.39
650.57	1086.80
650.92	1084.11
651.26	1079.38
651.60	1079.48
651.95	1079.24
652.29	1080.48
652.63	1083.74
652.97	1087.02
653.32	1083.60
653.66	1081.82
654.00	1083.18
654.34	1084.65
654.69	1083.48
655.03	1084.04
655.37	1087.83
655.71	1084.28
656.05	1080.79
656.40	1078.50
656.74	1078.54
657.08	1076.32
657.42	1080.88
657.76	1079.55
658.11	1082.78
658.45	1083.04
658.79	1084.21
659.13	1084.49
659.47	1087.23
659.82	1086.76
660.16	1088.56
660.50	1086.41
660.84	1084.28
661.18	1084.07
661.52	1082.85
661.87	1078.45
662.21	1076.53
662.55	1074.07
662.89	1073.58
663.23	1075.62
663.57	1078.40
663.91	1082.61
664.25	1084.32
664.60	1087.25
664.94	1084.39
665.28	1085.68
665.62	1084.98
665.96	1083.34
666.30	1082.17
666.64	1085.33
666.98	1082.92
667.32	1080.60
667.66	1081.68
668.01	1082.57
668.35	1082.36
668.69	1085.21
669.03	1086.73
669.37	1087.06
669.71	1083.95
670.05	1084.65
670.39	1082.80
670.73	1085.26
671.07	1083.79
671.41	1083.88
671.75	1080.81
672.09	1081.05
672.43	1081.89
672.77	1085.00
673.11	1084.96
673.45	1086.55
673.79	1085.70
674.13	1082.01
674.47	1080.18
674.81	1078.17
675.15	1077.82
675.49	1081.07
675.83	1081.35
676.17	1079.97
676.51	1080.30
676.85	1078.00
677.19	1077.30
677.53	1073.91
677.87	1073.74
678.21	1080.53
678.55	1082.99
678.89	1080.77
679.23	1083.86
679.57	1084.70
679.90	1080.86
680.24	1081.44
680.58	1082.26
680.92	1082.24
681.26	1084.02
681.60	1084.63
681.94	1085.38
682.28	1082.47
682.62	1081.58
682.96	1082.73
683.29	1083.43
683.63	1078.92
683.97	1082.43
684.31	1084.02
684.65	1082.24
684.99	1082.52
685.33	1084.60
685.67	1085.03
686.00	1084.16
686.34	1083.13
686.68	1079.55
687.02	1083.34
687.36	1082.85
687.70	1085.80
688.03	1087.79
688.37	1090.36
688.71	1085.45
689.05	1087.04
689.39	1084.63
689.72	1083.18
690.06	1080.53
690.40	1085.05
690.74	1081.77
691.08	1083.76
691.41	1085.75
691.75	1085.84
692.09	1081.49
692.43	1083.64
692.76	1081.21
693.10	1080.37
693.44	1081.26
693.78	1082.03
694.11	1081.94
694.45	1084.72
694.79	1083.64
695.13	1086.73
695.46	1085.33
695.80	1083.62
696.14	1077.40
696.48	1078.99
696.81	1077.21
697.15	1078.59
697.49	1079.64
697.82	1085.00
698.16	1084.21
698.50	1084.18
698.83	1078.89
699.17	1077.56
699.51	1075.99
699.84	1074.96
700.18	1073.88
700.52	1079.81
700.85	1079.17
701.19	1080.20
701.53	1082.19
701.86	1082.12
702.20	1080.67
702.54	1082.87
702.87	1083.62
703.21	1080.34
703.55	1077.58
703.88	1078.28
704.22	1077.96
704.55	1076.51
704.89	1078.59
705.23	1081.98
705.56	1082.64
705.90	1082.15
706.23	1082.57
706.57	1080.63
706.91	1081.19
707.24	1079.34
707.58	1076.95
707.91	1078.43
708.25	1079.78
708.58	1081.33
708.92	1084.18
709.26	1086.34
709.59	1085.54
709.93	1086.13
710.26	1084.30
710.60	1082.33
710.93	1082.33
711.27	1076.18
711.60	1075.64
711.94	1077.47
712.27	1078.28
712.61	1079.15
712.94	1084.07
713.28	1083.39
713.61	1083.53
713.95	1082.12
714.28	1082.01
714.62	1083.41
714.95	1085.24
715.29	1084.58
715.62	1084.39
715.96	1084.11
716.29	1080.86
716.63	1080.79
716.96	1081.05
717.29	1081.14
717.63	1083.08
717.96	1082.90
718.30	1080.58
718.63	1079.13
718.97	1080.06
719.30	1080.09
719.63	1081.73
719.97	1081.54
720.30	1082.08
720.64	1082.10
720.97	1077.37
721.30	1074.77
721.64	1074.07
721.97	1073.14
722.31	1077.58
722.64	1081.40
722.97	1082.61
723.31	1083.74
723.64	1084.25
723.97	1081.00
724.31	1084.21
724.64	1086.55
724.98	1088.37
725.31	1088.98
725.64	1086.78
725.98	1082.64
726.31	1081.35
726.64	1081.33
726.97	1078.07
727.31	1078.94
727.64	1079.41
727.97	1081.16
728.31	1081.94
728.64	1081.05
728.97	1081.61
729.31	1083.08
729.64	1082.22
729.97	1080.23
730.30	1081.28
730.64	1082.76
730.97	1077.98
731.30	1076.18
731.63	1075.34
731.97	1078.12
732.30	1076.51
732.63	1078.33
732.96	1080.27
733.30	1078.75
733.63	1078.28
733.96	1079.85
734.29	1077.21
734.63	1078.38
734.96	1079.34
735.29	1076.74
735.62	1074.10
735.95	1077.09
736.29	1077.72
736.62	1078.03
736.95	1079.92
737.28	1081.66
737.61	1085.07
737.94	1082.90
738.28	1082.85
738.61	1083.69
738.94	1084.16
739.27	1079.95
739.60	1081.80
739.93	1079.06
740.27	1076.34
740.60	1074.89
740.93	1076.90
741.26	1073.07
741.59	1078.28
741.92	1080.46
742.25	1080.27
742.58	1079.83
742.91	1080.56
743.25	1079.36
743.58	1080.16
743.91	1082.73
744.24	1081.19
744.57	1082.43
744.90	1082.87
745.23	1080.86
745.56	1079.36
745.89	1079.83
746.22	1080.91
746.55	1078.03
746.88	1083.74
747.21	1084.63
747.54	1085.26
747.87	1084.30
748.20	1089.07
748.53	1086.29
748.87	1083.90
749.20	1084.39
749.53	1083.57
749.86	1081.75
750.19	1080.37
750.52	1083.71
750.85	1085.31
751.18	1085.87
751.51	1083.79
751.84	1081.87
752.16	1079.29
752.49	1077.35
752.82	1077.04
753.15	1082.83
753.48	1080.98
753.81	1081.75
754.14	1080.63
754.47	1081.77
754.80	1078.89
755.13	1079.95
755.46	1081.49
755.79	1081.33
756.12	1079.10
756.45	1075.10
756.78	1076.01
757.11	1073.37
757.43	1076.44
757.76	1077.04
758.09	1078.33
758.42	1080.04
758.75	1082.54
759.08	1080.09
759.41	1080.65
759.74	1079.34
760.07	1079.43
760.39	1078.10
760.72	1080.06
761.05	1077.63
761.38	1081.05
761.71	1081.40
762.04	1081.40
762.36	1080.41
762.69	1080.70
763.02	1081.16
763.35	1082.12
763.68	1082.19
764.01	1079.71
764.33	1083.46
764.66	1082.03
764.99	1080.58
765.32	1078.21
765.65	1081.40
765.97	1080.70
766.30	1080.98
766.63	1079.88
766.96	1082.80
767.28	1078.96
767.61	1076.86
767.94	1078.45
768.27	1077.65
768.59	1077.16
768.92	1077.93
769.25	1077.61
769.58	1074.80
769.90	1073.04
770.23	1074.03
770.56	1075.50
770.89	1075.99
771.21	1074.87
771.54	1077.18
771.87	1074.03
772.19	1074.84
772.52	1075.92
772.85	1075.27
773.17	1077.70
773.50	1078.38
773.83	1077.02
774.15	1072.67
774.48	1075.50
774.81	1072.92
775.13	1075.08
775.46	1076.11
775.79	1081.33
776.11	1081.68
776.44	1082.52
776.77	1082.05
777.09	1080.74
777.42	1081.63
777.74	1079.88
778.07	1080.88
778.40	1076.79
778.72	1077.44
779.05	1075.20
779.37	1075.10
779.70	1073.86
780.03	1074.24
780.35	1076.95
780.68	1077.96
781.00	1079.57
781.33	1077.72
781.65	1082.69
781.98	1081.35
782.31	1082.38
782.63	1078.59
782.96	1079.57
783.28	1075.36
783.61	1072.11
783.93	1068.01
784.26	1071.99
784.58	1071.87
784.91	1074.17
785.23	1077.25
785.56	1079.46
785.88	1080.72
786.21	1079.10
786.53	1077.86
786.86	1077.72
787.18	1078.21
787.51	1073.42
787.83	1076.20
788.16	1078.36
788.48	1075.90
788.81	1074.31
789.13	1077.65
789.46	1078.17
789.78	1078.47
790.10	1079.15
790.43	1078.59
790.75	1078.19
791.08	1074.24
791.40	1072.83
791.73	1071.08
792.05	1071.94
792.37	1071.33
792.70	1075.64
793.02	1075.64
793.35	1076.11
793.67	1076.18
793.99	1077.47
794.32	1073.77
794.64	1072.64
794.96	1073.74
795.29	1075.20
795.61	1075.24
795.93	1079.38
796.26	1080.16
796.58	1080.44
796.91	1079.08
797.23	1078.12
797.55	1076.04
797.87	1074.73
798.20	1073.79
798.52	1075.41
798.84	1075.41
799.17	1075.41
799.49	1081.40
799.81	1084.02
800.14	1081.37
800.46	1079.78
800.78	1081.94
801.10	1077.00
801.43	1075.45
801.75	1076.46
802.07	1077.40
802.40	1074.68
802.72	1074.61
803.04	1074.42
803.36	1077.23
803.69	1079.38
804.01	1084.44
804.33	1083.55
804.65	1085.89
804.97	1086.66
805.30	1084.16
805.62	1084.00
805.94	1083.81
806.26	1082.40
806.58	1080.11
806.91	1082.83
807.23	1078.31
807.55	1081.70
807.87	1080.53
808.19	1079.55
808.52	1076.79
808.84	1075.69
809.16	1072.92
809.48	1075.17
809.80	1076.48
810.12	1078.78
810.44	1077.89
810.77	1078.26
811.09	1076.32
811.41	1078.12
811.73	1078.96
812.05	1081.21
812.37	1081.84
812.69	1081.07
813.01	1078.52
813.33	1075.10
813.66	1072.29
813.98	1070.40
814.30	1073.09
814.62	1072.69
814.94	1076.04
815.26	1078.73
815.58	1081.09
815.90	1080.98
816.22	1081.87
816.54	1081.40
816.86	1083.86
817.18	1084.72
817.50	1086.06
817.82	1084.37
818.14	1082.57
818.46	1080.65
818.78	1080.30
819.10	1075.97
819.42	1076.65
819.74	1077.49
820.06	1078.57
820.38	1078.64
820.70	1082.78
821.02	1081.54
821.34	1079.41
821.66	1077.00
821.98	1076.01
822.30	1072.53
822.62	1073.70
822.94	1073.88
823.26	1075.76
823.58	1074.10
823.90	1072.13
824.22	1071.99
824.54	1069.55
824.86	1069.34
825.18	1071.64
825.50	1074.84
825.81	1077.28
826.13	1080.34
826.45	1081.14
826.77	1080.27
827.09	1080.95
827.41	1080.63
827.73	1078.94
828.05	1074.59
828.36	1075.52
828.68	1072.48
829.00	1071.36
829.32	1073.39
829.64	1079.78
829.96	1080.13
830.28	1081.70
830.59	1081.23
830.91	1081.16
831.23	1077.35
831.55	1077.28
831.87	1077.54
832.19	1076.93
832.50	1074.47
832.82	1074.40
833.14	1072.88
833.46	1074.28
833.78	1071.87
834.09	1073.46
834.41	1075.08
834.73	1074.24
835.05	1072.71
835.36	1078.89
835.68	1081.16
836.00	1079.27
836.32	1080.44
836.63	1078.82
836.95	1075.01
837.27	1076.34
837.59	1077.91
837.90	1077.72
838.22	1079.10
838.54	1078.40
838.85	1076.27
839.17	1074.80
839.49	1076.04
839.80	1078.92
840.12	1080.86
840.44	1080.74
840.76	1083.74
841.07	1083.53
841.39	1083.39
841.71	1082.38
842.02	1081.98
842.34	1080.58
842.65	1079.36
842.97	1078.50
843.29	1080.56
843.60	1078.78
843.92	1078.85
844.24	1077.56
844.55	1079.36
844.87	1077.58
845.18	1079.76
845.50	1079.31
845.82	1080.34
846.13	1077.07
846.45	1074.66
846.76	1075.99
847.08	1076.44
847.40	1076.20
847.71	1080.53
848.03	1081.68
848.34	1080.74
848.66	1080.32
848.97	1079.13
849.29	1073.39
849.60	1075.24
849.92	1073.28
850.24	1072.20
850.55	1072.76
850.87	1074.63
851.18	1072.39
851.50	1072.27
851.81	1074.26
852.13	1076.55
852.44	1075.71
852.76	1074.98
853.07	1075.85
853.39	1072.90
853.70	1074.26
854.01	1074.91
854.33	1080.37
854.64	1082.40
854.96	1082.10
855.27	1077.37
855.59	1076.15
855.90	1072.62
856.22	1073.60
856.53	1073.86
856.84	1077.25
857.16	1077.96
857.47	1080.72
857.79	1078.54
858.10	1078.92
858.41	1077.25
858.73	1077.35
859.04	1073.56
859.36	1072.76
859.67	1072.64
859.98	1072.81
860.30	1072.92
860.61	1076.67
860.92	1078.71
861.24	1080.79
861.55	1080.53
861.87	1079.55
862.18	1075.45
862.49	1076.46
862.81	1077.75
863.12	1077.40
863.43	1078.00
863.74	1081.14
864.06	1079.22
864.37	1080.51
864.68	1079.76
865.00	1082.15
865.31	1078.87
865.62	1079.15
865.94	1075.66
866.25	1078.38
866.56	1078.61
866.87	1079.46
867.19	1080.13
867.50	1080.46
867.81	1079.50
868.12	1072.64
868.44	1073.51
868.75	1072.83
869.06	1074.42
869.37	1074.63
869.68	1081.42
870.00	1082.40
870.31	1078.61
870.62	1076.81
870.93	1078.36
871.24	1077.51
871.56	1079.10
871.87	1082.73
872.18	1080.86
872.49	1078.75
872.80	1079.48
873.12	1075.05
873.43	1071.85
873.74	1072.76
874.05	1075.83
874.36	1075.76
874.67	1077.82
874.98	1079.38
875.29	1081.40
875.61	1081.26
875.92	1078.43
876.23	1078.00
876.54	1081.09
876.85	1079.50
877.16	1074.10
877.47	1074.87
877.78	1072.43
878.09	1070.49
878.40	1070.14
878.72	1071.61
879.03	1072.85
879.34	1077.09
879.65	1078.19
879.96	1077.49
880.27	1079.57
880.58	1076.97
880.89	1075.43
881.20	1075.83
881.51	1079.81
881.82	1078.24
882.13	1080.18
882.44	1079.38
882.75	1077.56
883.06	1077.86
883.37	1078.68
883.68	1075.99
883.99	1077.14
884.30	1075.87
884.61	1076.25
884.92	1076.30
885.23	1080.70
885.54	1080.23
885.85	1081.49
886.16	1077.16
886.47	1076.95
886.78	1073.58
887.08	1076.90
887.39	1079.50
887.70	1080.39
888.01	1079.62
888.32	1085.17
888.63	1083.29
888.94	1080.13
889.25	1079.74
889.56	1081.40
889.87	1077.09
890.17	1076.76
890.48	1075.83
890.79	1076.32
891.10	1075.55
891.41	1075.48
891.72	1075.76
892.03	1074.26
892.34	1076.93
892.64	1076.15
892.95	1079.43
893.26	1077.51
893.57	1079.76
893.88	1074.80
894.18	1074.45
894.49	1073.04
894.80	1075.64
895.11	1078.00
895.42	1081.61
895.72	1083.01
896.03	1082.38
896.34	1077.61
896.65	1077.30
896.96	1074.45
897.26	1077.37
897.57	1076.48
897.88	1081.16
898.19	1079.90
898.49	1080.81
898.80	1078.38
899.11	1079.15
899.41	1079.62
899.72	1078.89
900.03	1079.78
900.34	1077.58
900.64	1079.24
900.95	1077.56
901.26	1081.89
901.56	1082.38
901.87	1082.90
902.18	1081.16
902.48	1083.18
902.79	1080.48
903.10	1076.44
903.40	1078.71
903.71	1078.33
904.02	1074.68
904.32	1076.48
904.63	1080.56
904.94	1076.13
905.24	1075.90
905.55	1079.24
905.85	1078.92
906.16	1078.96
906.47	1079.81
906.77	1077.58
907.08	1076.30
907.38	1077.18
907.69	1076.04
908.00	1076.62
908.30	1079.31
908.61	1078.19
908.91	1074.54
909.22	1074.66
909.52	1074.47
909.83	1073.86
910.14	1074.75
910.44	1078.14
910.75	1079.36
911.05	1082.64
911.36	1081.21
911.66	1081.09
911.97	1076.83
912.27	1078.85
912.58	1077.61
912.88	1078.19
913.19	1076.30
913.49	1075.43
913.80	1074.33
914.10	1073.86
914.41	1073.25
914.71	1075.80
915.01	1080.39
915.32	1081.28
915.62	1084.18
915.93	1082.85
916.23	1079.06
916.54	1077.21
916.84	1075.64
917.15	1073.28
917.45	1071.68
917.75	1075.13
918.06	1074.00
918.36	1073.23
918.67	1070.84
918.97	1073.70
919.27	1073.98
919.58	1073.51
919.88	1072.27
920.18	1075.71
920.49	1078.71
920.79	1078.33
921.10	1079.38
921.40	1080.34
921.70	1080.13
922.01	1079.20
922.31	1076.46
922.61	1076.74
922.92	1079.83
923.22	1079.31
923.52	1078.21
923.82	1077.47
924.13	1074.21
924.43	1072.11
924.73	1069.86
925.04	1067.64
925.34	1069.58
925.64	1071.01
925.94	1069.84
926.25	1073.04
926.55	1077.25
926.85	1077.70
927.15	1080.53
927.46	1080.63
927.76	1079.92
928.06	1078.64
928.36	1078.61
928.67	1078.03
928.97	1078.31
929.27	1076.88
929.57	1077.79
929.87	1079.03
930.18	1077.91
930.48	1081.82
930.78	1084.63
931.08	1083.60
931.38	1084.65
931.69	1085.77
931.99	1081.00
932.29	1079.08
932.59	1078.73
932.89	1074.33
933.19	1074.59
933.49	1075.80
933.80	1075.13
934.10	1073.42
934.40	1073.46
934.70	1074.54
935.00	1076.27
935.30	1076.15
935.60	1076.46
935.90	1076.51
936.20	1075.27
936.50	1074.38
936.81	1073.44
937.11	1076.93
937.41	1082.97
937.71	1083.60
938.01	1083.55
938.31	1085.38
938.61	1084.49
938.91	1082.78
939.21	1081.54
939.51	1079.57
939.81	1077.18
940.11	1076.86
940.41	1075.05
940.71	1075.64
941.01	1076.48
941.31	1077.54
941.61	1077.79
941.91	1078.00
942.21	1077.30
942.51	1076.44
942.81	1077.68
943.11	1075.66
943.41	1076.32
943.71	1074.31
944.01	1072.95
944.31	1076.37
944.61	1077.56
944.90	1078.43
945.20	1080.63
945.50	1084.00
945.80	1080.48
946.10	1081.58
946.40	1081.07
946.70	1081.44
947.00	1078.94
947.30	1076.11
947.60	1074.70
947.89	1071.97
948.19	1071.59
948.49	1073.49
948.79	1077.70
949.09	1078.05
949.39	1078.21
949.69	1077.56
949.98	1079.17
950.28	1078.52
950.58	1079.36
950.88	1082.19
951.18	1082.76
951.48	1080.72
951.77	1079.83
952.07	1080.63
952.37	1077.02
952.67	1076.51
952.97	1076.15
953.26	1075.76
953.56	1073.67
953.86	1074.52
954.16	1075.38
954.45	1076.76
954.75	1077.33
955.05	1080.72
955.35	1080.93
955.64	1080.09
955.94	1081.61
956.24	1082.10
956.54	1077.65
956.83	1079.15
957.13	1081.28
957.43	1080.34
957.72	1078.94
958.02	1081.21
958.32	1079.99
958.61	1079.64
958.91	1076.44
959.21	1079.55
959.50	1078.45
959.80	1080.34
960.10	1077.42
960.39	1076.20
960.69	1072.32
960.99	1073.18
961.28	1072.53
961.58	1073.28
961.87	1074.05
962.17	1075.41
962.47	1076.53
962.76	1076.46
963.06	1077.98
963.36	1077.79
963.65	1077.86
963.95	1075.99
964.24	1078.68
964.54	1074.56
964.83	1075.05
965.13	1076.41
965.42	1076.95
965.72	1072.74
966.02	1071.59
966.31	1070.19
966.61	1069.55
966.90	1069.84
967.20	1070.68
967.49	1075.62
967.79	1079.17
968.08	1077.42
968.38	1079.27
968.67	1080.06
968.97	1079.60
969.26	1080.27
969.56	1079.99
969.85	1078.75
970.15	1079.13
970.44	1078.99
970.74	1078.92
971.03	1078.40
971.32	1076.20
971.62	1075.45
971.91	1078.26
972.21	1077.61
972.50	1080.98
972.80	1081.84
973.09	1081.05
973.38	1076.44
973.68	1076.08
973.97	1074.42
974.27	1072.92
974.56	1073.88
974.85	1076.46
975.15	1077.51
975.44	1078.75
975.73	1082.69
976.03	1082.03
976.32	1081.91
976.61	1080.37
976.91	1079.01
977.20	1077.14
977.49	1077.89
977.79	1077.96
978.08	1080.44
978.37	1081.54
978.67	1078.61
978.96	1079.90
979.25	1078.40
979.55	1074.28
979.84	1075.01
980.13	1076.83
980.42	1075.92
980.72	1075.41
981.01	1075.57
981.30	1074.28
981.59	1073.11
981.89	1073.98
982.18	1072.48
982.47	1074.14
982.76	1072.11
983.06	1073.18
983.35	1070.98
983.64	1073.00
983.93	1072.46
984.22	1077.04
984.52	1076.48
984.81	1076.74
985.10	1076.76
985.39	1076.53
985.68	1073.84
985.97	1075.01
986.27	1075.59
986.56	1079.53
986.85	1083.46
987.14	1085.77
987.43	1084.67
987.72	1086.92
988.01	1084.93
988.31	1084.86
988.60	1080.65
988.89	1082.97
989.18	1079.36
989.47	1075.99
989.76	1071.78
990.05	1073.42
990.34	1074.80
990.63	1074.98
990.92	1077.58
991.21	1078.21
991.51	1079.53
991.80	1077.07
992.09	1076.81
992.38	1074.82
992.67	1076.41
992.96	1075.55
993.25	1076.06
993.54	1080.51
993.83	1082.29
994.12	1080.84
994.41	1081.80
994.70	1081.70
994.99	1079.88
995.28	1082.92
995.57	1084.21
995.86	1082.64
996.15	1081.96
996.44	1081.44
996.73	1077.00
997.02	1076.95
997.31	1077.91
997.59	1078.12
997.88	1075.71
998.17	1077.91
998.46	1077.86
998.75	1076.65
999.04	1074.94
999.33	1076.30
999.62	1079.17
999.91	1080.18
1000.20	1081.19
1000.49	1080.18
1000.77	1079.99
1001.06	1074.75
1001.35	1071.57
1001.64	1069.70
1001.93	1073.09
1002.22	1073.37
1002.51	1076.62
1002.79	1079.64
1003.08	1081.58
1003.37	1079.76
1003.66	1076.97
1003.95	1074.33
1004.23	1072.18
1004.52	1071.03
1004.81	1073.09
1005.10	1077.25
1005.39	1079.60
1005.67	1079.74
1005.96	1079.08
1006.25	1077.35
1006.54	1076.67
1006.83	1074.56
1007.11	1073.07
1007.40	1072.01
1007.69	1073.70
1007.97	1073.28
1008.26	1073.30
1008.55	1074.63
1008.84	1075.48
1009.12	1075.29
1009.41	1078.96
1009.70	1081.54
1009.98	1082.80
1010.27	1084.39
1010.56	1084.35
1010.85	1079.69
1011.13	1074.45
1011.42	1073.77
1011.71	1073.74
1011.99	1072.32
1012.28	1073.09
1012.56	1074.33
1012.85	1072.81
1013.14	1072.50
1013.42	1075.08
1013.71	1080.51
1014.00	1082.83
1014.28	1083.50
1014.57	1082.45
1014.85	1082.76
1015.14	1077.68
1015.43	1078.14
1015.71	1077.91
1016.00	1081.14
1016.28	1078.12
1016.57	1077.16
1016.85	1075.92
1017.14	1076.39
1017.43	1075.92
1017.71	1078.31
1018.00	1077.25
1018.28	1078.50
1018.57	1078.99
1018.85	1074.03
1019.14	1071.85
1019.42	1070.75
1019.71	1069.53
1019.99	1069.55
1020.28	1072.06
1020.56	1072.06
1020.85	1074.94
1021.13	1076.76
1021.42	1077.82
1021.70	1079.22
1021.99	1079.95
1022.27	1080.65
1022.55	1076.76
1022.84	1082.26
>>>>>End Processed Spectral Data<<<<<
