SpectraSuite Data File
++++++++++++++++++++++++++++++++++++
Date: Mon Aug 26 10:21:52 PDT 2019
User: corrico
Dark Spectrum Present: No
Reference Spectrum Present: No
Number of Sampled Component Spectra: 1
Spectrometers: USB2+H06089
Integration Time (usec): 2000 (USB2+H06089)
Spectra Averaged: 20 (USB2+H06089)
Boxcar Smoothing: 2 (USB2+H06089)
Correct for Electrical Dark: No (USB2+H06089)
Strobe/Lamp Enabled: No (USB2+H06089)
Correct for Detector Non-linearity: No (USB2+H06089)
Correct for Stray Light: No (USB2+H06089)
Number of Pixels in Processed Spectrum: 2048
>>>>>Begin Processed Spectral Data<<<<<
339.70	1041.54
340.07	1041.54
340.45	998.96
340.82	974.06
341.19	947.12
341.57	918.33
341.94	906.77
342.31	900.92
342.69	893.66
343.06	888.98
343.43	889.08
343.81	890.76
344.18	892.35
344.55	900.85
344.93	907.03
345.30	910.42
345.67	917.75
346.04	925.92
346.42	934.06
346.79	942.60
347.16	954.56
347.54	962.48
347.91	969.73
348.28	976.03
348.65	985.34
349.03	989.77
349.40	996.30
349.77	1006.57
350.14	1015.02
350.52	1020.75
350.89	1031.97
351.26	1039.62
351.63	1044.39
352.01	1047.62
352.38	1055.65
352.75	1057.52
353.12	1063.70
353.50	1063.16
353.87	1068.88
354.24	1067.10
354.61	1067.92
354.98	1066.91
355.36	1070.70
355.73	1070.72
356.10	1073.95
356.47	1074.96
356.84	1076.37
357.22	1077.70
357.59	1077.40
357.96	1076.41
358.33	1077.84
358.70	1077.40
359.08	1076.95
359.45	1073.30
359.82	1074.84
360.19	1072.08
360.56	1072.13
360.94	1072.48
361.31	1073.95
361.68	1070.49
362.05	1073.00
362.42	1070.19
362.79	1069.06
363.16	1069.93
363.54	1069.55
363.91	1064.55
364.28	1064.38
364.65	1064.97
365.02	1062.53
365.39	1062.25
365.76	1063.77
366.14	1065.29
366.51	1064.26
366.88	1066.30
367.25	1065.86
367.62	1066.04
367.99	1065.29
368.36	1064.34
368.73	1060.80
369.10	1064.24
369.48	1066.58
369.85	1066.35
370.22	1067.24
370.59	1070.42
370.96	1066.54
371.33	1063.35
371.70	1062.65
372.07	1062.63
372.44	1061.71
372.81	1059.91
373.18	1062.06
373.55	1065.69
373.93	1063.28
374.30	1061.57
374.67	1067.92
375.04	1065.53
375.41	1062.95
375.78	1063.16
376.15	1065.72
376.52	1063.70
376.89	1066.61
377.26	1070.63
377.63	1071.52
378.00	1069.55
378.37	1067.47
378.74	1063.84
379.11	1057.64
379.48	1059.19
379.85	1061.41
380.22	1062.77
380.59	1065.60
380.96	1069.02
381.33	1067.10
381.70	1068.08
382.07	1069.51
382.44	1070.02
382.81	1068.50
383.18	1068.85
383.55	1067.57
383.92	1068.03
384.29	1065.58
384.66	1063.28
385.03	1063.07
385.40	1061.20
385.77	1062.21
386.14	1066.51
386.51	1070.42
386.88	1069.23
387.25	1071.80
387.62	1067.59
387.99	1065.76
388.36	1064.29
388.73	1067.00
389.10	1068.59
389.46	1070.30
389.83	1069.62
390.20	1070.26
390.57	1071.82
390.94	1070.94
391.31	1069.18
391.68	1069.98
392.05	1070.63
392.42	1069.79
392.79	1069.02
393.16	1072.88
393.53	1072.13
393.89	1073.07
394.26	1075.13
394.63	1074.77
395.00	1072.71
395.37	1074.03
395.74	1070.02
396.11	1065.41
396.48	1063.96
396.84	1062.91
397.21	1062.18
397.58	1064.24
397.95	1065.51
398.32	1067.21
398.69	1069.34
399.06	1068.55
399.42	1069.98
399.79	1072.55
400.16	1073.67
400.53	1073.98
400.90	1075.01
401.27	1074.21
401.64	1072.04
402.00	1069.74
402.37	1068.31
402.74	1072.27
403.11	1072.18
403.48	1073.58
403.84	1073.98
404.21	1075.92
404.58	1071.43
404.95	1071.97
405.32	1072.81
405.68	1073.02
406.05	1068.03
406.42	1068.38
406.79	1069.53
407.16	1064.80
407.52	1064.76
407.89	1066.86
408.26	1068.24
408.63	1067.61
408.99	1072.18
409.36	1074.03
409.73	1077.82
410.10	1074.91
410.47	1075.08
410.83	1075.01
411.20	1072.85
411.57	1068.59
411.94	1067.28
412.30	1069.09
412.67	1067.68
413.04	1068.64
413.40	1070.54
413.77	1075.15
414.14	1075.20
414.51	1077.91
414.87	1080.79
415.24	1081.47
415.61	1080.63
415.97	1078.57
416.34	1078.94
416.71	1076.86
417.08	1076.76
417.44	1076.83
417.81	1075.97
418.18	1073.49
418.54	1072.50
418.91	1074.54
419.28	1073.72
419.64	1076.37
420.01	1075.48
420.38	1076.39
420.74	1078.14
421.11	1081.33
421.48	1080.18
421.84	1080.88
422.21	1082.71
422.58	1078.50
422.94	1076.51
423.31	1080.72
423.68	1080.39
424.04	1082.08
424.41	1086.27
424.77	1087.76
425.14	1084.11
425.51	1084.60
425.87	1084.16
426.24	1082.22
426.61	1084.67
426.97	1087.88
427.34	1090.48
427.70	1087.02
428.07	1090.67
428.44	1088.35
428.80	1085.59
429.17	1086.94
429.53	1088.12
429.90	1087.30
430.27	1091.46
430.63	1092.45
431.00	1094.43
431.36	1098.65
431.73	1100.45
432.09	1101.92
432.46	1106.49
432.83	1107.85
433.19	1109.91
433.56	1113.74
433.92	1115.80
434.29	1121.33
434.65	1127.18
435.02	1130.50
435.38	1130.92
435.75	1135.35
436.11	1137.90
436.48	1140.15
436.84	1143.30
437.21	1147.82
437.57	1149.30
437.94	1153.88
438.30	1161.54
438.67	1167.25
439.03	1177.85
439.40	1186.98
439.76	1194.63
440.13	1202.78
440.49	1213.31
440.86	1219.21
441.22	1229.67
441.59	1232.03
441.95	1237.21
442.32	1246.03
442.68	1255.86
443.05	1266.11
443.41	1286.01
443.78	1298.34
444.14	1311.07
444.51	1323.27
444.87	1339.09
445.24	1351.82
445.60	1368.63
445.96	1388.62
446.33	1408.04
446.69	1431.64
447.06	1455.13
447.42	1478.24
447.79	1498.34
448.15	1530.78
448.51	1550.32
448.88	1576.96
449.24	1606.54
449.61	1641.25
449.97	1667.56
450.33	1707.33
450.70	1743.77
451.06	1781.59
451.43	1819.84
451.79	1870.32
452.15	1911.38
452.52	1958.79
452.88	2008.44
453.24	2061.24
453.61	2114.91
453.97	2173.77
454.34	2231.58
454.70	2301.26
455.06	2371.13
455.43	2436.29
455.79	2494.89
456.15	2568.34
456.52	2637.25
456.88	2715.72
457.24	2801.15
457.61	2908.93
457.97	3004.90
458.33	3092.18
458.70	3184.77
459.06	3268.02
459.42	3356.05
459.79	3439.30
460.15	3543.24
460.51	3634.55
460.88	3734.37
461.24	3820.71
461.60	3924.96
461.96	4016.43
462.33	4114.69
462.69	4205.97
463.05	4308.60
463.42	4393.44
463.78	4476.34
464.14	4545.93
464.50	4630.94
464.87	4688.14
465.23	4729.90
465.59	4776.92
465.95	4813.12
466.32	4833.25
466.68	4863.19
467.04	4895.46
467.40	4910.54
467.77	4927.53
468.13	4916.20
468.49	4906.70
468.85	4903.59
469.22	4901.74
469.58	4882.45
469.94	4878.36
470.30	4852.59
470.66	4811.72
471.03	4751.19
471.39	4720.42
471.75	4663.47
472.11	4613.99
472.47	4566.50
472.84	4517.68
473.20	4439.67
473.56	4387.17
473.92	4320.30
474.28	4260.36
474.65	4212.19
475.01	4175.35
475.37	4120.35
475.73	4070.80
476.09	4015.47
476.45	3956.00
476.81	3890.86
477.18	3840.82
477.54	3796.63
477.90	3761.47
478.26	3718.34
478.62	3679.70
478.98	3639.91
479.34	3600.40
479.71	3549.31
480.07	3508.72
480.43	3475.27
480.79	3443.44
481.15	3403.16
481.51	3366.86
481.87	3335.24
482.23	3295.66
482.59	3260.69
482.96	3227.72
483.32	3203.44
483.68	3166.35
484.04	3133.51
484.40	3100.37
484.76	3073.71
485.12	3035.02
485.48	3003.07
485.84	2974.82
486.20	2937.84
486.56	2892.74
486.92	2857.75
487.28	2824.61
487.64	2783.74
488.00	2741.84
488.37	2708.23
488.73	2667.30
489.09	2621.75
489.45	2582.22
489.81	2542.99
490.17	2500.91
490.53	2461.00
490.89	2424.56
491.25	2384.75
491.61	2348.38
491.97	2314.70
492.33	2284.08
492.69	2250.31
493.05	2214.83
493.41	2182.43
493.77	2149.67
494.13	2118.35
494.49	2089.26
494.85	2060.94
495.21	2035.24
495.57	2006.56
495.93	1978.17
496.29	1955.89
496.64	1933.70
497.00	1906.13
497.36	1885.54
497.72	1860.19
498.08	1833.69
498.44	1811.22
498.80	1792.34
499.16	1769.40
499.52	1750.32
499.88	1733.73
500.24	1715.96
500.60	1697.31
500.96	1682.12
501.32	1665.69
501.68	1648.32
502.03	1631.52
502.39	1614.92
502.75	1596.71
503.11	1582.65
503.47	1564.48
503.83	1550.98
504.19	1537.73
504.55	1529.38
504.91	1518.45
505.26	1506.63
505.62	1494.69
505.98	1482.89
506.34	1470.98
506.70	1455.04
507.06	1443.34
507.42	1431.59
507.78	1419.68
508.13	1404.58
508.49	1394.77
508.85	1384.80
509.21	1374.83
509.57	1365.07
509.93	1356.55
510.28	1346.14
510.64	1338.11
511.00	1328.56
511.36	1317.75
511.72	1309.83
512.07	1299.68
512.43	1290.10
512.79	1281.33
513.15	1273.65
513.51	1264.26
513.86	1259.47
514.22	1256.82
514.58	1250.24
514.94	1247.29
515.30	1243.85
515.65	1241.72
516.01	1237.72
516.37	1232.06
516.73	1224.66
517.08	1220.40
517.44	1212.91
517.80	1204.58
518.16	1199.69
518.51	1194.59
518.87	1190.75
519.23	1188.22
519.59	1188.92
519.94	1184.66
520.30	1182.32
520.66	1178.93
521.01	1176.05
521.37	1171.70
521.73	1175.25
522.09	1172.82
522.44	1171.25
522.80	1168.18
523.16	1166.08
523.51	1160.72
523.87	1158.73
524.23	1156.39
524.58	1154.89
524.94	1150.61
525.30	1146.65
525.65	1145.08
526.01	1139.00
526.37	1138.06
526.72	1139.07
527.08	1136.77
527.44	1137.41
527.79	1137.92
528.15	1136.70
528.51	1130.39
528.86	1130.57
529.22	1124.39
529.58	1120.95
529.93	1119.29
530.29	1117.72
530.65	1116.55
531.00	1116.30
531.36	1114.61
531.71	1113.04
532.07	1114.31
532.43	1112.67
532.78	1111.15
533.14	1114.40
533.49	1110.96
533.85	1111.68
534.21	1109.34
534.56	1112.27
534.92	1105.74
535.27	1104.26
535.63	1099.61
535.98	1099.21
536.34	1096.78
536.69	1099.44
537.05	1097.73
537.41	1097.69
537.76	1097.71
538.12	1095.98
538.47	1096.54
538.83	1095.86
539.18	1093.15
539.54	1095.28
539.89	1096.17
540.25	1093.76
540.60	1095.77
540.96	1100.75
541.31	1096.26
541.67	1094.13
542.02	1096.66
542.38	1099.58
542.73	1098.41
543.09	1100.66
543.44	1102.16
543.80	1097.88
544.15	1092.45
544.51	1091.25
544.86	1089.87
545.22	1090.32
545.57	1087.95
545.93	1091.56
546.28	1093.62
546.64	1094.65
546.99	1092.45
547.35	1097.55
547.70	1098.11
548.05	1093.40
548.41	1093.03
548.76	1092.49
549.12	1090.90
549.47	1086.97
549.83	1086.64
550.18	1085.82
550.53	1085.89
550.89	1085.33
551.24	1084.67
551.60	1083.90
551.95	1083.67
552.30	1082.36
552.66	1083.60
553.01	1081.96
553.37	1084.81
553.72	1084.44
554.07	1083.71
554.43	1083.76
554.78	1086.50
555.13	1086.85
555.49	1085.14
555.84	1086.22
556.19	1083.39
556.55	1082.15
556.90	1080.06
557.26	1080.34
557.61	1080.02
557.96	1081.19
558.32	1081.54
558.67	1078.94
559.02	1077.70
559.37	1074.52
559.73	1072.50
560.08	1073.70
560.43	1077.16
560.79	1077.61
561.14	1079.88
561.49	1080.30
561.85	1078.87
562.20	1078.80
562.55	1080.37
562.90	1081.09
563.26	1082.15
563.61	1081.70
563.96	1080.56
564.32	1079.83
564.67	1077.07
565.02	1077.25
565.37	1081.23
565.73	1084.51
566.08	1084.70
566.43	1089.10
566.78	1089.29
567.14	1085.21
567.49	1081.89
567.84	1082.47
568.19	1079.97
568.54	1080.56
568.90	1079.74
569.25	1078.68
569.60	1079.81
569.95	1080.13
570.31	1075.80
570.66	1078.31
571.01	1080.25
571.36	1075.41
571.71	1076.27
572.06	1078.59
572.42	1078.05
572.77	1076.55
573.12	1079.43
573.47	1077.49
573.82	1079.27
574.18	1078.64
574.53	1078.85
574.88	1078.85
575.23	1078.33
575.58	1078.59
575.93	1078.85
576.28	1080.67
576.64	1079.53
576.99	1081.23
577.34	1080.72
577.69	1081.87
578.04	1078.54
578.39	1079.85
578.74	1080.18
579.09	1079.95
579.44	1079.38
579.80	1079.20
580.15	1079.50
580.50	1081.14
580.85	1080.70
581.20	1079.81
581.55	1082.43
581.90	1081.58
582.25	1080.41
582.60	1077.23
582.95	1075.48
583.30	1077.86
583.65	1076.44
584.00	1076.04
584.35	1079.36
584.71	1082.19
585.06	1079.41
585.41	1080.11
585.76	1076.79
586.11	1075.22
586.46	1073.74
586.81	1073.49
587.16	1072.04
587.51	1074.91
587.86	1078.38
588.21	1077.33
588.56	1078.26
588.91	1080.95
589.26	1082.59
589.61	1081.51
589.96	1084.42
590.31	1081.19
590.66	1078.59
591.01	1077.72
591.36	1073.74
591.71	1070.35
592.06	1069.88
592.41	1072.27
592.76	1073.07
593.10	1076.58
593.45	1079.41
593.80	1078.45
594.15	1078.92
594.50	1075.34
594.85	1074.63
595.20	1074.84
595.55	1077.93
595.90	1078.78
596.25	1079.95
596.60	1082.61
596.95	1078.61
597.30	1078.50
597.64	1090.29
597.99	1091.30
598.34	1088.86
598.69	1091.32
599.04	1092.47
599.39	1075.94
599.74	1075.24
600.09	1074.42
600.44	1071.94
600.78	1071.29
601.13	1075.55
601.48	1076.41
601.83	1078.52
602.18	1082.90
602.53	1080.95
602.88	1080.60
603.22	1076.62
603.57	1074.05
603.92	1069.58
604.27	1071.26
604.62	1069.20
604.97	1069.30
605.31	1069.11
605.66	1072.90
606.01	1071.31
606.36	1075.97
606.71	1077.49
607.05	1078.43
607.40	1078.03
607.75	1080.11
608.10	1075.85
608.44	1079.31
608.79	1075.64
609.14	1076.23
609.49	1077.30
609.84	1076.04
610.18	1073.81
610.53	1078.12
610.88	1079.43
611.23	1077.40
611.57	1080.13
611.92	1078.82
612.27	1079.69
612.62	1078.00
612.96	1079.48
613.31	1079.41
613.66	1079.34
614.00	1075.73
614.35	1073.09
614.70	1072.55
615.05	1071.97
615.39	1073.60
615.74	1077.82
616.09	1076.53
616.43	1073.79
616.78	1071.22
617.13	1069.77
617.47	1066.72
617.82	1067.96
618.17	1066.56
618.51	1069.18
618.86	1072.69
619.21	1071.78
619.55	1074.87
619.90	1082.12
620.25	1081.54
620.59	1077.40
620.94	1081.21
621.29	1080.41
621.63	1077.70
621.98	1078.57
622.32	1080.72
622.67	1078.92
623.02	1081.21
623.36	1082.24
623.71	1078.57
624.05	1076.08
624.40	1076.41
624.75	1074.40
625.09	1074.73
625.44	1078.07
625.78	1082.78
626.13	1079.38
626.48	1077.98
626.82	1075.48
627.17	1073.60
627.51	1069.81
627.86	1072.48
628.20	1072.67
628.55	1073.70
628.89	1072.64
629.24	1073.21
629.58	1072.69
629.93	1071.99
630.28	1071.10
630.62	1072.67
630.97	1074.66
631.31	1074.35
631.66	1075.05
632.00	1074.80
632.35	1075.73
632.69	1074.56
633.04	1072.55
633.38	1075.41
633.73	1074.91
634.07	1074.40
634.42	1076.27
634.76	1079.71
635.11	1074.84
635.45	1077.00
635.79	1077.25
636.14	1075.41
636.48	1072.97
636.83	1072.20
637.17	1069.34
637.52	1071.71
637.86	1070.02
638.21	1070.35
638.55	1071.80
638.89	1075.55
639.24	1072.64
639.58	1073.18
639.93	1075.73
640.27	1075.20
640.61	1074.52
640.96	1074.49
641.30	1078.52
641.65	1077.14
641.99	1078.40
642.33	1077.09
642.68	1078.96
643.02	1081.94
643.37	1080.79
643.71	1079.88
644.05	1077.96
644.40	1077.54
644.74	1072.50
645.08	1074.66
645.43	1078.99
645.77	1080.27
646.11	1081.35
646.46	1081.80
646.80	1083.43
647.14	1081.56
647.49	1081.96
647.83	1077.56
648.17	1074.73
648.52	1069.84
648.86	1065.55
649.20	1063.98
649.55	1068.31
649.89	1071.05
650.23	1072.22
650.57	1074.56
650.92	1076.95
651.26	1076.46
651.60	1078.59
651.95	1080.18
652.29	1083.55
652.63	1082.33
652.97	1080.70
653.32	1078.12
653.66	1079.64
654.00	1075.80
654.34	1076.34
654.69	1074.77
655.03	1077.16
655.37	1075.22
655.71	1075.78
656.05	1077.93
656.40	1082.03
656.74	1079.34
657.08	1079.99
657.42	1081.75
657.76	1077.91
658.11	1075.38
658.45	1078.17
658.79	1077.58
659.13	1078.75
659.47	1082.43
659.82	1082.26
660.16	1078.80
660.50	1077.14
660.84	1077.93
661.18	1077.93
661.52	1078.28
661.87	1077.91
662.21	1078.00
662.55	1074.17
662.89	1073.37
663.23	1072.78
663.57	1074.40
663.91	1076.60
664.25	1081.66
664.60	1078.54
664.94	1079.22
665.28	1078.07
665.62	1077.49
665.96	1073.30
666.30	1075.69
666.64	1076.86
666.98	1077.77
667.32	1077.61
667.66	1081.66
668.01	1080.88
668.35	1079.78
668.69	1080.32
669.03	1078.36
669.37	1074.35
669.71	1072.76
670.05	1072.43
670.39	1072.34
670.73	1075.17
671.07	1076.27
671.41	1081.77
671.75	1081.68
672.09	1081.94
672.43	1081.96
672.77	1079.99
673.11	1076.44
673.45	1075.55
673.79	1073.51
674.13	1071.52
674.47	1072.74
674.81	1070.77
675.15	1071.61
675.49	1072.25
675.83	1074.35
676.17	1077.21
676.51	1081.14
676.85	1080.56
677.19	1082.22
677.53	1085.33
677.87	1083.46
678.21	1083.20
678.55	1085.07
678.89	1084.30
679.23	1077.98
679.57	1076.88
679.90	1071.19
680.24	1072.41
680.58	1070.23
680.92	1072.62
681.26	1071.29
681.60	1072.46
681.94	1070.87
682.28	1073.39
682.62	1075.24
682.96	1076.67
683.29	1076.79
683.63	1075.99
683.97	1075.69
684.31	1072.55
684.65	1073.91
684.99	1078.89
685.33	1079.55
685.67	1078.87
686.00	1077.54
686.34	1076.01
686.68	1074.75
687.02	1076.46
687.36	1076.23
687.70	1075.71
688.03	1071.40
688.37	1071.36
688.71	1065.90
689.05	1068.10
689.39	1072.67
689.72	1074.68
690.06	1072.20
690.40	1074.54
690.74	1073.02
691.08	1071.82
691.41	1074.84
691.75	1075.55
692.09	1076.74
692.43	1073.84
692.76	1072.95
693.10	1070.84
693.44	1070.44
693.78	1071.29
694.11	1076.62
694.45	1075.50
694.79	1075.50
695.13	1076.62
695.46	1079.43
695.80	1075.78
696.14	1077.56
696.48	1077.30
696.81	1078.00
697.15	1074.07
697.49	1074.42
697.82	1072.55
698.16	1073.09
698.50	1069.11
698.83	1068.62
699.17	1069.91
699.51	1073.91
699.84	1076.39
700.18	1081.42
700.52	1082.29
700.85	1079.92
701.19	1076.41
701.53	1074.47
701.86	1071.17
702.20	1071.52
702.54	1072.13
702.87	1074.47
703.21	1076.79
703.55	1083.93
703.88	1082.78
704.22	1083.74
704.55	1081.73
704.89	1079.50
705.23	1072.41
705.56	1075.52
705.90	1073.84
706.23	1075.85
706.57	1077.40
706.91	1075.94
707.24	1074.68
707.58	1076.04
707.91	1074.19
708.25	1072.55
708.58	1075.80
708.92	1074.59
709.26	1072.60
709.59	1071.45
709.93	1070.87
710.26	1069.88
710.60	1072.34
710.93	1073.93
711.27	1076.72
711.60	1077.89
711.94	1079.90
712.27	1075.59
712.61	1075.87
712.94	1073.95
713.28	1074.77
713.61	1071.71
713.95	1075.45
714.28	1074.75
714.62	1078.10
714.95	1076.13
715.29	1074.00
715.62	1070.14
715.96	1070.80
716.29	1067.61
716.63	1066.63
716.96	1068.17
717.29	1072.57
717.63	1074.10
717.96	1073.00
718.30	1074.07
718.63	1074.61
718.97	1076.01
719.30	1071.75
719.63	1071.97
719.97	1075.50
720.30	1077.37
720.64	1071.73
720.97	1074.70
721.30	1075.41
721.64	1070.33
721.97	1066.82
722.31	1065.72
722.64	1066.61
722.97	1069.62
723.31	1072.46
723.64	1073.86
723.97	1077.96
724.31	1077.47
724.64	1072.32
724.98	1071.40
725.31	1072.88
725.64	1073.77
725.98	1074.24
726.31	1079.60
726.64	1079.43
726.97	1078.92
727.31	1077.84
727.64	1076.04
727.97	1075.94
728.31	1077.98
728.64	1078.33
728.97	1078.61
729.31	1080.11
729.64	1077.40
729.97	1074.61
730.30	1073.04
730.64	1070.07
730.97	1069.25
731.30	1070.63
731.63	1073.32
731.97	1075.29
732.30	1078.26
732.63	1082.08
732.96	1080.84
733.30	1079.15
733.63	1079.46
733.96	1079.01
734.29	1076.25
734.63	1076.25
734.96	1076.15
735.29	1076.81
735.62	1077.21
735.95	1073.35
736.29	1075.80
736.62	1076.88
736.95	1078.66
737.28	1075.99
737.61	1079.01
737.94	1077.77
738.28	1076.60
738.61	1073.53
738.94	1073.74
739.27	1075.69
739.60	1074.94
739.93	1076.86
740.27	1079.50
740.60	1078.78
740.93	1075.83
741.26	1074.98
741.59	1072.74
741.92	1071.99
742.25	1074.17
742.58	1076.86
742.91	1078.03
743.25	1078.96
743.58	1077.49
743.91	1078.21
744.24	1076.97
744.57	1075.22
744.90	1077.07
745.23	1075.94
745.56	1074.87
745.89	1073.60
746.22	1074.05
746.55	1069.74
746.88	1071.50
747.21	1068.83
747.54	1069.06
747.87	1068.95
748.20	1071.99
748.53	1075.85
748.87	1079.31
749.20	1080.41
749.53	1082.12
749.86	1081.26
750.19	1076.72
750.52	1073.84
750.85	1072.32
751.18	1071.47
751.51	1072.22
751.84	1072.74
752.16	1074.45
752.49	1075.99
752.82	1076.23
753.15	1076.74
753.48	1076.23
753.81	1075.90
754.14	1074.47
754.47	1073.86
754.80	1073.04
755.13	1074.21
755.46	1076.34
755.79	1077.23
756.12	1077.42
756.45	1078.92
756.78	1078.36
757.11	1076.97
757.43	1074.00
757.76	1075.85
758.09	1075.94
758.42	1075.80
758.75	1076.41
759.08	1082.87
759.41	1078.21
759.74	1074.24
760.07	1074.73
760.39	1072.67
760.72	1069.79
761.05	1073.04
761.38	1075.73
761.71	1075.01
762.04	1077.89
762.36	1076.41
762.69	1077.30
763.02	1076.11
763.35	1069.74
763.68	1067.05
764.01	1068.20
764.33	1066.18
764.66	1067.05
764.99	1071.24
765.32	1071.15
765.65	1072.81
765.97	1071.97
766.30	1071.26
766.63	1070.09
766.96	1072.04
767.28	1069.41
767.61	1069.86
767.94	1069.95
768.27	1072.90
768.59	1072.32
768.92	1073.04
769.25	1074.80
769.58	1074.73
769.90	1074.56
770.23	1076.15
770.56	1076.44
770.89	1075.92
771.21	1074.40
771.54	1072.36
771.87	1071.12
772.19	1072.41
772.52	1071.47
772.85	1072.78
773.17	1078.26
773.50	1079.76
773.83	1080.27
774.15	1083.43
774.48	1081.63
774.81	1077.56
775.13	1074.80
775.46	1072.95
775.79	1071.08
776.11	1071.31
776.44	1071.59
776.77	1069.84
777.09	1068.29
777.42	1067.49
777.74	1070.89
778.07	1071.52
778.40	1072.92
778.72	1073.00
779.05	1075.41
779.37	1075.62
779.70	1075.97
780.03	1079.83
780.35	1079.62
780.68	1077.35
781.00	1075.08
781.33	1073.95
781.65	1071.71
781.98	1072.50
782.31	1072.88
782.63	1072.25
782.96	1073.00
783.28	1075.45
783.61	1077.18
783.93	1078.05
784.26	1080.06
784.58	1080.16
784.91	1077.40
785.23	1073.84
785.56	1073.77
785.88	1071.45
786.21	1070.98
786.53	1072.25
786.86	1074.52
787.18	1069.98
787.51	1072.76
787.83	1071.38
788.16	1071.26
788.48	1071.90
788.81	1076.32
789.13	1076.37
789.46	1075.15
789.78	1073.70
790.10	1075.31
790.43	1073.70
790.75	1070.33
791.08	1074.28
791.40	1076.90
791.73	1075.38
792.05	1075.08
792.37	1078.59
792.70	1075.59
793.02	1075.87
793.35	1075.45
793.67	1072.34
793.99	1071.97
794.32	1073.18
794.64	1068.71
794.96	1066.51
795.29	1070.33
795.61	1069.20
795.93	1068.43
796.26	1070.54
796.58	1070.75
796.91	1072.08
797.23	1070.94
797.55	1072.15
797.87	1073.51
798.20	1075.59
798.52	1073.23
798.84	1072.92
799.17	1073.35
799.49	1074.96
799.81	1074.00
800.14	1076.32
800.46	1079.53
800.78	1081.40
801.10	1078.12
801.43	1076.95
801.75	1077.25
802.07	1074.96
802.40	1070.82
802.72	1072.78
803.04	1072.83
803.36	1072.85
803.69	1075.13
804.01	1076.25
804.33	1070.96
804.65	1073.63
804.97	1075.66
805.30	1073.49
805.62	1077.86
805.94	1080.51
806.26	1079.24
806.58	1074.10
806.91	1076.67
807.23	1072.27
807.55	1074.80
807.87	1073.93
808.19	1074.00
808.52	1072.06
808.84	1071.26
809.16	1070.56
809.48	1073.53
809.80	1073.18
810.12	1074.68
810.44	1076.81
810.77	1075.59
811.09	1075.03
811.41	1075.97
811.73	1072.46
812.05	1071.05
812.37	1071.05
812.69	1069.81
813.01	1072.48
813.33	1076.08
813.66	1078.14
813.98	1077.00
814.30	1075.45
814.62	1074.73
814.94	1072.92
815.26	1072.74
815.58	1073.21
815.90	1074.35
816.22	1071.36
816.54	1068.95
816.86	1069.30
817.18	1070.72
817.50	1069.58
817.82	1070.40
818.14	1074.73
818.46	1076.04
818.78	1074.35
819.10	1076.83
819.42	1079.03
819.74	1081.09
820.06	1078.64
820.38	1081.73
820.70	1082.64
821.02	1083.46
821.34	1079.60
821.66	1080.37
821.98	1075.48
822.30	1072.97
822.62	1068.83
822.94	1068.36
823.26	1066.32
823.58	1069.13
823.90	1069.60
824.22	1069.84
824.54	1069.30
824.86	1070.87
825.18	1072.20
825.50	1071.10
825.81	1074.17
826.13	1074.21
826.45	1073.58
826.77	1071.97
827.09	1074.87
827.41	1073.70
827.73	1077.47
828.05	1078.05
828.36	1080.86
828.68	1076.58
829.00	1075.45
829.32	1073.39
829.64	1074.28
829.96	1074.26
830.28	1082.12
830.59	1083.53
830.91	1082.59
831.23	1076.30
831.55	1075.90
831.87	1070.89
832.19	1072.62
832.50	1073.53
832.82	1077.84
833.14	1079.60
833.46	1078.82
833.78	1076.81
834.09	1074.70
834.41	1075.01
834.73	1071.73
835.05	1071.47
835.36	1072.92
835.68	1073.46
836.00	1072.67
836.32	1072.43
836.63	1072.01
836.95	1071.59
837.27	1072.88
837.59	1074.75
837.90	1072.64
838.22	1073.86
838.54	1073.25
838.85	1075.87
839.17	1072.57
839.49	1075.08
839.80	1077.37
840.12	1078.26
840.44	1072.85
840.76	1074.75
841.07	1072.92
841.39	1069.88
841.71	1069.11
842.02	1070.47
842.34	1074.42
842.65	1078.45
842.97	1079.20
843.29	1078.50
843.60	1084.84
843.92	1081.33
844.24	1077.35
844.55	1079.83
844.87	1080.13
845.18	1073.44
845.50	1073.39
845.82	1077.98
846.13	1077.07
846.45	1078.45
846.76	1081.44
847.08	1085.80
847.40	1080.93
847.71	1078.61
848.03	1076.32
848.34	1075.94
848.66	1071.92
848.97	1072.78
849.29	1075.41
849.60	1075.50
849.92	1071.31
850.24	1071.03
850.55	1073.35
850.87	1069.86
851.18	1073.49
851.50	1076.46
851.81	1078.85
852.13	1077.16
852.44	1077.75
852.76	1076.95
853.07	1078.28
853.39	1077.79
853.70	1078.94
854.01	1079.69
854.33	1076.90
854.64	1077.58
854.96	1075.43
855.27	1073.00
855.59	1072.41
855.90	1073.23
856.22	1072.27
856.53	1072.81
856.84	1073.72
857.16	1076.06
857.47	1078.47
857.79	1077.75
858.10	1077.98
858.41	1079.13
858.73	1080.41
859.04	1081.80
859.36	1081.89
859.67	1080.81
859.98	1079.95
860.30	1074.54
860.61	1073.35
860.92	1076.30
861.24	1077.00
861.55	1077.84
861.87	1079.64
862.18	1075.10
862.49	1072.01
862.81	1073.32
863.12	1072.85
863.43	1073.35
863.74	1078.75
864.06	1078.03
864.37	1079.71
864.68	1082.90
865.00	1083.93
865.31	1079.62
865.62	1077.75
865.94	1074.70
866.25	1072.41
866.56	1072.25
866.87	1071.82
867.19	1071.59
867.50	1067.42
867.81	1066.00
868.12	1064.76
868.44	1064.22
868.75	1065.34
869.06	1070.68
869.37	1068.69
869.68	1070.14
870.00	1069.98
870.31	1072.57
870.62	1071.66
870.93	1072.50
871.24	1071.57
871.56	1076.95
871.87	1074.87
872.18	1077.96
872.49	1079.24
872.80	1076.62
873.12	1070.35
873.43	1068.69
873.74	1068.52
874.05	1069.53
874.36	1074.42
874.67	1078.10
874.98	1080.51
875.29	1078.66
875.61	1078.73
875.92	1076.76
876.23	1075.57
876.54	1075.03
876.85	1073.28
877.16	1073.14
877.47	1072.76
877.78	1072.18
878.09	1073.16
878.40	1074.28
878.72	1072.43
879.03	1072.71
879.34	1074.70
879.65	1074.63
879.96	1073.93
880.27	1075.05
880.58	1078.00
880.89	1080.16
881.20	1080.58
881.51	1081.56
881.82	1083.11
882.13	1079.38
882.44	1074.24
882.75	1074.73
883.06	1075.41
883.37	1074.96
883.68	1073.49
883.99	1078.21
884.30	1076.18
884.61	1074.73
884.92	1071.36
885.23	1075.97
885.54	1073.60
885.85	1074.07
886.16	1075.66
886.47	1076.41
886.78	1074.94
887.08	1074.28
887.39	1073.98
887.70	1071.80
888.01	1073.86
888.32	1075.13
888.63	1076.90
888.94	1076.79
889.25	1076.11
889.56	1075.45
889.87	1073.58
890.17	1072.13
890.48	1072.55
890.79	1075.34
891.10	1075.66
891.41	1075.48
891.72	1077.75
892.03	1078.59
892.34	1073.79
892.64	1075.27
892.95	1077.23
893.26	1071.36
893.57	1072.08
893.88	1072.46
894.18	1071.75
894.49	1071.85
894.80	1072.62
895.11	1070.05
895.42	1072.95
895.72	1071.50
896.03	1071.50
896.34	1074.89
896.65	1075.83
896.96	1079.27
897.26	1080.53
897.57	1079.74
897.88	1077.51
898.19	1079.38
898.49	1074.68
898.80	1076.95
899.11	1078.00
899.41	1081.56
899.72	1081.75
900.03	1083.20
900.34	1080.51
900.64	1077.79
900.95	1077.82
901.26	1076.65
901.56	1078.47
901.87	1079.22
902.18	1076.55
902.48	1075.97
902.79	1076.06
903.10	1072.81
903.40	1072.01
903.71	1075.08
904.02	1074.35
904.32	1074.26
904.63	1075.03
904.94	1076.51
905.24	1077.79
905.55	1077.56
905.85	1077.00
906.16	1076.01
906.47	1071.78
906.77	1069.37
907.08	1070.21
907.38	1070.84
907.69	1071.12
908.00	1075.17
908.30	1075.66
908.61	1076.18
908.91	1077.96
909.22	1080.98
909.52	1080.95
909.83	1081.35
910.14	1079.57
910.44	1079.46
910.75	1078.78
911.05	1078.75
911.36	1076.53
911.66	1077.91
911.97	1077.00
912.27	1076.62
912.58	1075.59
912.88	1075.85
913.19	1073.53
913.49	1070.75
913.80	1071.59
914.10	1072.81
914.41	1072.81
914.71	1075.24
915.01	1075.17
915.32	1070.72
915.62	1066.00
915.93	1065.79
916.23	1066.18
916.54	1068.62
916.84	1071.10
917.15	1075.66
917.45	1078.38
917.75	1077.33
918.06	1076.48
918.36	1077.61
918.67	1073.67
918.97	1073.21
919.27	1071.36
919.58	1074.00
919.88	1073.04
920.18	1079.60
920.49	1078.12
920.79	1078.47
921.10	1076.72
921.40	1071.99
921.70	1067.80
922.01	1071.33
922.31	1072.08
922.61	1071.17
922.92	1075.64
923.22	1076.27
923.52	1075.99
923.82	1077.30
924.13	1077.37
924.43	1077.91
924.73	1077.75
925.04	1074.33
925.34	1071.52
925.64	1073.65
925.94	1073.65
926.25	1074.66
926.55	1074.89
926.85	1078.66
927.15	1077.75
927.46	1077.33
927.76	1074.33
928.06	1073.44
928.36	1069.09
928.67	1068.64
928.97	1070.80
929.27	1069.93
929.57	1073.02
929.87	1074.35
930.18	1074.12
930.48	1074.10
930.78	1077.35
931.08	1076.79
931.38	1076.79
931.69	1075.59
931.99	1074.00
932.29	1071.99
932.59	1072.81
932.89	1075.05
933.19	1076.67
933.49	1077.63
933.80	1080.27
934.10	1081.00
934.40	1080.32
934.70	1080.46
935.00	1082.33
935.30	1082.15
935.60	1082.17
935.90	1080.98
936.20	1080.23
936.50	1078.87
936.81	1078.38
937.11	1074.14
937.41	1074.91
937.71	1076.58
938.01	1076.65
938.31	1077.72
938.61	1077.68
938.91	1078.12
939.21	1076.06
939.51	1071.12
939.81	1072.92
940.11	1075.55
940.41	1076.39
940.71	1077.56
941.01	1079.01
941.31	1075.20
941.61	1080.88
941.91	1076.95
942.21	1077.23
942.51	1079.36
942.81	1080.48
943.11	1073.02
943.41	1074.98
943.71	1073.07
944.01	1074.28
944.31	1074.84
944.61	1077.56
944.90	1079.90
945.20	1083.34
945.50	1082.10
945.80	1082.36
946.10	1081.02
946.40	1079.08
946.70	1076.27
947.00	1078.24
947.30	1075.52
947.60	1075.34
947.89	1075.29
948.19	1074.10
948.49	1072.48
948.79	1071.10
949.09	1070.42
949.39	1071.57
949.69	1072.50
949.98	1073.39
950.28	1077.40
950.58	1077.79
950.88	1077.04
951.18	1075.66
951.48	1073.77
951.77	1071.15
952.07	1070.61
952.37	1068.81
952.67	1071.45
952.97	1073.86
953.26	1075.24
953.56	1078.59
953.86	1081.70
954.16	1079.99
954.45	1079.43
954.75	1078.64
955.05	1076.04
955.35	1073.77
955.64	1073.32
955.94	1070.77
956.24	1070.77
956.54	1073.00
956.83	1075.57
957.13	1075.41
957.43	1075.76
957.72	1076.25
958.02	1076.93
958.32	1074.61
958.61	1073.67
958.91	1074.35
959.21	1072.32
959.50	1068.55
959.80	1068.59
960.10	1071.03
960.39	1071.01
960.69	1072.01
960.99	1072.04
961.28	1072.15
961.58	1072.36
961.87	1072.01
962.17	1071.08
962.47	1073.18
962.76	1072.97
963.06	1073.18
963.36	1074.40
963.65	1075.83
963.95	1074.49
964.24	1075.55
964.54	1074.56
964.83	1074.73
965.13	1074.26
965.42	1079.01
965.72	1076.69
966.02	1076.79
966.31	1076.25
966.61	1078.66
966.90	1075.45
967.20	1076.48
967.49	1075.64
967.79	1077.11
968.08	1076.60
968.38	1077.63
968.67	1076.60
968.97	1079.36
969.26	1075.01
969.56	1075.20
969.85	1072.92
970.15	1075.50
970.44	1072.81
970.74	1078.21
971.03	1075.66
971.32	1076.88
971.62	1076.25
971.91	1074.26
972.21	1070.65
972.50	1072.18
972.80	1069.53
973.09	1070.28
973.38	1072.55
973.68	1071.52
973.97	1073.88
974.27	1074.98
974.56	1073.30
974.85	1074.94
975.15	1077.91
975.44	1073.72
975.73	1074.03
976.03	1073.72
976.32	1073.84
976.61	1071.68
976.91	1072.25
977.20	1069.30
977.49	1070.26
977.79	1066.91
978.08	1067.78
978.37	1067.49
978.67	1068.67
978.96	1067.64
979.25	1066.72
979.55	1065.44
979.84	1066.70
980.13	1064.97
980.42	1066.49
980.72	1070.05
981.01	1071.01
981.30	1075.41
981.59	1078.52
981.89	1077.58
982.18	1077.28
982.47	1078.64
982.76	1073.32
983.06	1075.71
983.35	1077.35
983.64	1076.65
983.93	1076.34
984.22	1078.12
984.52	1076.55
984.81	1076.11
985.10	1077.40
985.39	1073.93
985.68	1072.15
985.97	1075.50
986.27	1072.13
986.56	1069.27
986.85	1072.76
987.14	1075.22
987.43	1072.85
987.72	1075.73
988.01	1077.79
988.31	1076.58
988.60	1077.68
988.89	1075.24
989.18	1075.22
989.47	1075.97
989.76	1072.27
990.05	1068.13
990.34	1069.39
990.63	1068.08
990.92	1067.59
991.21	1071.03
991.51	1072.20
991.80	1070.56
992.09	1072.01
992.38	1072.18
992.67	1072.53
992.96	1072.62
993.25	1074.89
993.54	1071.68
993.83	1071.66
994.12	1073.65
994.41	1075.97
994.70	1074.00
994.99	1077.63
995.28	1075.38
995.57	1073.09
995.86	1069.67
996.15	1072.18
996.44	1074.87
996.73	1076.32
997.02	1075.97
997.31	1078.36
997.59	1076.44
997.88	1071.59
998.17	1071.43
998.46	1073.56
998.75	1073.63
999.04	1075.62
999.33	1079.53
999.62	1081.09
999.91	1080.18
1000.20	1077.68
1000.49	1073.81
1000.77	1072.46
1001.06	1069.51
1001.35	1068.92
1001.64	1069.41
1001.93	1073.70
1002.22	1072.34
1002.51	1073.30
1002.79	1072.62
1003.08	1072.60
1003.37	1071.05
1003.66	1071.17
1003.95	1069.77
1004.23	1070.44
1004.52	1073.65
1004.81	1071.73
1005.10	1072.13
1005.39	1072.90
1005.67	1073.23
1005.96	1070.40
1006.25	1073.56
1006.54	1072.50
1006.83	1072.06
1007.11	1074.31
1007.40	1071.82
1007.69	1070.49
1007.97	1071.08
1008.26	1072.50
1008.55	1067.35
1008.84	1071.24
1009.12	1074.21
1009.41	1078.21
1009.70	1079.36
1009.98	1081.61
1010.27	1081.75
1010.56	1079.03
1010.85	1077.68
1011.13	1076.58
1011.42	1077.07
1011.71	1076.51
1011.99	1075.13
1012.28	1072.78
1012.56	1074.17
1012.85	1074.73
1013.14	1074.96
1013.42	1077.23
1013.71	1075.55
1014.00	1074.00
1014.28	1074.40
1014.57	1074.12
1014.85	1074.42
1015.14	1073.18
1015.43	1073.16
1015.71	1071.19
1016.00	1069.93
1016.28	1072.04
1016.57	1072.78
1016.85	1073.86
1017.14	1073.84
1017.43	1073.32
1017.71	1070.58
1018.00	1071.12
1018.28	1071.82
1018.57	1072.04
1018.85	1075.13
1019.14	1077.23
1019.42	1077.61
1019.71	1074.89
1019.99	1078.50
1020.28	1077.04
1020.56	1075.48
1020.85	1077.30
1021.13	1077.47
1021.42	1076.25
1021.70	1077.47
1021.99	1078.50
1022.27	1081.02
1022.55	1085.42
1022.84	1090.81
>>>>>End Processed Spectral Data<<<<<
