SpectraSuite Data File
++++++++++++++++++++++++++++++++++++
Date: Mon Aug 26 10:21:59 PDT 2019
User: corrico
Dark Spectrum Present: No
Reference Spectrum Present: No
Number of Sampled Component Spectra: 1
Spectrometers: USB2+H06089
Integration Time (usec): 2000 (USB2+H06089)
Spectra Averaged: 20 (USB2+H06089)
Boxcar Smoothing: 2 (USB2+H06089)
Correct for Electrical Dark: No (USB2+H06089)
Strobe/Lamp Enabled: No (USB2+H06089)
Correct for Detector Non-linearity: No (USB2+H06089)
Correct for Stray Light: No (USB2+H06089)
Number of Pixels in Processed Spectrum: 2048
>>>>>Begin Processed Spectral Data<<<<<
339.70	1019.65
340.07	1019.65
340.45	986.09
340.82	964.89
341.19	943.31
341.57	919.83
341.94	908.74
342.31	902.65
342.69	898.74
343.06	895.79
343.43	894.46
343.81	897.38
344.18	897.83
344.55	901.81
344.93	906.37
345.30	913.07
345.67	921.45
346.04	932.14
346.42	941.48
346.79	953.23
347.16	962.40
347.54	969.52
347.91	976.96
348.28	985.74
348.65	992.11
349.03	1000.13
349.40	1008.93
349.77	1014.58
350.14	1021.55
350.52	1027.03
350.89	1032.55
351.26	1035.85
351.63	1044.02
352.01	1046.92
352.38	1053.12
352.75	1055.91
353.12	1060.85
353.50	1062.02
353.87	1064.71
354.24	1065.60
354.61	1067.64
354.98	1069.74
355.36	1073.37
355.73	1074.42
356.10	1074.87
356.47	1076.18
356.84	1078.00
357.22	1077.30
357.59	1080.46
357.96	1081.96
358.33	1081.98
358.70	1079.69
359.08	1082.10
359.45	1078.45
359.82	1077.09
360.19	1077.25
360.56	1077.96
360.94	1074.61
361.31	1076.04
361.68	1074.63
362.05	1073.65
362.42	1071.54
362.79	1069.72
363.16	1067.99
363.54	1069.11
363.91	1067.68
364.28	1068.22
364.65	1069.30
365.02	1067.19
365.39	1064.78
365.76	1063.56
366.14	1059.65
366.51	1058.27
366.88	1060.71
367.25	1063.33
367.62	1067.28
367.99	1069.18
368.36	1070.19
368.73	1070.80
369.10	1069.27
369.48	1069.74
369.85	1073.25
370.22	1075.66
370.59	1075.66
370.96	1077.25
371.33	1078.59
371.70	1078.00
372.07	1074.75
372.44	1074.21
372.81	1074.70
373.18	1070.65
373.55	1069.02
373.93	1067.42
374.30	1063.66
374.67	1061.71
375.04	1062.79
375.41	1064.85
375.78	1065.27
376.15	1071.10
376.52	1068.69
376.89	1068.81
377.26	1066.93
377.63	1071.17
378.00	1069.98
378.37	1073.02
378.74	1075.73
379.11	1076.55
379.48	1076.46
379.85	1074.05
380.22	1074.14
380.59	1070.77
380.96	1072.78
381.33	1072.39
381.70	1074.10
382.07	1073.95
382.44	1075.99
382.81	1074.38
383.18	1073.88
383.55	1074.21
383.92	1075.80
384.29	1076.08
384.66	1073.70
385.03	1073.91
385.40	1075.10
385.77	1072.25
386.14	1070.02
386.51	1072.48
386.88	1075.10
387.25	1078.10
387.62	1077.09
387.99	1077.86
388.36	1076.34
388.73	1070.19
389.10	1069.37
389.46	1071.19
389.83	1069.39
390.20	1069.53
390.57	1076.90
390.94	1073.35
391.31	1074.42
391.68	1075.45
392.05	1077.18
392.42	1073.37
392.79	1072.46
393.16	1073.65
393.53	1073.91
393.89	1070.44
394.26	1070.96
394.63	1073.53
395.00	1071.59
395.37	1074.40
395.74	1076.90
396.11	1075.64
396.48	1073.84
396.84	1077.47
397.21	1079.43
397.58	1081.21
397.95	1082.43
398.32	1084.65
398.69	1078.99
399.06	1075.87
399.42	1074.87
399.79	1076.06
400.16	1075.36
400.53	1076.86
400.90	1079.67
401.27	1082.92
401.64	1084.16
402.00	1084.07
402.37	1087.74
402.74	1085.73
403.11	1083.39
403.48	1081.82
403.84	1080.93
404.21	1077.35
404.58	1075.20
404.95	1077.72
405.32	1078.14
405.68	1080.56
406.05	1082.69
406.42	1084.89
406.79	1081.68
407.16	1082.38
407.52	1083.81
407.89	1085.94
408.26	1085.40
408.63	1087.95
408.99	1087.32
409.36	1085.99
409.73	1081.70
410.10	1080.06
410.47	1078.45
410.83	1076.81
411.20	1077.21
411.57	1078.61
411.94	1083.25
412.30	1085.12
412.67	1086.38
413.04	1085.66
413.40	1088.00
413.77	1086.59
414.14	1083.36
414.51	1083.76
414.87	1086.20
415.24	1084.49
415.61	1085.28
415.97	1084.56
416.34	1086.48
416.71	1087.83
417.08	1087.62
417.44	1087.20
417.81	1088.33
418.18	1086.08
418.54	1081.89
418.91	1083.53
419.28	1083.04
419.64	1083.25
420.01	1084.18
420.38	1085.28
420.74	1088.12
421.11	1089.50
421.48	1092.12
421.84	1092.68
422.21	1093.59
422.58	1093.43
422.94	1095.44
423.31	1094.83
423.68	1094.72
424.04	1096.21
424.41	1097.80
424.77	1098.62
425.14	1105.22
425.51	1109.93
425.87	1112.74
426.24	1112.34
426.61	1112.74
426.97	1113.88
427.34	1114.26
427.70	1117.28
428.07	1120.72
428.44	1128.51
428.80	1130.06
429.17	1133.19
429.53	1139.68
429.90	1146.18
430.27	1151.08
430.63	1160.62
431.00	1169.17
431.36	1173.15
431.73	1179.56
432.09	1183.21
432.46	1188.83
432.83	1194.31
433.19	1201.00
433.56	1207.67
433.92	1219.77
434.29	1225.39
434.65	1241.51
435.02	1255.37
435.38	1271.57
435.75	1286.57
436.11	1306.21
436.48	1317.28
436.84	1333.68
437.21	1352.17
437.57	1365.07
437.94	1383.91
438.30	1406.52
438.67	1430.70
439.03	1454.36
439.40	1482.99
439.76	1513.74
440.13	1548.78
440.49	1584.82
440.86	1617.61
441.22	1657.40
441.59	1689.45
441.95	1728.20
442.32	1766.52
442.68	1813.94
443.05	1858.06
443.41	1911.33
443.78	1966.59
444.14	2021.15
444.51	2074.84
444.87	2142.06
445.24	2204.34
445.60	2272.19
445.96	2345.24
446.33	2434.67
446.69	2510.51
447.06	2602.16
447.42	2690.21
447.79	2782.57
448.15	2880.24
448.51	2986.10
448.88	3102.29
449.24	3221.61
449.61	3363.86
449.97	3503.83
450.33	3656.31
450.70	3795.95
451.06	3955.62
451.43	4093.48
451.79	4259.56
452.15	4440.98
452.52	4659.12
452.88	4873.56
453.24	5132.37
453.61	5404.72
453.97	5670.93
454.34	5931.32
454.70	6235.35
455.06	6507.84
455.43	6769.98
455.79	7024.86
456.15	7309.59
456.52	7571.12
456.88	7920.58
457.24	8303.85
457.61	8766.90
457.97	9230.39
458.33	9700.84
458.70	10141.73
459.06	10535.83
459.42	10929.72
459.79	11278.53
460.15	11674.80
460.51	12031.57
460.88	12414.76
461.24	12764.88
461.60	13161.53
461.96	13511.96
462.33	13894.01
462.69	14278.70
463.05	14695.29
463.42	15092.78
463.78	15463.71
464.14	15760.89
464.50	16094.62
464.87	16361.96
465.23	16559.50
465.59	16787.38
465.95	16982.62
466.32	17089.73
466.68	17199.10
467.04	17250.36
467.40	17236.99
467.77	17273.04
468.13	17264.24
468.49	17171.88
468.85	17095.51
469.22	17026.55
469.58	16886.40
469.94	16785.01
470.30	16638.75
470.66	16465.88
471.03	16234.07
471.39	16062.09
471.75	15736.10
472.11	15462.35
472.47	15248.73
472.84	15022.38
473.20	14713.08
473.56	14542.59
473.92	14279.96
474.28	13986.53
474.65	13721.62
475.01	13485.84
475.37	13182.11
475.73	12942.86
476.09	12703.91
476.45	12474.59
476.81	12266.30
477.18	12072.90
477.54	11916.88
477.90	11789.84
478.26	11631.36
478.62	11478.95
478.98	11358.10
479.34	11227.76
479.71	11041.90
480.07	10863.25
480.43	10674.72
480.79	10448.01
481.15	10237.55
481.51	10069.50
481.87	9945.78
482.23	9791.54
482.59	9658.88
482.96	9518.05
483.32	9373.00
483.68	9204.98
484.04	9063.40
484.40	8922.31
484.76	8770.29
485.12	8627.66
485.48	8496.07
485.84	8374.93
486.20	8232.27
486.56	8088.68
486.92	7944.39
487.28	7766.55
487.64	7571.31
488.00	7401.92
488.37	7242.55
488.73	7075.23
489.09	6930.61
489.45	6792.84
489.81	6639.02
490.17	6474.67
490.53	6301.47
490.89	6115.30
491.25	5936.96
491.61	5774.73
491.97	5630.95
492.33	5496.79
492.69	5379.72
493.05	5263.65
493.41	5150.23
493.77	5034.59
494.13	4919.17
494.49	4804.65
494.85	4684.35
495.21	4582.79
495.57	4472.67
495.93	4372.59
496.29	4267.03
496.64	4178.63
497.00	4072.34
497.36	3985.56
497.72	3904.62
498.08	3835.01
498.44	3761.78
498.80	3696.06
499.16	3612.38
499.52	3524.14
499.88	3425.47
500.24	3328.38
500.60	3237.87
500.96	3159.49
501.32	3098.33
501.68	3043.84
502.03	2988.79
502.39	2930.75
502.75	2870.95
503.11	2815.06
503.47	2766.58
503.83	2720.99
504.19	2687.22
504.55	2652.88
504.91	2610.05
505.26	2562.82
505.62	2512.85
505.98	2455.08
506.34	2402.21
506.70	2351.42
507.06	2303.41
507.42	2261.87
507.78	2222.69
508.13	2187.44
508.49	2152.22
508.85	2116.15
509.21	2079.85
509.57	2052.46
509.93	2023.77
510.28	1995.94
510.64	1967.76
511.00	1942.88
511.36	1913.88
511.72	1886.54
512.07	1861.22
512.43	1841.88
512.79	1813.54
513.15	1789.20
513.51	1761.35
513.86	1735.32
514.22	1716.17
514.58	1697.64
514.94	1673.60
515.30	1657.29
515.65	1640.50
516.01	1622.95
516.37	1608.49
516.73	1594.05
517.08	1582.55
517.44	1568.23
517.80	1545.83
518.16	1530.20
518.51	1514.75
518.87	1495.79
519.23	1483.76
519.59	1475.45
519.94	1460.31
520.30	1451.23
520.66	1438.98
521.01	1421.50
521.37	1412.33
521.73	1404.32
522.09	1392.53
522.44	1385.71
522.80	1377.50
523.16	1370.99
523.51	1364.95
523.87	1357.67
524.23	1349.83
524.58	1345.36
524.94	1329.26
525.30	1318.77
525.65	1310.44
526.01	1301.78
526.37	1294.36
526.72	1290.48
527.08	1283.41
527.44	1280.67
527.79	1276.27
528.15	1270.40
528.51	1266.11
528.86	1261.46
529.22	1253.24
529.58	1246.92
529.93	1240.39
530.29	1233.30
530.65	1230.35
531.00	1224.94
531.36	1222.79
531.71	1219.68
532.07	1216.17
532.43	1210.13
532.78	1206.12
533.14	1200.32
533.49	1196.53
533.85	1192.88
534.21	1190.14
534.56	1188.80
534.92	1186.98
535.27	1187.70
535.63	1186.58
535.98	1183.02
536.34	1177.52
536.69	1174.69
537.05	1167.13
537.41	1163.57
537.76	1160.91
538.12	1158.57
538.47	1154.49
538.83	1153.09
539.18	1149.25
539.54	1148.13
539.89	1149.25
540.25	1148.66
540.60	1146.44
540.96	1147.00
541.31	1144.48
541.67	1144.83
542.02	1144.64
542.38	1145.53
542.73	1144.59
543.09	1143.14
543.44	1137.87
543.80	1135.32
544.15	1135.18
544.51	1130.13
544.86	1128.54
545.22	1125.56
545.57	1127.34
545.93	1124.60
546.28	1126.15
546.64	1126.22
546.99	1126.57
547.35	1123.18
547.70	1121.28
548.05	1121.82
548.41	1120.11
548.76	1120.53
549.12	1120.86
549.47	1120.70
549.83	1117.07
550.18	1116.76
550.53	1113.98
550.89	1111.03
551.24	1112.88
551.60	1113.56
551.95	1111.24
552.30	1111.64
552.66	1111.59
553.01	1109.58
553.37	1108.62
553.72	1107.80
554.07	1103.28
554.43	1100.33
554.78	1097.38
555.13	1093.17
555.49	1093.64
555.84	1097.97
556.19	1099.07
556.55	1096.52
556.90	1100.61
557.26	1100.80
557.61	1100.08
557.96	1097.27
558.32	1099.44
558.67	1095.70
559.02	1092.19
559.37	1090.10
559.73	1093.59
560.08	1092.28
560.43	1093.38
560.79	1096.42
561.14	1093.80
561.49	1089.75
561.85	1088.96
562.20	1086.99
562.55	1084.56
562.90	1087.76
563.26	1088.96
563.61	1087.79
563.96	1091.58
564.32	1090.76
564.67	1089.99
565.02	1090.10
565.37	1090.57
565.73	1089.05
566.08	1088.54
566.43	1087.72
566.78	1088.49
567.14	1087.60
567.49	1083.43
567.84	1084.89
568.19	1085.77
568.54	1082.92
568.90	1084.65
569.25	1087.46
569.60	1088.09
569.95	1088.82
570.31	1089.10
570.66	1088.56
571.01	1089.61
571.36	1091.56
571.71	1089.22
572.06	1089.66
572.42	1089.71
572.77	1089.12
573.12	1087.09
573.47	1085.56
573.82	1086.83
574.18	1083.50
574.53	1080.30
574.88	1078.82
575.23	1081.56
575.58	1082.33
575.93	1087.37
576.28	1087.48
576.64	1086.80
576.99	1086.22
577.34	1084.30
577.69	1084.30
578.04	1087.72
578.39	1084.72
578.74	1082.94
579.09	1083.71
579.44	1081.49
579.80	1080.23
580.15	1084.42
580.50	1082.57
580.85	1083.53
581.20	1080.91
581.55	1084.18
581.90	1083.01
582.25	1088.72
582.60	1086.66
582.95	1085.73
583.30	1081.35
583.65	1078.96
584.00	1078.45
584.35	1077.28
584.71	1077.42
585.06	1078.28
585.41	1081.28
585.76	1080.16
586.11	1081.05
586.46	1083.20
586.81	1080.72
587.16	1080.34
587.51	1077.70
587.86	1078.61
588.21	1081.19
588.56	1083.57
588.91	1082.26
589.26	1083.06
589.61	1083.50
589.96	1084.11
590.31	1081.87
590.66	1082.83
591.01	1080.72
591.36	1079.76
591.71	1075.24
592.06	1077.09
592.41	1076.95
592.76	1077.75
593.10	1077.63
593.45	1078.64
593.80	1076.97
594.15	1078.24
594.50	1079.41
594.85	1079.24
595.20	1077.63
595.55	1079.50
595.90	1078.10
596.25	1079.38
596.60	1079.99
596.95	1080.70
597.30	1078.54
597.64	1091.30
597.99	1090.46
598.34	1091.63
598.69	1092.63
599.04	1094.25
599.39	1081.07
599.74	1081.33
600.09	1079.83
600.44	1081.77
600.78	1080.60
601.13	1081.00
601.48	1079.78
601.83	1078.43
602.18	1074.49
602.53	1076.65
602.88	1077.23
603.22	1080.32
603.57	1082.45
603.92	1085.59
604.27	1086.01
604.62	1084.42
604.97	1082.71
605.31	1080.18
605.66	1080.37
606.01	1079.64
606.36	1081.96
606.71	1079.38
607.05	1080.79
607.40	1078.36
607.75	1078.26
608.10	1077.75
608.44	1079.17
608.79	1078.92
609.14	1080.72
609.49	1081.14
609.84	1081.49
610.18	1082.38
610.53	1083.57
610.88	1084.25
611.23	1082.78
611.57	1081.96
611.92	1083.15
612.27	1085.19
612.62	1083.04
612.96	1084.65
613.31	1088.07
613.66	1085.26
614.00	1081.80
614.35	1083.67
614.70	1082.85
615.05	1079.95
615.39	1082.05
615.74	1082.94
616.09	1084.00
616.43	1079.74
616.78	1076.06
617.13	1073.86
617.47	1075.48
617.82	1076.97
618.17	1081.26
618.51	1084.28
618.86	1084.91
619.21	1085.54
619.55	1080.51
619.90	1079.64
620.25	1081.16
620.59	1080.34
620.94	1076.97
621.29	1079.90
621.63	1079.95
621.98	1080.13
622.32	1081.35
622.67	1080.84
623.02	1082.38
623.36	1079.97
623.71	1077.75
624.05	1078.50
624.40	1079.85
624.75	1077.23
625.09	1078.45
625.44	1079.83
625.78	1081.28
626.13	1079.27
626.48	1082.31
626.82	1083.48
627.17	1085.33
627.51	1085.40
627.86	1088.23
628.20	1084.32
628.55	1087.25
628.89	1082.83
629.24	1081.75
629.58	1081.91
629.93	1082.83
630.28	1077.49
630.62	1077.61
630.97	1076.41
631.31	1074.56
631.66	1075.13
632.00	1075.43
632.35	1076.34
632.69	1078.24
633.04	1079.48
633.38	1078.50
633.73	1080.32
634.07	1081.96
634.42	1082.73
634.76	1081.80
635.11	1079.15
635.45	1078.43
635.79	1074.73
636.14	1072.57
636.48	1074.12
636.83	1078.40
637.17	1079.97
637.52	1082.97
637.86	1086.76
638.21	1085.54
638.55	1086.01
638.89	1085.61
639.24	1087.41
639.58	1082.83
639.93	1083.39
640.27	1079.69
640.61	1075.24
640.96	1071.61
641.30	1071.66
641.65	1069.84
641.99	1067.10
642.33	1072.78
642.68	1074.14
643.02	1078.59
643.37	1080.56
643.71	1082.03
644.05	1078.75
644.40	1075.48
644.74	1069.18
645.08	1067.99
645.43	1068.45
645.77	1069.46
646.11	1072.27
646.46	1073.44
646.80	1074.70
647.14	1076.11
647.49	1080.32
647.83	1078.40
648.17	1077.40
648.52	1075.15
648.86	1075.62
649.20	1069.34
649.55	1072.57
649.89	1071.31
650.23	1073.95
650.57	1075.66
650.92	1074.38
651.26	1073.86
651.60	1075.94
651.95	1071.10
652.29	1068.45
652.63	1073.70
652.97	1073.02
653.32	1074.19
653.66	1076.30
654.00	1078.78
654.34	1079.78
654.69	1077.40
655.03	1077.04
655.37	1077.82
655.71	1076.58
656.05	1074.26
656.40	1078.89
656.74	1078.59
657.08	1078.99
657.42	1079.71
657.76	1078.66
658.11	1074.98
658.45	1074.98
658.79	1074.63
659.13	1074.31
659.47	1077.51
659.82	1078.68
660.16	1080.95
660.50	1080.70
660.84	1078.75
661.18	1079.06
661.52	1080.81
661.87	1077.68
662.21	1080.41
662.55	1082.12
662.89	1080.58
663.23	1081.51
663.57	1083.29
663.91	1080.39
664.25	1080.44
664.60	1081.26
664.94	1077.33
665.28	1077.11
665.62	1076.88
665.96	1077.58
666.30	1075.03
666.64	1076.97
666.98	1075.78
667.32	1077.07
667.66	1078.43
668.01	1082.10
668.35	1084.77
668.69	1084.60
669.03	1084.35
669.37	1081.14
669.71	1077.47
670.05	1073.39
670.39	1077.47
670.73	1075.59
671.07	1074.17
671.41	1073.14
671.75	1076.06
672.09	1072.83
672.43	1077.16
672.77	1080.56
673.11	1080.58
673.45	1079.60
673.79	1083.41
674.13	1082.66
674.47	1081.35
674.81	1082.50
675.15	1081.70
675.49	1077.98
675.83	1078.68
676.17	1079.55
676.51	1081.02
676.85	1081.40
677.19	1080.27
677.53	1077.28
677.87	1076.08
678.21	1076.08
678.55	1076.83
678.89	1077.33
679.23	1077.75
679.57	1078.28
679.90	1075.45
680.24	1074.63
680.58	1074.87
680.92	1076.95
681.26	1077.02
681.60	1077.49
681.94	1077.11
682.28	1079.78
682.62	1078.66
682.96	1080.56
683.29	1083.64
683.63	1084.84
683.97	1080.93
684.31	1080.72
684.65	1080.53
684.99	1077.54
685.33	1076.83
685.67	1079.08
686.00	1078.71
686.34	1077.35
686.68	1078.33
687.02	1078.03
687.36	1076.06
687.70	1075.99
688.03	1079.17
688.37	1081.54
688.71	1082.12
689.05	1083.50
689.39	1084.77
689.72	1081.12
690.06	1078.38
690.40	1077.65
690.74	1077.44
691.08	1074.66
691.41	1074.14
691.75	1076.65
692.09	1074.38
692.43	1073.23
692.76	1074.59
693.10	1073.84
693.44	1072.46
693.78	1074.49
694.11	1075.05
694.45	1074.56
694.79	1077.54
695.13	1076.62
695.46	1077.61
695.80	1077.72
696.14	1079.38
696.48	1080.16
696.81	1080.72
697.15	1079.90
697.49	1078.38
697.82	1077.68
698.16	1073.67
698.50	1074.82
698.83	1074.61
699.17	1076.53
699.51	1074.47
699.84	1076.58
700.18	1075.71
700.52	1080.65
700.85	1079.48
701.19	1080.06
701.53	1078.45
701.86	1079.90
702.20	1076.32
702.54	1076.13
702.87	1077.16
703.21	1078.26
703.55	1078.24
703.88	1076.88
704.22	1077.42
704.55	1077.14
704.89	1081.33
705.23	1080.09
705.56	1077.16
705.90	1077.25
706.23	1077.58
706.57	1074.19
706.91	1074.19
707.24	1078.59
707.58	1079.01
707.91	1079.95
708.25	1080.30
708.58	1080.06
708.92	1077.54
709.26	1077.35
709.59	1074.68
709.93	1073.70
710.26	1074.12
710.60	1077.68
710.93	1077.75
711.27	1080.23
711.60	1079.60
711.94	1079.20
712.27	1078.80
712.61	1079.69
712.94	1078.10
713.28	1080.84
713.61	1080.46
713.95	1083.27
714.28	1082.43
714.62	1082.61
714.95	1080.11
715.29	1077.25
715.62	1071.75
715.96	1074.21
716.29	1071.68
716.63	1071.40
716.96	1074.52
717.29	1076.48
717.63	1072.57
717.96	1075.83
718.30	1079.06
718.63	1082.85
718.97	1082.08
719.30	1084.14
719.63	1084.23
719.97	1081.70
720.30	1078.17
720.64	1078.26
720.97	1080.41
721.30	1079.46
721.64	1080.77
721.97	1081.07
722.31	1080.58
722.64	1077.61
722.97	1077.37
723.31	1075.59
723.64	1077.04
723.97	1078.43
724.31	1079.83
724.64	1080.56
724.98	1083.64
725.31	1082.59
725.64	1081.28
725.98	1082.76
726.31	1084.32
726.64	1081.09
726.97	1078.85
727.31	1077.75
727.64	1075.20
727.97	1075.27
728.31	1075.20
728.64	1076.53
728.97	1078.05
729.31	1078.17
729.64	1075.80
729.97	1078.03
730.30	1077.65
730.64	1074.28
730.97	1071.52
731.30	1074.17
731.63	1074.33
731.97	1072.81
732.30	1075.78
732.63	1080.81
732.96	1080.34
733.30	1079.41
733.63	1079.81
733.96	1081.54
734.29	1078.40
734.63	1078.12
734.96	1078.14
735.29	1081.75
735.62	1080.98
735.95	1086.15
736.29	1084.42
736.62	1083.50
736.95	1082.22
737.28	1083.11
737.61	1078.28
737.94	1077.30
738.28	1077.35
738.61	1079.17
738.94	1075.24
739.27	1074.33
739.60	1077.11
739.93	1080.79
740.27	1078.24
740.60	1081.07
740.93	1081.54
741.26	1080.02
741.59	1075.13
741.92	1072.88
742.25	1072.97
742.58	1074.56
742.91	1073.98
743.25	1073.21
743.58	1072.67
743.91	1068.85
744.24	1068.36
744.57	1070.28
744.90	1072.95
745.23	1073.72
745.56	1075.17
745.89	1074.75
746.22	1072.71
746.55	1072.20
746.88	1074.24
747.21	1073.93
747.54	1074.31
747.87	1073.51
748.20	1075.31
748.53	1074.49
748.87	1078.40
749.20	1078.50
749.53	1081.26
749.86	1081.00
750.19	1076.83
750.52	1074.77
750.85	1074.45
751.18	1073.35
751.51	1073.37
751.84	1078.64
752.16	1078.38
752.49	1079.74
752.82	1079.48
753.15	1079.64
753.48	1077.75
753.81	1077.82
754.14	1074.52
754.47	1076.06
754.80	1076.58
755.13	1077.49
755.46	1078.47
755.79	1081.21
756.12	1084.56
756.45	1083.13
756.78	1083.39
757.11	1082.52
757.43	1080.30
757.76	1076.32
758.09	1078.78
758.42	1078.99
758.75	1079.31
759.08	1080.34
759.41	1080.72
759.74	1077.18
760.07	1077.28
760.39	1076.93
760.72	1079.99
761.05	1075.71
761.38	1075.73
761.71	1076.11
762.04	1077.37
762.36	1075.97
762.69	1077.16
763.02	1074.82
763.35	1073.60
763.68	1072.13
764.01	1070.72
764.33	1070.51
764.66	1071.97
764.99	1074.17
765.32	1074.24
765.65	1075.22
765.97	1078.12
766.30	1079.55
766.63	1077.14
766.96	1076.58
767.28	1076.44
767.61	1073.91
767.94	1071.36
768.27	1071.33
768.59	1073.70
768.92	1072.95
769.25	1076.39
769.58	1077.11
769.90	1077.51
770.23	1075.41
770.56	1077.58
770.89	1075.17
771.21	1075.87
771.54	1077.14
771.87	1077.21
772.19	1076.86
772.52	1076.88
772.85	1075.85
773.17	1073.60
773.50	1072.62
773.83	1072.25
774.15	1074.31
774.48	1075.97
774.81	1076.32
775.13	1078.24
775.46	1077.07
775.79	1077.02
776.11	1075.78
776.44	1076.44
776.77	1077.02
777.09	1077.02
777.42	1078.19
777.74	1081.35
778.07	1082.15
778.40	1084.02
778.72	1083.04
779.05	1081.35
779.37	1079.29
779.70	1080.46
780.03	1079.43
780.35	1080.16
780.68	1080.48
781.00	1080.34
781.33	1076.06
781.65	1074.75
781.98	1075.43
782.31	1073.37
782.63	1072.74
782.96	1078.61
783.28	1077.00
783.61	1074.68
783.93	1075.99
784.26	1076.62
784.58	1073.39
784.91	1076.32
785.23	1080.39
785.56	1080.44
785.88	1080.44
786.21	1081.42
786.53	1079.76
786.86	1079.64
787.18	1077.93
787.51	1077.72
787.83	1076.76
788.16	1075.76
788.48	1073.42
788.81	1074.96
789.13	1076.74
789.46	1076.83
789.78	1078.54
790.10	1081.35
790.43	1081.73
790.75	1082.64
791.08	1083.04
791.40	1081.07
791.73	1078.96
792.05	1079.60
792.37	1076.83
792.70	1073.44
793.02	1072.43
793.35	1073.95
793.67	1073.35
793.99	1075.94
794.32	1079.57
794.64	1081.35
794.96	1079.46
795.29	1078.99
795.61	1076.79
795.93	1076.39
796.26	1076.04
796.58	1076.11
796.91	1075.55
797.23	1073.49
797.55	1075.24
797.87	1075.08
798.20	1074.21
798.52	1077.16
798.84	1079.29
799.17	1074.68
799.49	1074.21
799.81	1075.20
800.14	1071.59
800.46	1068.31
800.78	1071.19
801.10	1071.97
801.43	1070.63
801.75	1071.64
802.07	1072.81
802.40	1071.03
802.72	1071.03
803.04	1072.29
803.36	1071.01
803.69	1073.77
804.01	1074.68
804.33	1077.96
804.65	1080.98
804.97	1084.04
805.30	1083.62
805.62	1082.87
805.94	1080.58
806.26	1076.08
806.58	1077.25
806.91	1078.73
807.23	1081.40
807.55	1080.09
807.87	1080.51
808.19	1078.94
808.52	1078.52
808.84	1077.65
809.16	1076.41
809.48	1080.23
809.80	1077.54
810.12	1075.05
810.44	1072.55
810.77	1072.62
811.09	1069.84
811.41	1073.95
811.73	1075.17
812.05	1075.29
812.37	1075.87
812.69	1075.99
813.01	1073.00
813.33	1074.35
813.66	1075.66
813.98	1074.87
814.30	1075.01
814.62	1076.18
814.94	1072.64
815.26	1072.08
815.58	1073.70
815.90	1074.12
816.22	1073.44
816.54	1075.85
816.86	1076.69
817.18	1076.88
817.50	1076.34
817.82	1075.43
818.14	1075.78
818.46	1076.60
818.78	1074.66
819.10	1070.14
819.42	1068.36
819.74	1068.74
820.06	1070.84
820.38	1072.18
820.70	1076.88
821.02	1078.61
821.34	1078.85
821.66	1077.44
821.98	1080.32
822.30	1080.67
822.62	1081.75
822.94	1082.69
823.26	1079.88
823.58	1075.59
823.90	1074.68
824.22	1075.62
824.54	1072.81
824.86	1075.64
825.18	1077.14
825.50	1078.36
825.81	1076.15
826.13	1074.91
826.45	1074.68
826.77	1075.20
827.09	1073.72
827.41	1076.65
827.73	1079.92
828.05	1075.43
828.36	1074.17
828.68	1073.46
829.00	1069.95
829.32	1067.94
829.64	1071.05
829.96	1071.61
830.28	1071.52
830.59	1073.58
830.91	1076.32
831.23	1078.45
831.55	1077.14
831.87	1078.17
832.19	1078.68
832.50	1078.38
832.82	1077.04
833.14	1081.02
833.46	1082.83
833.78	1082.94
834.09	1080.60
834.41	1082.29
834.73	1082.64
835.05	1079.13
835.36	1076.08
835.68	1075.80
836.00	1074.94
836.32	1072.53
836.63	1074.73
836.95	1076.30
837.27	1076.62
837.59	1074.89
837.90	1076.46
838.22	1075.08
838.54	1074.68
838.85	1075.20
839.17	1076.62
839.49	1076.69
839.80	1076.79
840.12	1074.56
840.44	1072.32
840.76	1075.45
841.07	1076.48
841.39	1076.15
841.71	1080.41
842.02	1080.37
842.34	1075.57
842.65	1072.41
842.97	1072.04
843.29	1070.61
843.60	1073.32
843.92	1073.00
844.24	1073.51
844.55	1073.07
844.87	1075.05
845.18	1072.90
845.50	1072.97
845.82	1072.34
846.13	1071.36
846.45	1070.23
846.76	1071.64
847.08	1073.00
847.40	1074.45
847.71	1078.12
848.03	1075.99
848.34	1075.99
848.66	1072.01
848.97	1074.49
849.29	1073.63
849.60	1072.15
849.92	1069.18
850.24	1073.07
850.55	1068.97
850.87	1069.86
851.18	1072.11
851.50	1073.35
851.81	1072.32
852.13	1073.63
852.44	1071.05
852.76	1071.47
853.07	1075.62
853.39	1073.63
853.70	1073.30
854.01	1072.22
854.33	1072.15
854.64	1070.00
854.96	1073.37
855.27	1073.67
855.59	1076.79
855.90	1082.97
856.22	1085.63
856.53	1085.42
856.84	1082.69
857.16	1085.24
857.47	1081.54
857.79	1075.66
858.10	1074.17
858.41	1078.19
858.73	1077.35
859.04	1076.25
859.36	1080.27
859.67	1083.81
859.98	1084.63
860.30	1084.98
860.61	1086.29
860.92	1084.56
861.24	1080.88
861.55	1078.24
861.87	1075.45
862.18	1074.00
862.49	1074.52
862.81	1073.14
863.12	1072.29
863.43	1074.07
863.74	1072.81
864.06	1069.67
864.37	1073.35
864.68	1075.01
865.00	1074.33
865.31	1073.98
865.62	1074.98
865.94	1075.97
866.25	1073.93
866.56	1072.95
866.87	1072.22
867.19	1074.49
867.50	1073.70
867.81	1077.37
868.12	1079.08
868.44	1081.66
868.75	1079.38
869.06	1079.01
869.37	1079.29
869.68	1078.68
870.00	1076.25
870.31	1080.11
870.62	1079.29
870.93	1074.68
871.24	1075.48
871.56	1075.41
871.87	1074.61
872.18	1074.73
872.49	1076.97
872.80	1077.02
873.12	1074.05
873.43	1073.07
873.74	1074.75
874.05	1076.25
874.36	1075.85
874.67	1081.58
874.98	1085.52
875.29	1082.19
875.61	1081.42
875.92	1081.37
876.23	1079.24
876.54	1074.94
876.85	1074.31
877.16	1075.10
877.47	1075.78
877.78	1077.61
878.09	1077.75
878.40	1080.84
878.72	1080.77
879.03	1078.03
879.34	1077.91
879.65	1082.29
879.96	1080.63
880.27	1080.20
880.58	1082.36
880.89	1080.65
881.20	1074.31
881.51	1075.45
881.82	1074.52
882.13	1071.45
882.44	1076.93
882.75	1078.26
883.06	1078.71
883.37	1078.38
883.68	1078.85
883.99	1072.78
884.30	1075.01
884.61	1073.74
884.92	1073.67
885.23	1074.87
885.54	1075.94
885.85	1075.17
886.16	1073.00
886.47	1074.59
886.78	1075.78
887.08	1076.18
887.39	1076.95
887.70	1079.06
888.01	1077.70
888.32	1076.58
888.63	1076.37
888.94	1074.47
889.25	1072.50
889.56	1072.67
889.87	1071.38
890.17	1068.88
890.48	1069.37
890.79	1073.02
891.10	1071.59
891.41	1074.49
891.72	1076.44
892.03	1075.15
892.34	1074.84
892.64	1075.52
892.95	1074.91
893.26	1075.73
893.57	1076.86
893.88	1077.98
894.18	1077.65
894.49	1075.43
894.80	1075.41
895.11	1075.73
895.42	1073.32
895.72	1075.80
896.03	1077.37
896.34	1078.17
896.65	1077.33
896.96	1078.64
897.26	1075.34
897.57	1074.17
897.88	1073.14
898.19	1072.41
898.49	1072.32
898.80	1073.56
899.11	1074.56
899.41	1073.56
899.72	1073.32
900.03	1068.27
900.34	1066.37
900.64	1065.37
900.95	1064.31
901.26	1063.94
901.56	1067.42
901.87	1071.15
902.18	1074.19
902.48	1077.33
902.79	1079.76
903.10	1079.34
903.40	1079.60
903.71	1075.50
904.02	1074.40
904.32	1077.11
904.63	1079.60
904.94	1077.51
905.24	1077.44
905.55	1078.24
905.85	1076.32
906.16	1074.80
906.47	1077.65
906.77	1077.14
907.08	1077.68
907.38	1074.77
907.69	1077.61
908.00	1075.20
908.30	1077.68
908.61	1075.24
908.91	1076.23
909.22	1071.61
909.52	1073.84
909.83	1072.95
910.14	1073.51
910.44	1073.51
910.75	1076.18
911.05	1073.23
911.36	1072.90
911.66	1072.74
911.97	1072.74
912.27	1071.17
912.58	1072.76
912.88	1075.92
913.19	1076.67
913.49	1079.90
913.80	1080.93
914.10	1079.69
914.41	1077.77
914.71	1076.53
915.01	1073.60
915.32	1076.60
915.62	1078.38
915.93	1077.02
916.23	1077.51
916.54	1077.25
916.84	1075.01
917.15	1074.75
917.45	1073.86
917.75	1073.86
918.06	1075.94
918.36	1072.97
918.67	1070.63
918.97	1074.21
919.27	1071.85
919.58	1070.23
919.88	1073.74
920.18	1070.05
920.49	1067.85
920.79	1069.16
921.10	1068.74
921.40	1066.51
921.70	1070.70
922.01	1072.55
922.31	1075.94
922.61	1076.46
922.92	1077.91
923.22	1079.48
923.52	1075.59
923.82	1075.13
924.13	1077.96
924.43	1080.51
924.73	1080.88
925.04	1081.14
925.34	1080.74
925.64	1079.15
925.94	1075.94
926.25	1075.83
926.55	1078.66
926.85	1078.21
927.15	1073.30
927.46	1072.22
927.76	1071.01
928.06	1070.96
928.36	1071.12
928.67	1076.53
928.97	1076.51
929.27	1076.30
929.57	1075.03
929.87	1073.56
930.18	1069.91
930.48	1068.52
930.78	1070.21
931.08	1068.90
931.38	1070.89
931.69	1073.79
931.99	1077.72
932.29	1077.84
932.59	1080.56
932.89	1081.19
933.19	1079.27
933.49	1078.12
933.80	1075.57
934.10	1077.07
934.40	1076.72
934.70	1077.79
935.00	1075.57
935.30	1078.73
935.60	1079.17
935.90	1076.90
936.20	1078.52
936.50	1082.38
936.81	1081.35
937.11	1076.79
937.41	1079.71
937.71	1081.87
938.01	1079.60
938.31	1076.72
938.61	1081.42
938.91	1079.81
939.21	1075.36
939.51	1073.39
939.81	1075.29
940.11	1073.35
940.41	1073.04
940.71	1074.84
941.01	1074.40
941.31	1073.86
941.61	1071.47
941.91	1071.47
942.21	1072.27
942.51	1075.64
942.81	1074.94
943.11	1076.67
943.41	1075.78
943.71	1073.39
944.01	1071.03
944.31	1070.37
944.61	1073.28
944.90	1076.11
945.20	1076.69
945.50	1078.57
945.80	1082.47
946.10	1078.82
946.40	1075.64
946.70	1073.88
947.00	1074.12
947.30	1071.97
947.60	1071.90
947.89	1070.91
948.19	1072.25
948.49	1071.85
948.79	1070.56
949.09	1074.77
949.39	1075.90
949.69	1079.13
949.98	1078.52
950.28	1080.56
950.58	1076.76
950.88	1076.69
951.18	1072.97
951.48	1072.18
951.77	1070.42
952.07	1071.61
952.37	1074.35
952.67	1074.47
952.97	1073.88
953.26	1073.46
953.56	1071.80
953.86	1071.94
954.16	1070.51
954.45	1069.48
954.75	1072.53
955.05	1074.49
955.35	1073.07
955.64	1075.76
955.94	1079.20
956.24	1078.92
956.54	1075.66
956.83	1074.40
957.13	1072.97
957.43	1072.29
957.72	1072.53
958.02	1073.04
958.32	1074.61
958.61	1074.91
958.91	1071.05
959.21	1069.84
959.50	1072.39
959.80	1069.95
960.10	1068.81
960.39	1073.67
960.69	1074.12
960.99	1073.51
961.28	1076.51
961.58	1078.75
961.87	1078.28
962.17	1079.97
962.47	1079.53
962.76	1077.33
963.06	1078.10
963.36	1077.30
963.65	1076.51
963.95	1076.83
964.24	1075.17
964.54	1074.84
964.83	1074.12
965.13	1070.96
965.42	1071.57
965.72	1074.45
966.02	1072.36
966.31	1073.39
966.61	1074.96
966.90	1073.56
967.20	1071.90
967.49	1073.25
967.79	1073.32
968.08	1074.75
968.38	1078.26
968.67	1078.26
968.97	1077.00
969.26	1075.64
969.56	1073.09
969.85	1068.97
970.15	1070.19
970.44	1068.41
970.74	1068.85
971.03	1071.40
971.32	1070.70
971.62	1072.85
971.91	1073.93
972.21	1074.00
972.50	1071.75
972.80	1075.78
973.09	1073.18
973.38	1075.99
973.68	1076.20
973.97	1076.95
974.27	1074.80
974.56	1074.14
974.85	1072.20
975.15	1071.73
975.44	1071.36
975.73	1072.27
976.03	1072.34
976.32	1074.17
976.61	1075.76
976.91	1075.55
977.20	1075.69
977.49	1078.31
977.79	1082.22
978.08	1082.54
978.37	1083.34
978.67	1082.83
978.96	1083.01
979.25	1076.69
979.55	1077.11
979.84	1078.36
980.13	1078.66
980.42	1078.78
980.72	1081.68
981.01	1078.17
981.30	1077.16
981.59	1076.93
981.89	1073.72
982.18	1071.97
982.47	1073.42
982.76	1071.26
983.06	1070.94
983.35	1076.23
983.64	1079.99
983.93	1081.66
984.22	1081.12
984.52	1078.47
984.81	1075.17
985.10	1069.51
985.39	1065.83
985.68	1066.42
985.97	1067.45
986.27	1068.67
986.56	1070.56
986.85	1071.36
987.14	1072.25
987.43	1075.87
987.72	1076.65
988.01	1075.20
988.31	1077.84
988.60	1077.25
988.89	1075.99
989.18	1072.69
989.47	1074.14
989.76	1075.83
990.05	1075.22
990.34	1075.57
990.63	1075.57
990.92	1075.36
991.21	1075.59
991.51	1077.86
991.80	1075.17
992.09	1074.94
992.38	1072.50
992.67	1070.49
992.96	1068.85
993.25	1067.59
993.54	1068.06
993.83	1073.39
994.12	1071.68
994.41	1071.29
994.70	1074.68
994.99	1074.31
995.28	1073.74
995.57	1076.51
995.86	1080.77
996.15	1080.84
996.44	1081.77
996.73	1079.36
997.02	1077.23
997.31	1077.28
997.59	1075.87
997.88	1076.44
998.17	1076.55
998.46	1077.07
998.75	1075.80
999.04	1076.86
999.33	1075.24
999.62	1074.33
999.91	1073.58
1000.20	1070.49
1000.49	1072.32
1000.77	1073.81
1001.06	1074.31
1001.35	1074.75
1001.64	1080.72
1001.93	1077.77
1002.22	1077.11
1002.51	1079.99
1002.79	1081.00
1003.08	1076.74
1003.37	1078.21
1003.66	1079.55
1003.95	1078.99
1004.23	1074.68
1004.52	1074.89
1004.81	1073.79
1005.10	1074.49
1005.39	1072.20
1005.67	1074.56
1005.96	1075.83
1006.25	1080.37
1006.54	1079.13
1006.83	1079.50
1007.11	1084.23
1007.40	1083.74
1007.69	1081.61
1007.97	1083.01
1008.26	1085.52
1008.55	1080.98
1008.84	1080.44
1009.12	1079.83
1009.41	1079.55
1009.70	1077.72
1009.98	1079.08
1010.27	1078.03
1010.56	1078.45
1010.85	1079.15
1011.13	1079.97
1011.42	1079.01
1011.71	1080.67
1011.99	1079.85
1012.28	1078.03
1012.56	1077.54
1012.85	1082.90
1013.14	1079.36
1013.42	1079.50
1013.71	1077.86
1014.00	1078.00
1014.28	1076.18
1014.57	1079.01
1014.85	1076.44
1015.14	1075.48
1015.43	1076.06
1015.71	1073.72
1016.00	1074.07
1016.28	1076.55
1016.57	1079.29
1016.85	1076.39
1017.14	1075.85
1017.43	1075.08
1017.71	1072.46
1018.00	1071.15
1018.28	1072.20
1018.57	1072.57
1018.85	1072.01
1019.14	1072.32
1019.42	1071.92
1019.71	1071.80
1019.99	1071.50
1020.28	1073.37
1020.56	1074.49
1020.85	1075.24
1021.13	1073.46
1021.42	1071.80
1021.70	1071.92
1021.99	1069.74
1022.27	1070.37
1022.55	1063.54
1022.84	1078.05
>>>>>End Processed Spectral Data<<<<<
