SpectraSuite Data File
++++++++++++++++++++++++++++++++++++
Date: Mon Aug 26 10:21:59 PDT 2019
User: corrico
Dark Spectrum Present: No
Reference Spectrum Present: No
Number of Sampled Component Spectra: 1
Spectrometers: USB2+H06089
Integration Time (usec): 2000 (USB2+H06089)
Spectra Averaged: 20 (USB2+H06089)
Boxcar Smoothing: 2 (USB2+H06089)
Correct for Electrical Dark: No (USB2+H06089)
Strobe/Lamp Enabled: No (USB2+H06089)
Correct for Detector Non-linearity: No (USB2+H06089)
Correct for Stray Light: No (USB2+H06089)
Number of Pixels in Processed Spectrum: 2048
>>>>>Begin Processed Spectral Data<<<<<
339.70	1026.79
340.07	1026.79
340.45	993.98
340.82	974.27
341.19	951.73
341.57	928.40
341.94	917.09
342.31	906.68
342.69	898.65
343.06	893.76
343.43	890.62
343.81	894.65
344.18	895.93
344.55	899.09
344.93	908.36
345.30	912.86
345.67	917.19
346.04	927.48
346.42	939.07
346.79	941.32
347.16	954.00
347.54	964.28
347.91	972.96
348.28	980.80
348.65	990.75
349.03	998.36
349.40	1007.41
349.77	1014.95
350.14	1020.78
350.52	1030.07
350.89	1035.17
351.26	1038.80
351.63	1044.60
352.01	1050.10
352.38	1053.43
352.75	1059.54
353.12	1062.51
353.50	1064.94
353.87	1069.74
354.24	1074.59
354.61	1075.36
354.98	1079.55
355.36	1081.54
355.73	1081.28
356.10	1082.73
356.47	1081.91
356.84	1082.85
357.22	1084.37
357.59	1087.04
357.96	1083.20
358.33	1083.06
358.70	1079.76
359.08	1078.21
359.45	1075.45
359.82	1076.11
360.19	1075.76
360.56	1077.23
360.94	1077.09
361.31	1077.07
361.68	1078.85
362.05	1078.59
362.42	1075.66
362.79	1075.13
363.16	1072.41
363.54	1073.60
363.91	1075.03
364.28	1076.34
364.65	1077.49
365.02	1080.37
365.39	1076.20
365.76	1073.81
366.14	1073.11
366.51	1074.17
366.88	1069.55
367.25	1068.31
367.62	1067.28
367.99	1069.53
368.36	1065.95
368.73	1069.44
369.10	1070.82
369.48	1070.91
369.85	1068.83
370.22	1070.16
370.59	1066.98
370.96	1068.13
371.33	1069.16
371.70	1067.00
372.07	1065.55
372.44	1066.89
372.81	1066.16
373.18	1064.83
373.55	1065.55
373.93	1066.32
374.30	1068.31
374.67	1066.39
375.04	1068.64
375.41	1069.53
375.78	1070.87
376.15	1071.59
376.52	1074.00
376.89	1074.35
377.26	1075.15
377.63	1076.06
378.00	1076.27
378.37	1073.25
378.74	1073.49
379.11	1073.11
379.48	1071.29
379.85	1069.72
380.22	1071.78
380.59	1076.01
380.96	1079.78
381.33	1079.24
381.70	1079.36
382.07	1076.83
382.44	1070.75
382.81	1067.96
383.18	1068.95
383.55	1068.78
383.92	1073.98
384.29	1074.94
384.66	1073.51
385.03	1074.63
385.40	1074.47
385.77	1071.73
386.14	1072.06
386.51	1074.21
386.88	1073.58
387.25	1071.94
387.62	1073.53
387.99	1075.71
388.36	1073.49
388.73	1073.37
389.10	1077.93
389.46	1076.20
389.83	1074.68
390.20	1074.98
390.57	1075.52
390.94	1074.89
391.31	1077.65
391.68	1075.31
392.05	1077.68
392.42	1077.16
392.79	1075.80
393.16	1073.56
393.53	1078.14
393.89	1076.25
394.26	1078.82
394.63	1082.10
395.00	1083.48
395.37	1082.22
395.74	1083.57
396.11	1080.32
396.48	1080.30
396.84	1079.55
397.21	1077.47
397.58	1079.17
397.95	1077.04
398.32	1074.40
398.69	1075.94
399.06	1075.97
399.42	1073.88
399.79	1078.10
400.16	1075.69
400.53	1076.08
400.90	1080.86
401.27	1082.33
401.64	1081.21
402.00	1085.47
402.37	1083.90
402.74	1081.47
403.11	1083.46
403.48	1083.22
403.84	1080.81
404.21	1083.60
404.58	1083.57
404.95	1079.74
405.32	1080.67
405.68	1081.16
406.05	1079.01
406.42	1079.62
406.79	1082.40
407.16	1082.29
407.52	1084.60
407.89	1085.40
408.26	1085.31
408.63	1083.86
408.99	1083.08
409.36	1082.38
409.73	1082.61
410.10	1083.79
410.47	1088.33
410.83	1089.64
411.20	1092.56
411.57	1091.16
411.94	1088.26
412.30	1084.67
412.67	1085.03
413.04	1081.73
413.40	1081.07
413.77	1087.74
414.14	1088.89
414.51	1088.54
414.87	1087.30
415.24	1090.39
415.61	1087.60
415.97	1090.22
416.34	1090.83
416.71	1091.56
417.08	1090.53
417.44	1089.82
417.81	1086.62
418.18	1087.93
418.54	1091.60
418.91	1092.66
419.28	1096.38
419.64	1096.00
420.01	1098.60
420.38	1098.09
420.74	1098.55
421.11	1097.36
421.48	1098.02
421.84	1096.85
422.21	1097.83
422.58	1099.51
422.94	1100.78
423.31	1101.85
423.68	1103.05
424.04	1105.11
424.41	1106.23
424.77	1107.78
425.14	1111.68
425.51	1112.15
425.87	1113.30
426.24	1115.03
426.61	1113.74
426.97	1117.16
427.34	1121.68
427.70	1124.51
428.07	1128.65
428.44	1136.03
428.80	1142.32
429.17	1146.49
429.53	1151.71
429.90	1154.19
430.27	1158.49
430.63	1159.48
431.00	1165.19
431.36	1172.94
431.73	1185.43
432.09	1195.41
432.46	1204.30
432.83	1211.58
433.19	1220.80
433.56	1233.37
433.92	1244.37
434.29	1261.78
434.65	1280.44
435.02	1297.20
435.38	1306.56
435.75	1318.17
436.11	1332.47
436.48	1349.11
436.84	1364.58
437.21	1386.60
437.57	1407.20
437.94	1429.22
438.30	1449.75
438.67	1477.02
439.03	1504.00
439.40	1539.49
439.76	1571.55
440.13	1608.72
440.49	1648.72
440.86	1688.77
441.22	1733.54
441.59	1775.72
441.95	1821.48
442.32	1864.99
442.68	1917.44
443.05	1971.27
443.41	2028.59
443.78	2086.96
444.14	2150.72
444.51	2211.10
444.87	2277.25
445.24	2345.05
445.60	2418.41
445.96	2496.23
446.33	2586.20
446.69	2674.16
447.06	2776.60
447.42	2879.51
447.79	2981.70
448.15	3104.11
448.51	3222.03
448.88	3358.97
449.24	3490.60
449.61	3654.14
449.97	3810.95
450.33	3989.82
450.70	4147.80
451.06	4335.21
451.43	4491.37
451.79	4674.33
452.15	4871.05
452.52	5102.67
452.88	5343.98
453.24	5639.57
453.61	5958.47
453.97	6266.20
454.34	6562.49
454.70	6893.25
455.06	7199.37
455.43	7491.47
455.79	7771.44
456.15	8093.67
456.52	8399.43
456.88	8795.55
457.24	9202.47
457.61	9711.94
457.97	10214.52
458.33	10724.83
458.70	11205.85
459.06	11640.51
459.42	12088.26
459.79	12475.15
460.15	12908.97
460.51	13307.42
460.88	13752.87
461.24	14146.92
461.60	14610.37
461.96	15013.04
462.33	15420.08
462.69	15854.86
463.05	16307.45
463.42	16756.62
463.78	17166.89
464.14	17522.54
464.50	17895.92
464.87	18198.20
465.23	18375.15
465.59	18594.67
465.95	18778.45
466.32	18852.27
466.68	18913.71
467.04	18961.57
467.40	18960.49
467.77	18989.98
468.13	18969.01
468.49	18856.85
468.85	18750.78
469.22	18650.58
469.58	18482.04
469.94	18341.54
470.30	18215.43
470.66	18030.20
471.03	17764.85
471.39	17545.43
471.75	17229.64
472.11	16935.23
472.47	16732.98
472.84	16506.89
473.20	16224.64
473.56	16009.43
473.92	15676.51
474.28	15328.19
474.65	15010.39
475.01	14688.94
475.37	14346.13
475.73	14104.37
476.09	13833.67
476.45	13598.86
476.81	13399.40
477.18	13190.91
477.54	13018.29
477.90	12876.95
478.26	12678.33
478.62	12487.58
478.98	12353.07
479.34	12212.10
479.71	12025.79
480.07	11844.89
480.43	11661.58
480.79	11420.46
481.15	11167.14
481.51	10964.89
481.87	10825.89
482.23	10667.27
482.59	10534.38
482.96	10396.36
483.32	10244.55
483.68	10056.65
484.04	9881.30
484.40	9704.80
484.76	9527.20
485.12	9347.44
485.48	9172.82
485.84	9002.03
486.20	8828.83
486.56	8660.22
486.92	8505.72
487.28	8341.97
487.64	8156.70
488.00	7996.35
488.37	7841.71
488.73	7668.58
489.09	7505.86
489.45	7355.84
489.81	7173.41
490.17	6969.27
490.53	6773.11
490.89	6560.52
491.25	6359.82
491.61	6183.44
491.97	6029.69
492.33	5886.31
492.69	5761.21
493.05	5636.97
493.41	5515.05
493.77	5388.87
494.13	5260.12
494.49	5136.75
494.85	5021.34
495.21	4898.79
495.57	4790.87
495.93	4685.26
496.29	4568.47
496.64	4449.45
497.00	4334.91
497.36	4228.72
497.72	4129.78
498.08	4045.41
498.44	3966.65
498.80	3893.20
499.16	3801.69
499.52	3704.93
499.88	3607.09
500.24	3512.65
500.60	3420.46
500.96	3342.21
501.32	3273.22
501.68	3212.88
502.03	3154.62
502.39	3099.88
502.75	3045.15
503.11	2994.39
503.47	2939.39
503.83	2888.43
504.19	2843.38
504.55	2797.60
504.91	2750.36
505.26	2701.05
505.62	2643.49
505.98	2587.86
506.34	2526.87
506.70	2464.72
507.06	2415.85
507.42	2366.12
507.78	2318.49
508.13	2281.67
508.49	2243.43
508.85	2205.18
509.21	2173.80
509.57	2137.49
509.93	2103.37
510.28	2073.62
510.64	2045.37
511.00	2015.88
511.36	1989.74
511.72	1961.63
512.07	1934.03
512.43	1902.53
512.79	1874.25
513.15	1848.63
513.51	1818.46
513.86	1798.07
514.22	1773.42
514.58	1747.56
514.94	1723.38
515.30	1705.06
515.65	1684.51
516.01	1667.80
516.37	1650.19
516.73	1634.02
517.08	1615.65
517.44	1597.79
517.80	1582.88
518.16	1571.27
518.51	1557.46
518.87	1544.47
519.23	1529.52
519.59	1514.21
519.94	1496.75
520.30	1480.25
520.66	1465.22
521.01	1452.26
521.37	1439.22
521.73	1429.79
522.09	1419.23
522.44	1410.50
522.80	1399.71
523.16	1393.25
523.51	1381.57
523.87	1370.85
524.23	1363.78
524.58	1354.63
524.94	1345.97
525.30	1339.58
525.65	1335.25
526.01	1325.45
526.37	1318.54
526.72	1310.63
527.08	1304.83
527.44	1295.84
527.79	1288.65
528.15	1283.57
528.51	1277.23
528.86	1271.54
529.22	1265.25
529.58	1261.01
529.93	1257.34
530.29	1253.08
530.65	1246.01
531.00	1240.84
531.36	1237.58
531.71	1231.19
532.07	1225.93
532.43	1221.29
532.78	1219.21
533.14	1212.63
533.49	1207.39
533.85	1201.84
534.21	1198.92
534.56	1192.83
534.92	1189.95
535.27	1183.84
535.63	1181.32
535.98	1178.48
536.34	1178.95
536.69	1175.74
537.05	1175.93
537.41	1175.30
537.76	1172.54
538.12	1168.51
538.47	1163.81
538.83	1160.27
539.18	1155.97
539.54	1152.04
539.89	1149.51
540.25	1147.47
540.60	1148.13
540.96	1149.51
541.31	1145.50
541.67	1142.86
542.02	1141.48
542.38	1137.71
542.73	1133.50
543.09	1134.04
543.44	1133.22
543.80	1132.33
544.15	1129.59
544.51	1128.04
544.86	1128.79
545.22	1127.23
545.57	1129.29
545.93	1131.25
546.28	1130.97
546.64	1127.39
546.99	1127.48
547.35	1125.63
547.70	1123.95
548.05	1123.01
548.41	1124.16
548.76	1120.81
549.12	1118.85
549.47	1117.44
549.83	1115.78
550.18	1111.97
550.53	1110.82
550.89	1108.99
551.24	1110.14
551.60	1110.00
551.95	1113.84
552.30	1113.56
552.66	1114.87
553.01	1111.01
553.37	1109.77
553.72	1106.98
554.07	1106.11
554.43	1106.23
554.78	1105.55
555.13	1106.04
555.49	1105.69
555.84	1106.54
556.19	1104.12
556.55	1103.00
556.90	1102.81
557.26	1101.88
557.61	1101.39
557.96	1100.89
558.32	1100.43
558.67	1098.55
559.02	1100.82
559.37	1100.31
559.73	1098.23
560.08	1100.78
560.43	1100.59
560.79	1094.20
561.14	1093.38
561.49	1095.02
561.85	1096.26
562.20	1095.60
562.55	1099.33
562.90	1097.57
563.26	1097.88
563.61	1094.72
563.96	1092.59
564.32	1091.16
564.67	1092.12
565.02	1089.54
565.37	1088.68
565.73	1090.36
566.08	1091.18
566.43	1089.85
566.78	1089.75
567.14	1087.93
567.49	1088.84
567.84	1087.51
568.19	1089.14
568.54	1088.54
568.90	1088.42
569.25	1086.66
569.60	1084.72
569.95	1085.77
570.31	1085.10
570.66	1086.31
571.01	1088.75
571.36	1090.71
571.71	1093.26
572.06	1093.17
572.42	1093.01
572.77	1093.10
573.12	1092.91
573.47	1087.37
573.82	1090.78
574.18	1088.86
574.53	1086.59
574.88	1086.06
575.23	1086.83
575.58	1084.18
575.93	1086.57
576.28	1085.52
576.64	1086.50
576.99	1087.53
577.34	1087.60
577.69	1087.02
578.04	1087.90
578.39	1088.07
578.74	1087.02
579.09	1090.76
579.44	1091.06
579.80	1092.89
580.15	1090.01
580.50	1091.37
580.85	1088.33
581.20	1086.90
581.55	1087.18
581.90	1088.70
582.25	1087.72
582.60	1083.95
582.95	1086.73
583.30	1084.65
583.65	1085.19
584.00	1082.36
584.35	1086.43
584.71	1084.42
585.06	1082.80
585.41	1083.71
585.76	1086.83
586.11	1087.20
586.46	1086.66
586.81	1085.63
587.16	1083.81
587.51	1081.58
587.86	1077.82
588.21	1075.69
588.56	1073.88
588.91	1070.63
589.26	1071.45
589.61	1072.48
589.96	1076.86
590.31	1080.53
590.66	1086.17
591.01	1084.63
591.36	1086.34
591.71	1082.52
592.06	1083.50
592.41	1081.26
592.76	1082.40
593.10	1080.53
593.45	1081.28
593.80	1081.96
594.15	1081.75
594.50	1081.16
594.85	1079.29
595.20	1079.27
595.55	1078.59
595.90	1078.45
596.25	1079.43
596.60	1079.43
596.95	1079.06
597.30	1077.65
597.64	1087.39
597.99	1088.84
598.34	1092.14
598.69	1095.37
599.04	1093.87
599.39	1083.90
599.74	1081.28
600.09	1082.26
600.44	1082.08
600.78	1084.04
601.13	1082.59
601.48	1085.26
601.83	1086.55
602.18	1086.41
602.53	1083.11
602.88	1084.81
603.22	1083.81
603.57	1081.40
603.92	1078.85
604.27	1082.17
604.62	1079.27
604.97	1077.33
605.31	1076.15
605.66	1079.41
606.01	1078.10
606.36	1081.77
606.71	1083.53
607.05	1087.04
607.40	1086.76
607.75	1088.63
608.10	1086.55
608.44	1089.40
608.79	1086.59
609.14	1087.18
609.49	1086.52
609.84	1085.87
610.18	1084.81
610.53	1083.81
610.88	1082.45
611.23	1079.92
611.57	1082.43
611.92	1082.61
612.27	1083.36
612.62	1081.07
612.96	1084.60
613.31	1083.04
613.66	1080.20
614.00	1079.99
614.35	1082.01
614.70	1080.70
615.05	1084.02
615.39	1082.76
615.74	1079.92
616.09	1078.82
616.43	1078.75
616.78	1073.70
617.13	1074.91
617.47	1078.75
617.82	1077.16
618.17	1078.28
618.51	1081.84
618.86	1082.97
619.21	1080.65
619.55	1082.90
619.90	1079.67
620.25	1079.71
620.59	1080.60
620.94	1083.04
621.29	1081.73
621.63	1086.03
621.98	1084.84
622.32	1083.93
622.67	1081.05
623.02	1080.56
623.36	1076.67
623.71	1073.95
624.05	1069.06
624.40	1070.61
624.75	1074.28
625.09	1077.79
625.44	1081.80
625.78	1084.32
626.13	1084.39
626.48	1079.43
626.82	1076.76
627.17	1077.82
627.51	1077.93
627.86	1077.00
628.20	1077.51
628.55	1078.78
628.89	1075.62
629.24	1079.74
629.58	1085.28
629.93	1087.74
630.28	1086.15
630.62	1086.73
630.97	1083.20
631.31	1081.19
631.66	1080.18
632.00	1083.13
632.35	1083.62
632.69	1084.93
633.04	1082.38
633.38	1082.05
633.73	1080.48
634.07	1081.58
634.42	1081.47
634.76	1080.91
635.11	1083.36
635.45	1081.94
635.79	1081.66
636.14	1080.39
636.48	1081.87
636.83	1083.13
637.17	1083.86
637.52	1085.75
637.86	1087.79
638.21	1085.17
638.55	1081.40
638.89	1081.28
639.24	1075.10
639.58	1073.98
639.93	1078.19
640.27	1079.55
640.61	1079.36
640.96	1084.91
641.30	1084.74
641.65	1080.74
641.99	1081.19
642.33	1083.50
642.68	1081.54
643.02	1083.43
643.37	1087.13
643.71	1085.05
644.05	1080.41
644.40	1080.13
644.74	1078.73
645.08	1073.93
645.43	1077.56
645.77	1081.49
646.11	1081.05
646.46	1081.37
646.80	1083.55
647.14	1080.09
647.49	1077.96
647.83	1077.77
648.17	1076.76
648.52	1074.42
648.86	1075.20
649.20	1075.83
649.55	1076.32
649.89	1074.80
650.23	1077.84
650.57	1077.25
650.92	1073.84
651.26	1072.53
651.60	1072.71
651.95	1074.52
652.29	1074.33
652.63	1077.65
652.97	1078.50
653.32	1076.81
653.66	1075.62
654.00	1072.32
654.34	1070.89
654.69	1070.68
655.03	1074.12
655.37	1072.85
655.71	1075.66
656.05	1077.70
656.40	1082.03
656.74	1083.27
657.08	1084.93
657.42	1087.11
657.76	1088.09
658.11	1086.13
658.45	1086.22
658.79	1085.26
659.13	1084.14
659.47	1084.32
659.82	1084.21
660.16	1082.97
660.50	1082.99
660.84	1083.43
661.18	1082.17
661.52	1081.05
661.87	1081.23
662.21	1081.42
662.55	1079.20
662.89	1081.91
663.23	1082.92
663.57	1081.54
663.91	1080.79
664.25	1080.18
664.60	1075.24
664.94	1074.70
665.28	1074.82
665.62	1075.48
665.96	1078.99
666.30	1084.89
666.64	1085.03
666.98	1087.30
667.32	1086.66
667.66	1084.89
668.01	1079.31
668.35	1077.25
668.69	1073.37
669.03	1073.16
669.37	1073.18
669.71	1074.38
670.05	1076.86
670.39	1075.55
670.73	1075.05
671.07	1075.15
671.41	1076.06
671.75	1075.15
672.09	1079.29
672.43	1080.18
672.77	1081.09
673.11	1080.65
673.45	1079.43
673.79	1075.29
674.13	1072.22
674.47	1075.71
674.81	1076.81
675.15	1074.96
675.49	1078.24
675.83	1078.66
676.17	1074.75
676.51	1074.73
676.85	1077.91
677.19	1078.80
677.53	1079.15
677.87	1080.56
678.21	1078.28
678.55	1078.07
678.89	1077.02
679.23	1079.22
679.57	1079.76
679.90	1078.21
680.24	1075.94
680.58	1077.49
680.92	1077.11
681.26	1075.62
681.60	1078.03
681.94	1081.09
682.28	1082.43
682.62	1083.81
682.96	1082.10
683.29	1083.76
683.63	1082.08
683.97	1079.41
684.31	1078.61
684.65	1077.93
684.99	1077.37
685.33	1075.83
685.67	1076.95
686.00	1074.31
686.34	1076.44
686.68	1075.08
687.02	1079.17
687.36	1076.27
687.70	1079.60
688.03	1081.56
688.37	1083.74
688.71	1082.36
689.05	1085.54
689.39	1085.70
689.72	1082.43
690.06	1078.61
690.40	1074.68
690.74	1072.97
691.08	1071.31
691.41	1074.40
691.75	1076.76
692.09	1077.86
692.43	1080.81
692.76	1080.67
693.10	1079.57
693.44	1080.13
693.78	1085.68
694.11	1084.53
694.45	1083.79
694.79	1082.59
695.13	1080.02
695.46	1075.20
695.80	1074.21
696.14	1077.30
696.48	1075.36
696.81	1074.52
697.15	1076.90
697.49	1078.21
697.82	1074.82
698.16	1075.10
698.50	1077.86
698.83	1074.54
699.17	1071.64
699.51	1072.15
699.84	1076.86
700.18	1077.18
700.52	1079.15
700.85	1080.79
701.19	1081.58
701.53	1076.83
701.86	1075.38
702.20	1074.45
702.54	1076.79
702.87	1076.32
703.21	1079.29
703.55	1079.41
703.88	1078.64
704.22	1076.97
704.55	1080.20
704.89	1078.14
705.23	1077.37
705.56	1078.45
705.90	1078.28
706.23	1076.04
706.57	1075.22
706.91	1076.11
707.24	1075.38
707.58	1073.70
707.91	1074.63
708.25	1075.87
708.58	1076.90
708.92	1080.30
709.26	1081.68
709.59	1081.19
709.93	1083.25
710.26	1083.81
710.60	1080.34
710.93	1079.57
711.27	1078.40
711.60	1074.75
711.94	1071.59
712.27	1072.18
712.61	1071.64
712.94	1073.21
713.28	1075.85
713.61	1079.76
713.95	1082.10
714.28	1083.86
714.62	1084.53
714.95	1085.87
715.29	1085.24
715.62	1084.60
715.96	1082.64
716.29	1078.89
716.63	1075.31
716.96	1073.23
717.29	1074.68
717.63	1074.45
717.96	1076.34
718.30	1076.97
718.63	1074.75
718.97	1070.87
719.30	1071.45
719.63	1070.72
719.97	1071.31
720.30	1075.34
720.64	1076.53
720.97	1079.81
721.30	1082.90
721.64	1083.50
721.97	1084.16
722.31	1085.03
722.64	1083.08
722.97	1082.59
723.31	1080.32
723.64	1077.44
723.97	1074.03
724.31	1072.85
724.64	1069.48
724.98	1071.05
725.31	1072.55
725.64	1075.64
725.98	1076.58
726.31	1077.35
726.64	1076.67
726.97	1078.92
727.31	1079.27
727.64	1078.73
727.97	1080.23
728.31	1079.69
728.64	1078.10
728.97	1076.88
729.31	1078.64
729.64	1074.49
729.97	1078.78
730.30	1077.14
730.64	1077.84
730.97	1075.69
731.30	1080.58
731.63	1075.80
731.97	1077.58
732.30	1079.43
732.63	1078.87
732.96	1078.52
733.30	1080.72
733.63	1078.43
733.96	1074.52
734.29	1075.52
734.63	1072.60
734.96	1072.83
735.29	1073.30
735.62	1075.52
735.95	1075.31
736.29	1076.20
736.62	1078.89
736.95	1079.36
737.28	1078.07
737.61	1081.89
737.94	1083.46
738.28	1082.87
738.61	1082.54
738.94	1086.10
739.27	1084.89
739.60	1084.60
739.93	1079.48
740.27	1078.78
740.60	1076.60
740.93	1070.54
741.26	1069.70
741.59	1073.98
741.92	1076.60
742.25	1072.55
742.58	1075.59
742.91	1075.62
743.25	1073.28
743.58	1071.29
743.91	1074.40
744.24	1077.02
744.57	1077.89
744.90	1078.12
745.23	1080.53
745.56	1080.74
745.89	1077.86
746.22	1077.21
746.55	1078.05
746.88	1077.25
747.21	1078.43
747.54	1077.28
747.87	1076.83
748.20	1076.46
748.53	1075.10
748.87	1074.94
749.20	1076.90
749.53	1076.51
749.86	1073.44
750.19	1075.94
750.52	1073.95
750.85	1075.50
751.18	1077.63
751.51	1079.60
751.84	1077.82
752.16	1081.82
752.49	1082.99
752.82	1080.95
753.15	1083.69
753.48	1083.15
753.81	1083.39
754.14	1078.10
754.47	1079.53
754.80	1076.81
755.13	1077.40
755.46	1077.09
755.79	1079.57
756.12	1080.02
756.45	1080.27
756.78	1079.92
757.11	1079.15
757.43	1077.47
757.76	1076.62
758.09	1078.36
758.42	1077.93
758.75	1075.10
759.08	1079.27
759.41	1080.91
759.74	1082.29
760.07	1081.70
760.39	1081.16
760.72	1079.76
761.05	1078.73
761.38	1078.21
761.71	1078.78
762.04	1081.16
762.36	1079.92
762.69	1079.08
763.02	1075.97
763.35	1077.21
763.68	1075.76
764.01	1075.45
764.33	1077.11
764.66	1078.07
764.99	1077.40
765.32	1074.49
765.65	1074.77
765.97	1073.84
766.30	1071.90
766.63	1072.60
766.96	1074.49
767.28	1075.76
767.61	1077.96
767.94	1078.10
768.27	1072.95
768.59	1074.19
768.92	1073.53
769.25	1070.54
769.58	1073.00
769.90	1077.16
770.23	1074.87
770.56	1071.22
770.89	1070.72
771.21	1071.97
771.54	1071.29
771.87	1073.86
772.19	1072.95
772.52	1073.42
772.85	1073.32
773.17	1075.57
773.50	1076.62
773.83	1081.63
774.15	1079.48
774.48	1077.00
774.81	1072.62
775.13	1071.59
775.46	1068.81
775.79	1070.40
776.11	1073.16
776.44	1076.62
776.77	1074.82
777.09	1077.04
777.42	1076.86
777.74	1073.58
778.07	1072.18
778.40	1074.77
778.72	1072.53
779.05	1070.77
779.37	1073.95
779.70	1075.69
780.03	1075.76
780.35	1075.66
780.68	1077.54
781.00	1076.65
781.33	1075.97
781.65	1075.92
781.98	1076.74
782.31	1076.79
782.63	1074.28
782.96	1074.14
783.28	1075.34
783.61	1076.44
783.93	1078.68
784.26	1080.25
784.58	1079.57
784.91	1074.56
785.23	1077.61
785.56	1077.63
785.88	1077.47
786.21	1079.97
786.53	1081.66
786.86	1079.50
787.18	1074.42
787.51	1072.57
787.83	1067.54
788.16	1067.45
788.48	1067.05
788.81	1073.18
789.13	1074.73
789.46	1075.43
789.78	1073.72
790.10	1074.38
790.43	1070.56
790.75	1073.42
791.08	1073.88
791.40	1076.81
791.73	1078.19
792.05	1080.04
792.37	1080.27
792.70	1080.58
793.02	1079.43
793.35	1077.51
793.67	1076.95
793.99	1073.35
794.32	1077.37
794.64	1078.57
794.96	1075.90
795.29	1075.22
795.61	1076.65
795.93	1073.98
796.26	1074.96
796.58	1077.18
796.91	1078.12
797.23	1076.65
797.55	1075.76
797.87	1075.38
798.20	1075.05
798.52	1074.87
798.84	1075.03
799.17	1074.84
799.49	1075.45
799.81	1074.89
800.14	1074.24
800.46	1074.61
800.78	1076.88
801.10	1075.31
801.43	1077.65
801.75	1076.81
802.07	1077.30
802.40	1077.11
802.72	1077.93
803.04	1078.00
803.36	1080.18
803.69	1080.37
804.01	1079.53
804.33	1078.21
804.65	1076.04
804.97	1075.13
805.30	1074.82
805.62	1075.13
805.94	1075.55
806.26	1076.06
806.58	1074.63
806.91	1076.69
807.23	1076.90
807.55	1075.71
807.87	1079.10
808.19	1081.66
808.52	1077.47
808.84	1077.68
809.16	1079.36
809.48	1073.11
809.80	1073.42
810.12	1076.11
810.44	1077.02
810.77	1076.01
811.09	1081.19
811.41	1079.17
811.73	1078.21
812.05	1076.90
812.37	1078.38
812.69	1075.57
813.01	1073.00
813.33	1074.40
813.66	1074.07
813.98	1076.04
814.30	1076.86
814.62	1080.60
814.94	1082.61
815.26	1080.51
815.58	1078.14
815.90	1078.19
816.22	1074.59
816.54	1075.24
816.86	1076.76
817.18	1074.82
817.50	1074.96
817.82	1081.33
818.14	1075.55
818.46	1077.00
818.78	1081.40
819.10	1080.37
819.42	1077.35
819.74	1081.16
820.06	1078.89
820.38	1074.03
820.70	1073.11
821.02	1074.40
821.34	1072.55
821.66	1069.86
821.98	1072.29
822.30	1073.79
822.62	1072.01
822.94	1074.26
823.26	1075.97
823.58	1073.18
823.90	1072.60
824.22	1071.68
824.54	1069.95
824.86	1071.40
825.18	1072.64
825.50	1072.29
825.81	1072.04
826.13	1070.98
826.45	1072.39
826.77	1072.57
827.09	1075.10
827.41	1078.43
827.73	1078.71
828.05	1081.23
828.36	1084.32
828.68	1082.50
829.00	1080.27
829.32	1082.17
829.64	1078.80
829.96	1076.08
830.28	1078.59
830.59	1079.50
830.91	1077.68
831.23	1077.30
831.55	1076.04
831.87	1072.88
832.19	1070.80
832.50	1072.32
832.82	1075.03
833.14	1078.54
833.46	1079.46
833.78	1081.40
834.09	1078.31
834.41	1074.07
834.73	1073.67
835.05	1073.23
835.36	1074.40
835.68	1077.93
836.00	1079.99
836.32	1078.73
836.63	1082.17
836.95	1082.94
837.27	1082.73
837.59	1081.91
837.90	1081.21
838.22	1079.20
838.54	1078.31
838.85	1081.75
839.17	1085.56
839.49	1086.62
839.80	1084.89
840.12	1085.63
840.44	1079.85
840.76	1076.67
841.07	1077.72
841.39	1077.54
841.71	1074.47
842.02	1075.59
842.34	1075.92
842.65	1074.35
842.97	1076.44
843.29	1075.43
843.60	1073.65
843.92	1073.77
844.24	1076.27
844.55	1074.98
844.87	1074.63
845.18	1078.94
845.50	1078.89
845.82	1074.94
846.13	1073.51
846.45	1076.62
846.76	1073.95
847.08	1073.88
847.40	1076.51
847.71	1077.30
848.03	1078.99
848.34	1077.44
848.66	1077.18
848.97	1076.20
849.29	1076.23
849.60	1070.84
849.92	1074.26
850.24	1074.38
850.55	1077.47
850.87	1078.10
851.18	1078.00
851.50	1073.14
851.81	1075.31
852.13	1073.07
852.44	1072.53
852.76	1075.43
853.07	1079.43
853.39	1078.33
853.70	1078.36
854.01	1078.96
854.33	1079.67
854.64	1077.54
854.96	1073.37
855.27	1070.19
855.59	1071.78
855.90	1073.18
856.22	1074.70
856.53	1080.23
856.84	1085.59
857.16	1087.20
857.47	1086.97
857.79	1085.33
858.10	1085.68
858.41	1084.28
858.73	1077.47
859.04	1074.73
859.36	1078.05
859.67	1076.11
859.98	1073.42
860.30	1077.56
860.61	1078.80
860.92	1075.36
861.24	1077.11
861.55	1083.06
861.87	1081.70
862.18	1080.20
862.49	1081.30
862.81	1080.72
863.12	1076.34
863.43	1079.27
863.74	1080.41
864.06	1081.61
864.37	1080.58
864.68	1078.57
865.00	1079.27
865.31	1078.14
865.62	1077.33
865.94	1078.19
866.25	1079.97
866.56	1078.10
866.87	1080.95
867.19	1083.27
867.50	1081.28
867.81	1083.90
868.12	1081.56
868.44	1077.65
868.75	1076.08
869.06	1077.61
869.37	1074.19
869.68	1074.10
870.00	1075.29
870.31	1075.64
870.62	1075.08
870.93	1075.87
871.24	1077.00
871.56	1080.32
871.87	1078.99
872.18	1078.59
872.49	1078.59
872.80	1079.17
873.12	1075.97
873.43	1076.44
873.74	1076.39
874.05	1077.30
874.36	1075.92
874.67	1075.92
874.98	1075.41
875.29	1076.97
875.61	1074.28
875.92	1076.53
876.23	1074.66
876.54	1075.69
876.85	1074.77
877.16	1078.00
877.47	1076.27
877.78	1077.30
878.09	1076.65
878.40	1077.30
878.72	1076.32
879.03	1077.21
879.34	1077.68
879.65	1078.85
879.96	1075.85
880.27	1076.81
880.58	1077.00
880.89	1078.05
881.20	1074.68
881.51	1076.13
881.82	1073.14
882.13	1074.24
882.44	1075.97
882.75	1077.07
883.06	1075.87
883.37	1080.56
883.68	1079.48
883.99	1079.31
884.30	1076.60
884.61	1075.45
884.92	1072.55
885.23	1070.77
885.54	1070.19
885.85	1074.21
886.16	1081.14
886.47	1082.19
886.78	1085.00
887.08	1083.90
887.39	1084.44
887.70	1081.40
888.01	1079.34
888.32	1079.06
888.63	1081.44
888.94	1080.04
889.25	1081.58
889.56	1082.43
889.87	1079.24
890.17	1077.93
890.48	1079.15
890.79	1078.68
891.10	1074.94
891.41	1077.49
891.72	1075.50
892.03	1073.77
892.34	1072.06
892.64	1075.66
892.95	1078.36
893.26	1080.34
893.57	1080.84
893.88	1079.01
894.18	1081.33
894.49	1079.99
894.80	1080.37
895.11	1084.30
895.42	1084.72
895.72	1080.84
896.03	1080.06
896.34	1079.20
896.65	1074.89
896.96	1075.22
897.26	1075.92
897.57	1074.70
897.88	1075.03
898.19	1075.57
898.49	1075.01
898.80	1075.99
899.11	1074.38
899.41	1070.40
899.72	1070.14
900.03	1073.23
900.34	1074.21
900.64	1077.63
900.95	1080.56
901.26	1081.02
901.56	1074.56
901.87	1073.72
902.18	1071.47
902.48	1073.51
902.79	1072.74
903.10	1076.81
903.40	1075.27
903.71	1074.05
904.02	1074.87
904.32	1076.74
904.63	1077.54
904.94	1079.64
905.24	1080.41
905.55	1076.72
905.85	1073.77
906.16	1076.55
906.47	1074.73
906.77	1075.45
907.08	1079.27
907.38	1079.60
907.69	1075.15
908.00	1076.69
908.30	1076.97
908.61	1073.23
908.91	1075.45
909.22	1076.27
909.52	1076.48
909.83	1077.35
910.14	1079.24
910.44	1078.92
910.75	1078.85
911.05	1081.56
911.36	1078.05
911.66	1078.10
911.97	1077.51
912.27	1076.01
912.58	1071.36
912.88	1074.96
913.19	1076.62
913.49	1077.65
913.80	1077.96
914.10	1078.07
914.41	1076.74
914.71	1071.99
915.01	1072.06
915.32	1072.18
915.62	1070.72
915.93	1070.05
916.23	1073.00
916.54	1069.48
916.84	1072.48
917.15	1075.90
917.45	1077.14
917.75	1074.35
918.06	1077.09
918.36	1076.20
918.67	1075.76
918.97	1077.58
919.27	1079.81
919.58	1082.61
919.88	1081.28
920.18	1080.06
920.49	1077.54
920.79	1077.68
921.10	1074.07
921.40	1074.61
921.70	1075.10
922.01	1077.02
922.31	1075.76
922.61	1076.30
922.92	1076.41
923.22	1077.79
923.52	1077.21
923.82	1079.43
924.13	1080.23
924.43	1079.48
924.73	1077.51
925.04	1077.65
925.34	1075.73
925.64	1076.60
925.94	1075.76
926.25	1076.67
926.55	1077.54
926.85	1077.37
927.15	1075.03
927.46	1074.87
927.76	1073.74
928.06	1072.46
928.36	1070.19
928.67	1069.84
928.97	1069.77
929.27	1070.26
929.57	1069.51
929.87	1071.19
930.18	1071.90
930.48	1074.68
930.78	1074.94
931.08	1075.55
931.38	1077.86
931.69	1078.54
931.99	1076.88
932.29	1076.88
932.59	1077.98
932.89	1074.77
933.19	1075.15
933.49	1076.88
933.80	1077.14
934.10	1078.71
934.40	1080.79
934.70	1081.63
935.00	1081.12
935.30	1080.48
935.60	1077.75
935.90	1080.70
936.20	1083.25
936.50	1081.80
936.81	1081.66
937.11	1078.21
937.41	1079.10
937.71	1076.27
938.01	1078.36
938.31	1081.51
938.61	1084.77
938.91	1081.63
939.21	1078.73
939.51	1079.62
939.81	1079.57
940.11	1077.58
940.41	1077.93
940.71	1080.84
941.01	1076.79
941.31	1075.66
941.61	1077.28
941.91	1080.65
942.21	1079.99
942.51	1082.85
942.81	1081.56
943.11	1079.31
943.41	1075.45
943.71	1075.57
944.01	1074.84
944.31	1075.17
944.61	1078.61
944.90	1077.37
945.20	1078.21
945.50	1076.27
945.80	1075.17
946.10	1071.92
946.40	1072.48
946.70	1071.52
947.00	1072.13
947.30	1072.53
947.60	1079.13
947.89	1077.61
948.19	1078.80
948.49	1080.84
948.79	1080.06
949.09	1070.98
949.39	1072.41
949.69	1073.02
949.98	1070.75
950.28	1071.54
950.58	1077.42
950.88	1077.35
951.18	1074.12
951.48	1073.60
951.77	1074.12
952.07	1074.26
952.37	1074.68
952.67	1075.43
952.97	1079.20
953.26	1078.61
953.56	1077.44
953.86	1077.23
954.16	1076.60
954.45	1074.77
954.75	1073.81
955.05	1074.42
955.35	1072.50
955.64	1074.84
955.94	1074.80
956.24	1076.65
956.54	1073.11
956.83	1076.15
957.13	1074.56
957.43	1074.05
957.72	1073.98
958.02	1076.48
958.32	1074.12
958.61	1074.03
958.91	1075.34
959.21	1075.08
959.50	1077.16
959.80	1080.70
960.10	1080.13
960.39	1080.53
960.69	1081.44
960.99	1079.57
961.28	1078.80
961.58	1079.03
961.87	1076.86
962.17	1076.13
962.47	1075.94
962.76	1074.68
963.06	1074.82
963.36	1075.01
963.65	1073.98
963.95	1074.45
964.24	1075.85
964.54	1076.01
964.83	1076.67
965.13	1079.50
965.42	1079.27
965.72	1079.67
966.02	1081.84
966.31	1083.62
966.61	1079.53
966.90	1080.27
967.20	1079.31
967.49	1074.73
967.79	1073.88
968.08	1079.97
968.38	1082.33
968.67	1079.81
968.97	1084.65
969.26	1084.49
969.56	1078.89
969.85	1074.52
970.15	1077.18
970.44	1075.31
970.74	1075.87
971.03	1077.51
971.32	1080.72
971.62	1080.13
971.91	1080.37
972.21	1077.93
972.50	1078.28
972.80	1077.42
973.09	1077.47
973.38	1076.95
973.68	1079.60
973.97	1077.47
974.27	1077.68
974.56	1077.07
974.85	1077.07
975.15	1075.52
975.44	1074.40
975.73	1073.02
976.03	1070.70
976.32	1066.56
976.61	1067.05
976.91	1069.53
977.20	1065.95
977.49	1068.97
977.79	1072.81
978.08	1071.71
978.37	1073.30
978.67	1076.13
978.96	1075.03
979.25	1075.17
979.55	1073.14
979.84	1070.96
980.13	1073.51
980.42	1076.34
980.72	1079.08
981.01	1079.78
981.30	1083.71
981.59	1082.50
981.89	1079.31
982.18	1075.20
982.47	1076.79
982.76	1073.18
983.06	1072.34
983.35	1072.25
983.64	1073.44
983.93	1076.55
984.22	1077.14
984.52	1076.55
984.81	1074.73
985.10	1074.68
985.39	1072.53
985.68	1072.39
985.97	1069.02
986.27	1071.54
986.56	1070.30
986.85	1069.37
987.14	1067.94
987.43	1071.36
987.72	1071.80
988.01	1073.84
988.31	1072.50
988.60	1075.55
988.89	1074.12
989.18	1073.14
989.47	1074.42
989.76	1080.67
990.05	1080.74
990.34	1082.26
990.63	1083.39
990.92	1082.71
991.21	1075.94
991.51	1070.16
991.80	1071.03
992.09	1068.64
992.38	1068.03
992.67	1067.26
992.96	1070.72
993.25	1070.51
993.54	1067.57
993.83	1067.59
994.12	1070.33
994.41	1072.13
994.70	1073.72
994.99	1078.26
995.28	1077.04
995.57	1077.00
995.86	1075.64
996.15	1072.50
996.44	1073.72
996.73	1075.76
997.02	1076.55
997.31	1076.67
997.59	1078.99
997.88	1078.54
998.17	1077.56
998.46	1075.85
998.75	1074.77
999.04	1072.92
999.33	1071.03
999.62	1069.04
999.91	1071.31
1000.20	1073.25
1000.49	1075.64
1000.77	1077.65
1001.06	1080.95
1001.35	1083.39
1001.64	1082.24
1001.93	1082.12
1002.22	1081.75
1002.51	1080.98
1002.79	1077.44
1003.08	1078.80
1003.37	1075.17
1003.66	1072.32
1003.95	1070.98
1004.23	1069.74
1004.52	1069.74
1004.81	1072.20
1005.10	1074.63
1005.39	1075.85
1005.67	1076.60
1005.96	1076.11
1006.25	1078.38
1006.54	1079.99
1006.83	1079.20
1007.11	1081.96
1007.40	1080.53
1007.69	1077.93
1007.97	1077.93
1008.26	1079.78
1008.55	1079.46
1008.84	1077.51
1009.12	1078.68
1009.41	1080.77
1009.70	1080.23
1009.98	1075.01
1010.27	1078.52
1010.56	1077.49
1010.85	1073.53
1011.13	1077.18
1011.42	1078.43
1011.71	1077.61
1011.99	1078.28
1012.28	1075.73
1012.56	1070.77
1012.85	1071.73
1013.14	1069.13
1013.42	1069.70
1013.71	1073.60
1014.00	1073.04
1014.28	1076.55
1014.57	1079.97
1014.85	1078.05
1015.14	1076.69
1015.43	1077.47
1015.71	1073.18
1016.00	1072.67
1016.28	1074.54
1016.57	1073.67
1016.85	1073.00
1017.14	1077.07
1017.43	1075.71
1017.71	1071.82
1018.00	1072.36
1018.28	1072.69
1018.57	1070.65
1018.85	1072.62
1019.14	1075.01
1019.42	1075.36
1019.71	1075.71
1019.99	1076.93
1020.28	1075.92
1020.56	1076.20
1020.85	1078.64
1021.13	1078.43
1021.42	1077.23
1021.70	1079.74
1021.99	1079.71
1022.27	1079.10
1022.55	1075.13
1022.84	1081.80
>>>>>End Processed Spectral Data<<<<<
