SpectraSuite Data File
++++++++++++++++++++++++++++++++++++
Date: Mon Aug 26 10:22:25 PDT 2019
User: corrico
Dark Spectrum Present: No
Reference Spectrum Present: No
Number of Sampled Component Spectra: 1
Spectrometers: USB2+H06089
Integration Time (usec): 2000 (USB2+H06089)
Spectra Averaged: 20 (USB2+H06089)
Boxcar Smoothing: 2 (USB2+H06089)
Correct for Electrical Dark: No (USB2+H06089)
Strobe/Lamp Enabled: No (USB2+H06089)
Correct for Detector Non-linearity: No (USB2+H06089)
Correct for Stray Light: No (USB2+H06089)
Number of Pixels in Processed Spectrum: 2048
>>>>>Begin Processed Spectral Data<<<<<
339.70	1026.79
340.07	1026.79
340.45	998.50
340.82	977.62
341.19	956.97
341.57	931.09
341.94	917.84
342.31	907.03
342.69	900.52
343.06	894.76
343.43	892.87
343.81	894.04
344.18	896.68
344.55	902.07
344.93	908.03
345.30	917.23
345.67	922.15
346.04	930.34
346.42	936.54
346.79	945.34
347.16	952.06
347.54	962.97
347.91	969.43
348.28	982.18
348.65	992.18
349.03	1003.83
349.40	1012.87
349.77	1024.17
350.14	1028.90
350.52	1032.25
350.89	1036.32
351.26	1041.94
351.63	1047.27
352.01	1052.05
352.38	1058.98
352.75	1063.68
353.12	1068.06
353.50	1070.12
353.87	1073.77
354.24	1077.14
354.61	1079.24
354.98	1078.10
355.36	1084.72
355.73	1085.52
356.10	1086.31
356.47	1086.69
356.84	1089.26
357.22	1085.14
357.59	1086.69
357.96	1084.21
358.33	1088.51
358.70	1088.70
359.08	1087.79
359.45	1087.34
359.82	1087.39
360.19	1084.89
360.56	1084.89
360.94	1089.12
361.31	1086.78
361.68	1085.49
362.05	1080.20
362.42	1077.42
362.79	1071.29
363.16	1074.31
363.54	1074.17
363.91	1078.87
364.28	1082.05
364.65	1082.54
365.02	1078.68
365.39	1077.54
365.76	1076.04
366.14	1072.36
366.51	1068.22
366.88	1067.47
367.25	1071.43
367.62	1069.67
367.99	1071.82
368.36	1076.67
368.73	1076.46
369.10	1073.18
369.48	1071.75
369.85	1072.69
370.22	1072.74
370.59	1075.38
370.96	1076.83
371.33	1079.31
371.70	1076.60
372.07	1077.89
372.44	1073.32
372.81	1072.69
373.18	1070.02
373.55	1070.96
373.93	1070.19
374.30	1074.54
374.67	1074.75
375.04	1076.72
375.41	1078.94
375.78	1076.04
376.15	1077.23
376.52	1078.66
376.89	1078.80
377.26	1076.53
377.63	1080.13
378.00	1079.64
378.37	1076.97
378.74	1077.77
379.11	1077.96
379.48	1075.38
379.85	1073.02
380.22	1075.50
380.59	1076.51
380.96	1075.97
381.33	1077.56
381.70	1078.61
382.07	1077.35
382.44	1075.83
382.81	1077.44
383.18	1080.02
383.55	1081.07
383.92	1082.80
384.29	1085.14
384.66	1083.83
385.03	1082.36
385.40	1082.29
385.77	1082.10
386.14	1080.74
386.51	1083.90
386.88	1081.77
387.25	1080.53
387.62	1081.07
387.99	1081.70
388.36	1080.27
388.73	1080.41
389.10	1082.78
389.46	1080.23
389.83	1081.23
390.20	1081.94
390.57	1084.30
390.94	1086.43
391.31	1087.83
391.68	1089.45
392.05	1088.68
392.42	1088.84
392.79	1087.04
393.16	1088.51
393.53	1086.94
393.89	1084.70
394.26	1085.61
394.63	1083.57
395.00	1081.77
395.37	1082.64
395.74	1085.68
396.11	1084.56
396.48	1087.27
396.84	1090.24
397.21	1087.06
397.58	1086.43
397.95	1084.60
398.32	1084.09
398.69	1081.96
399.06	1084.77
399.42	1086.48
399.79	1091.70
400.16	1093.62
400.53	1097.43
400.90	1096.54
401.27	1096.78
401.64	1093.08
402.00	1088.63
402.37	1086.69
402.74	1087.58
403.11	1086.36
403.48	1085.80
403.84	1084.65
404.21	1085.49
404.58	1082.52
404.95	1081.42
405.32	1082.76
405.68	1090.20
406.05	1092.91
406.42	1096.89
406.79	1096.94
407.16	1097.20
407.52	1097.17
407.89	1095.00
408.26	1095.18
408.63	1097.24
408.99	1097.34
409.36	1094.97
409.73	1093.05
410.10	1093.71
410.47	1097.10
410.83	1101.11
411.20	1103.89
411.57	1105.41
411.94	1104.94
412.30	1101.36
412.67	1099.14
413.04	1096.47
413.40	1095.53
413.77	1096.26
414.14	1100.87
414.51	1102.93
414.87	1103.61
415.24	1105.62
415.61	1105.11
415.97	1099.58
416.34	1098.48
416.71	1099.16
417.08	1100.40
417.44	1101.64
417.81	1105.25
418.18	1104.55
418.54	1105.60
418.91	1103.31
419.28	1105.88
419.64	1106.14
420.01	1108.08
420.38	1111.71
420.74	1115.05
421.11	1116.60
421.48	1119.95
421.84	1124.35
422.21	1124.70
422.58	1125.63
422.94	1125.19
423.31	1127.37
423.68	1128.82
424.04	1129.96
424.41	1133.80
424.77	1139.35
425.14	1145.13
425.51	1145.76
425.87	1148.15
426.24	1154.82
426.61	1157.16
426.97	1158.52
427.34	1166.31
427.70	1175.23
428.07	1179.51
428.44	1186.70
428.80	1194.23
429.17	1203.50
429.53	1210.99
429.90	1220.92
430.27	1232.60
430.63	1243.60
431.00	1253.45
431.36	1263.07
431.73	1275.76
432.09	1287.27
432.46	1299.63
432.83	1314.52
433.19	1332.44
433.56	1349.13
433.92	1370.69
434.29	1392.06
434.65	1414.29
435.02	1440.67
435.38	1466.84
435.75	1491.01
436.11	1526.73
436.48	1557.30
436.84	1588.62
437.21	1624.00
437.57	1659.28
437.94	1697.75
438.30	1742.90
438.67	1786.34
439.03	1833.62
439.40	1890.52
439.76	1940.75
440.13	2002.05
440.49	2069.62
440.86	2137.19
441.22	2211.43
441.59	2288.29
441.95	2363.17
442.32	2444.97
442.68	2538.03
443.05	2625.82
443.41	2724.38
443.78	2819.64
444.14	2922.79
444.51	3030.08
444.87	3165.27
445.24	3305.02
445.60	3467.25
445.96	3629.59
446.33	3799.18
446.69	3960.51
447.06	4132.87
447.42	4304.60
447.79	4494.86
448.15	4720.51
448.51	4947.42
448.88	5203.97
449.24	5452.39
449.61	5730.68
449.97	5987.79
450.33	6275.05
450.70	6537.91
451.06	6868.21
451.43	7164.87
451.79	7531.96
452.15	7924.16
452.52	8367.81
452.88	8823.45
453.24	9346.18
453.61	9913.41
453.97	10474.53
454.34	11023.83
454.70	11661.20
455.06	12313.79
455.43	12947.75
455.79	13542.90
456.15	14252.55
456.52	14908.09
456.88	15669.96
457.24	16377.69
457.61	17225.43
457.97	17995.79
458.33	18766.51
458.70	19512.23
459.06	20273.46
459.42	21088.74
459.79	21844.99
460.15	22756.19
460.51	23606.53
460.88	24526.61
461.24	25330.71
461.60	26290.09
461.96	27114.76
462.33	27946.82
462.69	28719.24
463.05	29544.23
463.42	30245.88
463.78	30895.70
464.14	31432.48
464.50	32019.25
464.87	32486.00
465.23	32818.94
465.59	33187.06
465.95	33520.92
466.32	33765.39
466.68	34001.83
467.04	34170.77
467.40	34279.04
467.77	34419.36
468.13	34405.97
468.49	34323.37
468.85	34253.39
469.22	34096.36
469.58	33744.21
469.94	33517.31
470.30	33200.12
470.66	32786.20
471.03	32229.41
471.39	31854.01
471.75	31234.22
472.11	30636.14
472.47	30277.26
472.84	29974.23
473.20	29503.13
473.56	29243.94
473.92	28830.70
474.28	28312.38
474.65	27810.78
475.01	27335.68
475.37	26742.19
475.73	26271.86
476.09	25755.35
476.45	25222.03
476.81	24702.72
477.18	24162.61
477.54	23718.24
477.90	23352.20
478.26	22924.38
478.62	22569.25
478.98	22290.33
479.34	21969.13
479.71	21558.60
480.07	21241.44
480.43	20896.26
480.79	20517.04
481.15	20179.12
481.51	19852.38
481.87	19588.69
482.23	19297.86
482.59	19022.45
482.96	18732.31
483.32	18451.82
483.68	18082.04
484.04	17752.92
484.40	17413.96
484.76	17047.36
485.12	16683.27
485.48	16372.68
485.84	16021.01
486.20	15674.26
486.56	15327.16
486.92	15024.02
487.28	14665.33
487.64	14313.69
488.00	13986.74
488.37	13657.99
488.73	13312.52
489.09	12974.43
489.45	12668.99
489.81	12355.50
490.17	12061.69
490.53	11777.01
490.89	11482.67
491.25	11181.91
491.61	10877.80
491.97	10574.61
492.33	10252.79
492.69	9952.45
493.05	9652.25
493.41	9358.09
493.77	9071.78
494.13	8817.38
494.49	8574.18
494.85	8340.71
495.21	8122.29
495.57	7912.53
495.93	7700.81
496.29	7494.37
496.64	7308.56
497.00	7115.67
497.36	6920.78
497.72	6728.13
498.08	6550.06
498.44	6372.72
498.80	6217.02
499.16	6062.74
499.52	5917.01
499.88	5792.10
500.24	5669.99
500.60	5534.59
500.96	5421.83
501.32	5304.54
501.68	5181.43
502.03	5055.37
502.39	4939.07
502.75	4799.69
503.11	4679.55
503.47	4556.18
503.83	4431.62
504.19	4310.07
504.55	4209.90
504.91	4107.71
505.26	4014.98
505.62	3929.50
505.98	3845.13
506.34	3751.67
506.70	3662.47
507.06	3574.82
507.42	3492.88
507.78	3414.49
508.13	3342.80
508.49	3272.70
508.85	3203.12
509.21	3137.44
509.57	3064.00
509.93	2993.22
510.28	2926.61
510.64	2861.54
511.00	2793.83
511.36	2738.71
511.72	2683.78
512.07	2635.23
512.43	2585.59
512.79	2539.41
513.15	2493.54
513.51	2448.36
513.86	2400.97
514.22	2360.80
514.58	2320.80
514.94	2284.88
515.30	2250.40
515.65	2215.95
516.01	2179.62
516.37	2145.08
516.73	2114.39
517.08	2086.94
517.44	2056.70
517.80	2030.86
518.16	2004.01
518.51	1975.55
518.87	1950.65
519.23	1924.25
519.59	1899.41
519.94	1874.09
520.30	1847.41
520.66	1820.05
521.01	1800.01
521.37	1776.21
521.73	1757.25
522.09	1737.50
522.44	1722.59
522.80	1705.74
523.16	1689.59
523.51	1666.72
523.87	1651.55
524.23	1626.72
524.58	1604.23
524.94	1584.87
525.30	1569.49
525.65	1551.21
526.01	1540.61
526.37	1528.02
526.72	1516.83
527.08	1505.95
527.44	1497.50
527.79	1483.88
528.15	1472.95
528.51	1460.05
528.86	1448.98
529.22	1434.49
529.58	1423.07
529.93	1411.20
530.29	1398.00
530.65	1386.60
531.00	1377.69
531.36	1369.54
531.71	1360.02
532.07	1352.01
532.43	1342.86
532.78	1331.81
533.14	1320.93
533.49	1314.21
533.85	1308.15
534.21	1303.37
534.56	1298.01
534.92	1290.29
535.27	1285.23
535.63	1280.81
535.98	1272.15
536.34	1267.80
536.69	1265.90
537.05	1259.61
537.41	1253.31
537.76	1250.69
538.12	1244.09
538.47	1239.97
538.83	1239.15
539.18	1234.07
539.54	1229.51
539.89	1226.77
540.25	1222.70
540.60	1212.35
540.96	1212.40
541.31	1211.11
541.67	1209.99
542.02	1204.67
542.38	1207.25
542.73	1202.82
543.09	1197.56
543.44	1192.83
543.80	1189.30
544.15	1182.98
544.51	1176.87
544.86	1176.10
545.22	1175.81
545.57	1173.03
545.93	1171.44
546.28	1169.73
546.64	1164.81
546.99	1158.40
547.35	1159.06
547.70	1155.90
548.05	1156.06
548.41	1152.62
548.76	1151.12
549.12	1149.11
549.47	1147.71
549.83	1144.48
550.18	1147.49
550.53	1147.00
550.89	1145.55
551.24	1146.16
551.60	1143.56
551.95	1142.39
552.30	1143.80
552.66	1139.51
553.01	1136.42
553.37	1135.32
553.72	1129.14
554.07	1126.43
554.43	1126.97
554.78	1124.93
555.13	1125.45
555.49	1129.07
555.84	1128.28
556.19	1125.54
556.55	1123.27
556.90	1122.75
557.26	1119.27
557.61	1119.22
557.96	1120.37
558.32	1122.40
558.67	1120.25
559.02	1120.20
559.37	1116.55
559.73	1115.69
560.08	1114.54
560.43	1109.72
560.79	1107.17
561.14	1106.14
561.49	1106.44
561.85	1104.17
562.20	1108.62
562.55	1109.20
562.90	1108.97
563.26	1108.81
563.61	1108.66
563.96	1108.78
564.32	1108.76
564.67	1109.86
565.02	1108.50
565.37	1107.82
565.73	1107.12
566.08	1106.72
566.43	1109.06
566.78	1108.64
567.14	1108.03
567.49	1104.78
567.84	1103.12
568.19	1099.37
568.54	1100.87
568.90	1103.49
569.25	1105.18
569.60	1103.14
569.95	1104.45
570.31	1102.21
570.66	1100.50
571.01	1101.85
571.36	1103.56
571.71	1100.73
572.06	1097.95
572.42	1097.55
572.77	1095.58
573.12	1096.19
573.47	1096.24
573.82	1100.47
574.18	1098.60
574.53	1099.91
574.88	1096.19
575.23	1093.26
575.58	1093.47
575.93	1092.75
576.28	1095.82
576.64	1100.89
576.99	1103.89
577.34	1099.65
577.69	1101.41
578.04	1098.53
578.39	1094.29
578.74	1092.80
579.09	1095.84
579.44	1097.71
579.80	1097.38
580.15	1100.29
580.50	1099.16
580.85	1094.97
581.20	1092.00
581.55	1089.54
581.90	1087.18
582.25	1090.22
582.60	1092.66
582.95	1092.45
583.30	1093.17
583.65	1094.72
584.00	1094.32
584.35	1093.87
584.71	1092.05
585.06	1090.32
585.41	1089.24
585.76	1086.87
586.11	1087.41
586.46	1088.61
586.81	1088.84
587.16	1089.24
587.51	1090.78
587.86	1089.50
588.21	1092.40
588.56	1091.46
588.91	1088.63
589.26	1089.03
589.61	1090.60
589.96	1093.36
590.31	1096.61
590.66	1098.37
591.01	1099.35
591.36	1097.29
591.71	1091.04
592.06	1087.51
592.41	1087.69
592.76	1083.93
593.10	1084.67
593.45	1088.04
593.80	1088.77
594.15	1089.33
594.50	1092.89
594.85	1092.42
595.20	1090.81
595.55	1090.99
595.90	1091.37
596.25	1087.72
596.60	1089.10
596.95	1088.09
597.30	1087.09
597.64	1095.84
597.99	1098.55
598.34	1096.31
598.69	1097.17
599.04	1096.28
599.39	1086.34
599.74	1085.49
600.09	1084.16
600.44	1083.43
600.78	1087.06
601.13	1087.69
601.48	1086.03
601.83	1091.65
602.18	1090.01
602.53	1085.07
602.88	1083.83
603.22	1085.68
603.57	1083.39
603.92	1084.37
604.27	1086.36
604.62	1087.74
604.97	1084.89
605.31	1082.31
605.66	1082.64
606.01	1084.77
606.36	1080.91
606.71	1081.33
607.05	1081.26
607.40	1079.97
607.75	1076.72
608.10	1076.88
608.44	1077.68
608.79	1080.70
609.14	1082.38
609.49	1081.44
609.84	1082.54
610.18	1085.89
610.53	1083.93
610.88	1083.48
611.23	1087.32
611.57	1091.88
611.92	1088.58
612.27	1088.68
612.62	1088.75
612.96	1091.74
613.31	1089.33
613.66	1091.72
614.00	1093.24
614.35	1091.49
614.70	1086.34
615.05	1080.32
615.39	1075.45
615.74	1073.88
616.09	1076.95
616.43	1077.40
616.78	1079.20
617.13	1083.46
617.47	1082.59
617.82	1080.70
618.17	1079.88
618.51	1079.99
618.86	1076.79
619.21	1081.26
619.55	1080.84
619.90	1082.05
620.25	1084.53
620.59	1085.87
620.94	1079.69
621.29	1079.50
621.63	1080.06
621.98	1079.69
622.32	1082.12
622.67	1084.91
623.02	1086.43
623.36	1087.09
623.71	1089.54
624.05	1087.41
624.40	1085.80
624.75	1082.19
625.09	1082.33
625.44	1078.36
625.78	1079.36
626.13	1081.56
626.48	1081.37
626.82	1079.74
627.17	1078.57
627.51	1076.88
627.86	1075.83
628.20	1077.93
628.55	1074.73
628.89	1077.18
629.24	1079.20
629.58	1078.85
629.93	1080.67
630.28	1082.38
630.62	1084.77
630.97	1083.18
631.31	1082.50
631.66	1083.27
632.00	1085.59
632.35	1083.36
632.69	1083.41
633.04	1086.76
633.38	1086.01
633.73	1085.59
634.07	1086.59
634.42	1085.07
634.76	1084.07
635.11	1083.90
635.45	1082.90
635.79	1082.94
636.14	1085.26
636.48	1086.85
636.83	1088.40
637.17	1088.89
637.52	1088.65
637.86	1089.96
638.21	1085.87
638.55	1081.66
638.89	1083.88
639.24	1085.38
639.58	1083.32
639.93	1080.81
640.27	1083.86
640.61	1081.84
640.96	1083.01
641.30	1083.69
641.65	1089.07
641.99	1086.90
642.33	1087.55
642.68	1082.12
643.02	1079.13
643.37	1077.04
643.71	1076.34
644.05	1077.42
644.40	1082.17
644.74	1085.77
645.08	1085.31
645.43	1086.17
645.77	1085.17
646.11	1084.98
646.46	1086.52
646.80	1087.53
647.14	1092.12
647.49	1092.73
647.83	1091.72
648.17	1089.82
648.52	1089.03
648.86	1085.49
649.20	1083.15
649.55	1082.94
649.89	1084.77
650.23	1085.87
650.57	1086.87
650.92	1090.83
651.26	1088.77
651.60	1084.93
651.95	1084.49
652.29	1082.87
652.63	1080.09
652.97	1079.85
653.32	1080.46
653.66	1080.58
654.00	1083.53
654.34	1082.12
654.69	1083.20
655.03	1083.18
655.37	1083.04
655.71	1081.82
656.05	1081.56
656.40	1083.69
656.74	1081.42
657.08	1080.84
657.42	1081.21
657.76	1082.40
658.11	1078.28
658.45	1080.39
658.79	1079.78
659.13	1077.28
659.47	1076.37
659.82	1078.94
660.16	1079.64
660.50	1080.53
660.84	1079.43
661.18	1080.06
661.52	1078.75
661.87	1078.47
662.21	1079.81
662.55	1083.97
662.89	1083.57
663.23	1083.36
663.57	1083.53
663.91	1084.16
664.25	1080.18
664.60	1079.99
664.94	1079.22
665.28	1078.66
665.62	1077.07
665.96	1077.44
666.30	1078.28
666.64	1075.66
666.98	1078.43
667.32	1077.56
667.66	1079.64
668.01	1079.55
668.35	1084.42
668.69	1081.73
669.03	1080.32
669.37	1080.86
669.71	1079.34
670.05	1078.85
670.39	1080.51
670.73	1079.64
671.07	1076.69
671.41	1078.10
671.75	1077.49
672.09	1074.54
672.43	1076.79
672.77	1078.12
673.11	1080.04
673.45	1080.67
673.79	1081.94
674.13	1083.06
674.47	1078.82
674.81	1077.86
675.15	1078.38
675.49	1075.62
675.83	1074.89
676.17	1078.26
676.51	1079.24
676.85	1078.87
677.19	1080.23
677.53	1079.34
677.87	1077.70
678.21	1076.20
678.55	1076.34
678.89	1076.23
679.23	1078.28
679.57	1081.02
679.90	1080.30
680.24	1080.37
680.58	1082.05
680.92	1081.49
681.26	1079.95
681.60	1079.13
681.94	1077.25
682.28	1075.69
682.62	1078.43
682.96	1079.85
683.29	1081.44
683.63	1082.78
683.97	1083.60
684.31	1081.42
684.65	1083.36
684.99	1082.71
685.33	1080.25
685.67	1080.79
686.00	1081.91
686.34	1077.98
686.68	1075.24
687.02	1076.95
687.36	1077.65
687.70	1075.29
688.03	1075.22
688.37	1079.67
688.71	1082.05
689.05	1082.12
689.39	1083.22
689.72	1085.10
690.06	1081.40
690.40	1079.06
690.74	1080.44
691.08	1078.31
691.41	1078.52
691.75	1081.35
692.09	1083.67
692.43	1081.75
692.76	1080.70
693.10	1077.84
693.44	1076.90
693.78	1079.13
694.11	1079.88
694.45	1083.57
694.79	1084.49
695.13	1087.48
695.46	1086.31
695.80	1086.52
696.14	1086.38
696.48	1090.64
696.81	1089.12
697.15	1086.80
697.49	1086.15
697.82	1083.11
698.16	1082.47
698.50	1080.30
698.83	1082.12
699.17	1080.20
699.51	1083.06
699.84	1079.64
700.18	1080.09
700.52	1078.71
700.85	1082.73
701.19	1077.72
701.53	1080.37
701.86	1081.58
702.20	1080.77
702.54	1080.02
702.87	1083.79
703.21	1079.48
703.55	1079.46
703.88	1080.20
704.22	1080.32
704.55	1081.09
704.89	1083.79
705.23	1081.61
705.56	1081.05
705.90	1078.47
706.23	1076.32
706.57	1078.47
706.91	1079.01
707.24	1075.64
707.58	1075.03
707.91	1078.45
708.25	1077.30
708.58	1077.75
708.92	1081.66
709.26	1084.74
709.59	1084.70
709.93	1081.75
710.26	1081.56
710.60	1081.87
710.93	1079.22
711.27	1075.15
711.60	1077.61
711.94	1078.21
712.27	1075.78
712.61	1077.09
712.94	1078.94
713.28	1076.62
713.61	1076.25
713.95	1077.56
714.28	1076.27
714.62	1075.94
714.95	1077.84
715.29	1079.53
715.62	1077.61
715.96	1077.37
716.29	1079.57
716.63	1077.65
716.96	1075.41
717.29	1078.10
717.63	1082.22
717.96	1080.79
718.30	1086.17
718.63	1085.63
718.97	1083.83
719.30	1081.66
719.63	1080.84
719.97	1079.08
720.30	1079.20
720.64	1082.19
720.97	1083.67
721.30	1085.94
721.64	1085.52
721.97	1086.78
722.31	1085.61
722.64	1084.16
722.97	1082.78
723.31	1079.74
723.64	1079.55
723.97	1075.80
724.31	1075.10
724.64	1075.55
724.98	1077.23
725.31	1076.18
725.64	1078.24
725.98	1077.75
726.31	1075.38
726.64	1075.29
726.97	1077.44
727.31	1077.09
727.64	1078.31
727.97	1080.79
728.31	1079.43
728.64	1077.93
728.97	1080.81
729.31	1078.61
729.64	1075.97
729.97	1077.63
730.30	1078.71
730.64	1075.43
730.97	1077.23
731.30	1078.47
731.63	1077.54
731.97	1078.05
732.30	1080.67
732.63	1082.92
732.96	1082.31
733.30	1082.64
733.63	1080.74
733.96	1076.97
734.29	1071.15
734.63	1074.59
734.96	1075.55
735.29	1079.13
735.62	1083.69
735.95	1085.03
736.29	1081.23
736.62	1080.53
736.95	1079.81
737.28	1080.30
737.61	1080.13
737.94	1082.94
738.28	1080.86
738.61	1078.82
738.94	1074.33
739.27	1077.40
739.60	1075.15
739.93	1079.24
740.27	1077.70
740.60	1078.24
740.93	1077.63
741.26	1076.93
741.59	1074.33
741.92	1076.72
742.25	1078.85
742.58	1074.73
742.91	1074.91
743.25	1075.97
743.58	1074.24
743.91	1074.31
744.24	1078.40
744.57	1076.44
744.90	1074.12
745.23	1073.35
745.56	1071.68
745.89	1071.57
746.22	1076.51
746.55	1078.64
746.88	1081.07
747.21	1085.26
747.54	1086.71
747.87	1083.32
748.20	1079.67
748.53	1080.11
748.87	1075.48
749.20	1073.60
749.53	1075.03
749.86	1078.17
750.19	1077.93
750.52	1077.25
750.85	1077.28
751.18	1077.33
751.51	1077.56
751.84	1077.09
752.16	1080.23
752.49	1079.10
752.82	1079.99
753.15	1080.72
753.48	1079.57
753.81	1077.14
754.14	1079.13
754.47	1080.60
754.80	1079.10
755.13	1080.74
755.46	1081.51
755.79	1079.36
756.12	1076.18
756.45	1077.18
756.78	1076.93
757.11	1077.77
757.43	1077.44
757.76	1079.13
758.09	1078.71
758.42	1080.53
758.75	1078.99
759.08	1078.99
759.41	1078.68
759.74	1078.82
760.07	1077.65
760.39	1081.61
760.72	1081.16
761.05	1077.51
761.38	1076.90
761.71	1075.99
762.04	1072.88
762.36	1074.77
762.69	1077.79
763.02	1077.51
763.35	1077.02
763.68	1079.31
764.01	1077.23
764.33	1075.29
764.66	1076.60
764.99	1076.62
765.32	1076.51
765.65	1078.14
765.97	1082.59
766.30	1083.11
766.63	1080.72
766.96	1077.47
767.28	1078.47
767.61	1076.25
767.94	1075.38
768.27	1076.97
768.59	1078.12
768.92	1077.89
769.25	1077.63
769.58	1081.30
769.90	1082.99
770.23	1082.15
770.56	1079.74
770.89	1080.74
771.21	1081.44
771.54	1080.02
771.87	1079.48
772.19	1079.92
772.52	1080.74
772.85	1077.25
773.17	1076.13
773.50	1079.85
773.83	1080.04
774.15	1077.51
774.48	1076.93
774.81	1077.37
775.13	1074.59
775.46	1075.36
775.79	1076.34
776.11	1074.66
776.44	1074.56
776.77	1077.18
777.09	1075.13
777.42	1075.13
777.74	1073.37
778.07	1073.79
778.40	1072.76
778.72	1073.81
779.05	1075.80
779.37	1077.25
779.70	1078.36
780.03	1078.85
780.35	1078.07
780.68	1074.59
781.00	1078.45
781.33	1079.17
781.65	1075.97
781.98	1082.03
782.31	1083.86
782.63	1080.44
782.96	1079.81
783.28	1081.73
783.61	1081.28
783.93	1082.61
784.26	1083.79
784.58	1083.41
784.91	1081.63
785.23	1077.00
785.56	1075.03
785.88	1075.34
786.21	1073.21
786.53	1076.81
786.86	1077.16
787.18	1078.10
787.51	1074.68
787.83	1078.47
788.16	1075.94
788.48	1075.24
788.81	1077.09
789.13	1084.77
789.46	1085.17
789.78	1086.27
790.10	1088.09
790.43	1085.56
790.75	1081.07
791.08	1078.21
791.40	1078.52
791.73	1078.19
792.05	1078.92
792.37	1076.34
792.70	1075.94
793.02	1078.33
793.35	1082.10
793.67	1082.64
793.99	1086.29
794.32	1085.00
794.64	1079.10
794.96	1074.56
795.29	1072.97
795.61	1074.89
795.93	1076.76
796.26	1079.31
796.58	1080.88
796.91	1080.18
797.23	1075.87
797.55	1075.45
797.87	1077.54
798.20	1078.28
798.52	1081.21
798.84	1083.46
799.17	1085.52
799.49	1083.71
799.81	1082.26
800.14	1082.45
800.46	1083.39
800.78	1083.90
801.10	1083.25
801.43	1080.63
801.75	1079.17
802.07	1077.21
802.40	1075.57
802.72	1074.24
803.04	1076.90
803.36	1074.73
803.69	1075.85
804.01	1077.89
804.33	1079.13
804.65	1077.28
804.97	1080.18
805.30	1078.94
805.62	1077.37
805.94	1074.91
806.26	1075.31
806.58	1072.20
806.91	1072.78
807.23	1075.52
807.55	1078.99
807.87	1080.51
808.19	1083.15
808.52	1083.34
808.84	1079.13
809.16	1078.38
809.48	1078.05
809.80	1078.26
810.12	1077.16
810.44	1078.14
810.77	1079.31
811.09	1080.09
811.41	1079.34
811.73	1081.89
812.05	1083.15
812.37	1082.26
812.69	1080.84
813.01	1082.61
813.33	1078.14
813.66	1076.46
813.98	1077.07
814.30	1079.99
814.62	1077.07
814.94	1081.70
815.26	1079.88
815.58	1079.57
815.90	1076.97
816.22	1076.97
816.54	1071.90
816.86	1075.69
817.18	1076.01
817.50	1076.39
817.82	1077.09
818.14	1079.10
818.46	1077.30
818.78	1076.95
819.10	1077.54
819.42	1078.68
819.74	1076.27
820.06	1077.00
820.38	1077.54
820.70	1077.58
821.02	1074.45
821.34	1078.36
821.66	1081.44
821.98	1080.60
822.30	1081.16
822.62	1084.28
822.94	1084.18
823.26	1082.40
823.58	1081.96
823.90	1081.26
824.22	1080.81
824.54	1082.83
824.86	1080.60
825.18	1080.86
825.50	1079.48
825.81	1078.82
826.13	1077.54
826.45	1076.13
826.77	1075.08
827.09	1075.94
827.41	1077.63
827.73	1078.61
828.05	1082.26
828.36	1083.60
828.68	1083.74
829.00	1083.41
829.32	1078.26
829.64	1078.00
829.96	1075.73
830.28	1075.13
830.59	1071.82
830.91	1078.24
831.23	1076.46
831.55	1075.99
831.87	1076.74
832.19	1081.80
832.50	1078.80
832.82	1078.50
833.14	1078.85
833.46	1076.76
833.78	1074.24
834.09	1068.69
834.41	1067.87
834.73	1068.41
835.05	1074.31
835.36	1074.10
835.68	1080.56
836.00	1081.66
836.32	1081.66
836.63	1079.64
836.95	1079.78
837.27	1075.05
837.59	1076.81
837.90	1077.79
838.22	1075.20
838.54	1072.78
838.85	1077.23
839.17	1076.88
839.49	1077.68
839.80	1081.21
840.12	1083.06
840.44	1081.28
840.76	1081.73
841.07	1080.74
841.39	1076.20
841.71	1077.77
842.02	1079.99
842.34	1078.47
842.65	1078.64
842.97	1080.34
843.29	1077.37
843.60	1074.17
843.92	1075.73
844.24	1077.86
844.55	1075.48
844.87	1075.90
845.18	1078.75
845.50	1075.62
845.82	1072.41
846.13	1074.49
846.45	1075.03
846.76	1072.34
847.08	1073.88
847.40	1077.44
847.71	1078.68
848.03	1079.81
848.34	1082.15
848.66	1082.50
848.97	1077.98
849.29	1073.53
849.60	1073.14
849.92	1074.31
850.24	1073.65
850.55	1075.71
850.87	1078.36
851.18	1074.49
851.50	1072.92
851.81	1073.28
852.13	1074.07
852.44	1073.93
852.76	1078.19
853.07	1074.28
853.39	1073.46
853.70	1073.42
854.01	1073.86
854.33	1073.14
854.64	1074.10
854.96	1076.97
855.27	1077.77
855.59	1079.99
855.90	1080.09
856.22	1082.19
856.53	1079.22
856.84	1076.95
857.16	1074.84
857.47	1075.48
857.79	1074.96
858.10	1076.62
858.41	1079.15
858.73	1079.85
859.04	1080.18
859.36	1081.05
859.67	1080.13
859.98	1079.55
860.30	1078.10
860.61	1076.41
860.92	1075.27
861.24	1074.82
861.55	1072.48
861.87	1073.11
862.18	1072.81
862.49	1073.65
862.81	1074.42
863.12	1074.84
863.43	1078.96
863.74	1080.70
864.06	1079.15
864.37	1078.28
864.68	1080.16
865.00	1075.90
865.31	1076.27
865.62	1077.72
865.94	1079.08
866.25	1077.91
866.56	1079.71
866.87	1076.20
867.19	1077.40
867.50	1076.18
867.81	1078.21
868.12	1078.57
868.44	1082.15
868.75	1080.63
869.06	1079.38
869.37	1079.60
869.68	1077.44
870.00	1074.26
870.31	1072.67
870.62	1075.97
870.93	1074.17
871.24	1076.25
871.56	1079.22
871.87	1080.51
872.18	1079.08
872.49	1079.06
872.80	1078.36
873.12	1078.85
873.43	1080.67
873.74	1080.06
874.05	1081.84
874.36	1081.02
874.67	1077.28
874.98	1076.48
875.29	1075.87
875.61	1075.05
875.92	1074.80
876.23	1076.48
876.54	1077.35
876.85	1079.57
877.16	1080.25
877.47	1078.33
877.78	1080.60
878.09	1079.34
878.40	1076.60
878.72	1075.50
879.03	1077.93
879.34	1076.34
879.65	1075.90
879.96	1077.49
880.27	1075.69
880.58	1075.36
880.89	1076.15
881.20	1075.97
881.51	1075.17
881.82	1076.13
882.13	1077.30
882.44	1074.80
882.75	1077.02
883.06	1077.72
883.37	1078.94
883.68	1077.68
883.99	1082.80
884.30	1081.28
884.61	1081.26
884.92	1083.25
885.23	1084.65
885.54	1078.31
885.85	1078.92
886.16	1078.78
886.47	1076.83
886.78	1072.60
887.08	1075.69
887.39	1071.73
887.70	1071.57
888.01	1070.54
888.32	1075.57
888.63	1076.13
888.94	1080.25
889.25	1078.31
889.56	1077.11
889.87	1075.55
890.17	1075.99
890.48	1075.38
890.79	1078.00
891.10	1078.96
891.41	1077.28
891.72	1073.67
892.03	1072.50
892.34	1071.61
892.64	1071.45
892.95	1073.04
893.26	1074.28
893.57	1075.73
893.88	1076.46
894.18	1078.82
894.49	1080.70
894.80	1080.93
895.11	1083.79
895.42	1084.79
895.72	1081.75
896.03	1079.13
896.34	1080.84
896.65	1079.64
896.96	1080.86
897.26	1082.76
897.57	1084.42
897.88	1082.90
898.19	1081.96
898.49	1081.44
898.80	1084.07
899.11	1082.83
899.41	1083.18
899.72	1083.83
900.03	1080.63
900.34	1075.73
900.64	1076.08
900.95	1075.13
901.26	1075.43
901.56	1077.11
901.87	1075.85
902.18	1072.11
902.48	1071.08
902.79	1070.14
903.10	1071.36
903.40	1074.38
903.71	1075.66
904.02	1074.94
904.32	1075.38
904.63	1073.63
904.94	1070.96
905.24	1072.18
905.55	1078.28
905.85	1078.31
906.16	1076.58
906.47	1083.11
906.77	1083.22
907.08	1078.61
907.38	1076.76
907.69	1078.31
908.00	1076.90
908.30	1079.57
908.61	1082.78
908.91	1081.77
909.22	1079.36
909.52	1077.35
909.83	1076.65
910.14	1073.51
910.44	1074.03
910.75	1075.45
911.05	1078.52
911.36	1076.44
911.66	1076.27
911.97	1077.58
912.27	1080.48
912.58	1078.87
912.88	1078.99
913.19	1081.00
913.49	1082.52
913.80	1079.57
914.10	1078.21
914.41	1079.15
914.71	1080.91
915.01	1080.32
915.32	1082.64
915.62	1080.98
915.93	1081.54
916.23	1079.01
916.54	1077.51
916.84	1078.38
917.15	1079.41
917.45	1077.28
917.75	1076.72
918.06	1077.11
918.36	1074.63
918.67	1074.42
918.97	1075.10
919.27	1075.97
919.58	1077.61
919.88	1078.68
920.18	1076.81
920.49	1077.77
920.79	1077.30
921.10	1077.49
921.40	1078.80
921.70	1082.54
922.01	1083.60
922.31	1085.26
922.61	1082.57
922.92	1082.80
923.22	1083.22
923.52	1079.03
923.82	1076.62
924.13	1078.71
924.43	1077.18
924.73	1074.42
925.04	1076.72
925.34	1080.04
925.64	1079.10
925.94	1076.72
926.25	1076.37
926.55	1078.21
926.85	1076.04
927.15	1076.13
927.46	1075.24
927.76	1076.74
928.06	1073.07
928.36	1070.87
928.67	1071.57
928.97	1074.33
929.27	1075.62
929.57	1075.62
929.87	1075.87
930.18	1074.96
930.48	1073.53
930.78	1068.20
931.08	1071.33
931.38	1073.60
931.69	1071.90
931.99	1073.25
932.29	1079.15
932.59	1079.27
932.89	1078.38
933.19	1081.75
933.49	1082.52
933.80	1079.53
934.10	1077.33
934.40	1076.18
934.70	1073.14
935.00	1075.10
935.30	1075.76
935.60	1077.23
935.90	1079.13
936.20	1082.94
936.50	1079.64
936.81	1080.58
937.11	1082.12
937.41	1083.11
937.71	1083.13
938.01	1082.64
938.31	1083.13
938.61	1077.54
938.91	1075.69
939.21	1074.12
939.51	1076.67
939.81	1073.28
940.11	1079.08
940.41	1077.84
940.71	1076.44
941.01	1072.67
941.31	1074.17
941.61	1073.21
941.91	1074.63
942.21	1073.81
942.51	1078.14
942.81	1077.86
943.11	1073.00
943.41	1071.33
943.71	1070.16
944.01	1067.66
944.31	1069.79
944.61	1073.53
944.90	1076.25
945.20	1080.77
945.50	1082.90
945.80	1082.08
946.10	1083.27
946.40	1080.34
946.70	1076.39
947.00	1072.08
947.30	1074.49
947.60	1074.24
947.89	1077.82
948.19	1082.87
948.49	1085.42
948.79	1082.19
949.09	1079.97
949.39	1076.23
949.69	1072.39
949.98	1073.49
950.28	1074.56
950.58	1076.30
950.88	1080.02
951.18	1078.61
951.48	1076.81
951.77	1075.05
952.07	1073.49
952.37	1072.27
952.67	1074.89
952.97	1073.23
953.26	1073.42
953.56	1075.27
953.86	1076.25
954.16	1072.97
954.45	1077.11
954.75	1077.70
955.05	1076.44
955.35	1076.01
955.64	1078.66
955.94	1076.86
956.24	1077.75
956.54	1080.25
956.83	1078.24
957.13	1077.44
957.43	1077.09
957.72	1076.86
958.02	1079.74
958.32	1082.57
958.61	1082.57
958.91	1082.52
959.21	1082.78
959.50	1078.00
959.80	1074.05
960.10	1070.19
960.39	1067.52
960.69	1066.96
960.99	1068.95
961.28	1070.94
961.58	1075.43
961.87	1078.54
962.17	1076.93
962.47	1075.87
962.76	1073.04
963.06	1070.87
963.36	1070.40
963.65	1070.00
963.95	1071.12
964.24	1075.24
964.54	1079.15
964.83	1080.77
965.13	1082.87
965.42	1080.27
965.72	1082.50
966.02	1080.67
966.31	1080.13
966.61	1079.83
966.90	1080.63
967.20	1077.42
967.49	1079.74
967.79	1081.05
968.08	1081.07
968.38	1080.95
968.67	1080.20
968.97	1078.33
969.26	1078.47
969.56	1078.21
969.85	1077.04
970.15	1077.49
970.44	1080.23
970.74	1078.73
971.03	1075.52
971.32	1076.72
971.62	1076.01
971.91	1071.94
972.21	1070.16
972.50	1072.04
972.80	1072.78
973.09	1074.00
973.38	1075.10
973.68	1074.75
973.97	1076.86
974.27	1074.45
974.56	1071.97
974.85	1070.65
975.15	1070.65
975.44	1069.55
975.73	1069.13
976.03	1071.68
976.32	1073.25
976.61	1073.67
976.91	1075.57
977.20	1076.62
977.49	1075.38
977.79	1075.20
978.08	1076.53
978.37	1075.31
978.67	1075.52
978.96	1076.37
979.25	1077.16
979.55	1078.75
979.84	1081.47
980.13	1082.50
980.42	1083.95
980.72	1082.36
981.01	1081.87
981.30	1081.09
981.59	1082.10
981.89	1080.91
982.18	1083.55
982.47	1080.81
982.76	1077.72
983.06	1074.40
983.35	1072.88
983.64	1072.41
983.93	1075.78
984.22	1078.80
984.52	1079.34
984.81	1081.49
985.10	1081.49
985.39	1079.36
985.68	1076.48
985.97	1078.66
986.27	1079.81
986.56	1077.93
986.85	1079.38
987.14	1082.85
987.43	1081.42
987.72	1081.12
988.01	1080.95
988.31	1080.72
988.60	1080.53
988.89	1079.64
989.18	1079.95
989.47	1083.29
989.76	1082.12
990.05	1080.86
990.34	1081.19
990.63	1078.38
990.92	1073.44
991.21	1074.54
991.51	1073.02
991.80	1072.57
992.09	1073.93
992.38	1077.65
992.67	1077.37
992.96	1078.52
993.25	1078.68
993.54	1078.05
993.83	1074.12
994.12	1073.70
994.41	1073.07
994.70	1073.67
994.99	1072.22
995.28	1073.88
995.57	1072.62
995.86	1074.40
996.15	1075.69
996.44	1074.77
996.73	1076.08
997.02	1075.62
997.31	1074.68
997.59	1071.75
997.88	1072.67
998.17	1070.44
998.46	1069.55
998.75	1069.95
999.04	1074.03
999.33	1076.08
999.62	1079.43
999.91	1083.04
1000.20	1081.84
1000.49	1082.29
1000.77	1079.53
1001.06	1076.76
1001.35	1077.18
1001.64	1077.86
1001.93	1077.93
1002.22	1080.70
1002.51	1082.61
1002.79	1081.51
1003.08	1081.09
1003.37	1077.00
1003.66	1078.43
1003.95	1077.42
1004.23	1078.71
1004.52	1078.03
1004.81	1077.23
1005.10	1077.49
1005.39	1076.08
1005.67	1072.34
1005.96	1070.87
1006.25	1076.39
1006.54	1075.48
1006.83	1078.89
1007.11	1081.94
1007.40	1085.61
1007.69	1082.97
1007.97	1081.73
1008.26	1080.72
1008.55	1077.82
1008.84	1076.93
1009.12	1076.18
1009.41	1075.78
1009.70	1074.63
1009.98	1075.03
1010.27	1074.73
1010.56	1076.93
1010.85	1078.99
1011.13	1079.24
1011.42	1080.95
1011.71	1080.09
1011.99	1080.11
1012.28	1080.51
1012.56	1082.52
1012.85	1079.06
1013.14	1078.31
1013.42	1076.69
1013.71	1077.00
1014.00	1075.13
1014.28	1078.43
1014.57	1079.20
1014.85	1079.62
1015.14	1074.59
1015.43	1075.17
1015.71	1076.13
1016.00	1075.52
1016.28	1074.00
1016.57	1076.58
1016.85	1076.23
1017.14	1076.25
1017.43	1074.82
1017.71	1077.21
1018.00	1075.45
1018.28	1076.23
1018.57	1078.94
1018.85	1080.27
1019.14	1080.20
1019.42	1081.56
1019.71	1081.35
1019.99	1076.25
1020.28	1076.67
1020.56	1077.07
1020.85	1077.56
1021.13	1074.17
1021.42	1076.06
1021.70	1077.09
1021.99	1075.38
1022.27	1078.45
1022.55	1075.48
1022.84	1091.39
>>>>>End Processed Spectral Data<<<<<
