SpectraSuite Data File
++++++++++++++++++++++++++++++++++++
Date: Mon Aug 26 10:22:18 PDT 2019
User: corrico
Dark Spectrum Present: No
Reference Spectrum Present: No
Number of Sampled Component Spectra: 1
Spectrometers: USB2+H06089
Integration Time (usec): 2000 (USB2+H06089)
Spectra Averaged: 20 (USB2+H06089)
Boxcar Smoothing: 2 (USB2+H06089)
Correct for Electrical Dark: No (USB2+H06089)
Strobe/Lamp Enabled: No (USB2+H06089)
Correct for Detector Non-linearity: No (USB2+H06089)
Correct for Stray Light: No (USB2+H06089)
Number of Pixels in Processed Spectrum: 2048
>>>>>Begin Processed Spectral Data<<<<<
339.70	1026.44
340.07	1026.44
340.45	993.72
340.82	972.09
341.19	949.72
341.57	926.13
341.94	914.12
342.31	909.11
342.69	903.59
343.06	900.08
343.43	896.21
343.81	895.86
344.18	897.88
344.55	901.57
344.93	905.58
345.30	912.57
345.67	919.83
346.04	924.70
346.42	934.60
346.79	943.26
347.16	954.38
347.54	960.42
347.91	969.26
348.28	979.56
348.65	991.66
349.03	1002.03
349.40	1015.91
349.77	1026.14
350.14	1033.14
350.52	1040.32
350.89	1043.29
351.26	1050.22
351.63	1055.04
352.01	1059.84
352.38	1062.65
352.75	1070.96
353.12	1071.66
353.50	1074.42
353.87	1077.04
354.24	1081.00
354.61	1080.77
354.98	1083.53
355.36	1083.86
355.73	1084.81
356.10	1086.15
356.47	1085.17
356.84	1082.15
357.22	1083.50
357.59	1083.36
357.96	1083.43
358.33	1084.77
358.70	1087.83
359.08	1088.35
359.45	1084.39
359.82	1082.29
360.19	1079.71
360.56	1080.23
360.94	1078.71
361.31	1078.66
361.68	1072.08
362.05	1069.18
362.42	1067.75
362.79	1064.01
363.16	1068.76
363.54	1074.07
363.91	1076.30
364.28	1076.06
364.65	1078.19
365.02	1074.98
365.39	1074.14
365.76	1077.23
366.14	1079.27
366.51	1079.22
366.88	1079.62
367.25	1078.14
367.62	1075.85
367.99	1073.46
368.36	1075.05
368.73	1074.75
369.10	1076.18
369.48	1076.18
369.85	1076.55
370.22	1077.16
370.59	1079.57
370.96	1079.13
371.33	1079.03
371.70	1078.99
372.07	1076.88
372.44	1073.11
372.81	1075.97
373.18	1076.25
373.55	1076.32
373.93	1074.96
374.30	1078.14
374.67	1076.69
375.04	1076.79
375.41	1074.19
375.78	1074.77
376.15	1074.12
376.52	1071.80
376.89	1074.35
377.26	1077.00
377.63	1079.38
378.00	1077.23
378.37	1079.36
378.74	1076.39
379.11	1074.96
379.48	1075.31
379.85	1076.25
380.22	1076.62
380.59	1075.20
380.96	1077.21
381.33	1077.40
381.70	1076.97
382.07	1076.90
382.44	1078.47
382.81	1078.12
383.18	1078.57
383.55	1083.41
383.92	1084.58
384.29	1086.62
384.66	1090.97
385.03	1090.46
385.40	1087.67
385.77	1086.48
386.14	1085.63
386.51	1081.56
386.88	1079.60
387.25	1079.08
387.62	1079.92
387.99	1080.60
388.36	1081.77
388.73	1082.92
389.10	1086.59
389.46	1085.87
389.83	1084.18
390.20	1083.62
390.57	1086.45
390.94	1084.23
391.31	1084.30
391.68	1087.13
392.05	1087.60
392.42	1087.41
392.79	1086.03
393.16	1086.31
393.53	1085.31
393.89	1085.10
394.26	1082.73
394.63	1080.30
395.00	1081.91
395.37	1081.19
395.74	1081.98
396.11	1082.97
396.48	1087.69
396.84	1086.36
397.21	1088.86
397.58	1089.75
397.95	1094.97
398.32	1095.58
398.69	1095.91
399.06	1093.03
399.42	1093.08
399.79	1087.65
400.16	1087.83
400.53	1087.60
400.90	1087.37
401.27	1085.00
401.64	1086.15
402.00	1085.03
402.37	1086.50
402.74	1089.07
403.11	1087.18
403.48	1086.57
403.84	1085.05
404.21	1082.10
404.58	1081.75
404.95	1084.16
405.32	1085.40
405.68	1086.94
406.05	1089.45
406.42	1091.25
406.79	1092.23
407.16	1092.82
407.52	1091.42
407.89	1090.83
408.26	1089.19
408.63	1092.77
408.99	1091.93
409.36	1093.45
409.73	1095.75
410.10	1096.21
410.47	1090.99
410.83	1095.60
411.20	1097.64
411.57	1094.48
411.94	1094.39
412.30	1096.82
412.67	1091.67
413.04	1092.30
413.40	1093.57
413.77	1094.72
414.14	1095.35
414.51	1096.52
414.87	1094.67
415.24	1095.32
415.61	1094.69
415.97	1097.41
416.34	1100.45
416.71	1102.28
417.08	1103.91
417.44	1105.95
417.81	1105.93
418.18	1106.79
418.54	1107.78
418.91	1111.66
419.28	1114.45
419.64	1114.05
420.01	1115.92
420.38	1118.85
420.74	1119.45
421.11	1120.39
421.48	1125.07
421.84	1127.25
422.21	1127.11
422.58	1129.12
422.94	1129.64
423.31	1130.29
423.68	1132.84
424.04	1137.29
424.41	1140.00
424.77	1144.64
425.14	1146.79
425.51	1151.64
425.87	1153.11
426.24	1155.71
426.61	1159.62
426.97	1168.79
427.34	1171.51
427.70	1177.10
428.07	1181.71
428.44	1187.42
428.80	1191.31
429.17	1199.17
429.53	1209.19
429.90	1221.83
430.27	1231.85
430.63	1242.66
431.00	1253.19
431.36	1265.18
431.73	1275.50
432.09	1283.99
432.46	1296.33
432.83	1314.33
433.19	1329.56
433.56	1348.38
433.92	1372.93
434.29	1395.59
434.65	1416.14
435.02	1441.54
435.38	1469.88
435.75	1494.55
436.11	1524.48
436.48	1558.40
436.84	1589.67
437.21	1618.04
437.57	1657.40
437.94	1696.47
438.30	1738.39
438.67	1785.74
439.03	1844.01
439.40	1897.24
439.76	1953.11
440.13	2011.99
440.49	2079.61
440.86	2139.39
441.22	2212.93
441.59	2291.67
441.95	2373.94
442.32	2458.12
442.68	2558.72
443.05	2653.11
443.41	2753.13
443.78	2851.57
444.14	2954.27
444.51	3062.01
444.87	3199.00
445.24	3338.42
445.60	3489.62
445.96	3643.89
446.33	3812.94
446.69	3981.18
447.06	4156.04
447.42	4341.09
447.79	4535.75
448.15	4754.82
448.51	4978.53
448.88	5239.06
449.24	5486.45
449.61	5764.67
449.97	6035.12
450.33	6318.58
450.70	6586.41
451.06	6906.83
451.43	7206.39
451.79	7570.88
452.15	7974.63
452.52	8414.20
452.88	8880.53
453.24	9425.74
453.61	10005.91
453.97	10562.11
454.34	11114.38
454.70	11749.84
455.06	12372.68
455.43	12998.38
455.79	13599.94
456.15	14311.77
456.52	14960.05
456.88	15736.50
457.24	16445.33
457.61	17296.98
457.97	18080.03
458.33	18878.27
458.70	19652.71
459.06	20433.91
459.42	21261.73
459.79	22019.10
460.15	22918.06
460.51	23769.52
460.88	24682.77
461.24	25479.42
461.60	26444.22
461.96	27319.76
462.33	28166.87
462.69	28984.30
463.05	29865.94
463.42	30617.51
463.78	31286.29
464.14	31821.22
464.50	32406.52
464.87	32855.18
465.23	33178.17
465.59	33525.74
465.95	33867.88
466.32	34145.75
466.68	34383.73
467.04	34534.77
467.40	34660.43
467.77	34815.56
468.13	34777.62
468.49	34669.58
468.85	34596.89
469.22	34453.01
469.58	34102.05
469.94	33862.59
470.30	33584.84
470.66	33186.32
471.03	32588.21
471.39	32214.36
471.75	31585.62
472.11	30992.51
472.47	30654.49
472.84	30356.68
473.20	29863.46
473.56	29601.01
473.92	29168.27
474.28	28631.54
474.65	28144.29
475.01	27685.57
475.37	27124.09
475.73	26695.80
476.09	26181.44
476.45	25683.68
476.81	25154.30
477.18	24623.70
477.54	24129.33
477.90	23765.96
478.26	23311.34
478.62	22979.82
478.98	22671.90
479.34	22365.53
479.71	21928.64
480.07	21565.77
480.43	21182.60
480.79	20783.63
481.15	20401.89
481.51	20084.98
481.87	19842.06
482.23	19553.65
482.59	19298.86
482.96	19029.75
483.32	18752.56
483.68	18375.17
484.04	18045.83
484.40	17690.89
484.76	17327.85
485.12	16951.35
485.48	16624.71
485.84	16262.88
486.20	15899.24
486.56	15540.41
486.92	15230.80
487.28	14883.91
487.64	14535.17
488.00	14213.16
488.37	13888.81
488.73	13522.47
489.09	13169.94
489.45	12861.67
489.81	12550.40
490.17	12249.83
490.53	11984.22
490.89	11692.12
491.25	11381.98
491.61	11068.25
491.97	10738.75
492.33	10408.06
492.69	10105.64
493.05	9810.99
493.41	9518.63
493.77	9246.03
494.13	8986.63
494.49	8726.13
494.85	8484.61
495.21	8255.14
495.57	8041.52
495.93	7830.59
496.29	7637.10
496.64	7451.10
497.00	7258.68
497.36	7062.12
497.72	6868.98
498.08	6680.38
498.44	6489.79
498.80	6320.99
499.16	6159.40
499.52	6001.16
499.88	5871.94
500.24	5745.78
500.60	5617.12
500.96	5498.06
501.32	5380.21
501.68	5250.83
502.03	5120.02
502.39	4993.21
502.75	4860.05
503.11	4731.11
503.47	4613.43
503.83	4493.06
504.19	4368.42
504.55	4258.67
504.91	4164.77
505.26	4064.08
505.62	3980.53
505.98	3900.53
506.34	3811.05
506.70	3716.63
507.06	3632.93
507.42	3545.33
507.78	3465.70
508.13	3392.61
508.49	3319.39
508.85	3249.65
509.21	3176.29
509.57	3107.65
509.93	3037.78
510.28	2968.78
510.64	2903.18
511.00	2843.61
511.36	2782.62
511.72	2728.29
512.07	2679.23
512.43	2626.92
512.79	2577.02
513.15	2532.30
513.51	2484.27
513.86	2435.91
514.22	2392.80
514.58	2350.69
514.94	2309.69
515.30	2273.27
515.65	2241.09
516.01	2205.42
516.37	2175.39
516.73	2146.06
517.08	2120.01
517.44	2089.65
517.80	2063.28
518.16	2032.01
518.51	2003.66
518.87	1971.50
519.23	1942.67
519.59	1919.33
519.94	1894.59
520.30	1865.31
520.66	1840.69
521.01	1816.19
521.37	1792.94
521.73	1772.60
522.09	1754.54
522.44	1736.68
522.80	1717.41
523.16	1697.92
523.51	1675.57
523.87	1656.65
524.23	1633.67
524.58	1616.54
524.94	1597.20
525.30	1581.01
525.65	1566.57
526.01	1549.90
526.37	1539.18
526.72	1527.85
527.08	1518.33
527.44	1507.38
527.79	1501.59
528.15	1481.09
528.51	1466.91
528.86	1453.59
529.22	1435.64
529.58	1422.51
529.93	1416.59
530.29	1407.39
530.65	1396.48
531.00	1387.80
531.36	1380.78
531.71	1370.76
532.07	1359.90
532.43	1351.38
532.78	1340.61
533.14	1328.21
533.49	1320.88
533.85	1315.69
534.21	1310.00
534.56	1306.16
534.92	1303.14
535.27	1301.67
535.63	1297.48
535.98	1288.86
536.34	1283.60
536.69	1272.90
537.05	1262.93
537.41	1254.29
537.76	1249.52
538.12	1242.96
538.47	1241.09
538.83	1238.40
539.18	1233.65
539.54	1230.44
539.89	1228.24
540.25	1224.47
540.60	1221.81
540.96	1215.67
541.31	1214.57
541.67	1211.79
542.02	1205.35
542.38	1203.18
542.73	1199.01
543.09	1190.93
543.44	1186.35
543.80	1185.97
544.15	1179.09
544.51	1182.46
544.86	1182.81
545.22	1181.48
545.57	1180.10
545.93	1175.44
546.28	1170.38
546.64	1168.09
546.99	1165.42
547.35	1163.48
547.70	1162.24
548.05	1161.87
548.41	1160.04
548.76	1157.86
549.12	1156.83
549.47	1156.08
549.83	1157.16
550.18	1153.58
550.53	1151.66
550.89	1148.55
551.24	1151.12
551.60	1144.62
551.95	1144.83
552.30	1143.87
552.66	1141.41
553.01	1135.82
553.37	1136.56
553.72	1132.37
554.07	1131.70
554.43	1129.75
554.78	1129.94
555.13	1127.23
555.49	1128.47
555.84	1125.19
556.19	1125.52
556.55	1124.86
556.90	1125.00
557.26	1126.43
557.61	1123.60
557.96	1120.91
558.32	1118.57
558.67	1115.87
559.02	1114.77
559.37	1117.21
559.73	1118.85
560.08	1119.76
560.43	1118.66
560.79	1118.59
561.14	1118.85
561.49	1118.07
561.85	1113.81
562.20	1114.84
562.55	1109.23
562.90	1107.10
563.26	1106.32
563.61	1105.15
563.96	1107.19
564.32	1109.86
564.67	1111.87
565.02	1111.03
565.37	1115.41
565.73	1111.12
566.08	1110.61
566.43	1107.85
566.78	1107.35
567.14	1105.29
567.49	1108.43
567.84	1106.72
568.19	1107.85
568.54	1108.52
568.90	1109.04
569.25	1106.98
569.60	1103.56
569.95	1102.37
570.31	1098.44
570.66	1096.52
571.01	1093.33
571.36	1098.16
571.71	1100.94
572.06	1103.96
572.42	1102.39
572.77	1102.60
573.12	1102.16
573.47	1097.80
573.82	1094.69
574.18	1093.73
574.53	1093.43
574.88	1088.00
575.23	1087.81
575.58	1089.14
575.93	1089.80
576.28	1094.18
576.64	1093.05
576.99	1091.04
577.34	1091.27
577.69	1090.85
578.04	1084.77
578.39	1088.26
578.74	1090.22
579.09	1092.19
579.44	1090.17
579.80	1090.62
580.15	1091.09
580.50	1093.66
580.85	1092.49
581.20	1094.62
581.55	1095.04
581.90	1091.51
582.25	1087.48
582.60	1085.80
582.95	1087.39
583.30	1088.93
583.65	1092.37
584.00	1091.37
584.35	1091.09
584.71	1090.22
585.06	1092.52
585.41	1090.22
585.76	1091.42
586.11	1093.62
586.46	1091.39
586.81	1088.04
587.16	1091.04
587.51	1089.85
587.86	1088.37
588.21	1089.85
588.56	1089.40
588.91	1087.32
589.26	1086.34
589.61	1085.77
589.96	1086.76
590.31	1085.91
590.66	1084.86
591.01	1086.27
591.36	1083.67
591.71	1081.19
592.06	1082.29
592.41	1082.90
592.76	1082.64
593.10	1084.35
593.45	1082.64
593.80	1081.73
594.15	1080.25
594.50	1080.77
594.85	1082.36
595.20	1084.56
595.55	1085.68
595.90	1086.66
596.25	1088.14
596.60	1086.99
596.95	1086.17
597.30	1086.20
597.64	1096.75
597.99	1100.24
598.34	1101.90
598.69	1101.92
599.04	1101.39
599.39	1090.85
599.74	1086.94
600.09	1085.73
600.44	1084.44
600.78	1084.39
601.13	1085.56
601.48	1085.38
601.83	1084.49
602.18	1084.39
602.53	1083.62
602.88	1081.75
603.22	1080.34
603.57	1081.70
603.92	1080.48
604.27	1082.22
604.62	1084.98
604.97	1087.16
605.31	1085.63
605.66	1091.02
606.01	1089.96
606.36	1088.19
606.71	1082.66
607.05	1084.96
607.40	1083.39
607.75	1083.20
608.10	1081.37
608.44	1084.07
608.79	1079.85
609.14	1076.41
609.49	1076.97
609.84	1079.99
610.18	1081.80
610.53	1084.60
610.88	1088.09
611.23	1087.02
611.57	1083.50
611.92	1085.28
612.27	1085.59
612.62	1088.12
612.96	1088.84
613.31	1089.47
613.66	1084.58
614.00	1084.39
614.35	1079.95
614.70	1079.20
615.05	1079.38
615.39	1082.43
615.74	1081.51
616.09	1085.82
616.43	1087.81
616.78	1089.94
617.13	1088.00
617.47	1090.78
617.82	1087.25
618.17	1086.17
618.51	1085.28
618.86	1086.83
619.21	1084.72
619.55	1084.72
619.90	1082.76
620.25	1084.04
620.59	1085.42
620.94	1085.40
621.29	1087.41
621.63	1090.32
621.98	1086.64
622.32	1084.58
622.67	1084.07
623.02	1084.39
623.36	1083.74
623.71	1088.42
624.05	1087.53
624.40	1084.74
624.75	1082.94
625.09	1080.34
625.44	1077.04
625.78	1077.58
626.13	1078.85
626.48	1078.75
626.82	1076.13
627.17	1079.92
627.51	1083.08
627.86	1082.43
628.20	1086.50
628.55	1092.00
628.89	1088.77
629.24	1086.87
629.58	1088.28
629.93	1083.41
630.28	1080.27
630.62	1081.21
630.97	1079.85
631.31	1080.74
631.66	1083.62
632.00	1084.32
632.35	1083.79
632.69	1085.05
633.04	1085.70
633.38	1085.82
633.73	1088.70
634.07	1088.23
634.42	1088.19
634.76	1087.20
635.11	1084.67
635.45	1082.83
635.79	1082.36
636.14	1081.56
636.48	1081.14
636.83	1083.60
637.17	1084.11
637.52	1086.66
637.86	1088.19
638.21	1087.02
638.55	1081.77
638.89	1083.76
639.24	1083.22
639.58	1082.59
639.93	1082.71
640.27	1086.22
640.61	1085.05
640.96	1084.79
641.30	1084.28
641.65	1084.00
641.99	1082.08
642.33	1079.27
642.68	1077.25
643.02	1077.09
643.37	1076.46
643.71	1077.84
644.05	1081.33
644.40	1082.69
644.74	1086.34
645.08	1087.34
645.43	1089.03
645.77	1084.44
646.11	1081.73
646.46	1076.48
646.80	1080.30
647.14	1078.87
647.49	1080.98
647.83	1084.28
648.17	1086.59
648.52	1086.10
648.86	1084.46
649.20	1083.20
649.55	1083.34
649.89	1082.90
650.23	1080.34
650.57	1081.63
650.92	1084.96
651.26	1085.00
651.60	1084.58
651.95	1084.98
652.29	1082.83
652.63	1082.22
652.97	1080.11
653.32	1081.02
653.66	1083.06
654.00	1084.37
654.34	1082.17
654.69	1083.15
655.03	1081.42
655.37	1081.07
655.71	1081.54
656.05	1081.89
656.40	1082.78
656.74	1082.17
657.08	1081.82
657.42	1080.32
657.76	1080.58
658.11	1079.48
658.45	1081.33
658.79	1078.17
659.13	1079.81
659.47	1084.60
659.82	1080.72
660.16	1078.82
660.50	1082.66
660.84	1081.84
661.18	1078.78
661.52	1082.50
661.87	1082.90
662.21	1081.89
662.55	1086.59
662.89	1083.57
663.23	1082.99
663.57	1084.58
663.91	1084.93
664.25	1081.35
664.60	1083.81
664.94	1085.35
665.28	1086.83
665.62	1085.31
665.96	1085.10
666.30	1085.47
666.64	1084.72
666.98	1081.44
667.32	1078.96
667.66	1081.42
668.01	1080.39
668.35	1080.06
668.69	1082.45
669.03	1085.73
669.37	1084.39
669.71	1084.65
670.05	1079.64
670.39	1076.83
670.73	1074.54
671.07	1069.51
671.41	1065.48
671.75	1070.89
672.09	1071.45
672.43	1074.38
672.77	1078.78
673.11	1081.73
673.45	1082.10
673.79	1081.23
674.13	1079.99
674.47	1077.35
674.81	1078.73
675.15	1079.01
675.49	1080.04
675.83	1078.00
676.17	1080.02
676.51	1080.86
676.85	1077.49
677.19	1078.38
677.53	1081.33
677.87	1080.25
678.21	1078.10
678.55	1083.08
678.89	1085.77
679.23	1083.36
679.57	1083.64
679.90	1083.32
680.24	1079.17
680.58	1076.69
680.92	1076.32
681.26	1074.82
681.60	1075.29
681.94	1076.74
682.28	1074.19
682.62	1073.00
682.96	1078.75
683.29	1080.91
683.63	1079.10
683.97	1080.65
684.31	1084.23
684.65	1082.90
684.99	1080.63
685.33	1081.00
685.67	1080.63
686.00	1078.57
686.34	1077.35
686.68	1078.24
687.02	1077.35
687.36	1078.03
687.70	1081.68
688.03	1078.87
688.37	1079.24
688.71	1081.73
689.05	1081.75
689.39	1077.47
689.72	1077.84
690.06	1075.15
690.40	1073.25
690.74	1074.35
691.08	1076.20
691.41	1078.80
691.75	1081.98
692.09	1084.42
692.43	1083.90
692.76	1085.54
693.10	1082.33
693.44	1082.54
693.78	1081.19
694.11	1082.97
694.45	1080.58
694.79	1082.71
695.13	1081.26
695.46	1083.95
695.80	1080.93
696.14	1081.75
696.48	1082.69
696.81	1083.20
697.15	1081.26
697.49	1080.34
697.82	1079.03
698.16	1078.10
698.50	1077.00
698.83	1074.12
699.17	1077.25
699.51	1076.67
699.84	1075.62
700.18	1075.97
700.52	1077.33
700.85	1075.38
701.19	1078.14
701.53	1076.37
701.86	1075.43
702.20	1079.50
702.54	1082.33
702.87	1079.31
703.21	1081.42
703.55	1086.03
703.88	1082.45
704.22	1076.76
704.55	1078.17
704.89	1079.85
705.23	1075.57
705.56	1077.40
705.90	1080.37
706.23	1080.86
706.57	1079.31
706.91	1078.19
707.24	1077.33
707.58	1080.09
707.91	1082.71
708.25	1085.19
708.58	1086.71
708.92	1088.54
709.26	1088.37
709.59	1084.14
709.93	1080.06
710.26	1076.67
710.60	1072.60
710.93	1070.91
711.27	1072.15
711.60	1073.77
711.94	1077.61
712.27	1081.37
712.61	1081.05
712.94	1079.17
713.28	1077.35
713.61	1076.46
713.95	1075.41
714.28	1076.32
714.62	1077.93
714.95	1077.93
715.29	1078.05
715.62	1079.71
715.96	1078.33
716.29	1080.23
716.63	1080.30
716.96	1081.12
717.29	1080.51
717.63	1079.27
717.96	1077.28
718.30	1078.82
718.63	1079.06
718.97	1074.28
719.30	1074.33
719.63	1075.27
719.97	1077.54
720.30	1078.38
720.64	1079.83
720.97	1079.20
721.30	1078.24
721.64	1076.95
721.97	1074.21
722.31	1075.20
722.64	1078.28
722.97	1081.12
723.31	1080.72
723.64	1081.91
723.97	1082.64
724.31	1080.02
724.64	1078.59
724.98	1079.22
725.31	1079.15
725.64	1080.11
725.98	1083.32
726.31	1083.29
726.64	1078.89
726.97	1077.68
727.31	1074.61
727.64	1074.98
727.97	1075.94
728.31	1079.60
728.64	1079.81
728.97	1083.71
729.31	1081.51
729.64	1077.77
729.97	1079.62
730.30	1081.87
730.64	1078.31
730.97	1078.21
731.30	1079.10
731.63	1078.94
731.97	1078.12
732.30	1078.80
732.63	1080.18
732.96	1081.16
733.30	1081.75
733.63	1082.26
733.96	1082.71
734.29	1080.81
734.63	1081.63
734.96	1080.95
735.29	1078.00
735.62	1078.12
735.95	1078.07
736.29	1077.63
736.62	1080.02
736.95	1081.49
737.28	1084.70
737.61	1086.83
737.94	1085.47
738.28	1079.69
738.61	1079.64
738.94	1075.36
739.27	1071.50
739.60	1071.12
739.93	1073.00
740.27	1074.82
740.60	1076.74
740.93	1079.57
741.26	1080.53
741.59	1083.20
741.92	1083.76
742.25	1083.79
742.58	1084.91
742.91	1085.00
743.25	1081.96
743.58	1082.47
743.91	1080.98
744.24	1076.79
744.57	1076.08
744.90	1078.03
745.23	1076.37
745.56	1080.44
745.89	1081.23
746.22	1085.33
746.55	1084.42
746.88	1084.63
747.21	1081.70
747.54	1082.69
747.87	1080.60
748.20	1079.08
748.53	1077.33
748.87	1077.51
749.20	1079.34
749.53	1079.29
749.86	1078.38
750.19	1081.70
750.52	1082.52
750.85	1080.16
751.18	1077.86
751.51	1077.65
751.84	1075.20
752.16	1073.39
752.49	1075.73
752.82	1077.33
753.15	1082.24
753.48	1084.42
753.81	1085.19
754.14	1085.14
754.47	1085.24
754.80	1083.83
755.13	1079.69
755.46	1080.20
755.79	1081.02
756.12	1082.54
756.45	1082.31
756.78	1082.22
757.11	1080.48
757.43	1078.07
757.76	1074.82
758.09	1071.97
758.42	1071.85
758.75	1075.41
759.08	1078.28
759.41	1079.64
759.74	1082.94
760.07	1085.33
760.39	1081.87
760.72	1078.89
761.05	1078.21
761.38	1080.39
761.71	1080.98
762.04	1082.71
762.36	1080.98
762.69	1081.68
763.02	1076.48
763.35	1075.45
763.68	1074.33
764.01	1076.13
764.33	1075.87
764.66	1074.38
764.99	1075.10
765.32	1074.12
765.65	1073.58
765.97	1072.78
766.30	1074.33
766.63	1075.87
766.96	1074.17
767.28	1072.88
767.61	1071.64
767.94	1072.78
768.27	1074.24
768.59	1079.76
768.92	1083.41
769.25	1086.15
769.58	1087.44
769.90	1084.16
770.23	1080.79
770.56	1079.92
770.89	1078.57
771.21	1076.41
771.54	1078.78
771.87	1080.81
772.19	1081.89
772.52	1083.76
772.85	1086.52
773.17	1080.81
773.50	1079.08
773.83	1077.28
774.15	1076.67
774.48	1074.54
774.81	1077.72
775.13	1077.28
775.46	1077.51
775.79	1077.49
776.11	1077.16
776.44	1076.65
776.77	1078.19
777.09	1080.06
777.42	1079.99
777.74	1081.33
778.07	1084.02
778.40	1084.30
778.72	1083.43
779.05	1082.38
779.37	1084.53
779.70	1082.29
780.03	1080.23
780.35	1078.68
780.68	1079.53
781.00	1075.94
781.33	1075.08
781.65	1075.62
781.98	1076.53
782.31	1076.04
782.63	1076.20
782.96	1078.03
783.28	1077.56
783.61	1075.87
783.93	1079.69
784.26	1082.94
784.58	1083.13
784.91	1084.84
785.23	1085.31
785.56	1082.50
785.88	1080.58
786.21	1078.07
786.53	1076.88
786.86	1079.50
787.18	1077.37
787.51	1077.33
787.83	1078.10
788.16	1080.84
788.48	1077.44
788.81	1078.12
789.13	1077.84
789.46	1076.20
789.78	1074.91
790.10	1079.60
790.43	1079.53
790.75	1080.25
791.08	1079.64
791.40	1076.95
791.73	1077.61
792.05	1080.84
792.37	1079.43
792.70	1082.08
793.02	1082.90
793.35	1080.32
793.67	1075.31
793.99	1074.80
794.32	1073.70
794.64	1076.34
794.96	1076.08
795.29	1081.54
795.61	1079.90
795.93	1081.63
796.26	1079.08
796.58	1078.24
796.91	1074.94
797.23	1078.85
797.55	1079.76
797.87	1077.77
798.20	1077.68
798.52	1078.52
798.84	1077.51
799.17	1075.78
799.49	1078.33
799.81	1079.53
800.14	1079.64
800.46	1078.26
800.78	1080.93
801.10	1083.39
801.43	1081.30
801.75	1080.93
802.07	1083.18
802.40	1081.56
802.72	1078.89
803.04	1084.32
803.36	1087.93
803.69	1087.18
804.01	1085.26
804.33	1086.50
804.65	1082.45
804.97	1078.03
805.30	1077.56
805.62	1080.23
805.94	1080.39
806.26	1079.13
806.58	1081.33
806.91	1080.60
807.23	1077.58
807.55	1076.30
807.87	1078.57
808.19	1077.51
808.52	1078.45
808.84	1077.86
809.16	1079.48
809.48	1079.57
809.80	1078.19
810.12	1076.60
810.44	1079.29
810.77	1076.72
811.09	1076.65
811.41	1075.66
811.73	1078.75
812.05	1078.85
812.37	1082.08
812.69	1081.63
813.01	1081.89
813.33	1081.75
813.66	1079.34
813.98	1078.26
814.30	1075.50
814.62	1076.08
814.94	1075.80
815.26	1078.03
815.58	1078.07
815.90	1080.77
816.22	1080.51
816.54	1080.60
816.86	1079.31
817.18	1076.62
817.50	1075.90
817.82	1078.31
818.14	1076.65
818.46	1077.98
818.78	1079.78
819.10	1077.04
819.42	1076.20
819.74	1073.84
820.06	1072.46
820.38	1072.36
820.70	1076.55
821.02	1074.94
821.34	1075.15
821.66	1075.24
821.98	1074.82
822.30	1073.00
822.62	1071.80
822.94	1072.34
823.26	1073.18
823.58	1069.20
823.90	1070.56
824.22	1073.93
824.54	1076.25
824.86	1074.26
825.18	1077.70
825.50	1078.10
825.81	1077.96
826.13	1076.95
826.45	1079.76
826.77	1080.98
827.09	1081.33
827.41	1081.07
827.73	1080.27
828.05	1077.75
828.36	1078.52
828.68	1076.01
829.00	1076.55
829.32	1077.42
829.64	1077.77
829.96	1075.94
830.28	1079.22
830.59	1078.17
830.91	1077.16
831.23	1078.99
831.55	1079.53
831.87	1077.11
832.19	1077.14
832.50	1076.30
832.82	1073.58
833.14	1075.24
833.46	1076.86
833.78	1077.89
834.09	1078.24
834.41	1080.44
834.73	1077.47
835.05	1078.19
835.36	1077.65
835.68	1078.40
836.00	1077.56
836.32	1078.64
836.63	1074.12
836.95	1074.00
837.27	1075.85
837.59	1077.51
837.90	1079.57
838.22	1081.75
838.54	1079.64
838.85	1076.76
839.17	1075.64
839.49	1072.69
839.80	1070.80
840.12	1069.41
840.44	1071.73
840.76	1070.72
841.07	1071.99
841.39	1075.78
841.71	1078.50
842.02	1079.97
842.34	1082.15
842.65	1082.45
842.97	1082.94
843.29	1082.24
843.60	1080.25
843.92	1079.29
844.24	1078.40
844.55	1075.73
844.87	1078.50
845.18	1077.51
845.50	1079.29
845.82	1078.31
846.13	1077.77
846.45	1074.10
846.76	1074.52
847.08	1072.36
847.40	1074.42
847.71	1078.00
848.03	1081.16
848.34	1082.78
848.66	1084.30
848.97	1082.54
849.29	1081.91
849.60	1079.38
849.92	1079.13
850.24	1075.34
850.55	1078.12
850.87	1075.05
851.18	1077.11
851.50	1076.46
851.81	1077.77
852.13	1076.67
852.44	1078.14
852.76	1073.60
853.07	1073.72
853.39	1070.82
853.70	1069.74
854.01	1070.47
854.33	1073.49
854.64	1071.40
854.96	1076.25
855.27	1075.10
855.59	1074.52
855.90	1073.07
856.22	1076.69
856.53	1075.57
856.84	1079.01
857.16	1078.31
857.47	1082.12
857.79	1080.95
858.10	1080.27
858.41	1079.38
858.73	1077.70
859.04	1076.95
859.36	1075.27
859.67	1074.80
859.98	1074.10
860.30	1076.27
860.61	1072.08
860.92	1071.73
861.24	1072.41
861.55	1070.58
861.87	1070.21
862.18	1073.07
862.49	1073.30
862.81	1075.24
863.12	1075.66
863.43	1077.96
863.74	1080.34
864.06	1079.78
864.37	1076.95
864.68	1079.76
865.00	1077.72
865.31	1077.04
865.62	1078.92
865.94	1081.44
866.25	1078.78
866.56	1076.76
866.87	1075.57
867.19	1075.83
867.50	1074.31
867.81	1074.82
868.12	1075.99
868.44	1074.40
868.75	1072.25
869.06	1073.79
869.37	1076.08
869.68	1074.47
870.00	1071.94
870.31	1071.22
870.62	1067.75
870.93	1068.83
871.24	1068.62
871.56	1070.94
871.87	1073.42
872.18	1077.93
872.49	1075.22
872.80	1079.27
873.12	1083.25
873.43	1080.77
873.74	1077.30
874.05	1077.61
874.36	1075.76
874.67	1072.15
874.98	1073.93
875.29	1075.34
875.61	1077.16
875.92	1078.59
876.23	1078.92
876.54	1078.17
876.85	1077.21
877.16	1074.26
877.47	1074.42
877.78	1075.92
878.09	1079.64
878.40	1079.29
878.72	1080.93
879.03	1080.02
879.34	1080.30
879.65	1075.59
879.96	1074.68
880.27	1075.29
880.58	1073.84
880.89	1076.65
881.20	1080.25
881.51	1084.30
881.82	1083.29
882.13	1082.71
882.44	1081.33
882.75	1082.64
883.06	1079.67
883.37	1080.98
883.68	1086.66
883.99	1085.21
884.30	1082.50
884.61	1085.24
884.92	1084.77
885.23	1080.60
885.54	1078.66
885.85	1080.93
886.16	1079.99
886.47	1077.75
886.78	1078.96
887.08	1081.09
887.39	1079.22
887.70	1079.36
888.01	1078.59
888.32	1076.37
888.63	1075.38
888.94	1074.26
889.25	1072.04
889.56	1071.99
889.87	1072.88
890.17	1072.62
890.48	1075.20
890.79	1076.83
891.10	1078.52
891.41	1080.39
891.72	1081.23
892.03	1081.07
892.34	1080.27
892.64	1082.71
892.95	1079.06
893.26	1080.44
893.57	1078.33
893.88	1080.53
894.18	1075.73
894.49	1076.67
894.80	1074.12
895.11	1074.14
895.42	1072.83
895.72	1074.21
896.03	1070.49
896.34	1072.27
896.65	1072.85
896.96	1071.45
897.26	1072.74
897.57	1079.17
897.88	1076.46
898.19	1075.87
898.49	1075.94
898.80	1078.05
899.11	1074.75
899.41	1079.48
899.72	1079.60
900.03	1081.80
900.34	1081.94
900.64	1083.43
900.95	1080.63
901.26	1080.13
901.56	1078.36
901.87	1074.91
902.18	1073.98
902.48	1075.92
902.79	1078.03
903.10	1079.95
903.40	1083.34
903.71	1084.21
904.02	1083.74
904.32	1082.08
904.63	1084.30
904.94	1083.69
905.24	1084.81
905.55	1082.66
905.85	1084.86
906.16	1083.43
906.47	1079.62
906.77	1075.90
907.08	1076.58
907.38	1074.59
907.69	1070.96
908.00	1075.05
908.30	1079.29
908.61	1076.30
908.91	1074.10
909.22	1073.00
909.52	1071.75
909.83	1070.75
910.14	1072.60
910.44	1074.26
910.75	1077.23
911.05	1077.00
911.36	1078.19
911.66	1078.99
911.97	1081.98
912.27	1080.93
912.58	1081.23
912.88	1077.79
913.19	1077.68
913.49	1074.89
913.80	1077.49
914.10	1079.48
914.41	1083.06
914.71	1084.46
915.01	1084.56
915.32	1082.22
915.62	1078.03
915.93	1073.21
916.23	1070.28
916.54	1070.94
916.84	1073.14
917.15	1073.32
917.45	1075.50
917.75	1079.13
918.06	1077.16
918.36	1076.53
918.67	1077.07
918.97	1077.09
919.27	1076.06
919.58	1078.45
919.88	1075.94
920.18	1076.76
920.49	1077.07
920.79	1076.04
921.10	1074.54
921.40	1075.50
921.70	1074.89
922.01	1077.47
922.31	1079.15
922.61	1082.03
922.92	1085.19
923.22	1086.29
923.52	1086.69
923.82	1088.16
924.13	1087.41
924.43	1083.29
924.73	1082.24
925.04	1079.97
925.34	1075.94
925.64	1077.35
925.94	1079.53
926.25	1080.06
926.55	1079.85
926.85	1080.41
927.15	1076.88
927.46	1076.97
927.76	1079.88
928.06	1080.16
928.36	1080.37
928.67	1077.98
928.97	1078.31
929.27	1076.30
929.57	1078.78
929.87	1079.24
930.18	1082.80
930.48	1084.32
930.78	1082.26
931.08	1079.48
931.38	1079.62
931.69	1076.23
931.99	1072.36
932.29	1075.24
932.59	1074.03
932.89	1072.55
933.19	1076.67
933.49	1075.78
933.80	1073.37
934.10	1075.13
934.40	1077.68
934.70	1076.60
935.00	1079.76
935.30	1077.77
935.60	1077.37
935.90	1076.13
936.20	1077.49
936.50	1074.52
936.81	1073.37
937.11	1073.44
937.41	1072.11
937.71	1068.15
938.01	1068.41
938.31	1072.32
938.61	1069.95
938.91	1071.66
939.21	1073.25
939.51	1071.45
939.81	1069.79
940.11	1068.74
940.41	1069.93
940.71	1071.78
941.01	1074.24
941.31	1077.00
941.61	1078.12
941.91	1076.90
942.21	1075.29
942.51	1075.69
942.81	1075.57
943.11	1076.20
943.41	1075.94
943.71	1076.79
944.01	1076.86
944.31	1074.66
944.61	1074.89
944.90	1073.88
945.20	1072.85
945.50	1072.76
945.80	1072.22
946.10	1071.85
946.40	1074.94
946.70	1075.71
947.00	1076.95
947.30	1078.61
947.60	1079.69
947.89	1077.49
948.19	1076.93
948.49	1078.26
948.79	1075.73
949.09	1073.56
949.39	1075.05
949.69	1077.07
949.98	1074.80
950.28	1074.31
950.58	1079.48
950.88	1076.06
951.18	1075.13
951.48	1074.66
951.77	1075.83
952.07	1074.80
952.37	1072.83
952.67	1075.66
952.97	1077.42
953.26	1078.71
953.56	1075.73
953.86	1075.83
954.16	1072.85
954.45	1073.23
954.75	1072.06
955.05	1074.24
955.35	1080.72
955.64	1081.84
955.94	1079.36
956.24	1081.26
956.54	1078.89
956.83	1075.59
957.13	1074.52
957.43	1076.60
957.72	1074.96
958.02	1075.31
958.32	1077.37
958.61	1076.72
958.91	1076.06
959.21	1075.71
959.50	1075.99
959.80	1075.97
960.10	1075.55
960.39	1074.40
960.69	1074.26
960.99	1075.57
961.28	1075.22
961.58	1074.70
961.87	1075.03
962.17	1075.43
962.47	1072.46
962.76	1073.30
963.06	1076.65
963.36	1076.67
963.65	1074.84
963.95	1076.25
964.24	1071.29
964.54	1070.68
964.83	1073.30
965.13	1078.31
965.42	1079.34
965.72	1080.37
966.02	1081.12
966.31	1079.71
966.61	1074.07
966.90	1074.56
967.20	1074.89
967.49	1071.15
967.79	1070.84
968.08	1075.36
968.38	1076.20
968.67	1075.41
968.97	1078.54
969.26	1078.26
969.56	1078.14
969.85	1075.78
970.15	1078.66
970.44	1075.17
970.74	1072.29
971.03	1071.80
971.32	1074.49
971.62	1073.56
971.91	1073.00
972.21	1075.15
972.50	1077.54
972.80	1076.69
973.09	1077.30
973.38	1078.89
973.68	1082.03
973.97	1079.17
974.27	1077.49
974.56	1076.72
974.85	1081.56
975.15	1079.31
975.44	1077.89
975.73	1076.74
976.03	1077.96
976.32	1073.37
976.61	1073.53
976.91	1072.20
977.20	1074.17
977.49	1073.88
977.79	1076.13
978.08	1076.69
978.37	1077.77
978.67	1077.04
978.96	1076.69
979.25	1074.31
979.55	1073.46
979.84	1074.35
980.13	1076.25
980.42	1077.56
980.72	1081.63
981.01	1082.78
981.30	1087.27
981.59	1086.57
981.89	1085.56
982.18	1081.49
982.47	1079.50
982.76	1074.33
983.06	1073.09
983.35	1073.39
983.64	1073.51
983.93	1073.28
984.22	1076.41
984.52	1075.59
984.81	1074.10
985.10	1073.84
985.39	1075.57
985.68	1075.10
985.97	1076.30
986.27	1076.11
986.56	1077.93
986.85	1078.75
987.14	1076.18
987.43	1075.71
987.72	1075.64
988.01	1074.96
988.31	1072.64
988.60	1075.59
988.89	1079.69
989.18	1079.71
989.47	1077.77
989.76	1079.22
990.05	1077.65
990.34	1077.63
990.63	1079.27
990.92	1080.37
991.21	1082.26
991.51	1082.05
991.80	1079.57
992.09	1078.43
992.38	1079.31
992.67	1076.32
992.96	1079.99
993.25	1078.66
993.54	1079.10
993.83	1077.21
994.12	1078.59
994.41	1073.60
994.70	1075.83
994.99	1076.79
995.28	1079.29
995.57	1078.19
995.86	1076.62
996.15	1076.04
996.44	1076.18
996.73	1076.44
997.02	1078.45
997.31	1081.77
997.59	1080.72
997.88	1077.47
998.17	1076.11
998.46	1075.94
998.75	1074.70
999.04	1076.81
999.33	1081.30
999.62	1086.85
999.91	1084.09
1000.20	1087.90
1000.49	1088.23
1000.77	1085.24
1001.06	1079.81
1001.35	1081.33
1001.64	1078.94
1001.93	1077.37
1002.22	1077.49
1002.51	1077.33
1002.79	1078.45
1003.08	1079.62
1003.37	1076.93
1003.66	1079.08
1003.95	1079.43
1004.23	1081.02
1004.52	1079.55
1004.81	1083.95
1005.10	1082.87
1005.39	1085.89
1005.67	1087.37
1005.96	1087.06
1006.25	1086.24
1006.54	1085.45
1006.83	1084.07
1007.11	1079.90
1007.40	1085.31
1007.69	1080.91
1007.97	1078.03
1008.26	1078.99
1008.55	1083.20
1008.84	1077.82
1009.12	1077.84
1009.41	1082.15
1009.70	1079.83
1009.98	1074.96
1010.27	1075.76
1010.56	1076.15
1010.85	1075.05
1011.13	1075.99
1011.42	1077.77
1011.71	1081.44
1011.99	1084.67
1012.28	1086.83
1012.56	1085.12
1012.85	1081.35
1013.14	1075.27
1013.42	1074.84
1013.71	1071.64
1014.00	1072.97
1014.28	1075.34
1014.57	1077.09
1014.85	1077.18
1015.14	1078.26
1015.43	1078.10
1015.71	1077.04
1016.00	1080.04
1016.28	1079.27
1016.57	1078.45
1016.85	1079.24
1017.14	1081.02
1017.43	1075.01
1017.71	1075.50
1018.00	1076.67
1018.28	1076.51
1018.57	1077.40
1018.85	1080.65
1019.14	1082.85
1019.42	1081.30
1019.71	1080.04
1019.99	1079.95
1020.28	1079.74
1020.56	1078.36
1020.85	1078.19
1021.13	1079.41
1021.42	1075.66
1021.70	1075.27
1021.99	1072.90
1022.27	1074.52
1022.55	1070.80
1022.84	1078.87
>>>>>End Processed Spectral Data<<<<<
