SpectraSuite Data File
++++++++++++++++++++++++++++++++++++
Date: Mon Aug 26 10:22:07 PDT 2019
User: corrico
Dark Spectrum Present: No
Reference Spectrum Present: No
Number of Sampled Component Spectra: 1
Spectrometers: USB2+H06089
Integration Time (usec): 2000 (USB2+H06089)
Spectra Averaged: 20 (USB2+H06089)
Boxcar Smoothing: 2 (USB2+H06089)
Correct for Electrical Dark: No (USB2+H06089)
Strobe/Lamp Enabled: No (USB2+H06089)
Correct for Detector Non-linearity: No (USB2+H06089)
Correct for Stray Light: No (USB2+H06089)
Number of Pixels in Processed Spectrum: 2048
>>>>>Begin Processed Spectral Data<<<<<
339.70	1018.25
340.07	1018.25
340.45	986.65
340.82	968.82
341.19	945.67
341.57	921.35
341.94	911.12
342.31	904.15
342.69	896.38
343.06	892.91
343.43	893.69
343.81	893.38
344.18	896.17
344.55	900.36
344.93	909.37
345.30	911.08
345.67	919.60
346.04	926.10
346.42	934.81
346.79	942.53
347.16	954.82
347.54	964.39
347.91	972.80
348.28	981.43
348.65	990.94
349.03	1000.16
349.40	1008.37
349.77	1019.96
350.14	1028.31
350.52	1031.92
350.89	1041.70
351.26	1049.50
351.63	1056.49
352.01	1059.44
352.38	1065.32
352.75	1064.73
353.12	1065.20
353.50	1063.84
353.87	1067.80
354.24	1070.98
354.61	1074.03
354.98	1075.01
355.36	1079.06
355.73	1083.62
356.10	1084.58
356.47	1085.94
356.84	1087.90
357.22	1088.33
357.59	1087.32
357.96	1088.70
358.33	1089.45
358.70	1089.80
359.08	1090.41
359.45	1089.52
359.82	1087.90
360.19	1090.13
360.56	1090.34
360.94	1087.32
361.31	1084.49
361.68	1082.08
362.05	1078.78
362.42	1077.86
362.79	1075.80
363.16	1078.45
363.54	1078.89
363.91	1078.57
364.28	1079.17
364.65	1083.60
365.02	1080.70
365.39	1078.21
365.76	1080.72
366.14	1078.00
366.51	1073.42
366.88	1077.58
367.25	1079.92
367.62	1073.37
367.99	1073.21
368.36	1074.84
368.73	1069.25
369.10	1070.58
369.48	1074.35
369.85	1072.85
370.22	1072.50
370.59	1074.82
370.96	1072.34
371.33	1071.26
371.70	1077.51
372.07	1077.25
372.44	1081.51
372.81	1084.14
373.18	1087.37
373.55	1084.60
373.93	1083.64
374.30	1079.36
374.67	1077.25
375.04	1073.81
375.41	1074.91
375.78	1076.15
376.15	1076.18
376.52	1080.65
376.89	1082.19
377.26	1080.44
377.63	1082.03
378.00	1082.08
378.37	1080.04
378.74	1080.63
379.11	1083.93
379.48	1084.09
379.85	1086.87
380.22	1087.79
380.59	1086.85
380.96	1085.19
381.33	1082.69
381.70	1080.70
382.07	1078.38
382.44	1079.27
382.81	1078.43
383.18	1080.30
383.55	1081.84
383.92	1084.89
384.29	1085.07
384.66	1083.01
385.03	1082.73
385.40	1081.77
385.77	1080.09
386.14	1079.55
386.51	1083.32
386.88	1087.09
387.25	1088.51
387.62	1085.38
387.99	1084.72
388.36	1082.24
388.73	1081.26
389.10	1079.99
389.46	1084.25
389.83	1087.02
390.20	1089.33
390.57	1087.44
390.94	1087.86
391.31	1089.66
391.68	1089.99
392.05	1089.00
392.42	1089.80
392.79	1091.95
393.16	1089.59
393.53	1089.07
393.89	1089.00
394.26	1088.93
394.63	1087.67
395.00	1088.93
395.37	1087.39
395.74	1090.17
396.11	1092.33
396.48	1091.18
396.84	1089.73
397.21	1094.13
397.58	1092.56
397.95	1087.79
398.32	1088.56
398.69	1092.91
399.06	1089.87
399.42	1090.01
399.79	1093.59
400.16	1090.60
400.53	1089.29
400.90	1088.93
401.27	1087.65
401.64	1088.93
402.00	1092.21
402.37	1092.52
402.74	1095.16
403.11	1097.88
403.48	1098.11
403.84	1098.86
404.21	1096.17
404.58	1096.89
404.95	1093.94
405.32	1091.49
405.68	1092.21
406.05	1094.83
406.42	1091.23
406.79	1096.12
407.16	1100.52
407.52	1100.17
407.89	1098.51
408.26	1100.73
408.63	1100.57
408.99	1096.00
409.36	1095.91
409.73	1096.82
410.10	1099.05
410.47	1097.15
410.83	1097.41
411.20	1097.13
411.57	1100.24
411.94	1098.34
412.30	1098.86
412.67	1100.10
413.04	1101.67
413.40	1099.21
413.77	1098.09
414.14	1100.22
414.51	1101.25
414.87	1101.34
415.24	1101.88
415.61	1102.60
415.97	1101.34
416.34	1102.63
416.71	1101.60
417.08	1101.97
417.44	1105.60
417.81	1105.62
418.18	1106.21
418.54	1108.74
418.91	1113.11
419.28	1112.43
419.64	1118.66
420.01	1120.37
420.38	1124.32
420.74	1124.86
421.11	1126.45
421.48	1122.03
421.84	1124.23
422.21	1123.43
422.58	1124.30
422.94	1128.61
423.31	1138.25
423.68	1141.17
424.04	1146.56
424.41	1152.57
424.77	1154.00
425.14	1152.55
425.51	1156.15
425.87	1160.74
426.24	1162.17
426.61	1169.52
426.97	1175.65
427.34	1184.64
427.70	1194.02
428.07	1203.34
428.44	1212.40
428.80	1226.58
429.17	1233.18
429.53	1242.31
429.90	1254.36
430.27	1263.14
430.63	1274.66
431.00	1288.54
431.36	1305.11
431.73	1319.29
432.09	1339.61
432.46	1352.67
432.83	1375.79
433.19	1393.98
433.56	1414.43
433.92	1436.97
434.29	1466.42
434.65	1493.89
435.02	1521.65
435.38	1559.38
435.75	1588.38
436.11	1630.14
436.48	1670.49
436.84	1717.20
437.21	1761.25
437.57	1817.99
437.94	1865.13
438.30	1916.83
438.67	1976.56
439.03	2038.02
439.40	2104.56
439.76	2173.30
440.13	2247.76
440.49	2325.72
440.86	2406.26
441.22	2492.72
441.59	2584.63
441.95	2688.36
442.32	2797.53
442.68	2916.61
443.05	3043.07
443.41	3170.79
443.78	3299.87
444.14	3431.18
444.51	3572.71
444.87	3734.21
445.24	3897.48
445.60	4086.34
445.96	4275.95
446.33	4492.21
446.69	4689.33
447.06	4916.69
447.42	5133.26
447.79	5372.44
448.15	5637.58
448.51	5924.01
448.88	6241.95
449.24	6549.52
449.61	6907.27
449.97	7255.59
450.33	7623.50
450.70	7986.89
451.06	8423.87
451.43	8832.29
451.79	9310.35
452.15	9807.15
452.52	10350.15
452.88	10906.64
453.24	11536.01
453.61	12231.69
453.97	12943.58
454.34	13641.91
454.70	14462.36
455.06	15270.31
455.43	16048.56
455.79	16751.24
456.15	17582.55
456.52	18333.35
456.88	19250.63
457.24	20143.26
457.61	21259.25
457.97	22323.51
458.33	23421.09
458.70	24483.62
459.06	25493.47
459.42	26536.55
459.79	27452.21
460.15	28528.72
460.51	29545.31
460.88	30637.28
461.24	31612.47
461.60	32775.32
461.96	33832.82
462.33	34862.93
462.69	35931.83
463.05	37073.76
463.42	38107.13
463.78	39052.07
464.14	39808.04
464.50	40540.09
464.87	41054.12
465.23	41381.09
465.59	41746.59
465.95	42070.22
466.32	42320.40
466.68	42571.65
467.04	42752.32
467.40	42810.36
467.77	42913.44
468.13	42808.68
468.49	42637.91
468.85	42517.89
469.22	42378.65
469.58	42151.71
469.94	42029.33
470.30	41829.00
470.66	41454.96
471.03	40940.86
471.39	40561.72
471.75	39829.22
472.11	39104.13
472.47	38617.46
472.84	38087.05
473.20	37369.70
473.56	36973.65
473.92	36411.27
474.28	35764.53
474.65	35113.70
475.01	34407.00
475.37	33542.66
475.73	32842.61
476.09	32132.72
476.45	31476.74
476.81	30929.06
477.18	30380.88
477.54	29916.56
477.90	29488.25
478.26	28934.69
478.62	28417.50
478.98	28010.67
479.34	27564.58
479.71	26989.30
480.07	26549.28
480.43	26118.67
480.79	25620.42
481.15	25142.22
481.51	24770.45
481.87	24434.47
482.23	24046.01
482.59	23724.93
482.96	23396.65
483.32	23075.53
483.68	22682.11
484.04	22328.10
484.40	21914.06
484.76	21475.19
485.12	21014.85
485.48	20572.16
485.84	20078.40
486.20	19639.25
486.56	19194.12
486.92	18810.28
487.28	18408.90
487.64	18016.72
488.00	17622.85
488.37	17243.90
488.73	16805.42
489.09	16332.14
489.45	15898.67
489.81	15432.49
490.17	14985.23
490.53	14582.97
490.89	14179.53
491.25	13760.99
491.61	13365.77
491.97	12973.78
492.33	12555.50
492.69	12206.17
493.05	11877.31
493.41	11561.66
493.77	11231.39
494.13	10929.30
494.49	10627.83
494.85	10334.71
495.21	10053.79
495.57	9791.28
495.93	9520.46
496.29	9262.46
496.64	9033.37
497.00	8781.90
497.36	8524.02
497.72	8290.88
498.08	8064.03
498.44	7821.60
498.80	7612.73
499.16	7416.29
499.52	7216.32
499.88	7032.94
500.24	6860.88
500.60	6702.40
500.96	6551.37
501.32	6394.41
501.68	6228.38
502.03	6055.67
502.39	5882.37
502.75	5712.66
503.11	5554.44
503.47	5410.15
503.83	5282.94
504.19	5155.59
504.55	5034.09
504.91	4920.41
505.26	4804.14
505.62	4682.34
505.98	4566.53
506.34	4448.12
506.70	4332.96
507.06	4222.35
507.42	4114.24
507.78	4017.81
508.13	3925.52
508.49	3838.22
508.85	3756.96
509.21	3678.13
509.57	3588.44
509.93	3507.53
510.28	3418.77
510.64	3341.75
511.00	3261.47
511.36	3190.55
511.72	3118.90
512.07	3060.58
512.43	2991.60
512.79	2931.66
513.15	2868.07
513.51	2811.01
513.86	2754.34
514.22	2704.16
514.58	2654.17
514.94	2610.54
515.30	2560.38
515.65	2512.89
516.01	2474.63
516.37	2435.30
516.73	2396.15
517.08	2359.52
517.44	2318.63
517.80	2277.74
518.16	2237.48
518.51	2199.47
518.87	2164.01
519.23	2133.49
519.59	2100.84
519.94	2070.46
520.30	2045.23
520.66	2014.38
521.01	1987.70
521.37	1955.78
521.73	1928.93
522.09	1898.34
522.44	1879.31
522.80	1856.63
523.16	1839.03
523.51	1814.66
523.87	1792.69
524.23	1768.70
524.58	1742.44
524.94	1718.73
525.30	1699.32
525.65	1681.18
526.01	1662.15
526.37	1647.20
526.72	1629.46
527.08	1610.66
527.44	1595.24
527.79	1577.17
528.15	1561.98
528.51	1548.55
528.86	1538.01
529.22	1524.86
529.58	1511.40
529.93	1496.77
530.29	1484.27
530.65	1470.02
531.00	1453.50
531.36	1441.84
531.71	1429.25
532.07	1418.62
532.43	1410.50
532.78	1399.64
533.14	1389.53
533.49	1383.23
533.85	1371.79
534.21	1361.56
534.56	1351.85
534.92	1344.45
535.27	1334.20
535.63	1327.13
535.98	1320.97
536.34	1320.25
536.69	1317.04
537.05	1310.37
537.41	1300.45
537.76	1290.71
538.12	1281.65
538.47	1271.59
538.83	1263.80
539.18	1259.65
539.54	1256.54
539.89	1251.91
540.25	1251.65
540.60	1249.99
540.96	1250.08
541.31	1247.86
541.67	1243.85
542.02	1235.97
542.38	1232.78
542.73	1225.29
543.09	1222.53
543.44	1219.51
543.80	1217.48
544.15	1213.90
544.51	1217.41
544.86	1208.21
545.22	1203.48
545.57	1197.04
545.93	1195.38
546.28	1188.24
546.64	1188.73
546.99	1187.31
547.35	1186.84
547.70	1186.00
548.05	1180.38
548.41	1177.71
548.76	1176.56
549.12	1173.54
549.47	1169.31
549.83	1168.65
550.18	1166.66
550.53	1165.59
550.89	1166.71
551.24	1163.67
551.60	1161.58
551.95	1157.72
552.30	1150.70
552.66	1146.70
553.01	1147.52
553.37	1148.90
553.72	1150.44
554.07	1151.50
554.43	1151.22
554.78	1143.56
555.13	1141.03
555.49	1139.86
555.84	1141.36
556.19	1138.46
556.55	1139.77
556.90	1138.46
557.26	1137.31
557.61	1130.92
557.96	1129.03
558.32	1131.58
558.67	1129.17
559.02	1127.74
559.37	1127.44
559.73	1132.05
560.08	1129.12
560.43	1125.52
560.79	1123.71
561.14	1124.14
561.49	1118.47
561.85	1117.35
562.20	1120.58
562.55	1117.16
562.90	1119.41
563.26	1118.05
563.61	1116.86
563.96	1116.74
564.32	1116.74
564.67	1113.65
565.02	1113.25
565.37	1110.49
565.73	1109.84
566.08	1110.16
566.43	1111.26
566.78	1112.32
567.14	1112.92
567.49	1112.64
567.84	1116.13
568.19	1112.06
568.54	1110.54
568.90	1109.37
569.25	1104.78
569.60	1100.71
569.95	1098.62
570.31	1096.89
570.66	1097.24
571.01	1097.59
571.36	1096.12
571.71	1097.88
572.06	1100.87
572.42	1101.99
572.77	1103.54
573.12	1103.35
573.47	1106.79
573.82	1102.74
574.18	1102.30
574.53	1102.13
574.88	1102.84
575.23	1100.80
575.58	1102.81
575.93	1100.80
576.28	1100.80
576.64	1100.61
576.99	1099.63
577.34	1099.37
577.69	1101.41
578.04	1100.52
578.39	1100.08
578.74	1100.52
579.09	1101.76
579.44	1101.99
579.80	1099.89
580.15	1101.69
580.50	1100.68
580.85	1095.86
581.20	1095.32
581.55	1097.34
581.90	1095.16
582.25	1095.21
582.60	1099.26
582.95	1098.32
583.30	1098.37
583.65	1100.94
584.00	1101.67
584.35	1098.53
584.71	1096.17
585.06	1096.66
585.41	1092.59
585.76	1091.32
586.11	1092.12
586.46	1091.13
586.81	1087.37
587.16	1085.47
587.51	1085.54
587.86	1082.92
588.21	1082.87
588.56	1082.78
588.91	1087.20
589.26	1088.75
589.61	1089.43
589.96	1093.05
590.31	1089.87
590.66	1088.56
591.01	1086.90
591.36	1085.91
591.71	1083.50
592.06	1087.27
592.41	1086.41
592.76	1086.50
593.10	1088.65
593.45	1089.36
593.80	1091.86
594.15	1094.06
594.50	1090.32
594.85	1090.22
595.20	1089.40
595.55	1088.54
595.90	1084.93
596.25	1085.42
596.60	1085.47
596.95	1087.83
597.30	1087.32
597.64	1099.44
597.99	1100.92
598.34	1100.33
598.69	1097.50
599.04	1099.05
599.39	1089.61
599.74	1090.13
600.09	1091.86
600.44	1092.14
600.78	1091.51
601.13	1089.47
601.48	1088.98
601.83	1090.53
602.18	1091.51
602.53	1087.32
602.88	1086.99
603.22	1086.94
603.57	1084.58
603.92	1084.00
604.27	1088.19
604.62	1091.98
604.97	1095.75
605.31	1092.54
605.66	1090.22
606.01	1089.31
606.36	1087.04
606.71	1084.39
607.05	1089.03
607.40	1090.32
607.75	1090.71
608.10	1089.03
608.44	1089.59
608.79	1090.76
609.14	1091.98
609.49	1090.57
609.84	1091.18
610.18	1086.20
610.53	1080.18
610.88	1078.64
611.23	1077.18
611.57	1078.26
611.92	1080.34
612.27	1083.93
612.62	1087.30
612.96	1090.15
613.31	1088.09
613.66	1090.74
614.00	1090.36
614.35	1086.76
614.70	1083.39
615.05	1082.99
615.39	1082.73
615.74	1083.93
616.09	1086.38
616.43	1087.46
616.78	1088.56
617.13	1089.26
617.47	1088.70
617.82	1088.19
618.17	1089.66
618.51	1090.53
618.86	1090.48
619.21	1088.21
619.55	1087.74
619.90	1087.51
620.25	1087.79
620.59	1086.41
620.94	1089.24
621.29	1089.12
621.63	1088.56
621.98	1088.09
622.32	1089.57
622.67	1088.86
623.02	1087.79
623.36	1087.65
623.71	1087.23
624.05	1087.20
624.40	1082.31
624.75	1084.00
625.09	1083.08
625.44	1080.67
625.78	1077.14
626.13	1078.66
626.48	1076.69
626.82	1073.98
627.17	1074.05
627.51	1074.77
627.86	1077.47
628.20	1077.77
628.55	1080.04
628.89	1082.87
629.24	1086.08
629.58	1084.93
629.93	1084.44
630.28	1085.45
630.62	1084.98
630.97	1083.93
631.31	1088.37
631.66	1092.05
632.00	1090.76
632.35	1090.81
632.69	1088.00
633.04	1083.13
633.38	1079.81
633.73	1082.17
634.07	1084.84
634.42	1085.56
634.76	1086.52
635.11	1089.00
635.45	1088.42
635.79	1087.06
636.14	1086.10
636.48	1088.12
636.83	1085.54
637.17	1084.63
637.52	1083.06
637.86	1083.18
638.21	1080.13
638.55	1081.40
638.89	1080.60
639.24	1082.24
639.58	1081.77
639.93	1079.53
640.27	1078.71
640.61	1079.67
640.96	1076.37
641.30	1077.28
641.65	1079.90
641.99	1081.68
642.33	1079.36
642.68	1078.24
643.02	1078.96
643.37	1078.26
643.71	1076.08
644.05	1078.31
644.40	1080.84
644.74	1082.22
645.08	1082.15
645.43	1084.65
645.77	1087.34
646.11	1088.49
646.46	1087.34
646.80	1086.62
647.14	1084.30
647.49	1082.29
647.83	1081.35
648.17	1083.04
648.52	1085.31
648.86	1084.28
649.20	1085.80
649.55	1085.19
649.89	1080.67
650.23	1077.56
650.57	1078.73
650.92	1077.35
651.26	1079.01
651.60	1085.24
651.95	1086.13
652.29	1086.43
652.63	1088.65
652.97	1085.03
653.32	1082.78
653.66	1085.68
654.00	1085.84
654.34	1084.30
654.69	1085.63
655.03	1083.62
655.37	1080.63
655.71	1079.38
656.05	1077.79
656.40	1080.67
656.74	1083.15
657.08	1083.29
657.42	1082.08
657.76	1081.80
658.11	1078.00
658.45	1074.66
658.79	1077.51
659.13	1080.34
659.47	1079.64
659.82	1081.96
660.16	1083.64
660.50	1081.37
660.84	1081.16
661.18	1080.27
661.52	1083.34
661.87	1082.17
662.21	1082.17
662.55	1083.88
662.89	1087.74
663.23	1083.83
663.57	1083.43
663.91	1083.39
664.25	1081.94
664.60	1082.15
664.94	1079.97
665.28	1080.02
665.62	1078.64
665.96	1075.43
666.30	1071.80
666.64	1074.00
666.98	1078.57
667.32	1081.51
667.66	1084.58
668.01	1085.63
668.35	1084.56
668.69	1079.34
669.03	1076.86
669.37	1074.10
669.71	1074.14
670.05	1075.57
670.39	1076.79
670.73	1079.48
671.07	1078.71
671.41	1079.46
671.75	1081.75
672.09	1083.43
672.43	1080.79
672.77	1085.75
673.11	1085.75
673.45	1083.39
673.79	1080.25
674.13	1079.31
674.47	1077.75
674.81	1077.21
675.15	1076.79
675.49	1076.97
675.83	1079.22
676.17	1077.54
676.51	1075.71
676.85	1075.57
677.19	1077.00
677.53	1076.65
677.87	1075.94
678.21	1078.80
678.55	1077.82
678.89	1077.93
679.23	1078.12
679.57	1082.19
679.90	1080.18
680.24	1083.46
680.58	1083.41
680.92	1084.02
681.26	1082.76
681.60	1083.41
681.94	1080.04
682.28	1081.12
682.62	1081.40
682.96	1080.53
683.29	1083.18
683.63	1087.58
683.97	1089.45
684.31	1088.72
684.65	1088.35
684.99	1087.30
685.33	1084.60
685.67	1082.69
686.00	1081.26
686.34	1079.50
686.68	1078.03
687.02	1078.96
687.36	1077.44
687.70	1081.98
688.03	1081.21
688.37	1082.15
688.71	1082.90
689.05	1083.83
689.39	1080.37
689.72	1084.35
690.06	1084.04
690.40	1080.72
690.74	1081.44
691.08	1082.47
691.41	1078.82
691.75	1080.77
692.09	1084.56
692.43	1081.68
692.76	1082.87
693.10	1083.13
693.44	1083.20
693.78	1081.35
694.11	1083.95
694.45	1082.19
694.79	1083.55
695.13	1080.56
695.46	1078.10
695.80	1076.69
696.14	1077.61
696.48	1079.64
696.81	1079.43
697.15	1080.67
697.49	1081.68
697.82	1084.51
698.16	1081.87
698.50	1082.64
698.83	1086.45
699.17	1082.83
699.51	1080.93
699.84	1081.89
700.18	1083.22
700.52	1083.55
700.85	1086.90
701.19	1086.50
701.53	1087.90
701.86	1086.71
702.20	1082.10
702.54	1083.60
702.87	1087.09
703.21	1085.52
703.55	1085.24
703.88	1088.91
704.22	1087.81
704.55	1080.65
704.89	1084.49
705.23	1083.43
705.56	1080.60
705.90	1084.25
706.23	1085.59
706.57	1082.38
706.91	1083.32
707.24	1083.76
707.58	1078.50
707.91	1077.58
708.25	1077.91
708.58	1079.97
708.92	1079.97
709.26	1080.02
709.59	1082.57
709.93	1083.41
710.26	1080.20
710.60	1079.01
710.93	1080.25
711.27	1079.03
711.60	1077.96
711.94	1081.02
712.27	1083.18
712.61	1086.24
712.94	1086.85
713.28	1086.66
713.61	1083.83
713.95	1083.83
714.28	1079.60
714.62	1078.14
714.95	1077.72
715.29	1080.77
715.62	1082.78
715.96	1083.90
716.29	1083.86
716.63	1082.26
716.96	1081.98
717.29	1078.05
717.63	1081.68
717.96	1083.22
718.30	1083.90
718.63	1083.15
718.97	1085.07
719.30	1080.53
719.63	1081.02
719.97	1084.74
720.30	1082.78
720.64	1083.79
720.97	1085.63
721.30	1086.52
721.64	1083.53
721.97	1085.99
722.31	1081.47
722.64	1081.66
722.97	1076.93
723.31	1076.11
723.64	1073.74
723.97	1076.55
724.31	1076.65
724.64	1080.11
724.98	1080.91
725.31	1079.62
725.64	1078.96
725.98	1080.84
726.31	1083.88
726.64	1084.84
726.97	1085.12
727.31	1086.10
727.64	1082.22
727.97	1081.33
728.31	1081.16
728.64	1082.52
728.97	1079.60
729.31	1079.57
729.64	1076.46
729.97	1076.04
730.30	1076.53
730.64	1078.78
730.97	1082.03
731.30	1082.22
731.63	1080.77
731.97	1084.44
732.30	1087.48
732.63	1087.65
732.96	1088.86
733.30	1091.30
733.63	1086.80
733.96	1084.28
734.29	1079.41
734.63	1076.83
734.96	1075.31
735.29	1075.83
735.62	1073.30
735.95	1078.71
736.29	1078.38
736.62	1078.24
736.95	1079.88
737.28	1081.75
737.61	1079.62
737.94	1082.33
738.28	1081.73
738.61	1079.85
738.94	1080.51
739.27	1078.54
739.60	1078.50
739.93	1078.94
740.27	1078.14
740.60	1077.02
740.93	1075.59
741.26	1076.97
741.59	1076.08
741.92	1076.74
742.25	1074.94
742.58	1075.62
742.91	1072.97
743.25	1074.12
743.58	1076.93
743.91	1079.41
744.24	1080.88
744.57	1081.05
744.90	1084.65
745.23	1084.60
745.56	1082.08
745.89	1082.94
746.22	1083.04
746.55	1082.38
746.88	1083.29
747.21	1087.16
747.54	1086.73
747.87	1086.03
748.20	1083.55
748.53	1082.52
748.87	1082.40
749.20	1083.93
749.53	1085.42
749.86	1085.61
750.19	1084.39
750.52	1082.31
750.85	1080.67
751.18	1078.78
751.51	1078.45
751.84	1075.45
752.16	1075.69
752.49	1074.77
752.82	1075.48
753.15	1073.37
753.48	1076.04
753.81	1075.41
754.14	1075.24
754.47	1076.18
754.80	1078.66
755.13	1080.65
755.46	1080.46
755.79	1080.58
756.12	1081.94
756.45	1082.24
756.78	1077.89
757.11	1077.23
757.43	1077.68
757.76	1076.93
758.09	1074.75
758.42	1076.62
758.75	1075.69
759.08	1074.49
759.41	1071.61
759.74	1073.35
760.07	1073.70
760.39	1074.80
760.72	1077.16
761.05	1079.46
761.38	1080.70
761.71	1081.82
762.04	1083.55
762.36	1079.90
762.69	1077.04
763.02	1074.91
763.35	1073.58
763.68	1072.41
764.01	1074.35
764.33	1077.49
764.66	1078.52
764.99	1077.65
765.32	1078.61
765.65	1080.39
765.97	1082.22
766.30	1081.19
766.63	1081.05
766.96	1081.75
767.28	1082.05
767.61	1080.30
767.94	1080.02
768.27	1080.91
768.59	1080.74
768.92	1077.00
769.25	1079.43
769.58	1078.59
769.90	1080.53
770.23	1081.19
770.56	1085.14
770.89	1082.47
771.21	1083.67
771.54	1082.47
771.87	1082.87
772.19	1079.76
772.52	1079.13
772.85	1079.62
773.17	1077.89
773.50	1078.07
773.83	1077.16
774.15	1077.14
774.48	1075.92
774.81	1074.24
775.13	1075.05
775.46	1078.54
775.79	1077.98
776.11	1076.30
776.44	1076.18
776.77	1073.04
777.09	1071.71
777.42	1069.86
777.74	1076.41
778.07	1080.77
778.40	1080.65
778.72	1080.11
779.05	1082.29
779.37	1076.76
779.70	1077.18
780.03	1077.72
780.35	1079.03
780.68	1077.84
781.00	1080.98
781.33	1079.62
781.65	1079.34
781.98	1078.87
782.31	1077.58
782.63	1075.69
782.96	1074.38
783.28	1074.24
783.61	1076.81
783.93	1081.37
784.26	1082.12
784.58	1080.79
784.91	1080.41
785.23	1076.86
785.56	1074.91
785.88	1076.65
786.21	1081.19
786.53	1082.38
786.86	1085.80
787.18	1087.46
787.51	1083.67
787.83	1078.31
788.16	1077.28
788.48	1073.39
788.81	1073.14
789.13	1073.07
789.46	1076.55
789.78	1077.63
790.10	1078.85
790.43	1078.21
790.75	1082.15
791.08	1078.36
791.40	1078.73
791.73	1079.85
792.05	1079.20
792.37	1075.03
792.70	1080.88
793.02	1077.00
793.35	1074.17
793.67	1074.89
793.99	1078.68
794.32	1075.10
794.64	1076.97
794.96	1077.68
795.29	1076.53
795.61	1075.31
795.93	1074.52
796.26	1074.24
796.58	1074.61
796.91	1076.44
797.23	1074.07
797.55	1074.35
797.87	1077.16
798.20	1080.67
798.52	1078.10
798.84	1080.02
799.17	1082.76
799.49	1082.73
799.81	1082.83
800.14	1081.00
800.46	1079.29
800.78	1077.44
801.10	1077.02
801.43	1074.89
801.75	1079.55
802.07	1082.45
802.40	1084.09
802.72	1083.36
803.04	1084.91
803.36	1082.92
803.69	1082.73
804.01	1082.26
804.33	1080.51
804.65	1078.61
804.97	1080.72
805.30	1080.53
805.62	1081.37
805.94	1084.53
806.26	1085.24
806.58	1083.93
806.91	1085.40
807.23	1083.64
807.55	1080.91
807.87	1079.74
808.19	1079.36
808.52	1079.06
808.84	1079.55
809.16	1079.95
809.48	1079.41
809.80	1079.97
810.12	1078.21
810.44	1077.49
810.77	1078.57
811.09	1079.67
811.41	1077.86
811.73	1075.57
812.05	1076.67
812.37	1075.99
812.69	1076.25
813.01	1077.16
813.33	1076.13
813.66	1071.57
813.98	1071.54
814.30	1068.74
814.62	1067.92
814.94	1071.29
815.26	1072.25
815.58	1071.10
815.90	1070.56
816.22	1075.76
816.54	1074.42
816.86	1078.10
817.18	1080.48
817.50	1082.12
817.82	1076.46
818.14	1077.49
818.46	1075.08
818.78	1072.74
819.10	1073.56
819.42	1076.15
819.74	1076.27
820.06	1076.48
820.38	1077.63
820.70	1080.34
821.02	1079.27
821.34	1080.86
821.66	1082.01
821.98	1083.86
822.30	1082.36
822.62	1083.71
822.94	1079.55
823.26	1078.85
823.58	1073.70
823.90	1068.95
824.22	1068.36
824.54	1070.72
824.86	1070.54
825.18	1076.83
825.50	1080.18
825.81	1082.69
826.13	1081.91
826.45	1081.98
826.77	1079.57
827.09	1080.39
827.41	1078.19
827.73	1077.49
828.05	1077.61
828.36	1076.15
828.68	1075.43
829.00	1075.03
829.32	1077.49
829.64	1076.25
829.96	1074.49
830.28	1073.39
830.59	1069.58
830.91	1068.41
831.23	1070.47
831.55	1074.00
831.87	1075.10
832.19	1077.47
832.50	1079.29
832.82	1079.76
833.14	1078.96
833.46	1079.46
833.78	1080.32
834.09	1079.13
834.41	1081.19
834.73	1083.86
835.05	1082.45
835.36	1080.72
835.68	1082.38
836.00	1080.23
836.32	1077.25
836.63	1077.86
836.95	1081.30
837.27	1079.17
837.59	1078.59
837.90	1078.82
838.22	1078.96
838.54	1077.98
838.85	1077.44
839.17	1077.47
839.49	1074.52
839.80	1074.42
840.12	1073.07
840.44	1074.61
840.76	1073.25
841.07	1075.97
841.39	1075.73
841.71	1074.61
842.02	1071.50
842.34	1073.60
842.65	1069.06
842.97	1067.94
843.29	1070.02
843.60	1068.45
843.92	1066.09
844.24	1071.26
844.55	1073.09
844.87	1075.24
845.18	1080.48
845.50	1081.75
845.82	1080.56
846.13	1080.25
846.45	1077.35
846.76	1074.80
847.08	1072.11
847.40	1072.32
847.71	1073.44
848.03	1073.44
848.34	1074.98
848.66	1078.73
848.97	1081.87
849.29	1083.15
849.60	1080.32
849.92	1076.58
850.24	1075.73
850.55	1076.20
850.87	1075.13
851.18	1078.45
851.50	1080.95
851.81	1081.30
852.13	1077.79
852.44	1078.66
852.76	1075.45
853.07	1074.94
853.39	1074.89
853.70	1075.62
854.01	1072.97
854.33	1077.40
854.64	1080.04
854.96	1078.82
855.27	1078.19
855.59	1081.75
855.90	1079.41
856.22	1076.39
856.53	1076.86
856.84	1076.46
857.16	1075.08
857.47	1076.65
857.79	1079.43
858.10	1080.09
858.41	1077.72
858.73	1077.96
859.04	1076.27
859.36	1074.35
859.67	1073.60
859.98	1075.97
860.30	1073.23
860.61	1073.23
860.92	1074.77
861.24	1077.98
861.55	1080.93
861.87	1080.93
862.18	1082.45
862.49	1083.93
862.81	1079.62
863.12	1079.03
863.43	1078.92
863.74	1077.09
864.06	1076.01
864.37	1078.64
864.68	1077.14
865.00	1077.56
865.31	1077.40
865.62	1077.68
865.94	1075.55
866.25	1076.41
866.56	1078.00
866.87	1079.85
867.19	1077.21
867.50	1079.01
867.81	1078.82
868.12	1076.13
868.44	1077.68
868.75	1076.90
869.06	1077.63
869.37	1079.34
869.68	1078.82
870.00	1074.45
870.31	1074.87
870.62	1071.45
870.93	1069.39
871.24	1071.45
871.56	1074.75
871.87	1076.60
872.18	1076.72
872.49	1075.71
872.80	1073.07
873.12	1071.90
873.43	1070.21
873.74	1070.58
874.05	1069.70
874.36	1073.09
874.67	1072.25
874.98	1072.36
875.29	1073.67
875.61	1074.91
875.92	1073.72
876.23	1075.57
876.54	1073.74
876.85	1074.56
877.16	1076.41
877.47	1075.43
877.78	1078.17
878.09	1079.15
878.40	1079.13
878.72	1077.96
879.03	1081.40
879.34	1076.46
879.65	1078.12
879.96	1076.15
880.27	1079.57
880.58	1079.64
880.89	1083.53
881.20	1080.06
881.51	1083.53
881.82	1079.03
882.13	1080.34
882.44	1079.67
882.75	1083.43
883.06	1080.46
883.37	1080.79
883.68	1077.28
883.99	1078.28
884.30	1081.42
884.61	1081.82
884.92	1080.39
885.23	1078.78
885.54	1076.13
885.85	1074.31
886.16	1072.46
886.47	1072.43
886.78	1075.48
887.08	1077.14
887.39	1077.65
887.70	1082.61
888.01	1082.85
888.32	1082.59
888.63	1083.34
888.94	1081.16
889.25	1078.17
889.56	1080.77
889.87	1081.58
890.17	1081.30
890.48	1080.74
890.79	1080.84
891.10	1078.12
891.41	1076.51
891.72	1075.99
892.03	1076.08
892.34	1075.45
892.64	1077.61
892.95	1077.47
893.26	1077.21
893.57	1078.75
893.88	1079.85
894.18	1077.23
894.49	1076.97
894.80	1074.91
895.11	1072.57
895.42	1073.04
895.72	1074.84
896.03	1073.77
896.34	1072.88
896.65	1071.12
896.96	1072.06
897.26	1069.86
897.57	1072.92
897.88	1075.29
898.19	1077.04
898.49	1075.83
898.80	1077.47
899.11	1075.29
899.41	1075.92
899.72	1075.36
900.03	1076.18
900.34	1078.05
900.64	1077.49
900.95	1076.11
901.26	1075.41
901.56	1073.70
901.87	1072.83
902.18	1072.85
902.48	1074.28
902.79	1077.72
903.10	1079.01
903.40	1079.97
903.71	1080.98
904.02	1080.30
904.32	1079.46
904.63	1078.12
904.94	1077.70
905.24	1077.65
905.55	1076.06
905.85	1076.34
906.16	1077.70
906.47	1080.65
906.77	1082.24
907.08	1079.46
907.38	1079.43
907.69	1080.16
908.00	1078.59
908.30	1080.60
908.61	1085.38
908.91	1083.43
909.22	1081.35
909.52	1077.98
909.83	1076.04
910.14	1075.13
910.44	1075.92
910.75	1074.73
911.05	1076.44
911.36	1074.05
911.66	1073.00
911.97	1076.30
912.27	1080.25
912.58	1079.74
912.88	1082.87
913.19	1083.60
913.49	1080.16
913.80	1075.92
914.10	1077.07
914.41	1075.87
914.71	1078.14
915.01	1079.48
915.32	1078.66
915.62	1080.30
915.93	1080.81
916.23	1075.71
916.54	1075.85
916.84	1078.52
917.15	1074.82
917.45	1073.49
917.75	1076.48
918.06	1073.42
918.36	1075.03
918.67	1075.34
918.97	1072.64
919.27	1071.38
919.58	1075.45
919.88	1074.91
920.18	1075.97
920.49	1080.39
920.79	1082.97
921.10	1082.97
921.40	1082.97
921.70	1082.31
922.01	1080.88
922.31	1078.80
922.61	1076.95
922.92	1073.98
923.22	1074.80
923.52	1075.48
923.82	1076.74
924.13	1077.40
924.43	1081.12
924.73	1078.10
925.04	1076.86
925.34	1079.03
925.64	1082.08
925.94	1081.28
926.25	1085.84
926.55	1084.98
926.85	1081.77
927.15	1083.08
927.46	1082.22
927.76	1082.38
928.06	1081.77
928.36	1081.00
928.67	1077.09
928.97	1079.67
929.27	1079.57
929.57	1082.31
929.87	1083.88
930.18	1079.95
930.48	1076.69
930.78	1078.14
931.08	1075.85
931.38	1076.37
931.69	1077.89
931.99	1078.28
932.29	1070.05
932.59	1068.29
932.89	1066.37
933.19	1067.12
933.49	1067.96
933.80	1071.17
934.10	1073.65
934.40	1072.81
934.70	1071.54
935.00	1069.18
935.30	1070.63
935.60	1069.86
935.90	1070.63
936.20	1070.68
936.50	1071.97
936.81	1070.00
937.11	1072.32
937.41	1072.76
937.71	1074.05
938.01	1074.54
938.31	1076.08
938.61	1076.27
938.91	1075.92
939.21	1076.76
939.51	1077.79
939.81	1080.11
940.11	1077.91
940.41	1076.79
940.71	1078.12
941.01	1076.55
941.31	1076.34
941.61	1078.59
941.91	1079.03
942.21	1077.84
942.51	1076.79
942.81	1077.51
943.11	1079.83
943.41	1083.18
943.71	1082.61
944.01	1081.89
944.31	1077.54
944.61	1072.78
944.90	1069.72
945.20	1070.98
945.50	1074.42
945.80	1075.92
946.10	1075.99
946.40	1080.91
946.70	1081.09
947.00	1079.41
947.30	1081.19
947.60	1081.35
947.89	1077.93
948.19	1078.24
948.49	1080.60
948.79	1080.95
949.09	1083.48
949.39	1086.03
949.69	1085.87
949.98	1084.30
950.28	1086.90
950.58	1085.99
950.88	1086.76
951.18	1087.09
951.48	1086.92
951.77	1079.88
952.07	1080.41
952.37	1078.78
952.67	1077.82
952.97	1078.36
953.26	1082.50
953.56	1083.57
953.86	1081.89
954.16	1078.17
954.45	1077.70
954.75	1074.52
955.05	1071.19
955.35	1071.71
955.64	1073.77
955.94	1074.05
956.24	1075.45
956.54	1077.09
956.83	1076.32
957.13	1077.00
957.43	1079.90
957.72	1082.19
958.02	1080.95
958.32	1080.86
958.61	1081.70
958.91	1078.10
959.21	1073.09
959.50	1072.69
959.80	1073.46
960.10	1075.22
960.39	1074.82
960.69	1078.82
960.99	1080.37
961.28	1080.20
961.58	1078.66
961.87	1079.53
962.17	1078.59
962.47	1079.69
962.76	1079.92
963.06	1079.06
963.36	1082.78
963.65	1083.90
963.95	1081.77
964.24	1081.26
964.54	1081.61
964.83	1080.23
965.13	1078.12
965.42	1079.69
965.72	1081.00
966.02	1081.82
966.31	1080.53
966.61	1080.37
966.90	1080.44
967.20	1078.64
967.49	1078.92
967.79	1077.96
968.08	1082.61
968.38	1079.81
968.67	1079.83
968.97	1074.10
969.26	1078.03
969.56	1073.60
969.85	1076.11
970.15	1076.41
970.44	1084.11
970.74	1078.54
971.03	1080.60
971.32	1080.53
971.62	1079.76
971.91	1075.92
972.21	1077.42
972.50	1078.64
972.80	1077.47
973.09	1076.53
973.38	1076.95
973.68	1079.03
973.97	1077.47
974.27	1074.19
974.56	1074.17
974.85	1076.81
975.15	1072.85
975.44	1071.10
975.73	1076.60
976.03	1081.51
976.32	1079.24
976.61	1082.94
976.91	1082.87
977.20	1082.45
977.49	1079.24
977.79	1079.15
978.08	1081.44
978.37	1082.15
978.67	1080.98
978.96	1081.68
979.25	1078.43
979.55	1075.03
979.84	1074.47
980.13	1073.14
980.42	1069.93
980.72	1076.90
981.01	1074.47
981.30	1078.03
981.59	1076.44
981.89	1078.73
982.18	1074.19
982.47	1078.12
982.76	1075.38
983.06	1078.14
983.35	1078.26
983.64	1080.56
983.93	1080.79
984.22	1081.40
984.52	1082.33
984.81	1084.16
985.10	1081.73
985.39	1078.66
985.68	1079.85
985.97	1080.09
986.27	1076.72
986.56	1079.34
986.85	1080.13
987.14	1080.77
987.43	1080.13
987.72	1081.58
988.01	1081.66
988.31	1080.79
988.60	1078.78
988.89	1078.61
989.18	1078.94
989.47	1078.21
989.76	1079.31
990.05	1081.58
990.34	1080.02
990.63	1082.26
990.92	1083.39
991.21	1084.56
991.51	1083.53
991.80	1083.74
992.09	1078.75
992.38	1080.20
992.67	1078.92
992.96	1076.95
993.25	1077.07
993.54	1079.85
993.83	1078.00
994.12	1077.77
994.41	1081.49
994.70	1081.87
994.99	1081.07
995.28	1081.49
995.57	1080.74
995.86	1078.99
996.15	1075.31
996.44	1075.10
996.73	1071.12
997.02	1071.97
997.31	1068.76
997.59	1074.31
997.88	1072.60
998.17	1073.30
998.46	1069.91
998.75	1072.22
999.04	1068.67
999.33	1072.95
999.62	1073.88
999.91	1076.34
1000.20	1073.44
1000.49	1075.52
1000.77	1073.35
1001.06	1073.16
1001.35	1073.14
1001.64	1075.29
1001.93	1073.58
1002.22	1071.78
1002.51	1072.43
1002.79	1071.78
1003.08	1072.34
1003.37	1070.94
1003.66	1074.17
1003.95	1073.25
1004.23	1076.72
1004.52	1076.81
1004.81	1077.58
1005.10	1078.66
1005.39	1079.36
1005.67	1078.54
1005.96	1077.37
1006.25	1079.67
1006.54	1076.88
1006.83	1075.90
1007.11	1077.33
1007.40	1076.48
1007.69	1075.08
1007.97	1073.30
1008.26	1073.53
1008.55	1071.54
1008.84	1073.28
1009.12	1076.60
1009.41	1079.03
1009.70	1083.48
1009.98	1081.75
1010.27	1079.99
1010.56	1077.21
1010.85	1073.72
1011.13	1070.49
1011.42	1071.22
1011.71	1071.71
1011.99	1073.28
1012.28	1075.52
1012.56	1075.41
1012.85	1072.43
1013.14	1074.35
1013.42	1072.90
1013.71	1074.24
1014.00	1075.29
1014.28	1079.83
1014.57	1079.88
1014.85	1080.67
1015.14	1082.57
1015.43	1082.83
1015.71	1080.72
1016.00	1075.24
1016.28	1075.17
1016.57	1073.21
1016.85	1070.44
1017.14	1072.48
1017.43	1078.64
1017.71	1080.20
1018.00	1079.64
1018.28	1080.25
1018.57	1078.26
1018.85	1077.96
1019.14	1077.14
1019.42	1078.57
1019.71	1080.46
1019.99	1083.20
1020.28	1081.87
1020.56	1084.58
1020.85	1081.98
1021.13	1081.75
1021.42	1076.79
1021.70	1077.04
1021.99	1073.21
1022.27	1073.37
1022.55	1076.65
1022.84	1068.34
>>>>>End Processed Spectral Data<<<<<
