SpectraSuite Data File
++++++++++++++++++++++++++++++++++++
Date: Mon Aug 26 10:22:28 PDT 2019
User: corrico
Dark Spectrum Present: No
Reference Spectrum Present: No
Number of Sampled Component Spectra: 1
Spectrometers: USB2+H06089
Integration Time (usec): 2000 (USB2+H06089)
Spectra Averaged: 20 (USB2+H06089)
Boxcar Smoothing: 2 (USB2+H06089)
Correct for Electrical Dark: No (USB2+H06089)
Strobe/Lamp Enabled: No (USB2+H06089)
Correct for Detector Non-linearity: No (USB2+H06089)
Correct for Stray Light: No (USB2+H06089)
Number of Pixels in Processed Spectrum: 2048
>>>>>Begin Processed Spectral Data<<<<<
339.70	1029.13
340.07	1029.13
340.45	992.36
340.82	968.19
341.19	943.52
341.57	919.01
341.94	909.39
342.31	902.63
342.69	900.92
343.06	901.83
343.43	899.35
343.81	900.19
344.18	900.85
344.55	902.77
344.93	904.80
345.30	910.61
345.67	916.25
346.04	926.85
346.42	937.85
346.79	950.80
347.16	960.16
347.54	969.50
347.91	975.98
348.28	986.07
348.65	991.05
349.03	999.78
349.40	1009.33
349.77	1019.56
350.14	1025.67
350.52	1034.87
350.89	1044.25
351.26	1051.16
351.63	1058.67
352.01	1064.43
352.38	1065.72
352.75	1068.17
353.12	1070.49
353.50	1074.05
353.87	1074.98
354.24	1079.10
354.61	1081.37
354.98	1085.56
355.36	1084.23
355.73	1086.50
356.10	1085.21
356.47	1084.32
356.84	1082.36
357.22	1082.64
357.59	1084.04
357.96	1085.87
358.33	1087.23
358.70	1089.66
359.08	1090.22
359.45	1087.39
359.82	1087.13
360.19	1086.50
360.56	1082.54
360.94	1082.38
361.31	1079.99
361.68	1080.74
362.05	1079.97
362.42	1079.22
362.79	1078.89
363.16	1078.38
363.54	1077.86
363.91	1078.26
364.28	1078.66
364.65	1077.72
365.02	1075.99
365.39	1073.46
365.76	1076.32
366.14	1078.07
366.51	1075.52
366.88	1079.10
367.25	1077.02
367.62	1073.70
367.99	1072.20
368.36	1074.28
368.73	1075.50
369.10	1078.43
369.48	1074.42
369.85	1075.92
370.22	1075.10
370.59	1069.95
370.96	1067.24
371.33	1071.33
371.70	1070.54
372.07	1070.16
372.44	1074.00
372.81	1078.05
373.18	1078.61
373.55	1079.31
373.93	1080.16
374.30	1081.00
374.67	1079.34
375.04	1078.68
375.41	1076.67
375.78	1076.44
376.15	1075.55
376.52	1076.86
376.89	1076.32
377.26	1077.96
377.63	1074.07
378.00	1075.03
378.37	1074.28
378.74	1073.70
379.11	1073.02
379.48	1078.59
379.85	1079.99
380.22	1080.95
380.59	1082.43
380.96	1085.94
381.33	1086.34
381.70	1084.56
382.07	1084.79
382.44	1084.79
382.81	1081.96
383.18	1081.00
383.55	1083.71
383.92	1082.80
384.29	1082.87
384.66	1085.24
385.03	1086.59
385.40	1083.69
385.77	1084.63
386.14	1084.86
386.51	1085.68
386.88	1084.16
387.25	1084.09
387.62	1084.65
387.99	1081.98
388.36	1083.43
388.73	1083.15
389.10	1086.13
389.46	1089.80
389.83	1093.57
390.20	1090.88
390.57	1090.99
390.94	1088.23
391.31	1081.54
391.68	1080.84
392.05	1082.40
392.42	1085.56
392.79	1086.48
393.16	1088.30
393.53	1088.42
393.89	1088.16
394.26	1084.56
394.63	1084.86
395.00	1086.15
395.37	1088.70
395.74	1090.88
396.11	1094.79
396.48	1095.51
396.84	1097.48
397.21	1092.16
397.58	1090.78
397.95	1090.57
398.32	1090.76
398.69	1091.53
399.06	1092.96
399.42	1092.42
399.79	1093.43
400.16	1090.83
400.53	1088.65
400.90	1093.55
401.27	1091.06
401.64	1092.87
402.00	1095.28
402.37	1094.11
402.74	1093.43
403.11	1094.11
403.48	1090.17
403.84	1091.18
404.21	1093.62
404.58	1094.53
404.95	1096.75
405.32	1097.80
405.68	1096.96
406.05	1098.51
406.42	1096.92
406.79	1096.99
407.16	1096.61
407.52	1098.98
407.89	1095.96
408.26	1097.64
408.63	1097.50
408.99	1097.52
409.36	1096.38
409.73	1098.02
410.10	1097.17
410.47	1096.68
410.83	1095.51
411.20	1093.40
411.57	1093.29
411.94	1094.34
412.30	1097.06
412.67	1095.46
413.04	1098.23
413.40	1095.63
413.77	1093.31
414.14	1093.08
414.51	1095.98
414.87	1094.08
415.24	1098.02
415.61	1099.58
415.97	1096.78
416.34	1099.40
416.71	1103.91
417.08	1102.46
417.44	1102.46
417.81	1105.32
418.18	1105.29
418.54	1103.14
418.91	1104.92
419.28	1106.23
419.64	1108.29
420.01	1108.76
420.38	1110.23
420.74	1114.33
421.11	1115.85
421.48	1116.37
421.84	1119.99
422.21	1124.65
422.58	1122.64
422.94	1127.44
423.31	1132.82
423.68	1133.24
424.04	1137.71
424.41	1143.02
424.77	1143.87
425.14	1144.31
425.51	1148.34
425.87	1147.56
426.24	1153.74
426.61	1161.14
426.97	1164.72
427.34	1170.48
427.70	1177.38
428.07	1181.13
428.44	1187.89
428.80	1194.82
429.17	1202.19
429.53	1209.24
429.90	1219.47
430.27	1229.58
430.63	1239.50
431.00	1254.62
431.36	1269.44
431.73	1281.16
432.09	1293.10
432.46	1313.30
432.83	1324.42
433.19	1342.04
433.56	1361.49
433.92	1379.93
434.29	1397.58
434.65	1420.19
435.02	1443.81
435.38	1467.00
435.75	1493.50
436.11	1526.66
436.48	1558.70
436.84	1590.09
437.21	1629.08
437.57	1669.69
437.94	1705.95
438.30	1752.22
438.67	1802.19
439.03	1852.35
439.40	1903.51
439.76	1962.05
440.13	2023.25
440.49	2090.64
440.86	2155.12
441.22	2229.78
441.59	2306.62
441.95	2391.02
442.32	2471.91
442.68	2568.39
443.05	2664.49
443.41	2763.77
443.78	2861.56
444.14	2970.94
444.51	3083.59
444.87	3220.09
445.24	3358.76
445.60	3515.06
445.96	3670.45
446.33	3845.92
446.69	4011.49
447.06	4192.86
447.42	4375.91
447.79	4567.49
448.15	4786.86
448.51	5018.86
448.88	5281.68
449.24	5527.95
449.61	5809.54
449.97	6091.97
450.33	6377.84
450.70	6635.49
451.06	6956.66
451.43	7263.99
451.79	7627.17
452.15	8024.78
452.52	8486.50
452.88	8967.20
453.24	9510.81
453.61	10100.39
453.97	10675.51
454.34	11232.82
454.70	11882.57
455.06	12525.66
455.43	13145.31
455.79	13747.84
456.15	14469.92
456.52	15129.11
456.88	15902.16
457.24	16634.42
457.61	17498.38
457.97	18271.86
458.33	19047.79
458.70	19825.20
459.06	20594.12
459.42	21421.12
459.79	22200.82
460.15	23109.84
460.51	23975.75
460.88	24911.28
461.24	25711.81
461.60	26690.60
461.96	27590.84
462.33	28431.96
462.69	29216.21
463.05	30071.60
463.42	30770.46
463.78	31422.18
464.14	31973.47
464.50	32594.28
464.87	33082.65
465.23	33459.41
465.59	33792.82
465.95	34104.74
466.32	34343.17
466.68	34577.06
467.04	34723.70
467.40	34871.27
467.77	35029.14
468.13	35013.67
468.49	34903.33
468.85	34816.62
469.22	34626.54
469.58	34288.36
469.94	34051.00
470.30	33751.48
470.66	33325.09
471.03	32743.46
471.39	32341.17
471.75	31665.44
472.11	31049.20
472.47	30699.66
472.84	30387.78
473.20	29897.44
473.56	29653.93
473.92	29222.15
474.28	28698.92
474.65	28212.40
475.01	27740.29
475.37	27153.58
475.73	26706.10
476.09	26160.21
476.45	25635.30
476.81	25108.38
477.18	24563.62
477.54	24104.05
477.90	23748.53
478.26	23311.29
478.62	22966.86
478.98	22683.26
479.34	22359.82
479.71	21936.83
480.07	21591.91
480.43	21216.04
480.79	20813.17
481.15	20447.15
481.51	20157.82
481.87	19915.57
482.23	19646.95
482.59	19403.35
482.96	19130.84
483.32	18831.48
483.68	18456.90
484.04	18109.97
484.40	17752.82
484.76	17385.69
485.12	16997.74
485.48	16671.73
485.84	16314.47
486.20	15943.28
486.56	15561.19
486.92	15259.19
487.28	14892.41
487.64	14543.32
488.00	14224.82
488.37	13910.13
488.73	13529.86
489.09	13179.67
489.45	12867.77
489.81	12545.25
490.17	12237.26
490.53	11954.50
490.89	11657.11
491.25	11346.47
491.61	11038.86
491.97	10719.30
492.33	10398.91
492.69	10095.55
493.05	9788.68
493.41	9494.38
493.77	9222.37
494.13	8963.06
494.49	8712.60
494.85	8469.65
495.21	8247.35
495.57	8024.15
495.93	7810.23
496.29	7599.11
496.64	7416.85
497.00	7221.82
497.36	7033.68
497.72	6860.11
498.08	6689.20
498.44	6499.01
498.80	6315.89
499.16	6147.70
499.52	5980.72
499.88	5848.37
500.24	5722.73
500.60	5610.78
500.96	5506.34
501.32	5390.23
501.68	5272.10
502.03	5145.22
502.39	5018.76
502.75	4878.75
503.11	4754.87
503.47	4624.15
503.83	4508.11
504.19	4385.95
504.55	4275.67
504.91	4173.32
505.26	4076.14
505.62	3984.86
505.98	3896.27
506.34	3807.82
506.70	3715.79
507.06	3622.31
507.42	3537.67
507.78	3459.64
508.13	3382.31
508.49	3306.94
508.85	3239.89
509.21	3167.56
509.57	3102.71
509.93	3033.97
510.28	2968.29
510.64	2901.30
511.00	2836.82
511.36	2772.93
511.72	2716.07
512.07	2666.74
512.43	2619.86
512.79	2573.28
513.15	2523.68
513.51	2478.02
513.86	2430.48
514.22	2389.62
514.58	2349.99
514.94	2313.69
515.30	2278.30
515.65	2241.91
516.01	2204.81
516.37	2168.27
516.73	2131.67
517.08	2104.35
517.44	2076.62
517.80	2048.72
518.16	2021.22
518.51	2001.20
518.87	1971.01
519.23	1945.76
519.59	1919.33
519.94	1896.72
520.30	1871.94
520.66	1848.74
521.01	1821.40
521.37	1802.38
521.73	1782.81
522.09	1760.60
522.44	1739.81
522.80	1716.85
523.16	1693.28
523.51	1670.21
523.87	1649.35
524.23	1633.34
524.58	1620.47
524.94	1605.33
525.30	1588.85
525.65	1571.65
526.01	1554.58
526.37	1541.87
526.72	1529.75
527.08	1517.65
527.44	1506.58
527.79	1491.25
528.15	1475.92
528.51	1462.34
528.86	1449.70
529.22	1437.72
529.58	1428.57
529.93	1417.59
530.29	1407.79
530.65	1398.73
531.00	1386.46
531.36	1375.98
531.71	1367.93
532.07	1358.68
532.43	1349.69
532.78	1345.06
533.14	1340.35
533.49	1331.74
533.85	1323.99
534.21	1316.11
534.56	1310.91
534.92	1301.34
535.27	1298.83
535.63	1293.64
535.98	1289.45
536.34	1281.35
536.69	1274.73
537.05	1266.81
537.41	1261.36
537.76	1256.07
538.12	1252.58
538.47	1248.98
538.83	1243.04
539.18	1237.23
539.54	1233.06
539.89	1224.85
540.25	1222.67
540.60	1222.41
540.96	1220.14
541.31	1215.81
541.67	1215.65
542.02	1210.62
542.38	1203.97
542.73	1199.81
543.09	1198.73
543.44	1196.93
543.80	1194.23
544.15	1193.58
544.51	1191.57
544.86	1185.76
545.22	1180.38
545.57	1180.66
545.93	1174.20
546.28	1167.67
546.64	1164.65
546.99	1161.61
547.35	1157.79
547.70	1157.39
548.05	1159.15
548.41	1157.37
548.76	1155.85
549.12	1152.20
549.47	1149.81
549.83	1146.46
550.18	1146.63
550.53	1145.20
550.89	1143.45
551.24	1143.91
551.60	1141.74
551.95	1139.26
552.30	1138.97
552.66	1138.86
553.01	1136.28
553.37	1136.70
553.72	1135.00
554.07	1132.28
554.43	1131.06
554.78	1130.57
555.13	1130.71
555.49	1133.05
555.84	1134.43
556.19	1133.73
556.55	1133.22
556.90	1131.06
557.26	1127.01
557.61	1124.46
557.96	1123.13
558.32	1122.19
558.67	1120.39
559.02	1120.41
559.37	1117.63
559.73	1118.40
560.08	1118.54
560.43	1116.55
560.79	1115.99
561.14	1115.92
561.49	1117.18
561.85	1114.61
562.20	1114.96
562.55	1112.76
562.90	1110.79
563.26	1104.38
563.61	1104.57
563.96	1109.04
564.32	1106.44
564.67	1108.34
565.02	1110.84
565.37	1109.23
565.73	1104.08
566.08	1103.98
566.43	1102.98
566.78	1100.64
567.14	1098.13
567.49	1097.62
567.84	1097.97
568.19	1096.70
568.54	1097.83
568.90	1101.88
569.25	1101.03
569.60	1103.40
569.95	1106.23
570.31	1103.96
570.66	1101.46
571.01	1103.35
571.36	1100.92
571.71	1097.43
572.06	1097.73
572.42	1095.30
572.77	1091.72
573.12	1093.31
573.47	1091.63
573.82	1093.01
574.18	1094.41
574.53	1095.37
574.88	1094.25
575.23	1096.56
575.58	1096.78
575.93	1098.23
576.28	1097.06
576.64	1098.58
576.99	1100.64
577.34	1099.82
577.69	1097.24
578.04	1099.12
578.39	1097.45
578.74	1095.65
579.09	1094.86
579.44	1094.97
579.80	1092.00
580.15	1091.81
580.50	1090.15
580.85	1089.50
581.20	1088.91
581.55	1089.75
581.90	1090.01
582.25	1092.23
582.60	1096.80
582.95	1101.32
583.30	1099.72
583.65	1099.09
584.00	1098.55
584.35	1094.62
584.71	1091.70
585.06	1095.96
585.41	1096.24
585.76	1094.67
586.11	1094.27
586.46	1092.80
586.81	1089.05
587.16	1091.84
587.51	1089.89
587.86	1089.05
588.21	1088.79
588.56	1088.37
588.91	1081.51
589.26	1082.03
589.61	1082.87
589.96	1084.89
590.31	1087.83
590.66	1089.78
591.01	1091.06
591.36	1089.75
591.71	1090.08
592.06	1088.47
592.41	1087.86
592.76	1085.54
593.10	1087.18
593.45	1084.60
593.80	1082.76
594.15	1081.44
594.50	1084.37
594.85	1080.32
595.20	1078.40
595.55	1077.30
595.90	1082.08
596.25	1081.33
596.60	1084.23
596.95	1089.36
597.30	1093.55
597.64	1101.71
597.99	1103.94
598.34	1105.83
598.69	1104.31
599.04	1101.60
599.39	1092.75
599.74	1090.03
600.09	1087.23
600.44	1085.52
600.78	1088.86
601.13	1087.81
601.48	1086.36
601.83	1089.26
602.18	1089.73
602.53	1085.77
602.88	1083.71
603.22	1087.79
603.57	1085.84
603.92	1082.54
604.27	1083.34
604.62	1084.00
604.97	1081.98
605.31	1080.56
605.66	1088.35
606.01	1089.52
606.36	1089.40
606.71	1088.19
607.05	1088.82
607.40	1086.13
607.75	1085.91
608.10	1088.14
608.44	1087.76
608.79	1087.16
609.14	1087.51
609.49	1087.74
609.84	1083.74
610.18	1082.17
610.53	1084.96
610.88	1081.66
611.23	1080.95
611.57	1085.45
611.92	1088.09
612.27	1088.47
612.62	1091.16
612.96	1090.67
613.31	1090.64
613.66	1089.82
614.00	1088.63
614.35	1087.34
614.70	1086.73
615.05	1082.64
615.39	1082.52
615.74	1083.18
616.09	1081.91
616.43	1082.08
616.78	1084.42
617.13	1084.42
617.47	1082.54
617.82	1083.67
618.17	1084.39
618.51	1081.56
618.86	1079.69
619.21	1081.23
619.55	1079.34
619.90	1078.87
620.25	1082.12
620.59	1085.17
620.94	1084.51
621.29	1084.39
621.63	1083.20
621.98	1080.79
622.32	1081.87
622.67	1079.81
623.02	1083.60
623.36	1086.13
623.71	1088.00
624.05	1082.99
624.40	1083.86
624.75	1085.12
625.09	1084.07
625.44	1085.35
625.78	1090.29
626.13	1089.66
626.48	1084.74
626.82	1084.60
627.17	1084.77
627.51	1083.88
627.86	1080.16
628.20	1083.39
628.55	1083.50
628.89	1079.88
629.24	1079.55
629.58	1081.82
629.93	1078.21
630.28	1079.13
630.62	1078.14
630.97	1075.90
631.31	1077.86
631.66	1079.01
632.00	1079.95
632.35	1081.84
632.69	1082.17
633.04	1083.95
633.38	1085.49
633.73	1085.56
634.07	1084.04
634.42	1086.29
634.76	1083.53
635.11	1086.36
635.45	1086.03
635.79	1085.87
636.14	1085.26
636.48	1086.87
636.83	1084.28
637.17	1081.26
637.52	1083.15
637.86	1085.45
638.21	1084.63
638.55	1083.97
638.89	1084.84
639.24	1085.19
639.58	1084.16
639.93	1084.42
640.27	1084.96
640.61	1088.04
640.96	1087.79
641.30	1086.73
641.65	1088.12
641.99	1087.55
642.33	1083.62
642.68	1084.77
643.02	1086.10
643.37	1084.25
643.71	1084.70
644.05	1086.73
644.40	1086.20
644.74	1088.44
645.08	1086.76
645.43	1083.34
645.77	1085.38
646.11	1084.07
646.46	1079.22
646.80	1080.04
647.14	1080.63
647.49	1079.67
647.83	1078.54
648.17	1076.95
648.52	1075.94
648.86	1078.24
649.20	1077.58
649.55	1080.51
649.89	1083.29
650.23	1086.31
650.57	1084.77
650.92	1085.10
651.26	1086.48
651.60	1086.06
651.95	1085.52
652.29	1085.87
652.63	1088.49
652.97	1083.71
653.32	1082.61
653.66	1082.69
654.00	1081.16
654.34	1074.45
654.69	1077.00
655.03	1080.16
655.37	1080.27
655.71	1079.22
656.05	1079.83
656.40	1081.80
656.74	1081.42
657.08	1083.67
657.42	1086.48
657.76	1083.39
658.11	1078.03
658.45	1077.37
658.79	1074.73
659.13	1073.51
659.47	1078.73
659.82	1082.71
660.16	1079.53
660.50	1080.74
660.84	1081.49
661.18	1080.25
661.52	1078.14
661.87	1078.75
662.21	1077.37
662.55	1082.08
662.89	1083.71
663.23	1086.87
663.57	1088.56
663.91	1089.73
664.25	1086.57
664.60	1087.16
664.94	1083.93
665.28	1082.66
665.62	1081.73
665.96	1080.09
666.30	1079.20
666.64	1083.57
666.98	1085.17
667.32	1085.21
667.66	1085.40
668.01	1086.15
668.35	1082.24
668.69	1081.84
669.03	1082.54
669.37	1085.21
669.71	1084.02
670.05	1084.91
670.39	1081.73
670.73	1081.42
671.07	1078.43
671.41	1079.53
671.75	1079.27
672.09	1080.30
672.43	1078.57
672.77	1079.74
673.11	1077.61
673.45	1076.41
673.79	1077.44
674.13	1078.36
674.47	1079.31
674.81	1080.04
675.15	1083.13
675.49	1084.51
675.83	1084.81
676.17	1084.28
676.51	1083.79
676.85	1080.86
677.19	1078.00
677.53	1078.61
677.87	1078.54
678.21	1079.41
678.55	1079.85
678.89	1083.39
679.23	1080.74
679.57	1078.82
679.90	1081.12
680.24	1081.66
680.58	1079.50
680.92	1082.01
681.26	1080.58
681.60	1079.99
681.94	1079.97
682.28	1078.75
682.62	1079.34
682.96	1084.56
683.29	1080.79
683.63	1080.86
683.97	1083.04
684.31	1083.71
684.65	1083.34
684.99	1083.60
685.33	1083.06
685.67	1081.80
686.00	1078.52
686.34	1077.23
686.68	1079.34
687.02	1080.20
687.36	1080.63
687.70	1079.74
688.03	1076.25
688.37	1077.70
688.71	1078.31
689.05	1079.36
689.39	1078.71
689.72	1082.40
690.06	1080.04
690.40	1080.60
690.74	1080.25
691.08	1080.84
691.41	1077.56
691.75	1075.78
692.09	1073.04
692.43	1072.34
692.76	1075.08
693.10	1075.80
693.44	1075.69
693.78	1079.43
694.11	1077.33
694.45	1076.27
694.79	1078.68
695.13	1080.30
695.46	1076.44
695.80	1080.30
696.14	1081.54
696.48	1080.60
696.81	1084.11
697.15	1084.60
697.49	1082.83
697.82	1080.41
698.16	1079.36
698.50	1077.25
698.83	1076.58
699.17	1076.18
699.51	1077.98
699.84	1077.96
700.18	1075.78
700.52	1078.78
700.85	1079.06
701.19	1081.40
701.53	1081.84
701.86	1087.06
702.20	1086.01
702.54	1085.75
702.87	1083.74
703.21	1081.33
703.55	1078.85
703.88	1079.38
704.22	1080.70
704.55	1081.75
704.89	1084.89
705.23	1083.32
705.56	1082.01
705.90	1080.02
706.23	1080.53
706.57	1082.33
706.91	1080.18
707.24	1078.73
707.58	1080.77
707.91	1079.43
708.25	1079.24
708.58	1082.47
708.92	1086.22
709.26	1084.60
709.59	1085.70
709.93	1082.78
710.26	1080.11
710.60	1078.47
710.93	1078.47
711.27	1078.78
711.60	1080.13
711.94	1081.84
712.27	1080.88
712.61	1082.57
712.94	1079.76
713.28	1078.64
713.61	1078.68
713.95	1080.84
714.28	1079.36
714.62	1079.08
714.95	1076.69
715.29	1080.72
715.62	1076.72
715.96	1076.08
716.29	1078.57
716.63	1082.22
716.96	1078.47
717.29	1081.02
717.63	1082.15
717.96	1082.85
718.30	1080.25
718.63	1079.83
718.97	1080.09
719.30	1079.31
719.63	1076.20
719.97	1078.64
720.30	1078.28
720.64	1078.33
720.97	1080.56
721.30	1081.96
721.64	1081.84
721.97	1080.56
722.31	1081.91
722.64	1081.68
722.97	1079.55
723.31	1076.53
723.64	1078.28
723.97	1077.91
724.31	1077.47
724.64	1078.75
724.98	1083.34
725.31	1083.81
725.64	1081.54
725.98	1079.01
726.31	1079.10
726.64	1079.01
726.97	1078.75
727.31	1080.20
727.64	1082.24
727.97	1082.29
728.31	1080.32
728.64	1080.56
728.97	1079.92
729.31	1083.06
729.64	1085.05
729.97	1087.23
730.30	1087.83
730.64	1085.38
730.97	1082.92
731.30	1083.01
731.63	1083.32
731.97	1082.08
732.30	1084.72
732.63	1083.64
732.96	1082.64
733.30	1078.31
733.63	1078.78
733.96	1078.50
734.29	1081.30
734.63	1080.06
734.96	1080.91
735.29	1082.17
735.62	1084.07
735.95	1079.43
736.29	1081.70
736.62	1082.15
736.95	1078.85
737.28	1074.14
737.61	1078.21
737.94	1079.08
738.28	1080.53
738.61	1080.32
738.94	1081.26
739.27	1079.90
739.60	1077.07
739.93	1073.67
740.27	1075.87
740.60	1078.52
740.93	1077.98
741.26	1078.52
741.59	1082.01
741.92	1080.60
742.25	1081.73
742.58	1082.43
742.91	1083.11
743.25	1083.55
743.58	1084.28
743.91	1084.09
744.24	1084.46
744.57	1082.59
744.90	1083.08
745.23	1080.09
745.56	1077.86
745.89	1076.46
746.22	1078.61
746.55	1076.95
746.88	1081.14
747.21	1081.37
747.54	1082.64
747.87	1080.41
748.20	1079.53
748.53	1078.85
748.87	1080.39
749.20	1078.78
749.53	1079.41
749.86	1080.77
750.19	1082.12
750.52	1083.71
750.85	1084.89
751.18	1085.70
751.51	1084.89
751.84	1085.19
752.16	1081.40
752.49	1082.36
752.82	1083.32
753.15	1082.12
753.48	1078.59
753.81	1080.58
754.14	1077.70
754.47	1076.23
754.80	1079.48
755.13	1081.73
755.46	1082.99
755.79	1084.42
756.12	1087.02
756.45	1083.69
756.78	1085.21
757.11	1082.97
757.43	1082.61
757.76	1078.03
758.09	1080.02
758.42	1076.93
758.75	1074.84
759.08	1076.72
759.41	1078.45
759.74	1074.63
760.07	1076.93
760.39	1077.77
760.72	1075.17
761.05	1074.21
761.38	1078.96
761.71	1076.37
762.04	1077.02
762.36	1080.88
762.69	1084.49
763.02	1082.76
763.35	1084.14
763.68	1086.01
764.01	1082.57
764.33	1076.44
764.66	1076.01
764.99	1078.19
765.32	1077.16
765.65	1078.50
765.97	1081.21
766.30	1081.42
766.63	1080.46
766.96	1082.15
767.28	1080.16
767.61	1084.23
767.94	1083.25
768.27	1079.36
768.59	1077.28
768.92	1079.83
769.25	1076.37
769.58	1077.54
769.90	1080.48
770.23	1084.21
770.56	1083.50
770.89	1085.28
771.21	1084.35
771.54	1085.47
771.87	1083.43
772.19	1083.34
772.52	1081.77
772.85	1082.52
773.17	1082.78
773.50	1082.99
773.83	1082.80
774.15	1084.21
774.48	1086.08
774.81	1080.72
775.13	1076.41
775.46	1077.77
775.79	1076.58
776.11	1073.95
776.44	1077.56
776.77	1078.24
777.09	1076.90
777.42	1075.29
777.74	1077.51
778.07	1077.96
778.40	1079.90
778.72	1078.43
779.05	1080.34
779.37	1080.32
779.70	1078.50
780.03	1076.81
780.35	1075.24
780.68	1073.65
781.00	1071.24
781.33	1074.12
781.65	1073.98
781.98	1074.63
782.31	1076.25
782.63	1078.17
782.96	1076.06
783.28	1077.11
783.61	1077.40
783.93	1077.51
784.26	1075.22
784.58	1075.99
784.91	1074.47
785.23	1078.78
785.56	1081.09
785.88	1084.72
786.21	1083.57
786.53	1082.19
786.86	1078.66
787.18	1074.73
787.51	1075.94
787.83	1078.10
788.16	1080.02
788.48	1078.96
788.81	1081.80
789.13	1077.23
789.46	1076.67
789.78	1076.04
790.10	1078.54
790.43	1076.20
790.75	1077.63
791.08	1079.06
791.40	1080.65
791.73	1081.61
792.05	1082.57
792.37	1080.16
792.70	1079.24
793.02	1077.93
793.35	1075.24
793.67	1077.79
793.99	1080.02
794.32	1079.46
794.64	1082.24
794.96	1085.84
795.29	1084.21
795.61	1084.77
795.93	1084.67
796.26	1080.65
796.58	1077.93
796.91	1075.78
797.23	1074.61
797.55	1074.59
797.87	1076.44
798.20	1077.89
798.52	1081.37
798.84	1081.23
799.17	1080.20
799.49	1081.23
799.81	1080.51
800.14	1077.49
800.46	1079.17
800.78	1080.70
801.10	1082.45
801.43	1083.57
801.75	1086.01
802.07	1085.94
802.40	1086.66
802.72	1082.59
803.04	1081.70
803.36	1077.93
803.69	1076.20
804.01	1074.70
804.33	1076.39
804.65	1076.37
804.97	1076.76
805.30	1077.40
805.62	1077.61
805.94	1077.07
806.26	1076.88
806.58	1079.31
806.91	1078.50
807.23	1076.69
807.55	1079.67
807.87	1079.78
808.19	1080.06
808.52	1082.50
808.84	1084.35
809.16	1080.13
809.48	1077.37
809.80	1074.26
810.12	1074.45
810.44	1075.76
810.77	1079.43
811.09	1082.40
811.41	1085.56
811.73	1081.82
812.05	1081.44
812.37	1080.67
812.69	1079.24
813.01	1079.08
813.33	1082.12
813.66	1078.82
813.98	1079.71
814.30	1080.30
814.62	1079.24
814.94	1077.63
815.26	1082.01
815.58	1079.27
815.90	1082.50
816.22	1083.62
816.54	1084.28
816.86	1080.70
817.18	1083.90
817.50	1076.90
817.82	1076.27
818.14	1076.27
818.46	1079.57
818.78	1078.40
819.10	1081.49
819.42	1080.23
819.74	1078.94
820.06	1077.86
820.38	1078.43
820.70	1080.39
821.02	1081.61
821.34	1081.77
821.66	1078.94
821.98	1078.10
822.30	1078.94
822.62	1076.90
822.94	1080.06
823.26	1080.93
823.58	1079.71
823.90	1079.29
824.22	1076.41
824.54	1074.56
824.86	1075.83
825.18	1080.13
825.50	1079.24
825.81	1082.90
826.13	1081.84
826.45	1082.08
826.77	1080.39
827.09	1082.08
827.41	1081.80
827.73	1082.03
828.05	1081.40
828.36	1080.46
828.68	1080.02
829.00	1081.66
829.32	1083.60
829.64	1083.25
829.96	1085.80
830.28	1085.61
830.59	1085.10
830.91	1082.83
831.23	1082.54
831.55	1078.19
831.87	1077.54
832.19	1076.95
832.50	1077.84
832.82	1077.86
833.14	1074.54
833.46	1073.60
833.78	1072.76
834.09	1071.97
834.41	1070.07
834.73	1075.80
835.05	1076.27
835.36	1078.71
835.68	1079.22
836.00	1083.36
836.32	1082.33
836.63	1081.61
836.95	1080.20
837.27	1079.57
837.59	1081.21
837.90	1082.47
838.22	1079.81
838.54	1078.19
838.85	1078.17
839.17	1076.20
839.49	1073.79
839.80	1074.54
840.12	1077.82
840.44	1076.18
840.76	1076.15
841.07	1076.65
841.39	1078.71
841.71	1078.36
842.02	1080.60
842.34	1079.57
842.65	1077.18
842.97	1076.30
843.29	1073.09
843.60	1074.77
843.92	1075.80
844.24	1077.58
844.55	1078.94
844.87	1078.36
845.18	1077.11
845.50	1076.58
845.82	1077.63
846.13	1075.92
846.45	1079.62
846.76	1079.08
847.08	1076.83
847.40	1076.34
847.71	1077.77
848.03	1076.60
848.34	1078.82
848.66	1080.11
848.97	1080.95
849.29	1080.48
849.60	1079.88
849.92	1074.35
850.24	1074.70
850.55	1074.14
850.87	1076.46
851.18	1076.51
851.50	1082.38
851.81	1079.01
852.13	1080.88
852.44	1080.18
852.76	1082.66
853.07	1081.33
853.39	1083.88
853.70	1082.40
854.01	1078.05
854.33	1075.85
854.64	1075.08
854.96	1077.70
855.27	1077.14
855.59	1080.37
855.90	1080.72
856.22	1079.88
856.53	1080.25
856.84	1081.63
857.16	1082.40
857.47	1084.84
857.79	1086.99
858.10	1081.89
858.41	1081.56
858.73	1079.64
859.04	1078.14
859.36	1078.12
859.67	1081.44
859.98	1078.75
860.30	1077.28
860.61	1077.30
860.92	1076.39
861.24	1073.77
861.55	1074.94
861.87	1075.55
862.18	1074.63
862.49	1074.24
862.81	1077.21
863.12	1077.91
863.43	1081.40
863.74	1081.61
864.06	1082.03
864.37	1083.32
864.68	1081.94
865.00	1080.77
865.31	1081.75
865.62	1082.43
865.94	1081.61
866.25	1082.22
866.56	1082.05
866.87	1080.67
867.19	1078.59
867.50	1074.89
867.81	1075.99
868.12	1073.81
868.44	1071.99
868.75	1070.40
869.06	1072.39
869.37	1074.61
869.68	1076.25
870.00	1078.10
870.31	1079.50
870.62	1080.44
870.93	1078.64
871.24	1078.75
871.56	1077.56
871.87	1078.24
872.18	1078.66
872.49	1079.01
872.80	1079.29
873.12	1078.45
873.43	1083.60
873.74	1081.26
874.05	1083.39
874.36	1083.74
874.67	1085.33
874.98	1079.48
875.29	1078.94
875.61	1075.01
875.92	1075.66
876.23	1075.10
876.54	1076.18
876.85	1079.10
877.16	1079.48
877.47	1079.85
877.78	1077.11
878.09	1075.99
878.40	1073.81
878.72	1076.48
879.03	1076.18
879.34	1080.18
879.65	1080.70
879.96	1078.12
880.27	1076.53
880.58	1075.64
880.89	1075.17
881.20	1075.62
881.51	1080.60
881.82	1077.79
882.13	1078.24
882.44	1076.20
882.75	1076.34
883.06	1074.84
883.37	1077.42
883.68	1075.52
883.99	1077.72
884.30	1078.10
884.61	1075.83
884.92	1072.90
885.23	1071.85
885.54	1069.34
885.85	1068.17
886.16	1068.76
886.47	1071.92
886.78	1072.71
887.08	1073.65
887.39	1076.65
887.70	1080.88
888.01	1079.15
888.32	1078.68
888.63	1079.64
888.94	1077.04
889.25	1074.00
889.56	1073.04
889.87	1077.89
890.17	1078.94
890.48	1079.57
890.79	1081.58
891.10	1084.37
891.41	1080.30
891.72	1078.28
892.03	1076.13
892.34	1072.55
892.64	1070.16
892.95	1069.62
893.26	1071.12
893.57	1071.71
893.88	1072.27
894.18	1071.61
894.49	1073.35
894.80	1072.48
895.11	1073.63
895.42	1074.26
895.72	1071.71
896.03	1072.20
896.34	1070.65
896.65	1070.87
896.96	1072.95
897.26	1079.43
897.57	1076.48
897.88	1079.53
898.19	1079.22
898.49	1077.04
898.80	1074.47
899.11	1077.11
899.41	1076.79
899.72	1077.70
900.03	1079.22
900.34	1082.59
900.64	1083.48
900.95	1085.03
901.26	1084.70
901.56	1083.83
901.87	1082.36
902.18	1081.19
902.48	1079.53
902.79	1078.38
903.10	1078.71
903.40	1078.36
903.71	1076.58
904.02	1076.15
904.32	1077.14
904.63	1078.24
904.94	1079.20
905.24	1079.08
905.55	1079.24
905.85	1077.77
906.16	1074.03
906.47	1074.89
906.77	1078.54
907.08	1082.76
907.38	1084.46
907.69	1085.91
908.00	1080.67
908.30	1076.11
908.61	1072.27
908.91	1071.47
909.22	1072.95
909.52	1074.33
909.83	1076.74
910.14	1074.87
910.44	1076.95
910.75	1076.06
911.05	1079.34
911.36	1078.17
911.66	1083.13
911.97	1083.27
912.27	1084.16
912.58	1082.94
912.88	1082.47
913.19	1078.92
913.49	1077.00
913.80	1076.65
914.10	1075.22
914.41	1076.69
914.71	1079.03
915.01	1079.76
915.32	1081.28
915.62	1081.58
915.93	1084.09
916.23	1081.23
916.54	1079.17
916.84	1075.87
917.15	1074.33
917.45	1072.43
917.75	1073.32
918.06	1073.51
918.36	1073.32
918.67	1076.55
918.97	1077.54
919.27	1079.60
919.58	1078.94
919.88	1079.83
920.18	1079.74
920.49	1078.26
920.79	1076.72
921.10	1077.00
921.40	1076.93
921.70	1076.32
922.01	1077.93
922.31	1077.61
922.61	1077.65
922.92	1079.17
923.22	1078.03
923.52	1073.53
923.82	1074.47
924.13	1075.13
924.43	1074.31
924.73	1074.31
925.04	1076.18
925.34	1074.49
925.64	1075.45
925.94	1077.79
926.25	1076.86
926.55	1075.76
926.85	1073.37
927.15	1071.50
927.46	1068.50
927.76	1067.87
928.06	1068.92
928.36	1071.05
928.67	1074.66
928.97	1075.76
929.27	1075.62
929.57	1077.16
929.87	1076.30
930.18	1073.25
930.48	1074.21
930.78	1073.07
931.08	1071.52
931.38	1073.44
931.69	1076.08
931.99	1076.53
932.29	1082.05
932.59	1080.23
932.89	1078.43
933.19	1078.24
933.49	1075.73
933.80	1072.76
934.10	1075.22
934.40	1075.01
934.70	1072.55
935.00	1071.24
935.30	1071.94
935.60	1073.39
935.90	1075.29
936.20	1076.83
936.50	1080.74
936.81	1080.18
937.11	1076.95
937.41	1076.62
937.71	1074.14
938.01	1072.43
938.31	1074.63
938.61	1077.96
938.91	1078.26
939.21	1080.25
939.51	1078.89
939.81	1076.76
940.11	1074.49
940.41	1074.94
940.71	1075.50
941.01	1077.07
941.31	1078.14
941.61	1081.00
941.91	1082.47
942.21	1082.29
942.51	1080.81
942.81	1080.84
943.11	1076.53
943.41	1072.46
943.71	1072.67
944.01	1072.97
944.31	1070.02
944.61	1078.07
944.90	1079.08
945.20	1079.17
945.50	1082.10
945.80	1086.15
946.10	1079.92
946.40	1081.70
946.70	1079.97
947.00	1081.21
947.30	1077.96
947.60	1079.53
947.89	1079.64
948.19	1084.16
948.49	1083.13
948.79	1087.46
949.09	1087.65
949.39	1085.24
949.69	1081.33
949.98	1080.09
950.28	1082.36
950.58	1080.51
950.88	1081.00
951.18	1084.28
951.48	1084.46
951.77	1080.81
952.07	1081.56
952.37	1081.73
952.67	1078.00
952.97	1076.41
953.26	1076.53
953.56	1078.57
953.86	1078.87
954.16	1077.11
954.45	1078.82
954.75	1077.54
955.05	1074.68
955.35	1074.45
955.64	1077.75
955.94	1074.03
956.24	1073.51
956.54	1072.83
956.83	1074.14
957.13	1074.42
957.43	1073.56
957.72	1070.96
958.02	1072.04
958.32	1069.77
958.61	1069.55
958.91	1073.74
959.21	1076.60
959.50	1079.60
959.80	1080.34
960.10	1080.44
960.39	1080.51
960.69	1080.70
960.99	1081.23
961.28	1082.31
961.58	1081.89
961.87	1079.06
962.17	1077.68
962.47	1076.97
962.76	1079.29
963.06	1080.53
963.36	1081.47
963.65	1084.49
963.95	1081.87
964.24	1080.25
964.54	1079.85
964.83	1083.93
965.13	1080.93
965.42	1081.84
965.72	1081.94
966.02	1081.70
966.31	1080.53
966.61	1081.05
966.90	1079.88
967.20	1081.12
967.49	1079.74
967.79	1076.90
968.08	1078.45
968.38	1078.52
968.67	1073.93
968.97	1072.83
969.26	1076.27
969.56	1074.03
969.85	1074.10
970.15	1078.38
970.44	1081.63
970.74	1080.48
971.03	1082.59
971.32	1083.64
971.62	1081.26
971.91	1079.15
972.21	1079.46
972.50	1077.75
972.80	1076.13
973.09	1075.08
973.38	1073.60
973.68	1072.57
973.97	1073.63
974.27	1074.42
974.56	1076.15
974.85	1079.24
975.15	1078.00
975.44	1076.53
975.73	1079.20
976.03	1081.89
976.32	1082.19
976.61	1084.09
976.91	1085.49
977.20	1083.90
977.49	1081.49
977.79	1081.07
978.08	1079.76
978.37	1079.69
978.67	1078.82
978.96	1079.06
979.25	1077.14
979.55	1079.60
979.84	1080.79
980.13	1078.05
980.42	1077.79
980.72	1077.58
981.01	1075.55
981.30	1073.72
981.59	1076.06
981.89	1076.46
982.18	1076.95
982.47	1079.78
982.76	1078.82
983.06	1079.97
983.35	1080.79
983.64	1082.57
983.93	1080.06
984.22	1086.10
984.52	1082.43
984.81	1079.53
985.10	1078.03
985.39	1078.21
985.68	1075.27
985.97	1079.15
986.27	1081.21
986.56	1079.95
986.85	1078.33
987.14	1073.46
987.43	1069.46
987.72	1069.86
988.01	1069.72
988.31	1071.33
988.60	1073.32
988.89	1077.33
989.18	1073.84
989.47	1074.07
989.76	1073.21
990.05	1074.66
990.34	1072.13
990.63	1070.33
990.92	1070.05
991.21	1069.39
991.51	1068.71
991.80	1070.40
992.09	1074.38
992.38	1076.95
992.67	1076.46
992.96	1074.38
993.25	1077.42
993.54	1078.14
993.83	1077.54
994.12	1077.72
994.41	1077.37
994.70	1072.76
994.99	1071.26
995.28	1071.73
995.57	1071.99
995.86	1075.22
996.15	1080.84
996.44	1080.93
996.73	1079.74
997.02	1082.94
997.31	1082.69
997.59	1079.20
997.88	1078.92
998.17	1081.75
998.46	1076.48
998.75	1076.34
999.04	1075.43
999.33	1076.13
999.62	1073.70
999.91	1074.87
1000.20	1075.71
1000.49	1076.58
1000.77	1077.63
1001.06	1078.94
1001.35	1082.29
1001.64	1081.77
1001.93	1083.41
1002.22	1083.15
1002.51	1083.46
1002.79	1081.23
1003.08	1083.74
1003.37	1083.18
1003.66	1084.79
1003.95	1084.14
1004.23	1084.16
1004.52	1083.29
1004.81	1087.97
1005.10	1086.62
1005.39	1085.00
1005.67	1087.76
1005.96	1087.13
1006.25	1080.79
1006.54	1079.71
1006.83	1081.63
1007.11	1082.01
1007.40	1079.17
1007.69	1078.99
1007.97	1080.70
1008.26	1080.84
1008.55	1079.31
1008.84	1080.48
1009.12	1080.32
1009.41	1079.76
1009.70	1077.86
1009.98	1074.63
1010.27	1076.15
1010.56	1078.12
1010.85	1077.44
1011.13	1077.04
1011.42	1078.21
1011.71	1077.98
1011.99	1080.02
1012.28	1080.98
1012.56	1082.22
1012.85	1084.04
1013.14	1083.50
1013.42	1079.36
1013.71	1077.42
1014.00	1079.22
1014.28	1075.76
1014.57	1074.56
1014.85	1071.57
1015.14	1072.48
1015.43	1067.85
1015.71	1071.38
1016.00	1073.00
1016.28	1077.14
1016.57	1077.56
1016.85	1079.01
1017.14	1079.41
1017.43	1078.96
1017.71	1078.68
1018.00	1078.89
1018.28	1078.87
1018.57	1080.06
1018.85	1077.98
1019.14	1080.65
1019.42	1082.99
1019.71	1087.46
1019.99	1082.94
1020.28	1083.93
1020.56	1081.94
1020.85	1078.96
1021.13	1077.09
1021.42	1081.82
1021.70	1085.12
1021.99	1083.55
1022.27	1083.25
1022.55	1075.13
1022.84	1077.35
>>>>>End Processed Spectral Data<<<<<
