SpectraSuite Data File
++++++++++++++++++++++++++++++++++++
Date: Mon Aug 26 10:22:31 PDT 2019
User: corrico
Dark Spectrum Present: No
Reference Spectrum Present: No
Number of Sampled Component Spectra: 1
Spectrometers: USB2+H06089
Integration Time (usec): 2000 (USB2+H06089)
Spectra Averaged: 20 (USB2+H06089)
Boxcar Smoothing: 2 (USB2+H06089)
Correct for Electrical Dark: No (USB2+H06089)
Strobe/Lamp Enabled: No (USB2+H06089)
Correct for Detector Non-linearity: No (USB2+H06089)
Correct for Stray Light: No (USB2+H06089)
Number of Pixels in Processed Spectrum: 2048
>>>>>Begin Processed Spectral Data<<<<<
339.70	1046.45
340.07	1046.45
340.45	1007.65
340.82	981.81
341.19	953.00
341.57	923.81
341.94	913.16
342.31	901.53
342.69	895.68
343.06	895.33
343.43	895.56
343.81	897.95
344.18	902.11
344.55	906.42
344.93	910.23
345.30	918.43
345.67	925.71
346.04	934.15
346.42	943.42
346.79	954.21
347.16	961.23
347.54	966.34
347.91	973.80
348.28	983.19
348.65	990.09
349.03	995.36
349.40	1007.58
349.77	1017.43
350.14	1025.22
350.52	1034.73
350.89	1046.71
351.26	1049.89
351.63	1054.32
352.01	1060.29
352.38	1062.06
352.75	1064.08
353.12	1066.98
353.50	1068.71
353.87	1067.59
354.24	1072.92
354.61	1075.15
354.98	1079.15
355.36	1081.77
355.73	1084.04
356.10	1082.31
356.47	1081.49
356.84	1082.97
357.22	1084.02
357.59	1088.09
357.96	1091.30
358.33	1090.83
358.70	1090.03
359.08	1090.10
359.45	1090.32
359.82	1086.80
360.19	1087.81
360.56	1085.91
360.94	1089.00
361.31	1084.84
361.68	1085.87
362.05	1085.99
362.42	1084.65
362.79	1080.58
363.16	1080.46
363.54	1078.45
363.91	1076.76
364.28	1077.70
364.65	1077.56
365.02	1077.84
365.39	1080.60
365.76	1079.08
366.14	1078.92
366.51	1075.69
366.88	1075.24
367.25	1069.72
367.62	1072.15
367.99	1072.71
368.36	1074.77
368.73	1073.60
369.10	1078.59
369.48	1074.77
369.85	1072.32
370.22	1073.77
370.59	1075.52
370.96	1075.73
371.33	1077.07
371.70	1077.04
372.07	1075.99
372.44	1073.72
372.81	1067.89
373.18	1071.82
373.55	1072.83
373.93	1073.93
374.30	1077.72
374.67	1084.02
375.04	1079.50
375.41	1085.21
375.78	1085.07
376.15	1083.74
376.52	1081.94
376.89	1084.70
377.26	1080.81
377.63	1081.02
378.00	1081.54
378.37	1080.27
378.74	1081.96
379.11	1083.01
379.48	1082.87
379.85	1080.65
380.22	1082.90
380.59	1080.56
380.96	1079.43
381.33	1076.30
381.70	1074.14
382.07	1072.83
382.44	1072.62
382.81	1072.92
383.18	1074.42
383.55	1076.27
383.92	1077.79
384.29	1081.84
384.66	1080.27
385.03	1082.80
385.40	1088.21
385.77	1088.72
386.14	1085.00
386.51	1084.65
386.88	1084.42
387.25	1084.04
387.62	1083.22
387.99	1086.29
388.36	1090.34
388.73	1093.17
389.10	1091.20
389.46	1093.87
389.83	1095.23
390.20	1093.36
390.57	1089.92
390.94	1089.31
391.31	1087.60
391.68	1086.20
392.05	1085.70
392.42	1085.94
392.79	1084.35
393.16	1081.58
393.53	1082.05
393.89	1082.24
394.26	1083.97
394.63	1085.21
395.00	1088.23
395.37	1087.72
395.74	1089.80
396.11	1088.98
396.48	1090.64
396.84	1091.32
397.21	1090.88
397.58	1090.08
397.95	1092.23
398.32	1089.00
398.69	1087.20
399.06	1087.67
399.42	1088.19
399.79	1086.13
400.16	1087.48
400.53	1089.00
400.90	1087.18
401.27	1083.15
401.64	1085.28
402.00	1087.27
402.37	1086.78
402.74	1089.10
403.11	1091.81
403.48	1090.53
403.84	1092.56
404.21	1093.59
404.58	1094.39
404.95	1096.59
405.32	1097.03
405.68	1095.93
406.05	1095.49
406.42	1093.50
406.79	1091.42
407.16	1092.19
407.52	1090.24
407.89	1086.31
408.26	1087.48
408.63	1089.43
408.99	1089.47
409.36	1094.18
409.73	1095.82
410.10	1096.14
410.47	1096.63
410.83	1097.48
411.20	1096.31
411.57	1099.72
411.94	1101.03
412.30	1098.79
412.67	1098.18
413.04	1098.46
413.40	1100.24
413.77	1100.52
414.14	1102.60
414.51	1103.96
414.87	1102.93
415.24	1100.71
415.61	1100.59
415.97	1102.44
416.34	1102.18
416.71	1103.84
417.08	1103.63
417.44	1103.68
417.81	1102.39
418.18	1102.81
418.54	1104.26
418.91	1108.41
419.28	1109.30
419.64	1112.81
420.01	1117.21
420.38	1118.96
420.74	1120.48
421.11	1124.39
421.48	1126.78
421.84	1122.22
422.21	1120.95
422.58	1121.44
422.94	1123.32
423.31	1124.86
423.68	1132.77
424.04	1139.30
424.41	1141.53
424.77	1143.96
425.14	1145.50
425.51	1145.81
425.87	1147.94
426.24	1151.80
426.61	1156.48
426.97	1162.33
427.34	1170.34
427.70	1176.68
428.07	1183.54
428.44	1188.24
428.80	1194.47
429.17	1202.75
429.53	1208.77
429.90	1221.85
430.27	1231.57
430.63	1244.16
431.00	1255.09
431.36	1270.04
431.73	1279.62
432.09	1293.54
432.46	1306.25
432.83	1318.10
433.19	1332.16
433.56	1348.50
433.92	1371.65
434.29	1393.98
434.65	1421.20
435.02	1448.04
435.38	1477.25
435.75	1501.57
436.11	1532.61
436.48	1560.83
436.84	1595.50
437.21	1628.31
437.57	1664.52
437.94	1704.26
438.30	1750.35
438.67	1796.92
439.03	1854.71
439.40	1910.09
439.76	1963.85
440.13	2024.94
440.49	2086.82
440.86	2143.74
441.22	2217.84
441.59	2296.79
441.95	2377.42
442.32	2461.14
442.68	2560.94
443.05	2654.85
443.41	2751.79
443.78	2849.58
444.14	2957.69
444.51	3069.54
444.87	3210.14
445.24	3345.09
445.60	3497.11
445.96	3655.82
446.33	3822.45
446.69	3981.63
447.06	4168.14
447.42	4348.04
447.79	4535.56
448.15	4752.67
448.51	4981.62
448.88	5237.51
449.24	5485.40
449.61	5769.23
449.97	6044.90
450.33	6326.96
450.70	6592.87
451.06	6916.17
451.43	7220.46
451.79	7583.43
452.15	7978.42
452.52	8427.85
452.88	8904.05
453.24	9434.00
453.61	10008.51
453.97	10575.73
454.34	11117.45
454.70	11764.05
455.06	12416.64
455.43	13040.04
455.79	13636.73
456.15	14350.15
456.52	14991.79
456.88	15751.31
457.24	16479.31
457.61	17329.86
457.97	18097.26
458.33	18877.15
458.70	19648.66
459.06	20403.78
459.42	21236.50
459.79	22030.57
460.15	22934.56
460.51	23788.15
460.88	24724.60
461.24	25536.70
461.60	26491.14
461.96	27356.63
462.33	28202.29
462.69	28987.39
463.05	29819.24
463.42	30502.73
463.78	31147.99
464.14	31670.68
464.50	32262.39
464.87	32727.52
465.23	33099.29
465.59	33461.12
465.95	33768.62
466.32	34021.44
466.68	34259.61
467.04	34404.54
467.40	34534.89
467.77	34714.73
468.13	34683.06
468.49	34580.90
468.85	34500.08
469.22	34305.11
469.58	33924.29
469.94	33662.80
470.30	33350.32
470.66	32934.40
471.03	32350.30
471.39	31962.64
471.75	31330.57
472.11	30712.25
472.47	30320.70
472.84	29999.11
473.20	29501.59
473.56	29222.29
473.92	28791.75
474.28	28287.86
474.65	27802.94
475.01	27346.94
475.37	26790.50
475.73	26331.05
476.09	25797.81
476.45	25272.66
476.81	24741.33
477.18	24209.52
477.54	23771.02
477.90	23428.67
478.26	23012.47
478.62	22692.24
478.98	22396.16
479.34	22092.25
479.71	21686.80
480.07	21334.94
480.43	20963.92
480.79	20594.42
481.15	20242.85
481.51	19937.88
481.87	19704.03
482.23	19428.76
482.59	19173.39
482.96	18896.69
483.32	18604.71
483.68	18243.73
484.04	17901.94
484.40	17529.86
484.76	17159.15
485.12	16777.78
485.48	16459.56
485.84	16112.39
486.20	15768.35
486.56	15402.95
486.92	15095.66
487.28	14735.59
487.64	14371.31
488.00	14040.78
488.37	13717.79
488.73	13356.41
489.09	13004.65
489.45	12708.08
489.81	12400.95
490.17	12102.44
490.53	11821.93
490.89	11522.83
491.25	11208.87
491.61	10888.03
491.97	10560.12
492.33	10234.69
492.69	9936.23
493.05	9636.43
493.41	9353.86
493.77	9082.80
494.13	8839.06
494.49	8599.78
494.85	8367.20
495.21	8145.13
495.57	7932.71
495.93	7716.47
496.29	7506.92
496.64	7322.09
497.00	7132.64
497.36	6946.15
497.72	6763.19
498.08	6590.57
498.44	6400.78
498.80	6226.04
499.16	6061.29
499.52	5906.55
499.88	5774.78
500.24	5661.83
500.60	5546.41
500.96	5437.65
501.32	5323.20
501.68	5201.49
502.03	5071.52
502.39	4939.44
502.75	4798.54
503.11	4673.02
503.47	4556.02
503.83	4437.49
504.19	4319.39
504.55	4215.54
504.91	4121.94
505.26	4026.68
505.62	3946.80
505.98	3863.66
506.34	3771.52
506.70	3678.57
507.06	3588.46
507.42	3496.43
507.78	3422.66
508.13	3354.10
508.49	3277.41
508.85	3202.44
509.21	3140.06
509.57	3072.70
509.93	3005.90
510.28	2943.53
510.64	2880.99
511.00	2812.53
511.36	2753.08
511.72	2700.49
512.07	2650.45
512.43	2606.44
512.79	2564.01
513.15	2515.19
513.51	2468.49
513.86	2424.94
514.22	2379.93
514.58	2338.76
514.94	2303.09
515.30	2260.96
515.65	2223.37
516.01	2189.66
516.37	2152.71
516.73	2122.42
517.08	2095.86
517.44	2066.65
517.80	2038.16
518.16	2010.24
518.51	1983.02
518.87	1959.59
519.23	1930.47
519.59	1905.57
519.94	1882.33
520.30	1859.25
520.66	1831.47
521.01	1807.95
521.37	1784.92
521.73	1764.83
522.09	1743.16
522.44	1722.47
522.80	1704.10
523.16	1681.00
523.51	1662.90
523.87	1645.72
524.23	1626.98
524.58	1608.14
524.94	1596.57
525.30	1575.34
525.65	1557.67
526.01	1547.05
526.37	1535.44
526.72	1517.46
527.08	1507.82
527.44	1494.83
527.79	1479.76
528.15	1467.09
528.51	1456.89
528.86	1443.78
529.22	1432.03
529.58	1421.45
529.93	1410.48
530.29	1404.44
530.65	1394.96
531.00	1387.05
531.36	1374.85
531.71	1365.73
532.07	1353.98
532.43	1346.44
532.78	1338.95
533.14	1335.58
533.49	1327.18
533.85	1320.67
534.21	1314.05
534.56	1306.86
534.92	1300.05
535.27	1294.34
535.63	1288.18
535.98	1283.03
536.34	1276.65
536.69	1269.27
537.05	1262.39
537.41	1255.53
537.76	1249.92
538.12	1246.17
538.47	1240.27
538.83	1242.52
539.18	1239.48
539.54	1236.08
539.89	1228.99
540.25	1228.76
540.60	1220.05
540.96	1218.32
541.31	1213.50
541.67	1212.84
542.02	1209.40
542.38	1208.51
542.73	1201.89
543.09	1199.57
543.44	1193.86
543.80	1191.01
544.15	1189.06
544.51	1189.46
544.86	1186.65
545.22	1188.10
545.57	1180.43
545.93	1176.70
546.28	1174.50
546.64	1172.91
546.99	1168.65
547.35	1169.26
547.70	1164.77
548.05	1162.97
548.41	1163.43
548.76	1158.59
549.12	1157.35
549.47	1155.03
549.83	1149.44
550.18	1143.80
550.53	1142.60
550.89	1142.79
551.24	1142.42
551.60	1142.53
551.95	1141.81
552.30	1139.70
552.66	1136.21
553.01	1136.05
553.37	1135.74
553.72	1133.78
554.07	1136.89
554.43	1136.59
554.78	1134.90
555.13	1134.60
555.49	1133.62
555.84	1130.88
556.19	1132.47
556.55	1130.69
556.90	1127.37
557.26	1123.67
557.61	1120.27
557.96	1118.26
558.32	1116.37
558.67	1114.49
559.02	1114.56
559.37	1115.59
559.73	1111.66
560.08	1112.64
560.43	1113.60
560.79	1111.78
561.14	1108.66
561.49	1108.88
561.85	1109.44
562.20	1108.76
562.55	1110.47
562.90	1112.15
563.26	1112.46
563.61	1110.54
563.96	1110.77
564.32	1110.54
564.67	1110.63
565.02	1107.92
565.37	1103.49
565.73	1102.18
566.08	1103.05
566.43	1105.48
566.78	1106.68
567.14	1109.39
567.49	1107.45
567.84	1105.67
568.19	1101.60
568.54	1100.38
568.90	1099.21
569.25	1100.19
569.60	1100.50
569.95	1101.71
570.31	1102.93
570.66	1104.94
571.01	1104.59
571.36	1105.04
571.71	1105.72
572.06	1105.46
572.42	1105.41
572.77	1105.27
573.12	1102.95
573.47	1099.70
573.82	1098.53
574.18	1095.63
574.53	1095.67
574.88	1098.86
575.23	1096.96
575.58	1096.59
575.93	1097.22
576.28	1099.63
576.64	1098.30
576.99	1103.16
577.34	1104.05
577.69	1102.42
578.04	1102.93
578.39	1098.58
578.74	1096.24
579.09	1092.75
579.44	1095.42
579.80	1093.33
580.15	1095.44
580.50	1094.04
580.85	1096.68
581.20	1095.42
581.55	1092.42
581.90	1090.57
582.25	1092.96
582.60	1093.33
582.95	1095.09
583.30	1094.72
583.65	1094.53
584.00	1092.45
584.35	1094.46
584.71	1092.98
585.06	1094.69
585.41	1095.56
585.76	1098.53
586.11	1098.90
586.46	1098.51
586.81	1097.80
587.16	1100.57
587.51	1094.65
587.86	1092.37
588.21	1092.56
588.56	1092.07
588.91	1089.94
589.26	1092.91
589.61	1089.24
589.96	1086.38
590.31	1085.61
590.66	1087.16
591.01	1087.48
591.36	1089.66
591.71	1090.95
592.06	1091.51
592.41	1086.17
592.76	1083.60
593.10	1083.41
593.45	1081.47
593.80	1078.92
594.15	1084.23
594.50	1085.42
594.85	1087.48
595.20	1087.72
595.55	1090.13
595.90	1085.45
596.25	1086.17
596.60	1082.71
596.95	1084.65
597.30	1085.82
597.64	1098.30
597.99	1096.66
598.34	1099.30
598.69	1099.37
599.04	1097.50
599.39	1088.19
599.74	1089.73
600.09	1092.45
600.44	1092.00
600.78	1093.62
601.13	1093.36
601.48	1092.61
601.83	1087.97
602.18	1087.53
602.53	1088.91
602.88	1088.23
603.22	1085.38
603.57	1085.28
603.92	1083.74
604.27	1079.34
604.62	1081.37
604.97	1085.77
605.31	1086.78
605.66	1089.87
606.01	1093.76
606.36	1091.79
606.71	1089.94
607.05	1090.15
607.40	1088.23
607.75	1086.22
608.10	1085.75
608.44	1085.14
608.79	1082.47
609.14	1084.23
609.49	1084.81
609.84	1086.15
610.18	1087.67
610.53	1091.42
610.88	1089.50
611.23	1087.16
611.57	1089.12
611.92	1089.94
612.27	1088.40
612.62	1089.85
612.96	1092.66
613.31	1091.93
613.66	1093.31
614.00	1093.40
614.35	1096.87
614.70	1092.96
615.05	1091.88
615.39	1089.73
615.74	1090.32
616.09	1086.06
616.43	1088.54
616.78	1088.75
617.13	1086.57
617.47	1084.67
617.82	1085.49
618.17	1084.49
618.51	1083.71
618.86	1086.20
619.21	1088.63
619.55	1085.91
619.90	1087.27
620.25	1084.96
620.59	1084.84
620.94	1082.33
621.29	1083.62
621.63	1081.84
621.98	1080.72
622.32	1079.64
622.67	1079.71
623.02	1082.36
623.36	1081.05
623.71	1083.20
624.05	1082.83
624.40	1084.21
624.75	1080.98
625.09	1083.15
625.44	1085.54
625.78	1083.25
626.13	1080.30
626.48	1082.33
626.82	1082.83
627.17	1083.57
627.51	1087.23
627.86	1088.51
628.20	1087.88
628.55	1086.34
628.89	1083.29
629.24	1081.02
629.58	1080.65
629.93	1077.82
630.28	1081.51
630.62	1082.59
630.97	1083.64
631.31	1083.13
631.66	1085.45
632.00	1084.42
632.35	1086.17
632.69	1085.63
633.04	1087.32
633.38	1087.04
633.73	1085.96
634.07	1082.26
634.42	1082.83
634.76	1081.82
635.11	1081.63
635.45	1081.40
635.79	1081.44
636.14	1081.12
636.48	1081.23
636.83	1082.26
637.17	1083.43
637.52	1085.24
637.86	1085.40
638.21	1085.05
638.55	1083.93
638.89	1083.46
639.24	1083.74
639.58	1085.17
639.93	1083.83
640.27	1086.06
640.61	1085.89
640.96	1083.64
641.30	1083.50
641.65	1084.93
641.99	1084.00
642.33	1083.74
642.68	1086.83
643.02	1085.17
643.37	1085.63
643.71	1084.09
644.05	1083.81
644.40	1081.61
644.74	1080.23
645.08	1079.57
645.43	1082.03
645.77	1083.01
646.11	1083.41
646.46	1085.84
646.80	1086.13
647.14	1087.67
647.49	1085.82
647.83	1086.27
648.17	1084.89
648.52	1082.36
648.86	1075.99
649.20	1075.34
649.55	1072.48
649.89	1073.60
650.23	1076.53
650.57	1078.82
650.92	1082.61
651.26	1084.67
651.60	1083.15
651.95	1082.66
652.29	1084.63
652.63	1084.18
652.97	1082.90
653.32	1087.72
653.66	1089.40
654.00	1085.45
654.34	1081.28
654.69	1081.58
655.03	1078.80
655.37	1075.66
655.71	1076.69
656.05	1077.77
656.40	1078.68
656.74	1076.15
657.08	1077.47
657.42	1078.78
657.76	1078.54
658.11	1078.82
658.45	1080.48
658.79	1081.30
659.13	1082.26
659.47	1084.53
659.82	1084.98
660.16	1083.20
660.50	1082.52
660.84	1079.20
661.18	1075.48
661.52	1075.29
661.87	1077.37
662.21	1078.45
662.55	1077.82
662.89	1079.20
663.23	1076.81
663.57	1076.65
663.91	1076.55
664.25	1079.85
664.60	1080.39
664.94	1080.34
665.28	1081.61
665.62	1083.50
665.96	1084.21
666.30	1083.46
666.64	1081.66
666.98	1080.20
667.32	1077.40
667.66	1077.79
668.01	1079.53
668.35	1082.94
668.69	1080.58
669.03	1081.58
669.37	1081.75
669.71	1082.92
670.05	1083.76
670.39	1084.72
670.73	1081.49
671.07	1080.93
671.41	1081.00
671.75	1080.93
672.09	1079.95
672.43	1081.14
672.77	1080.06
673.11	1078.87
673.45	1077.21
673.79	1078.59
674.13	1081.77
674.47	1082.85
674.81	1084.00
675.15	1081.82
675.49	1080.88
675.83	1079.74
676.17	1080.09
676.51	1081.63
676.85	1086.22
677.19	1088.28
677.53	1088.02
677.87	1088.51
678.21	1085.19
678.55	1084.58
678.89	1081.37
679.23	1080.04
679.57	1079.03
679.90	1077.47
680.24	1075.38
680.58	1078.03
680.92	1080.81
681.26	1080.60
681.60	1085.12
681.94	1089.17
682.28	1089.24
682.62	1087.16
682.96	1085.12
683.29	1081.09
683.63	1081.12
683.97	1078.78
684.31	1075.71
684.65	1076.15
684.99	1077.11
685.33	1072.53
685.67	1076.58
686.00	1082.59
686.34	1083.29
686.68	1083.69
687.02	1082.38
687.36	1080.32
687.70	1073.77
688.03	1075.62
688.37	1077.56
688.71	1082.50
689.05	1085.33
689.39	1089.52
689.72	1087.97
690.06	1084.98
690.40	1082.90
690.74	1083.48
691.08	1083.93
691.41	1085.12
691.75	1086.62
692.09	1088.21
692.43	1084.91
692.76	1084.53
693.10	1086.06
693.44	1085.28
693.78	1082.52
694.11	1080.63
694.45	1080.44
694.79	1079.60
695.13	1080.44
695.46	1079.71
695.80	1080.44
696.14	1083.50
696.48	1080.60
696.81	1083.53
697.15	1087.67
697.49	1088.14
697.82	1087.72
698.16	1091.04
698.50	1089.12
698.83	1087.11
699.17	1090.76
699.51	1088.82
699.84	1086.97
700.18	1086.85
700.52	1084.77
700.85	1082.59
701.19	1083.13
701.53	1083.39
701.86	1083.22
702.20	1083.74
702.54	1085.38
702.87	1086.57
703.21	1085.40
703.55	1081.58
703.88	1084.63
704.22	1084.46
704.55	1079.46
704.89	1080.48
705.23	1081.58
705.56	1078.31
705.90	1075.10
706.23	1078.80
706.57	1079.62
706.91	1084.30
707.24	1086.90
707.58	1086.78
707.91	1087.18
708.25	1086.31
708.58	1082.17
708.92	1080.70
709.26	1080.91
709.59	1079.01
709.93	1079.22
710.26	1079.95
710.60	1080.11
710.93	1078.87
711.27	1080.20
711.60	1080.37
711.94	1077.21
712.27	1077.14
712.61	1079.81
712.94	1075.78
713.28	1073.63
713.61	1079.22
713.95	1079.43
714.28	1080.04
714.62	1082.71
714.95	1084.60
715.29	1082.29
715.62	1081.89
715.96	1079.88
716.29	1079.17
716.63	1079.97
716.96	1079.78
717.29	1083.22
717.63	1083.43
717.96	1081.09
718.30	1082.10
718.63	1080.95
718.97	1076.51
719.30	1076.48
719.63	1080.13
719.97	1077.68
720.30	1079.41
720.64	1078.71
720.97	1079.29
721.30	1076.65
721.64	1079.88
721.97	1079.64
722.31	1079.55
722.64	1080.60
722.97	1081.37
723.31	1081.02
723.64	1080.63
723.97	1083.97
724.31	1082.05
724.64	1082.10
724.98	1078.19
725.31	1080.91
725.64	1078.66
725.98	1081.44
726.31	1081.23
726.64	1082.92
726.97	1082.36
727.31	1083.22
727.64	1080.58
727.97	1082.19
728.31	1083.15
728.64	1085.17
728.97	1086.69
729.31	1087.86
729.64	1087.69
729.97	1083.76
730.30	1078.68
730.64	1080.27
730.97	1078.54
731.30	1078.38
731.63	1079.50
731.97	1079.48
732.30	1076.81
732.63	1078.24
732.96	1077.25
733.30	1079.20
733.63	1081.66
733.96	1080.91
734.29	1081.12
734.63	1084.25
734.96	1088.04
735.29	1088.40
735.62	1089.29
735.95	1089.19
736.29	1088.35
736.62	1084.04
736.95	1081.66
737.28	1081.94
737.61	1084.23
737.94	1083.69
738.28	1086.52
738.61	1088.75
738.94	1086.87
739.27	1083.62
739.60	1082.50
739.93	1078.10
740.27	1076.53
740.60	1078.59
740.93	1080.65
741.26	1082.36
741.59	1082.76
741.92	1083.46
742.25	1081.51
742.58	1077.40
742.91	1077.28
743.25	1075.41
743.58	1076.04
743.91	1075.45
744.24	1080.51
744.57	1081.68
744.90	1084.16
745.23	1079.97
745.56	1082.12
745.89	1080.86
746.22	1078.96
746.55	1078.54
746.88	1082.94
747.21	1081.30
747.54	1079.17
747.87	1079.83
748.20	1079.71
748.53	1078.87
748.87	1078.43
749.20	1080.02
749.53	1080.91
749.86	1085.68
750.19	1085.26
750.52	1087.37
750.85	1086.03
751.18	1084.98
751.51	1081.75
751.84	1081.94
752.16	1082.40
752.49	1082.59
752.82	1083.60
753.15	1081.80
753.48	1079.90
753.81	1078.80
754.14	1079.97
754.47	1078.54
754.80	1079.48
755.13	1081.30
755.46	1081.56
755.79	1081.98
756.12	1080.84
756.45	1084.18
756.78	1083.81
757.11	1086.80
757.43	1087.58
757.76	1090.50
758.09	1087.11
758.42	1087.79
758.75	1083.08
759.08	1077.25
759.41	1077.21
759.74	1075.43
760.07	1074.77
760.39	1080.60
760.72	1084.89
761.05	1083.71
761.38	1083.83
761.71	1084.77
762.04	1080.18
762.36	1076.95
762.69	1075.90
763.02	1079.53
763.35	1080.56
763.68	1082.19
764.01	1085.03
764.33	1088.00
764.66	1084.30
764.99	1083.95
765.32	1082.92
765.65	1082.64
765.97	1080.60
766.30	1084.42
766.63	1082.94
766.96	1081.05
767.28	1078.66
767.61	1077.02
767.94	1075.45
768.27	1075.83
768.59	1079.06
768.92	1083.11
769.25	1083.06
769.58	1083.74
769.90	1081.40
770.23	1078.87
770.56	1075.92
770.89	1077.70
771.21	1076.25
771.54	1075.29
771.87	1077.07
772.19	1080.16
772.52	1075.15
772.85	1074.05
773.17	1077.58
773.50	1074.82
773.83	1073.65
774.15	1078.19
774.48	1080.81
774.81	1079.81
775.13	1080.77
775.46	1079.27
775.79	1080.56
776.11	1076.67
776.44	1076.86
776.77	1078.96
777.09	1080.81
777.42	1079.29
777.74	1083.50
778.07	1082.47
778.40	1083.32
778.72	1083.50
779.05	1083.41
779.37	1082.99
779.70	1085.21
780.03	1082.38
780.35	1080.30
780.68	1078.47
781.00	1078.38
781.33	1077.40
781.65	1078.00
781.98	1078.89
782.31	1080.11
782.63	1080.32
782.96	1079.78
783.28	1082.47
783.61	1081.70
783.93	1082.31
784.26	1082.54
784.58	1080.84
784.91	1080.58
785.23	1081.94
785.56	1082.76
785.88	1082.10
786.21	1084.72
786.53	1082.12
786.86	1083.74
787.18	1082.92
787.51	1083.55
787.83	1082.38
788.16	1084.60
788.48	1081.16
788.81	1077.37
789.13	1075.87
789.46	1076.15
789.78	1075.27
790.10	1078.31
790.43	1081.12
790.75	1079.85
791.08	1077.47
791.40	1074.61
791.73	1073.37
792.05	1072.01
792.37	1074.42
792.70	1078.24
793.02	1080.13
793.35	1078.14
793.67	1081.56
793.99	1080.98
794.32	1081.82
794.64	1082.31
794.96	1085.49
795.29	1086.85
795.61	1085.42
795.93	1081.82
796.26	1083.11
796.58	1084.60
796.91	1082.33
797.23	1081.96
797.55	1083.93
797.87	1083.53
798.20	1080.20
798.52	1081.42
798.84	1082.83
799.17	1081.51
799.49	1081.58
799.81	1083.62
800.14	1082.99
800.46	1083.43
800.78	1084.39
801.10	1084.25
801.43	1083.13
801.75	1085.12
802.07	1086.50
802.40	1086.17
802.72	1086.97
803.04	1088.16
803.36	1085.89
803.69	1085.21
804.01	1089.36
804.33	1087.58
804.65	1086.20
804.97	1086.50
805.30	1084.25
805.62	1077.79
805.94	1077.93
806.26	1080.53
806.58	1080.91
806.91	1082.38
807.23	1083.50
807.55	1084.53
807.87	1081.80
808.19	1077.25
808.52	1075.27
808.84	1077.18
809.16	1077.02
809.48	1078.71
809.80	1080.79
810.12	1080.56
810.44	1081.09
810.77	1078.73
811.09	1077.37
811.41	1075.90
811.73	1079.03
812.05	1078.00
812.37	1080.79
812.69	1079.46
813.01	1082.19
813.33	1081.49
813.66	1083.76
813.98	1085.05
814.30	1082.47
814.62	1081.00
814.94	1084.23
815.26	1082.05
815.58	1077.33
815.90	1083.13
816.22	1086.69
816.54	1082.50
816.86	1082.45
817.18	1087.16
817.50	1086.13
817.82	1079.17
818.14	1079.10
818.46	1078.36
818.78	1075.41
819.10	1074.73
819.42	1079.74
819.74	1079.90
820.06	1082.97
820.38	1081.66
820.70	1080.88
821.02	1078.36
821.34	1077.58
821.66	1077.72
821.98	1079.48
822.30	1080.58
822.62	1082.73
822.94	1085.66
823.26	1083.83
823.58	1083.97
823.90	1081.44
824.22	1079.88
824.54	1075.20
824.86	1074.66
825.18	1077.49
825.50	1078.05
825.81	1079.76
826.13	1080.46
826.45	1081.30
826.77	1075.52
827.09	1077.04
827.41	1076.44
827.73	1079.41
828.05	1078.26
828.36	1081.21
828.68	1078.61
829.00	1077.28
829.32	1078.73
829.64	1078.78
829.96	1074.33
830.28	1073.11
830.59	1075.48
830.91	1070.63
831.23	1069.32
831.55	1074.63
831.87	1079.90
832.19	1076.48
832.50	1079.88
832.82	1080.77
833.14	1078.57
833.46	1077.42
833.78	1082.94
834.09	1082.85
834.41	1084.77
834.73	1086.57
835.05	1083.93
835.36	1081.14
835.68	1080.86
836.00	1080.04
836.32	1079.24
836.63	1081.00
836.95	1082.64
837.27	1083.08
837.59	1083.15
837.90	1082.90
838.22	1081.96
838.54	1079.62
838.85	1076.95
839.17	1076.60
839.49	1075.66
839.80	1075.05
840.12	1075.20
840.44	1078.43
840.76	1077.09
841.07	1079.81
841.39	1080.23
841.71	1081.21
842.02	1079.88
842.34	1081.42
842.65	1081.68
842.97	1081.16
843.29	1080.23
843.60	1081.21
843.92	1082.10
844.24	1076.74
844.55	1079.08
844.87	1079.48
845.18	1077.47
845.50	1077.65
845.82	1080.51
846.13	1077.89
846.45	1078.21
846.76	1078.99
847.08	1076.53
847.40	1078.24
847.71	1078.24
848.03	1078.10
848.34	1076.27
848.66	1076.55
848.97	1076.46
849.29	1077.42
849.60	1076.72
849.92	1079.29
850.24	1079.46
850.55	1080.30
850.87	1081.82
851.18	1083.08
851.50	1082.17
851.81	1078.45
852.13	1077.02
852.44	1073.44
852.76	1069.27
853.07	1070.30
853.39	1075.62
853.70	1074.75
854.01	1077.65
854.33	1080.13
854.64	1078.03
854.96	1075.50
855.27	1076.23
855.59	1076.20
855.90	1076.37
856.22	1079.10
856.53	1078.92
856.84	1078.47
857.16	1076.55
857.47	1077.37
857.79	1073.51
858.10	1072.55
858.41	1073.67
858.73	1077.72
859.04	1079.38
859.36	1081.16
859.67	1082.54
859.98	1083.67
860.30	1081.23
860.61	1077.70
860.92	1077.44
861.24	1077.04
861.55	1073.35
861.87	1074.05
862.18	1076.46
862.49	1078.07
862.81	1079.90
863.12	1083.08
863.43	1082.40
863.74	1080.44
864.06	1080.39
864.37	1081.91
864.68	1078.92
865.00	1082.22
865.31	1082.12
865.62	1081.70
865.94	1081.58
866.25	1083.48
866.56	1080.81
866.87	1083.18
867.19	1082.05
867.50	1078.21
867.81	1077.51
868.12	1077.86
868.44	1076.93
868.75	1076.81
869.06	1078.19
869.37	1078.64
869.68	1077.14
870.00	1078.57
870.31	1078.73
870.62	1077.72
870.93	1082.40
871.24	1086.83
871.56	1088.37
871.87	1088.91
872.18	1091.70
872.49	1086.24
872.80	1083.29
873.12	1083.20
873.43	1082.64
873.74	1084.86
874.05	1084.77
874.36	1079.92
874.67	1076.34
874.98	1075.45
875.29	1073.49
875.61	1074.42
875.92	1081.37
876.23	1082.87
876.54	1086.78
876.85	1085.26
877.16	1083.01
877.47	1079.57
877.78	1080.39
878.09	1079.55
878.40	1079.97
878.72	1084.35
879.03	1085.66
879.34	1083.93
879.65	1082.69
879.96	1084.35
880.27	1080.84
880.58	1082.71
880.89	1079.83
881.20	1080.25
881.51	1078.54
881.82	1079.15
882.13	1076.67
882.44	1078.66
882.75	1079.78
883.06	1079.15
883.37	1080.98
883.68	1080.56
883.99	1080.37
884.30	1075.29
884.61	1074.73
884.92	1074.14
885.23	1073.00
885.54	1073.09
885.85	1075.66
886.16	1077.68
886.47	1078.10
886.78	1079.20
887.08	1084.07
887.39	1086.83
887.70	1082.66
888.01	1080.98
888.32	1080.04
888.63	1077.30
888.94	1076.20
889.25	1083.11
889.56	1083.67
889.87	1087.18
890.17	1091.72
890.48	1086.71
890.79	1081.05
891.10	1082.87
891.41	1082.03
891.72	1073.81
892.03	1076.25
892.34	1080.30
892.64	1075.52
892.95	1074.98
893.26	1076.60
893.57	1078.64
893.88	1075.76
894.18	1079.36
894.49	1077.56
894.80	1079.88
895.11	1081.09
895.42	1083.27
895.72	1081.70
896.03	1085.94
896.34	1084.58
896.65	1083.50
896.96	1082.03
897.26	1082.78
897.57	1080.74
897.88	1081.66
898.19	1079.55
898.49	1080.88
898.80	1082.40
899.11	1080.72
899.41	1081.66
899.72	1080.81
900.03	1078.03
900.34	1075.59
900.64	1077.54
900.95	1073.11
901.26	1073.44
901.56	1076.90
901.87	1079.95
902.18	1076.95
902.48	1080.63
902.79	1082.17
903.10	1080.70
903.40	1078.59
903.71	1082.08
904.02	1081.05
904.32	1082.22
904.63	1082.05
904.94	1082.31
905.24	1083.46
905.55	1085.35
905.85	1085.70
906.16	1088.30
906.47	1088.00
906.77	1085.89
907.08	1082.69
907.38	1081.77
907.69	1076.69
908.00	1076.48
908.30	1075.17
908.61	1077.96
908.91	1078.82
909.22	1082.45
909.52	1083.95
909.83	1084.91
910.14	1085.14
910.44	1082.80
910.75	1079.13
911.05	1078.57
911.36	1077.75
911.66	1075.64
911.97	1076.15
912.27	1076.81
912.58	1076.53
912.88	1076.20
913.19	1074.54
913.49	1075.45
913.80	1075.05
914.10	1075.52
914.41	1074.03
914.71	1079.17
915.01	1080.53
915.32	1082.47
915.62	1084.14
915.93	1087.09
916.23	1085.84
916.54	1084.16
916.84	1084.49
917.15	1079.64
917.45	1079.85
917.75	1076.81
918.06	1074.75
918.36	1078.19
918.67	1081.47
918.97	1079.69
919.27	1080.67
919.58	1082.54
919.88	1078.33
920.18	1076.76
920.49	1077.89
920.79	1077.40
921.10	1075.92
921.40	1076.18
921.70	1074.33
922.01	1073.77
922.31	1074.56
922.61	1075.34
922.92	1074.70
923.22	1077.79
923.52	1078.05
923.82	1076.41
924.13	1076.69
924.43	1080.20
924.73	1082.59
925.04	1082.61
925.34	1084.18
925.64	1084.09
925.94	1083.34
926.25	1080.11
926.55	1079.46
926.85	1078.45
927.15	1081.28
927.46	1078.94
927.76	1079.88
928.06	1081.19
928.36	1081.80
928.67	1081.35
928.97	1081.94
929.27	1082.26
929.57	1082.50
929.87	1083.29
930.18	1083.97
930.48	1081.89
930.78	1082.61
931.08	1081.58
931.38	1083.69
931.69	1079.88
931.99	1082.45
932.29	1077.96
932.59	1078.03
932.89	1074.24
933.19	1075.90
933.49	1075.57
933.80	1077.77
934.10	1078.80
934.40	1079.46
934.70	1081.26
935.00	1080.98
935.30	1082.50
935.60	1076.51
935.90	1077.37
936.20	1077.11
936.50	1077.84
936.81	1077.51
937.11	1083.18
937.41	1084.67
937.71	1083.06
938.01	1084.39
938.31	1082.90
938.61	1083.53
938.91	1080.70
939.21	1079.06
939.51	1076.83
939.81	1074.33
940.11	1074.31
940.41	1073.30
940.71	1072.11
941.01	1069.95
941.31	1071.97
941.61	1071.66
941.91	1073.95
942.21	1077.63
942.51	1083.22
942.81	1084.65
943.11	1081.75
943.41	1082.66
943.71	1083.29
944.01	1081.14
944.31	1081.58
944.61	1084.58
944.90	1083.27
945.20	1080.86
945.50	1081.61
945.80	1080.32
946.10	1081.19
946.40	1079.62
946.70	1083.93
947.00	1081.33
947.30	1081.51
947.60	1080.32
947.89	1082.26
948.19	1080.72
948.49	1081.87
948.79	1081.94
949.09	1080.86
949.39	1080.27
949.69	1075.90
949.98	1074.87
950.28	1076.81
950.58	1076.25
950.88	1074.75
951.18	1074.31
951.48	1074.31
951.77	1071.61
952.07	1071.50
952.37	1074.42
952.67	1076.95
952.97	1078.28
953.26	1079.67
953.56	1081.12
953.86	1081.21
954.16	1083.34
954.45	1085.84
954.75	1087.16
955.05	1088.54
955.35	1089.73
955.64	1089.85
955.94	1087.34
956.24	1085.35
956.54	1084.84
956.83	1083.93
957.13	1085.14
957.43	1084.42
957.72	1085.24
958.02	1084.42
958.32	1083.36
958.61	1078.92
958.91	1081.75
959.21	1080.70
959.50	1080.60
959.80	1084.11
960.10	1085.91
960.39	1081.63
960.69	1081.73
960.99	1081.21
961.28	1075.24
961.58	1073.95
961.87	1076.81
962.17	1075.38
962.47	1076.88
962.76	1074.28
963.06	1076.79
963.36	1074.42
963.65	1078.33
963.95	1075.76
964.24	1078.54
964.54	1075.97
964.83	1076.93
965.13	1073.18
965.42	1076.41
965.72	1080.84
966.02	1083.06
966.31	1084.91
966.61	1086.57
966.90	1083.32
967.20	1082.52
967.49	1081.77
967.79	1080.53
968.08	1080.95
968.38	1081.77
968.67	1078.45
968.97	1077.61
969.26	1076.30
969.56	1076.15
969.85	1076.01
970.15	1077.33
970.44	1071.78
970.74	1069.11
971.03	1069.74
971.32	1068.74
971.62	1067.87
971.91	1073.14
972.21	1074.49
972.50	1070.68
972.80	1070.91
973.09	1074.66
973.38	1075.34
973.68	1076.08
973.97	1080.86
974.27	1082.12
974.56	1078.00
974.85	1076.53
975.15	1075.87
975.44	1074.54
975.73	1072.62
976.03	1074.54
976.32	1077.35
976.61	1080.25
976.91	1082.57
977.20	1085.40
977.49	1085.89
977.79	1087.23
978.08	1088.56
978.37	1085.89
978.67	1085.31
978.96	1085.19
979.25	1083.79
979.55	1080.09
979.84	1080.98
980.13	1080.63
980.42	1079.64
980.72	1076.51
981.01	1077.16
981.30	1074.17
981.59	1073.95
981.89	1073.72
982.18	1075.36
982.47	1078.38
982.76	1084.02
983.06	1086.48
983.35	1086.97
983.64	1084.60
983.93	1083.06
984.22	1083.22
984.52	1082.05
984.81	1080.53
985.10	1082.50
985.39	1085.66
985.68	1083.22
985.97	1081.61
986.27	1081.91
986.56	1083.43
986.85	1078.94
987.14	1079.64
987.43	1077.79
987.72	1079.62
988.01	1079.53
988.31	1078.54
988.60	1078.57
988.89	1081.82
989.18	1079.38
989.47	1076.18
989.76	1075.85
990.05	1073.88
990.34	1072.29
990.63	1072.41
990.92	1076.81
991.21	1080.18
991.51	1082.29
991.80	1082.17
992.09	1081.40
992.38	1078.10
992.67	1077.30
992.96	1073.65
993.25	1075.73
993.54	1078.71
993.83	1080.53
994.12	1081.82
994.41	1081.16
994.70	1078.89
994.99	1076.65
995.28	1075.76
995.57	1071.85
995.86	1075.55
996.15	1076.95
996.44	1077.89
996.73	1078.54
997.02	1081.07
997.31	1077.65
997.59	1076.18
997.88	1074.24
998.17	1074.47
998.46	1075.59
998.75	1078.64
999.04	1078.89
999.33	1081.56
999.62	1078.10
999.91	1075.87
1000.20	1071.64
1000.49	1072.29
1000.77	1070.47
1001.06	1072.74
1001.35	1069.60
1001.64	1070.23
1001.93	1069.84
1002.22	1070.61
1002.51	1072.74
1002.79	1074.40
1003.08	1076.30
1003.37	1077.65
1003.66	1081.77
1003.95	1078.07
1004.23	1080.16
1004.52	1078.31
1004.81	1076.72
1005.10	1077.07
1005.39	1079.74
1005.67	1080.37
1005.96	1082.26
1006.25	1081.28
1006.54	1076.53
1006.83	1077.63
1007.11	1076.46
1007.40	1075.36
1007.69	1079.29
1007.97	1080.37
1008.26	1080.91
1008.55	1082.59
1008.84	1083.27
1009.12	1083.01
1009.41	1081.56
1009.70	1079.17
1009.98	1077.65
1010.27	1074.59
1010.56	1070.33
1010.85	1073.98
1011.13	1070.40
1011.42	1068.24
1011.71	1074.45
1011.99	1073.86
1012.28	1070.26
1012.56	1073.04
1012.85	1072.92
1013.14	1071.12
1013.42	1071.03
1013.71	1076.60
1014.00	1081.02
1014.28	1083.22
1014.57	1082.36
1014.85	1084.18
1015.14	1080.13
1015.43	1076.25
1015.71	1076.93
1016.00	1078.43
1016.28	1078.96
1016.57	1076.23
1016.85	1075.24
1017.14	1074.59
1017.43	1074.63
1017.71	1074.12
1018.00	1075.73
1018.28	1077.25
1018.57	1078.03
1018.85	1076.27
1019.14	1078.03
1019.42	1078.99
1019.71	1079.27
1019.99	1078.57
1020.28	1078.33
1020.56	1074.68
1020.85	1075.66
1021.13	1073.02
1021.42	1070.26
1021.70	1069.58
1021.99	1073.56
1022.27	1074.33
1022.55	1084.14
1022.84	1085.66
>>>>>End Processed Spectral Data<<<<<
