SpectraSuite Data File
++++++++++++++++++++++++++++++++++++
Date: Mon Aug 26 10:21:59 PDT 2019
User: corrico
Dark Spectrum Present: No
Reference Spectrum Present: No
Number of Sampled Component Spectra: 1
Spectrometers: USB2+H06089
Integration Time (usec): 2000 (USB2+H06089)
Spectra Averaged: 20 (USB2+H06089)
Boxcar Smoothing: 2 (USB2+H06089)
Correct for Electrical Dark: No (USB2+H06089)
Strobe/Lamp Enabled: No (USB2+H06089)
Correct for Detector Non-linearity: No (USB2+H06089)
Correct for Stray Light: No (USB2+H06089)
Number of Pixels in Processed Spectrum: 2048
>>>>>Begin Processed Spectral Data<<<<<
339.70	1016.73
340.07	1016.73
340.45	989.63
340.82	968.35
341.19	946.75
341.57	923.55
341.94	911.01
342.31	901.81
342.69	899.12
343.06	897.48
343.43	895.30
343.81	894.76
344.18	898.53
344.55	902.96
344.93	906.35
345.30	914.54
345.67	922.45
346.04	932.35
346.42	938.93
346.79	949.41
347.16	956.37
347.54	962.36
347.91	968.35
348.28	975.82
348.65	980.40
349.03	990.80
349.40	1000.30
349.77	1008.72
350.14	1017.43
350.52	1027.99
350.89	1036.34
351.26	1044.77
351.63	1052.56
352.01	1057.43
352.38	1061.29
352.75	1060.99
353.12	1063.02
353.50	1065.34
353.87	1069.09
354.24	1070.47
354.61	1073.02
354.98	1075.20
355.36	1075.92
355.73	1075.45
356.10	1076.34
356.47	1079.90
356.84	1080.72
357.22	1081.82
357.59	1085.26
357.96	1087.02
358.33	1085.47
358.70	1083.93
359.08	1083.25
359.45	1083.69
359.82	1082.73
360.19	1081.68
360.56	1081.12
360.94	1078.47
361.31	1076.44
361.68	1075.73
362.05	1075.94
362.42	1074.10
362.79	1076.53
363.16	1072.78
363.54	1073.46
363.91	1070.68
364.28	1072.88
364.65	1068.50
365.02	1071.38
365.39	1068.71
365.76	1072.04
366.14	1069.79
366.51	1071.01
366.88	1068.06
367.25	1069.20
367.62	1066.54
367.99	1070.82
368.36	1072.25
368.73	1075.24
369.10	1075.62
369.48	1077.04
369.85	1075.24
370.22	1076.13
370.59	1074.98
370.96	1074.70
371.33	1075.22
371.70	1072.01
372.07	1071.99
372.44	1069.98
372.81	1068.97
373.18	1067.66
373.55	1069.39
373.93	1068.78
374.30	1070.54
374.67	1072.22
375.04	1072.04
375.41	1070.56
375.78	1070.23
376.15	1070.91
376.52	1069.09
376.89	1071.17
377.26	1074.66
377.63	1073.93
378.00	1076.06
378.37	1080.37
378.74	1080.09
379.11	1076.13
379.48	1077.44
379.85	1075.01
380.22	1071.38
380.59	1071.82
380.96	1075.83
381.33	1075.15
381.70	1077.02
382.07	1075.87
382.44	1074.00
382.81	1073.81
383.18	1073.30
383.55	1072.01
383.92	1075.36
384.29	1076.20
384.66	1073.91
385.03	1074.75
385.40	1074.12
385.77	1073.42
386.14	1072.57
386.51	1071.97
386.88	1069.46
387.25	1068.38
387.62	1066.77
387.99	1070.23
388.36	1075.13
388.73	1078.52
389.10	1082.15
389.46	1086.36
389.83	1084.21
390.20	1079.50
390.57	1080.30
390.94	1079.74
391.31	1077.18
391.68	1077.14
392.05	1080.93
392.42	1078.80
392.79	1077.44
393.16	1077.58
393.53	1077.77
393.89	1076.37
394.26	1078.21
394.63	1078.26
395.00	1076.58
395.37	1074.52
395.74	1076.83
396.11	1074.54
396.48	1075.05
396.84	1078.00
397.21	1082.38
397.58	1084.74
397.95	1088.16
398.32	1089.05
398.69	1086.20
399.06	1084.53
399.42	1079.29
399.79	1078.61
400.16	1075.27
400.53	1076.32
400.90	1076.55
401.27	1077.84
401.64	1075.87
402.00	1076.18
402.37	1079.27
402.74	1077.65
403.11	1079.17
403.48	1084.98
403.84	1090.24
404.21	1088.21
404.58	1092.94
404.95	1092.21
405.32	1088.49
405.68	1087.93
406.05	1089.33
406.42	1085.24
406.79	1085.80
407.16	1085.87
407.52	1086.48
407.89	1085.75
408.26	1088.51
408.63	1087.69
408.99	1087.34
409.36	1086.10
409.73	1088.07
410.10	1088.09
410.47	1089.22
410.83	1090.06
411.20	1089.61
411.57	1086.52
411.94	1085.82
412.30	1085.91
412.67	1086.83
413.04	1088.35
413.40	1092.30
413.77	1093.40
414.14	1091.56
414.51	1089.96
414.87	1091.02
415.24	1089.17
415.61	1088.98
415.97	1089.59
416.34	1092.09
416.71	1091.98
417.08	1092.73
417.44	1092.70
417.81	1094.29
418.18	1092.49
418.54	1095.00
418.91	1096.47
419.28	1097.78
419.64	1100.80
420.01	1101.99
420.38	1100.05
420.74	1100.92
421.11	1100.17
421.48	1100.85
421.84	1103.14
422.21	1102.86
422.58	1104.08
422.94	1104.59
423.31	1104.29
423.68	1104.64
424.04	1108.78
424.41	1110.75
424.77	1116.39
425.14	1120.18
425.51	1126.06
425.87	1131.09
426.24	1132.61
426.61	1135.04
426.97	1141.15
427.34	1142.70
427.70	1144.29
428.07	1150.16
428.44	1155.34
428.80	1159.20
429.17	1167.48
429.53	1171.37
429.90	1174.27
430.27	1179.42
430.63	1182.77
431.00	1183.12
431.36	1193.37
431.73	1204.63
432.09	1214.41
432.46	1227.70
432.83	1241.09
433.19	1249.17
433.56	1261.78
433.92	1272.74
434.29	1286.24
434.65	1301.41
435.02	1321.49
435.38	1339.18
435.75	1359.69
436.11	1377.38
436.48	1397.98
436.84	1417.33
437.21	1441.96
437.57	1468.66
437.94	1500.35
438.30	1531.95
438.67	1561.98
439.03	1593.83
439.40	1634.37
439.76	1666.74
440.13	1710.23
440.49	1761.00
440.86	1814.08
441.22	1859.09
441.59	1913.18
441.95	1969.26
442.32	2024.70
442.68	2085.53
443.05	2153.27
443.41	2218.15
443.78	2285.46
444.14	2359.49
444.51	2425.61
444.87	2507.67
445.24	2592.49
445.60	2686.05
445.96	2776.37
446.33	2886.42
446.69	2987.95
447.06	3107.97
447.42	3222.33
447.79	3348.70
448.15	3491.03
448.51	3635.46
448.88	3798.01
449.24	3954.19
449.61	4146.54
449.97	4332.03
450.33	4540.83
450.70	4731.07
451.06	4956.81
451.43	5155.71
451.79	5386.86
452.15	5642.24
452.52	5920.08
452.88	6204.67
453.24	6525.60
453.61	6889.72
453.97	7230.87
454.34	7582.75
454.70	7979.31
455.06	8360.74
455.43	8718.64
455.79	9059.18
456.15	9454.85
456.52	9827.07
456.88	10325.98
457.24	10818.45
457.61	11431.93
457.97	12013.31
458.33	12629.83
458.70	13185.92
459.06	13717.01
459.42	14260.98
459.79	14746.50
460.15	15293.88
460.51	15794.01
460.88	16358.54
461.24	16835.08
461.60	17403.64
461.96	17863.53
462.33	18338.26
462.69	18790.10
463.05	19321.10
463.42	19835.60
463.78	20320.79
464.14	20724.11
464.50	21155.68
464.87	21473.90
465.23	21659.18
465.59	21912.59
465.95	22118.37
466.32	22253.11
466.68	22376.34
467.04	22482.16
467.40	22497.25
467.77	22550.85
468.13	22517.24
468.49	22373.13
468.85	22242.06
469.22	22138.43
469.58	21980.42
469.94	21834.27
470.30	21674.84
470.66	21438.72
471.03	21092.21
471.39	20829.60
471.75	20431.57
472.11	20084.09
472.47	19853.43
472.84	19572.19
473.20	19203.88
473.56	18944.95
473.92	18534.91
474.28	18067.16
474.65	17693.96
475.01	17312.50
475.37	16893.26
475.73	16603.32
476.09	16292.26
476.45	15999.06
476.81	15729.52
477.18	15480.91
477.54	15277.50
477.90	15115.98
478.26	14889.39
478.62	14686.14
478.98	14529.67
479.34	14363.33
479.71	14134.07
480.07	13911.07
480.43	13660.72
480.79	13349.60
481.15	13049.02
481.51	12819.54
481.87	12647.81
482.23	12458.98
482.59	12295.04
482.96	12111.52
483.32	11915.78
483.68	11677.21
484.04	11480.30
484.40	11286.93
484.76	11097.95
485.12	10899.76
485.48	10727.61
485.84	10546.06
486.20	10354.53
486.56	10152.49
486.92	9954.58
487.28	9738.90
487.64	9506.90
488.00	9311.87
488.37	9108.22
488.73	8901.08
489.09	8698.48
489.45	8508.64
489.81	8287.32
490.17	8067.22
490.53	7830.05
490.89	7581.67
491.25	7355.30
491.61	7136.15
491.97	6931.85
492.33	6765.37
492.69	6608.43
493.05	6447.52
493.41	6300.46
493.77	6153.55
494.13	5998.04
494.49	5848.11
494.85	5699.46
495.21	5562.14
495.57	5433.76
495.93	5308.24
496.29	5179.61
496.64	5051.51
497.00	4913.07
497.36	4794.35
497.72	4679.99
498.08	4582.18
498.44	4479.60
498.80	4381.93
499.16	4274.01
499.52	4163.42
499.88	4049.76
500.24	3940.27
500.60	3836.98
500.96	3736.85
501.32	3653.86
501.68	3583.38
502.03	3513.87
502.39	3448.71
502.75	3387.48
503.11	3324.85
503.47	3260.83
503.83	3200.43
504.19	3142.82
504.55	3083.00
504.91	3022.12
505.26	2958.51
505.62	2894.12
505.98	2830.04
506.34	2762.82
506.70	2705.31
507.06	2644.71
507.42	2589.83
507.78	2535.43
508.13	2490.19
508.49	2441.23
508.85	2404.64
509.21	2362.89
509.57	2328.20
509.93	2293.61
510.28	2253.54
510.64	2211.69
511.00	2178.73
511.36	2136.51
511.72	2097.99
512.07	2065.94
512.43	2035.94
512.79	2003.50
513.15	1976.18
513.51	1944.49
513.86	1916.69
514.22	1886.64
514.58	1858.06
514.94	1829.62
515.30	1810.94
515.65	1790.77
516.01	1773.42
516.37	1756.15
516.73	1740.31
517.08	1718.16
517.44	1696.79
517.80	1676.13
518.16	1654.64
518.51	1634.89
518.87	1614.20
519.23	1600.08
519.59	1583.35
519.94	1566.73
520.30	1553.37
520.66	1541.45
521.01	1523.36
521.37	1507.26
521.73	1493.50
522.09	1478.21
522.44	1466.67
522.80	1453.75
523.16	1444.51
523.51	1435.26
523.87	1425.22
524.23	1416.70
524.58	1410.57
524.94	1402.38
525.30	1391.19
525.65	1381.10
526.01	1371.13
526.37	1361.96
526.72	1353.25
527.08	1342.95
527.44	1333.96
527.79	1326.31
528.15	1319.29
528.51	1311.26
528.86	1309.90
529.22	1301.69
529.58	1290.50
529.93	1279.45
530.29	1273.51
530.65	1264.85
531.00	1259.91
531.36	1257.38
531.71	1253.75
532.07	1249.19
532.43	1243.46
532.78	1237.00
533.14	1231.68
533.49	1226.51
533.85	1218.58
534.21	1214.27
534.56	1212.65
534.92	1207.58
535.27	1207.48
535.63	1209.35
535.98	1204.93
536.34	1203.06
536.69	1200.37
537.05	1193.86
537.41	1184.64
537.76	1184.08
538.12	1180.64
538.47	1176.61
538.83	1174.18
539.18	1173.66
539.54	1167.18
539.89	1162.22
540.25	1162.12
540.60	1163.18
540.96	1159.92
541.31	1157.93
541.67	1154.61
542.02	1154.19
542.38	1150.40
542.73	1147.94
543.09	1149.04
543.44	1153.42
543.80	1150.47
544.15	1149.30
544.51	1149.18
544.86	1150.07
545.22	1145.67
545.57	1142.39
545.93	1136.68
546.28	1135.58
546.64	1130.36
546.99	1128.86
547.35	1126.76
547.70	1126.45
548.05	1126.31
548.41	1124.37
548.76	1121.47
549.12	1124.81
549.47	1124.72
549.83	1123.71
550.18	1123.32
550.53	1120.67
550.89	1120.46
551.24	1118.92
551.60	1114.84
551.95	1115.31
552.30	1117.09
552.66	1114.61
553.01	1116.34
553.37	1115.55
553.72	1116.83
554.07	1118.42
554.43	1113.39
554.78	1107.80
555.13	1110.12
555.49	1109.84
555.84	1108.29
556.19	1109.18
556.55	1112.48
556.90	1108.95
557.26	1105.95
557.61	1100.66
557.96	1102.46
558.32	1105.04
558.67	1105.18
559.02	1103.59
559.37	1105.55
559.73	1101.76
560.08	1099.35
560.43	1098.16
560.79	1099.98
561.14	1102.21
561.49	1102.81
561.85	1099.16
562.20	1100.47
562.55	1102.72
562.90	1102.56
563.26	1102.95
563.61	1103.49
563.96	1101.39
564.32	1098.34
564.67	1094.39
565.02	1093.15
565.37	1095.00
565.73	1096.21
566.08	1094.83
566.43	1098.72
566.78	1096.59
567.14	1091.88
567.49	1090.32
567.84	1089.96
568.19	1088.51
568.54	1091.20
568.90	1089.85
569.25	1092.66
569.60	1092.45
569.95	1092.23
570.31	1091.20
570.66	1093.38
571.01	1090.50
571.36	1089.92
571.71	1086.92
572.06	1086.20
572.42	1089.75
572.77	1090.34
573.12	1091.84
573.47	1094.20
573.82	1095.75
574.18	1095.07
574.53	1092.37
574.88	1089.38
575.23	1086.22
575.58	1084.79
575.93	1083.25
576.28	1086.10
576.64	1084.53
576.99	1087.93
577.34	1087.53
577.69	1085.54
578.04	1084.72
578.39	1084.77
578.74	1085.82
579.09	1085.61
579.44	1086.50
579.80	1086.01
580.15	1086.92
580.50	1086.22
580.85	1086.10
581.20	1087.79
581.55	1087.30
581.90	1090.64
582.25	1087.97
582.60	1088.19
582.95	1091.70
583.30	1094.11
583.65	1089.96
584.00	1091.11
584.35	1090.27
584.71	1083.67
585.06	1081.33
585.41	1080.27
585.76	1078.47
586.11	1075.78
586.46	1076.41
586.81	1074.96
587.16	1075.94
587.51	1078.75
587.86	1078.50
588.21	1081.21
588.56	1082.05
588.91	1082.76
589.26	1081.26
589.61	1086.57
589.96	1084.58
590.31	1087.53
590.66	1087.74
591.01	1086.99
591.36	1084.42
591.71	1084.67
592.06	1083.04
592.41	1080.23
592.76	1080.23
593.10	1079.34
593.45	1077.54
593.80	1077.61
594.15	1081.05
594.50	1078.33
594.85	1079.64
595.20	1080.23
595.55	1077.33
595.90	1078.71
596.25	1084.53
596.60	1086.15
596.95	1084.70
597.30	1088.79
597.64	1099.16
597.99	1097.83
598.34	1097.99
598.69	1098.53
599.04	1097.13
599.39	1085.56
599.74	1081.77
600.09	1078.96
600.44	1079.85
600.78	1079.06
601.13	1077.89
601.48	1078.75
601.83	1081.28
602.18	1079.03
602.53	1076.81
602.88	1076.01
603.22	1078.03
603.57	1077.42
603.92	1077.84
604.27	1081.28
604.62	1080.53
604.97	1077.25
605.31	1074.75
605.66	1076.25
606.01	1076.93
606.36	1079.01
606.71	1082.38
607.05	1083.90
607.40	1085.52
607.75	1085.96
608.10	1085.21
608.44	1086.08
608.79	1088.44
609.14	1084.00
609.49	1080.39
609.84	1081.91
610.18	1079.22
610.53	1075.41
610.88	1077.07
611.23	1078.31
611.57	1078.17
611.92	1078.19
612.27	1078.12
612.62	1079.43
612.96	1081.19
613.31	1078.33
613.66	1078.19
614.00	1079.08
614.35	1079.01
614.70	1076.30
615.05	1078.92
615.39	1078.92
615.74	1080.86
616.09	1082.99
616.43	1084.67
616.78	1082.78
617.13	1082.64
617.47	1081.30
617.82	1081.00
618.17	1080.79
618.51	1080.77
618.86	1081.66
619.21	1079.97
619.55	1081.00
619.90	1083.88
620.25	1084.74
620.59	1087.60
620.94	1088.07
621.29	1087.62
621.63	1086.80
621.98	1086.10
622.32	1084.23
622.67	1086.38
623.02	1083.95
623.36	1081.54
623.71	1083.57
624.05	1083.86
624.40	1083.36
624.75	1083.43
625.09	1083.11
625.44	1081.26
625.78	1076.97
626.13	1075.87
626.48	1075.36
626.82	1077.28
627.17	1076.95
627.51	1079.81
627.86	1077.42
628.20	1077.09
628.55	1075.76
628.89	1079.27
629.24	1078.43
629.58	1082.73
629.93	1084.53
630.28	1081.47
630.62	1079.29
630.97	1081.73
631.31	1083.79
631.66	1083.39
632.00	1086.27
632.35	1086.43
632.69	1086.20
633.04	1079.92
633.38	1078.47
633.73	1078.57
634.07	1078.28
634.42	1075.62
634.76	1076.48
635.11	1076.65
635.45	1076.18
635.79	1075.90
636.14	1077.42
636.48	1079.15
636.83	1081.54
637.17	1078.78
637.52	1080.60
637.86	1078.47
638.21	1081.09
638.55	1078.47
638.89	1081.05
639.24	1080.11
639.58	1080.32
639.93	1077.37
640.27	1080.44
640.61	1080.18
640.96	1076.95
641.30	1079.27
641.65	1079.76
641.99	1078.61
642.33	1078.89
642.68	1080.18
643.02	1077.56
643.37	1077.51
643.71	1075.34
644.05	1076.01
644.40	1074.31
644.74	1075.59
645.08	1075.45
645.43	1077.42
645.77	1075.90
646.11	1076.83
646.46	1079.48
646.80	1081.14
647.14	1079.43
647.49	1081.63
647.83	1084.60
648.17	1081.07
648.52	1079.55
648.86	1080.32
649.20	1076.39
649.55	1076.46
649.89	1076.95
650.23	1077.37
650.57	1077.11
650.92	1077.37
651.26	1074.45
651.60	1073.91
651.95	1072.62
652.29	1075.59
652.63	1078.45
652.97	1084.74
653.32	1084.44
653.66	1084.49
654.00	1082.33
654.34	1082.69
654.69	1075.73
655.03	1077.07
655.37	1079.69
655.71	1077.42
656.05	1077.16
656.40	1081.56
656.74	1080.72
657.08	1078.28
657.42	1080.93
657.76	1080.41
658.11	1076.58
658.45	1079.50
658.79	1079.74
659.13	1079.17
659.47	1079.13
659.82	1082.36
660.16	1081.14
660.50	1082.43
660.84	1081.77
661.18	1083.01
661.52	1083.50
661.87	1083.97
662.21	1082.38
662.55	1083.13
662.89	1083.39
663.23	1081.58
663.57	1081.70
663.91	1080.63
664.25	1080.79
664.60	1079.69
664.94	1081.70
665.28	1081.35
665.62	1081.80
665.96	1082.01
666.30	1081.42
666.64	1077.86
666.98	1076.41
667.32	1076.79
667.66	1078.12
668.01	1076.72
668.35	1077.77
668.69	1076.69
669.03	1075.90
669.37	1070.19
669.71	1069.81
670.05	1070.68
670.39	1071.17
670.73	1071.92
671.07	1075.34
671.41	1076.23
671.75	1075.94
672.09	1075.27
672.43	1075.41
672.77	1076.37
673.11	1076.04
673.45	1074.84
673.79	1077.65
674.13	1079.01
674.47	1079.95
674.81	1080.65
675.15	1083.76
675.49	1083.11
675.83	1081.30
676.17	1077.49
676.51	1076.58
676.85	1074.45
677.19	1074.38
677.53	1074.89
677.87	1077.63
678.21	1079.43
678.55	1082.03
678.89	1082.26
679.23	1084.91
679.57	1084.44
679.90	1084.37
680.24	1084.23
680.58	1085.00
680.92	1081.91
681.26	1082.87
681.60	1082.33
681.94	1080.48
682.28	1077.72
682.62	1077.44
682.96	1078.03
683.29	1079.97
683.63	1080.06
683.97	1083.69
684.31	1086.62
684.65	1081.94
684.99	1082.17
685.33	1081.40
685.67	1081.49
686.00	1082.61
686.34	1085.75
686.68	1087.46
687.02	1087.48
687.36	1084.42
687.70	1080.06
688.03	1079.69
688.37	1076.15
688.71	1076.60
689.05	1079.38
689.39	1080.70
689.72	1078.19
690.06	1077.28
690.40	1074.63
690.74	1071.57
691.08	1070.28
691.41	1074.77
691.75	1072.64
692.09	1073.91
692.43	1073.14
692.76	1075.69
693.10	1072.88
693.44	1077.56
693.78	1078.73
694.11	1079.83
694.45	1078.52
694.79	1083.29
695.13	1080.39
695.46	1079.71
695.80	1082.83
696.14	1083.86
696.48	1077.47
696.81	1076.25
697.15	1078.50
697.49	1075.69
697.82	1074.31
698.16	1076.44
698.50	1077.16
698.83	1076.76
699.17	1078.94
699.51	1080.41
699.84	1078.64
700.18	1077.98
700.52	1078.31
700.85	1077.96
701.19	1074.31
701.53	1076.48
701.86	1079.83
702.20	1075.73
702.54	1073.84
702.87	1076.39
703.21	1075.94
703.55	1073.02
703.88	1074.10
704.22	1074.49
704.55	1073.65
704.89	1072.92
705.23	1074.47
705.56	1076.76
705.90	1075.38
706.23	1077.96
706.57	1080.91
706.91	1079.71
707.24	1078.33
707.58	1081.09
707.91	1080.13
708.25	1077.14
708.58	1079.03
708.92	1082.78
709.26	1080.65
709.59	1080.91
709.93	1084.63
710.26	1085.63
710.60	1081.33
710.93	1083.04
711.27	1079.90
711.60	1081.49
711.94	1080.79
712.27	1081.47
712.61	1081.47
712.94	1085.03
713.28	1083.57
713.61	1085.94
713.95	1086.69
714.28	1085.75
714.62	1082.19
714.95	1079.06
715.29	1077.70
715.62	1078.40
715.96	1078.17
716.29	1079.83
716.63	1081.14
716.96	1080.88
717.29	1080.93
717.63	1080.86
717.96	1079.88
718.30	1080.30
718.63	1077.82
718.97	1076.53
719.30	1076.72
719.63	1078.96
719.97	1079.62
720.30	1080.53
720.64	1079.36
720.97	1079.08
721.30	1075.57
721.64	1074.03
721.97	1075.57
722.31	1075.76
722.64	1072.71
722.97	1073.70
723.31	1072.90
723.64	1067.10
723.97	1067.35
724.31	1068.67
724.64	1070.75
724.98	1068.27
725.31	1071.03
725.64	1071.52
725.98	1071.47
726.31	1072.11
726.64	1074.05
726.97	1075.10
727.31	1070.87
727.64	1072.46
727.97	1071.29
728.31	1072.53
728.64	1071.26
728.97	1076.81
729.31	1079.20
729.64	1079.27
729.97	1076.25
730.30	1078.21
730.64	1075.62
730.97	1071.92
731.30	1074.10
731.63	1077.82
731.97	1075.01
732.30	1078.10
732.63	1078.71
732.96	1075.55
733.30	1076.86
733.63	1078.28
733.96	1074.98
734.29	1076.18
734.63	1076.74
734.96	1074.24
735.29	1078.66
735.62	1082.03
735.95	1083.88
736.29	1083.62
736.62	1084.00
736.95	1082.85
737.28	1080.84
737.61	1080.65
737.94	1082.40
738.28	1080.27
738.61	1078.45
738.94	1077.86
739.27	1078.87
739.60	1076.90
739.93	1081.14
740.27	1081.16
740.60	1084.28
740.93	1081.14
741.26	1081.89
741.59	1081.30
741.92	1083.01
742.25	1082.31
742.58	1082.36
742.91	1082.71
743.25	1079.10
743.58	1076.34
743.91	1075.52
744.24	1076.06
744.57	1076.27
744.90	1078.64
745.23	1078.40
745.56	1076.23
745.89	1073.88
746.22	1072.36
746.55	1073.46
746.88	1078.99
747.21	1081.87
747.54	1086.85
747.87	1090.36
748.20	1087.74
748.53	1080.86
748.87	1077.79
749.20	1073.84
749.53	1072.62
749.86	1073.30
750.19	1071.17
750.52	1074.82
750.85	1074.47
751.18	1074.00
751.51	1072.01
751.84	1078.43
752.16	1075.38
752.49	1074.75
752.82	1078.50
753.15	1081.82
753.48	1079.92
753.81	1077.79
754.14	1078.80
754.47	1076.83
754.80	1077.56
755.13	1075.52
755.46	1079.71
755.79	1083.62
756.12	1079.78
756.45	1080.02
756.78	1081.37
757.11	1083.01
757.43	1081.84
757.76	1083.43
758.09	1082.47
758.42	1082.47
758.75	1081.80
759.08	1082.92
759.41	1084.25
759.74	1083.25
760.07	1083.83
760.39	1079.67
760.72	1079.99
761.05	1079.69
761.38	1077.56
761.71	1080.39
762.04	1082.45
762.36	1078.85
762.69	1075.24
763.02	1078.75
763.35	1075.52
763.68	1074.40
764.01	1074.70
764.33	1074.45
764.66	1070.72
764.99	1073.81
765.32	1072.22
765.65	1074.63
765.97	1076.51
766.30	1080.72
766.63	1078.50
766.96	1082.08
767.28	1079.81
767.61	1080.48
767.94	1077.77
768.27	1073.56
768.59	1071.01
768.92	1072.55
769.25	1073.86
769.58	1074.61
769.90	1077.33
770.23	1079.85
770.56	1077.58
770.89	1074.14
771.21	1072.74
771.54	1074.03
771.87	1075.15
772.19	1075.62
772.52	1077.18
772.85	1079.48
773.17	1080.65
773.50	1080.39
773.83	1078.78
774.15	1077.58
774.48	1078.87
774.81	1077.56
775.13	1074.49
775.46	1073.74
775.79	1074.73
776.11	1071.90
776.44	1074.49
776.77	1076.67
777.09	1080.18
777.42	1081.63
777.74	1078.31
778.07	1073.81
778.40	1070.56
778.72	1070.82
779.05	1069.27
779.37	1072.81
779.70	1073.77
780.03	1076.37
780.35	1074.12
780.68	1074.33
781.00	1074.03
781.33	1080.23
781.65	1077.70
781.98	1079.20
782.31	1081.02
782.63	1082.78
782.96	1077.98
783.28	1080.67
783.61	1080.48
783.93	1079.27
784.26	1076.01
784.58	1076.97
784.91	1075.90
785.23	1074.63
785.56	1073.23
785.88	1077.28
786.21	1075.22
786.53	1078.38
786.86	1080.63
787.18	1080.41
787.51	1078.61
787.83	1077.84
788.16	1075.90
788.48	1073.18
788.81	1073.84
789.13	1073.70
789.46	1072.11
789.78	1071.01
790.10	1072.43
790.43	1073.72
790.75	1074.61
791.08	1078.07
791.40	1078.38
791.73	1080.93
792.05	1081.35
792.37	1081.98
792.70	1079.57
793.02	1083.27
793.35	1080.48
793.67	1080.20
793.99	1078.03
794.32	1079.64
794.64	1074.10
794.96	1075.69
795.29	1074.26
795.61	1073.60
795.93	1072.71
796.26	1073.98
796.58	1072.64
796.91	1073.28
797.23	1074.52
797.55	1074.63
797.87	1077.77
798.20	1081.14
798.52	1081.40
798.84	1080.34
799.17	1080.84
799.49	1072.76
799.81	1072.67
800.14	1073.88
800.46	1074.75
800.78	1072.83
801.10	1076.81
801.43	1073.09
801.75	1069.88
802.07	1069.32
802.40	1070.26
802.72	1071.24
803.04	1073.09
803.36	1076.15
803.69	1075.50
804.01	1079.64
804.33	1080.53
804.65	1079.10
804.97	1078.19
805.30	1079.46
805.62	1075.24
805.94	1073.37
806.26	1073.28
806.58	1076.25
806.91	1075.08
807.23	1076.53
807.55	1078.75
807.87	1078.38
808.19	1076.23
808.52	1077.72
808.84	1078.28
809.16	1081.49
809.48	1084.89
809.80	1082.76
810.12	1086.22
810.44	1086.22
810.77	1082.83
811.09	1079.55
811.41	1079.83
811.73	1074.84
812.05	1074.63
812.37	1075.87
812.69	1073.02
813.01	1073.11
813.33	1075.99
813.66	1075.87
813.98	1075.62
814.30	1080.04
814.62	1081.35
814.94	1079.01
815.26	1080.56
815.58	1080.27
815.90	1080.77
816.22	1080.81
816.54	1081.58
816.86	1080.77
817.18	1081.21
817.50	1079.55
817.82	1079.76
818.14	1080.67
818.46	1081.63
818.78	1081.63
819.10	1081.51
819.42	1078.61
819.74	1078.43
820.06	1075.92
820.38	1074.77
820.70	1074.07
821.02	1076.44
821.34	1075.15
821.66	1073.18
821.98	1074.94
822.30	1070.70
822.62	1069.34
822.94	1071.08
823.26	1072.81
823.58	1070.47
823.90	1074.75
824.22	1077.25
824.54	1080.18
824.86	1081.91
825.18	1083.29
825.50	1084.00
825.81	1083.04
826.13	1076.65
826.45	1076.83
826.77	1075.78
827.09	1077.51
827.41	1076.55
827.73	1077.42
828.05	1078.17
828.36	1077.96
828.68	1073.58
829.00	1073.00
829.32	1076.67
829.64	1077.09
829.96	1077.58
830.28	1079.57
830.59	1083.08
830.91	1082.73
831.23	1082.50
831.55	1083.41
831.87	1083.34
832.19	1083.15
832.50	1082.19
832.82	1076.30
833.14	1076.69
833.46	1078.03
833.78	1074.17
834.09	1073.74
834.41	1077.25
834.73	1073.35
835.05	1073.88
835.36	1075.50
835.68	1073.49
836.00	1075.73
836.32	1080.46
836.63	1077.93
836.95	1077.56
837.27	1077.56
837.59	1074.73
837.90	1070.84
838.22	1072.22
838.54	1073.67
838.85	1073.21
839.17	1075.76
839.49	1077.79
839.80	1079.74
840.12	1076.88
840.44	1078.47
840.76	1076.95
841.07	1073.44
841.39	1070.70
841.71	1069.81
842.02	1071.71
842.34	1069.72
842.65	1072.90
842.97	1074.84
843.29	1075.22
843.60	1074.19
843.92	1074.47
844.24	1070.21
844.55	1070.98
844.87	1075.50
845.18	1073.21
845.50	1076.37
845.82	1078.89
846.13	1076.20
846.45	1072.06
846.76	1074.66
847.08	1071.22
847.40	1072.39
847.71	1072.34
848.03	1072.92
848.34	1070.87
848.66	1077.91
848.97	1076.46
849.29	1075.94
849.60	1077.68
849.92	1078.85
850.24	1073.70
850.55	1074.80
850.87	1074.40
851.18	1076.15
851.50	1076.04
851.81	1075.80
852.13	1076.62
852.44	1077.77
852.76	1077.70
853.07	1078.78
853.39	1080.48
853.70	1082.03
854.01	1084.98
854.33	1083.25
854.64	1080.46
854.96	1080.23
855.27	1080.18
855.59	1080.06
855.90	1078.85
856.22	1082.69
856.53	1080.70
856.84	1080.06
857.16	1078.24
857.47	1077.98
857.79	1077.04
858.10	1077.25
858.41	1074.91
858.73	1075.15
859.04	1076.72
859.36	1076.72
859.67	1075.13
859.98	1077.82
860.30	1075.31
860.61	1076.34
860.92	1074.89
861.24	1076.41
861.55	1075.83
861.87	1080.04
862.18	1077.35
862.49	1078.85
862.81	1082.36
863.12	1080.51
863.43	1076.90
863.74	1081.37
864.06	1078.10
864.37	1076.08
864.68	1078.94
865.00	1081.51
865.31	1078.57
865.62	1080.86
865.94	1081.37
866.25	1080.06
866.56	1078.45
866.87	1081.02
867.19	1082.73
867.50	1082.33
867.81	1082.47
868.12	1082.57
868.44	1078.24
868.75	1076.06
869.06	1075.97
869.37	1073.28
869.68	1073.93
870.00	1074.94
870.31	1075.17
870.62	1073.16
870.93	1073.84
871.24	1072.71
871.56	1075.57
871.87	1075.73
872.18	1077.75
872.49	1077.68
872.80	1078.00
873.12	1076.41
873.43	1077.21
873.74	1077.68
874.05	1078.75
874.36	1078.87
874.67	1077.75
874.98	1078.36
875.29	1075.76
875.61	1075.71
875.92	1078.89
876.23	1076.55
876.54	1074.17
876.85	1074.38
877.16	1074.00
877.47	1072.11
877.78	1075.05
878.09	1077.18
878.40	1079.57
878.72	1081.16
879.03	1080.86
879.34	1080.11
879.65	1080.06
879.96	1076.79
880.27	1074.35
880.58	1075.10
880.89	1075.22
881.20	1073.35
881.51	1075.05
881.82	1076.27
882.13	1079.27
882.44	1080.06
882.75	1083.18
883.06	1083.25
883.37	1083.79
883.68	1077.51
883.99	1076.01
884.30	1074.49
884.61	1078.92
884.92	1077.58
885.23	1079.43
885.54	1080.23
885.85	1075.38
886.16	1072.01
886.47	1073.88
886.78	1076.30
887.08	1077.16
887.39	1080.86
887.70	1080.13
888.01	1080.74
888.32	1080.60
888.63	1080.46
888.94	1080.13
889.25	1080.09
889.56	1075.66
889.87	1072.34
890.17	1068.67
890.48	1068.10
890.79	1067.42
891.10	1068.08
891.41	1070.05
891.72	1073.93
892.03	1074.82
892.34	1074.91
892.64	1078.00
892.95	1079.15
893.26	1078.85
893.57	1077.86
893.88	1078.82
894.18	1076.79
894.49	1076.11
894.80	1077.96
895.11	1081.54
895.42	1080.30
895.72	1082.47
896.03	1082.22
896.34	1081.87
896.65	1078.68
896.96	1079.90
897.26	1078.71
897.57	1078.99
897.88	1075.41
898.19	1077.30
898.49	1076.01
898.80	1074.07
899.11	1072.88
899.41	1072.97
899.72	1073.70
900.03	1074.59
900.34	1077.33
900.64	1078.33
900.95	1082.38
901.26	1081.63
901.56	1080.88
901.87	1081.40
902.18	1081.56
902.48	1076.88
902.79	1074.47
903.10	1075.43
903.40	1075.03
903.71	1070.19
904.02	1071.01
904.32	1071.97
904.63	1071.19
904.94	1070.63
905.24	1077.82
905.55	1079.41
905.85	1079.31
906.16	1080.86
906.47	1082.61
906.77	1080.81
907.08	1080.20
907.38	1080.04
907.69	1080.58
908.00	1078.99
908.30	1074.52
908.61	1077.11
908.91	1076.18
909.22	1075.17
909.52	1074.75
909.83	1077.68
910.14	1075.85
910.44	1077.18
910.75	1075.73
911.05	1077.07
911.36	1075.17
911.66	1073.44
911.97	1074.05
912.27	1075.69
912.58	1076.37
912.88	1078.33
913.19	1079.36
913.49	1077.51
913.80	1075.03
914.10	1073.95
914.41	1076.41
914.71	1076.20
915.01	1077.42
915.32	1078.50
915.62	1079.43
915.93	1077.23
916.23	1079.43
916.54	1080.46
916.84	1078.71
917.15	1079.27
917.45	1079.41
917.75	1078.82
918.06	1080.04
918.36	1082.29
918.67	1082.69
918.97	1080.04
919.27	1076.93
919.58	1076.88
919.88	1077.23
920.18	1073.28
920.49	1073.00
920.79	1074.05
921.10	1072.06
921.40	1073.79
921.70	1078.47
922.01	1081.47
922.31	1085.87
922.61	1087.44
922.92	1083.41
923.22	1081.23
923.52	1080.11
923.82	1076.53
924.13	1075.20
924.43	1076.44
924.73	1076.37
925.04	1078.19
925.34	1076.04
925.64	1075.59
925.94	1077.54
926.25	1076.55
926.55	1073.72
926.85	1075.36
927.15	1077.47
927.46	1077.21
927.76	1078.50
928.06	1080.91
928.36	1082.33
928.67	1082.83
928.97	1083.83
929.27	1081.40
929.57	1080.30
929.87	1077.77
930.18	1074.38
930.48	1071.68
930.78	1075.71
931.08	1074.94
931.38	1077.79
931.69	1077.18
931.99	1076.69
932.29	1072.11
932.59	1070.68
932.89	1069.46
933.19	1071.57
933.49	1073.56
933.80	1074.73
934.10	1076.25
934.40	1076.15
934.70	1077.65
935.00	1073.86
935.30	1072.83
935.60	1072.78
935.90	1072.13
936.20	1069.93
936.50	1073.37
936.81	1071.92
937.11	1072.97
937.41	1073.46
937.71	1074.33
938.01	1073.88
938.31	1077.77
938.61	1077.09
938.91	1077.40
939.21	1076.41
939.51	1075.90
939.81	1072.48
940.11	1074.54
940.41	1074.59
940.71	1073.49
941.01	1075.05
941.31	1079.29
941.61	1077.42
941.91	1077.51
942.21	1081.94
942.51	1081.82
942.81	1079.90
943.11	1077.49
943.41	1076.53
943.71	1075.08
944.01	1073.37
944.31	1072.88
944.61	1073.09
944.90	1072.08
945.20	1070.42
945.50	1069.62
945.80	1070.68
946.10	1070.82
946.40	1074.61
946.70	1073.67
947.00	1075.57
947.30	1075.10
947.60	1073.79
947.89	1071.99
948.19	1074.91
948.49	1075.22
948.79	1075.48
949.09	1078.64
949.39	1081.56
949.69	1079.38
949.98	1080.53
950.28	1081.47
950.58	1081.80
950.88	1079.29
951.18	1078.82
951.48	1075.66
951.77	1073.46
952.07	1075.27
952.37	1073.63
952.67	1074.42
952.97	1077.33
953.26	1077.75
953.56	1075.38
953.86	1075.20
954.16	1077.49
954.45	1074.84
954.75	1075.59
955.05	1074.03
955.35	1077.54
955.64	1077.70
955.94	1078.24
956.24	1076.20
956.54	1076.90
956.83	1077.23
957.13	1073.56
957.43	1074.21
957.72	1075.76
958.02	1080.79
958.32	1080.56
958.61	1080.98
958.91	1078.66
959.21	1080.72
959.50	1078.87
959.80	1075.83
960.10	1077.30
960.39	1079.60
960.69	1080.98
960.99	1078.12
961.28	1080.06
961.58	1081.16
961.87	1082.45
962.17	1079.08
962.47	1080.93
962.76	1078.96
963.06	1077.35
963.36	1074.66
963.65	1077.51
963.95	1073.91
964.24	1074.19
964.54	1075.80
964.83	1076.39
965.13	1074.54
965.42	1075.13
965.72	1076.97
966.02	1071.73
966.31	1071.82
966.61	1073.00
966.90	1076.04
967.20	1078.05
967.49	1079.46
967.79	1081.30
968.08	1078.26
968.38	1078.05
968.67	1074.52
968.97	1075.50
969.26	1077.16
969.56	1077.30
969.85	1074.59
970.15	1073.95
970.44	1074.94
970.74	1071.40
971.03	1072.36
971.32	1075.03
971.62	1075.50
971.91	1074.54
972.21	1075.43
972.50	1077.68
972.80	1077.79
973.09	1075.50
973.38	1078.31
973.68	1077.37
973.97	1076.83
974.27	1073.74
974.56	1077.40
974.85	1076.13
975.15	1078.14
975.44	1076.15
975.73	1078.03
976.03	1078.61
976.32	1082.15
976.61	1083.11
976.91	1084.39
977.20	1087.04
977.49	1084.74
977.79	1079.29
978.08	1080.79
978.37	1083.11
978.67	1080.41
978.96	1080.67
979.25	1081.56
979.55	1079.50
979.84	1076.30
980.13	1077.44
980.42	1074.66
980.72	1078.94
981.01	1080.20
981.30	1079.46
981.59	1079.99
981.89	1085.38
982.18	1081.58
982.47	1078.57
982.76	1078.99
983.06	1077.21
983.35	1073.37
983.64	1075.17
983.93	1079.92
984.22	1082.08
984.52	1079.41
984.81	1078.00
985.10	1076.34
985.39	1075.29
985.68	1075.59
985.97	1076.06
986.27	1079.29
986.56	1082.50
986.85	1077.70
987.14	1073.37
987.43	1075.17
987.72	1073.18
988.01	1067.64
988.31	1068.99
988.60	1073.93
988.89	1077.16
989.18	1077.07
989.47	1077.35
989.76	1075.52
990.05	1074.75
990.34	1070.77
990.63	1072.53
990.92	1077.04
991.21	1078.43
991.51	1074.42
991.80	1074.52
992.09	1075.52
992.38	1072.95
992.67	1072.25
992.96	1074.84
993.25	1074.94
993.54	1075.85
993.83	1076.23
994.12	1076.20
994.41	1076.86
994.70	1078.66
994.99	1077.86
995.28	1076.44
995.57	1077.75
995.86	1076.90
996.15	1076.08
996.44	1075.85
996.73	1076.62
997.02	1076.20
997.31	1076.04
997.59	1075.01
997.88	1070.56
998.17	1071.29
998.46	1071.99
998.75	1071.12
999.04	1073.77
999.33	1079.36
999.62	1074.84
999.91	1078.28
1000.20	1077.56
1000.49	1074.87
1000.77	1072.60
1001.06	1078.45
1001.35	1075.48
1001.64	1078.85
1001.93	1080.02
1002.22	1084.16
1002.51	1082.05
1002.79	1081.26
1003.08	1082.43
1003.37	1080.79
1003.66	1077.18
1003.95	1076.93
1004.23	1073.79
1004.52	1068.59
1004.81	1072.97
1005.10	1072.55
1005.39	1073.91
1005.67	1077.49
1005.96	1081.56
1006.25	1079.08
1006.54	1082.47
1006.83	1081.07
1007.11	1080.18
1007.40	1077.58
1007.69	1077.28
1007.97	1073.07
1008.26	1072.15
1008.55	1072.43
1008.84	1074.40
1009.12	1075.92
1009.41	1076.48
1009.70	1080.20
1009.98	1081.87
1010.27	1084.02
1010.56	1083.46
1010.85	1082.08
1011.13	1080.41
1011.42	1080.53
1011.71	1074.98
1011.99	1074.40
1012.28	1075.80
1012.56	1073.86
1012.85	1073.28
1013.14	1075.76
1013.42	1075.73
1013.71	1078.87
1014.00	1077.30
1014.28	1077.54
1014.57	1075.48
1014.85	1078.17
1015.14	1076.08
1015.43	1078.59
1015.71	1075.71
1016.00	1076.88
1016.28	1072.74
1016.57	1070.77
1016.85	1071.73
1017.14	1072.36
1017.43	1073.25
1017.71	1073.77
1018.00	1076.34
1018.28	1075.08
1018.57	1078.00
1018.85	1076.95
1019.14	1076.37
1019.42	1075.92
1019.71	1076.97
1019.99	1073.53
1020.28	1074.07
1020.56	1072.85
1020.85	1072.20
1021.13	1073.98
1021.42	1076.32
1021.70	1077.23
1021.99	1081.42
1022.27	1081.21
1022.55	1082.50
1022.84	1074.77
>>>>>End Processed Spectral Data<<<<<
