SpectraSuite Data File
++++++++++++++++++++++++++++++++++++
Date: Mon Aug 26 10:21:51 PDT 2019
User: corrico
Dark Spectrum Present: No
Reference Spectrum Present: No
Number of Sampled Component Spectra: 1
Spectrometers: USB2+H06089
Integration Time (usec): 2000 (USB2+H06089)
Spectra Averaged: 20 (USB2+H06089)
Boxcar Smoothing: 2 (USB2+H06089)
Correct for Electrical Dark: No (USB2+H06089)
Strobe/Lamp Enabled: No (USB2+H06089)
Correct for Detector Non-linearity: No (USB2+H06089)
Correct for Stray Light: No (USB2+H06089)
Number of Pixels in Processed Spectrum: 2048
>>>>>Begin Processed Spectral Data<<<<<
339.70	1021.88
340.07	1021.88
340.45	992.06
340.82	971.02
341.19	950.33
341.57	929.33
341.94	918.38
342.31	909.39
342.69	904.29
343.06	896.43
343.43	892.12
343.81	893.92
344.18	894.46
344.55	898.77
344.93	905.44
345.30	909.65
345.67	915.52
346.04	925.31
346.42	931.11
346.79	937.55
347.16	950.47
347.54	957.77
347.91	964.91
348.28	972.33
348.65	984.10
349.03	992.64
349.40	1000.86
349.77	1007.69
350.14	1019.56
350.52	1029.51
350.89	1034.77
351.26	1042.52
351.63	1052.28
352.01	1054.18
352.38	1054.46
352.75	1059.28
353.12	1061.88
353.50	1061.20
353.87	1066.86
354.24	1071.57
354.61	1072.71
354.98	1074.63
355.36	1078.66
355.73	1078.94
356.10	1078.31
356.47	1077.18
356.84	1077.42
357.22	1076.74
357.59	1076.23
357.96	1076.20
358.33	1077.44
358.70	1078.99
359.08	1079.27
359.45	1080.20
359.82	1081.23
360.19	1080.74
360.56	1078.52
360.94	1074.40
361.31	1071.38
361.68	1072.15
362.05	1072.74
362.42	1069.95
362.79	1071.71
363.16	1073.09
363.54	1071.43
363.91	1071.08
364.28	1071.82
364.65	1074.56
365.02	1072.83
365.39	1069.86
365.76	1066.30
366.14	1068.27
366.51	1066.72
366.88	1066.30
367.25	1068.13
367.62	1071.64
367.99	1069.46
368.36	1069.30
368.73	1070.28
369.10	1069.88
369.48	1067.45
369.85	1068.08
370.22	1067.87
370.59	1071.75
370.96	1073.67
371.33	1074.54
371.70	1075.20
372.07	1072.95
372.44	1069.41
372.81	1067.68
373.18	1068.31
373.55	1067.57
373.93	1067.38
374.30	1066.63
374.67	1065.60
375.04	1063.16
375.41	1062.86
375.78	1063.82
376.15	1066.96
376.52	1067.00
376.89	1071.52
377.26	1073.14
377.63	1075.05
378.00	1070.33
378.37	1071.99
378.74	1069.95
379.11	1071.57
379.48	1071.71
379.85	1073.93
380.22	1075.08
380.59	1072.81
380.96	1071.10
381.33	1073.63
381.70	1074.94
382.07	1076.65
382.44	1078.05
382.81	1076.79
383.18	1074.63
383.55	1073.86
383.92	1073.51
384.29	1073.67
384.66	1074.26
385.03	1075.38
385.40	1077.68
385.77	1073.93
386.14	1075.24
386.51	1076.76
386.88	1073.25
387.25	1072.90
387.62	1075.08
387.99	1074.21
388.36	1073.30
388.73	1073.72
389.10	1071.36
389.46	1068.57
389.83	1066.93
390.20	1067.21
390.57	1067.61
390.94	1070.07
391.31	1071.73
391.68	1074.73
392.05	1075.78
392.42	1075.41
392.79	1075.50
393.16	1073.74
393.53	1071.87
393.89	1069.67
394.26	1071.57
394.63	1071.68
395.00	1074.07
395.37	1072.60
395.74	1074.94
396.11	1073.88
396.48	1073.65
396.84	1072.13
397.21	1073.04
397.58	1070.58
397.95	1072.27
398.32	1073.84
398.69	1075.97
399.06	1079.03
399.42	1079.01
399.79	1077.02
400.16	1076.23
400.53	1077.09
400.90	1074.68
401.27	1077.70
401.64	1078.36
402.00	1079.81
402.37	1078.28
402.74	1077.44
403.11	1077.04
403.48	1079.81
403.84	1076.18
404.21	1075.15
404.58	1076.11
404.95	1075.01
405.32	1070.82
405.68	1072.78
406.05	1074.38
406.42	1074.05
406.79	1073.25
407.16	1074.14
407.52	1071.68
407.89	1072.76
408.26	1075.01
408.63	1077.42
408.99	1079.83
409.36	1078.87
409.73	1080.13
410.10	1079.36
410.47	1079.67
410.83	1082.73
411.20	1085.59
411.57	1085.73
411.94	1089.38
412.30	1086.43
412.67	1085.68
413.04	1084.60
413.40	1080.88
413.77	1077.37
414.14	1081.51
414.51	1079.10
414.87	1079.76
415.24	1080.41
415.61	1081.82
415.97	1082.85
416.34	1086.36
416.71	1089.05
417.08	1089.92
417.44	1089.96
417.81	1087.20
418.18	1083.83
418.54	1086.55
418.91	1088.96
419.28	1089.31
419.64	1089.50
420.01	1090.22
420.38	1086.13
420.74	1086.20
421.11	1087.90
421.48	1088.12
421.84	1085.61
422.21	1088.91
422.58	1089.59
422.94	1088.68
423.31	1092.89
423.68	1098.20
424.04	1097.29
424.41	1099.40
424.77	1099.51
425.14	1098.93
425.51	1102.93
425.87	1105.58
426.24	1107.71
426.61	1109.58
426.97	1112.67
427.34	1108.99
427.70	1109.91
428.07	1109.74
428.44	1114.33
428.80	1116.81
429.17	1121.09
429.53	1123.25
429.90	1129.24
430.27	1130.13
430.63	1133.40
431.00	1137.31
431.36	1144.50
431.73	1146.00
432.09	1151.87
432.46	1156.01
432.83	1162.97
433.19	1167.93
433.56	1173.03
433.92	1178.72
434.29	1183.73
434.65	1187.78
435.02	1192.99
435.38	1203.85
435.75	1214.71
436.11	1224.52
436.48	1239.64
436.84	1252.28
437.21	1263.35
437.57	1274.87
437.94	1290.92
438.30	1302.27
438.67	1318.17
439.03	1334.11
439.40	1352.83
439.76	1370.41
440.13	1393.16
440.49	1417.29
440.86	1440.46
441.22	1466.60
441.59	1490.43
441.95	1518.47
442.32	1546.18
442.68	1576.80
443.05	1609.59
443.41	1646.43
443.78	1679.71
444.14	1714.70
444.51	1753.48
444.87	1796.50
445.24	1840.92
445.60	1888.16
445.96	1936.49
446.33	1991.28
446.69	2044.22
447.06	2103.35
447.42	2170.33
447.79	2237.08
448.15	2309.92
448.51	2379.79
448.88	2465.89
449.24	2543.37
449.61	2642.44
449.97	2736.93
450.33	2843.45
450.70	2932.32
451.06	3043.49
451.43	3148.11
451.79	3278.97
452.15	3402.60
452.52	3542.07
452.88	3683.07
453.24	3826.33
453.61	3984.97
453.97	4168.73
454.34	4340.71
454.70	4540.05
455.06	4742.56
455.43	4935.44
455.79	5105.93
456.15	5324.16
456.52	5538.67
456.88	5788.36
457.24	6028.75
457.61	6322.37
457.97	6594.08
458.33	6880.80
458.70	7163.42
459.06	7444.28
459.42	7759.93
459.79	8046.11
460.15	8347.47
460.51	8620.05
460.88	8900.52
461.24	9115.54
461.60	9376.77
461.96	9606.47
462.33	9854.78
462.69	10105.08
463.05	10405.09
463.42	10707.97
463.78	10998.55
464.14	11282.72
464.50	11572.31
464.87	11782.02
465.23	11923.44
465.59	12107.24
465.95	12274.94
466.32	12420.85
466.68	12549.39
467.04	12647.97
467.40	12664.73
467.77	12662.46
468.13	12631.36
468.49	12621.78
468.85	12602.94
469.22	12622.23
469.58	12608.04
469.94	12550.00
470.30	12411.77
470.66	12298.70
471.03	12090.08
471.39	11932.78
471.75	11754.43
472.11	11600.00
472.47	11457.58
472.84	11348.20
473.20	11172.50
473.56	11058.70
473.92	10892.64
474.28	10728.83
474.65	10571.64
475.01	10448.43
475.37	10279.80
475.73	10170.84
476.09	10025.45
476.45	9846.42
476.81	9668.57
477.18	9494.50
477.54	9331.93
477.90	9198.21
478.26	9072.13
478.62	8928.21
478.98	8816.99
479.34	8721.59
479.71	8601.54
480.07	8514.17
480.43	8411.32
480.79	8299.91
481.15	8186.73
481.51	8095.14
481.87	8012.82
482.23	7937.58
482.59	7859.50
482.96	7760.07
483.32	7657.55
483.68	7507.64
484.04	7364.24
484.40	7212.34
484.76	7078.67
485.12	6937.14
485.48	6802.32
485.84	6678.91
486.20	6559.61
486.56	6428.19
486.92	6308.28
487.28	6212.51
487.64	6092.79
488.00	5988.42
488.37	5886.42
488.73	5776.65
489.09	5649.28
489.45	5532.07
489.81	5395.38
490.17	5268.59
490.53	5144.01
490.89	5021.01
491.25	4901.92
491.61	4797.49
491.97	4688.91
492.33	4576.85
492.69	4478.94
493.05	4387.92
493.41	4294.65
493.77	4202.39
494.13	4108.32
494.49	4011.54
494.85	3923.84
495.21	3833.94
495.57	3747.20
495.93	3676.42
496.29	3595.48
496.64	3519.98
497.00	3443.49
497.36	3362.27
497.72	3282.27
498.08	3229.94
498.44	3169.11
498.80	3116.99
499.16	3067.48
499.52	3014.05
499.88	2956.14
500.24	2901.54
500.60	2838.88
500.96	2785.38
501.32	2738.99
501.68	2690.12
502.03	2637.60
502.39	2592.14
502.75	2542.95
503.11	2493.40
503.47	2451.52
503.83	2410.56
504.19	2372.74
504.55	2335.76
504.91	2299.74
505.26	2254.90
505.62	2217.14
505.98	2178.66
506.34	2141.43
506.70	2112.45
507.06	2081.18
507.42	2050.85
507.78	2020.30
508.13	1990.41
508.49	1954.21
508.85	1925.44
509.21	1896.61
509.57	1870.37
509.93	1844.58
510.28	1820.66
510.64	1794.35
511.00	1765.98
511.36	1742.41
511.72	1717.25
512.07	1692.53
512.43	1675.87
512.79	1654.76
513.15	1633.74
513.51	1617.85
513.86	1602.64
514.22	1582.55
514.58	1570.48
514.94	1557.16
515.30	1545.85
515.65	1531.06
516.01	1521.00
516.37	1508.41
516.73	1495.30
517.08	1479.64
517.44	1465.71
517.80	1452.12
518.16	1442.40
518.51	1431.89
518.87	1419.53
519.23	1409.47
519.59	1397.72
519.94	1381.03
520.30	1371.79
520.66	1364.70
521.01	1361.58
521.37	1353.74
521.73	1349.44
522.09	1338.46
522.44	1329.75
522.80	1319.85
523.16	1313.93
523.51	1306.28
523.87	1302.04
524.23	1299.28
524.58	1292.44
524.94	1285.38
525.30	1276.27
525.65	1270.98
526.01	1263.35
526.37	1257.17
526.72	1252.75
527.08	1246.83
527.44	1240.79
527.79	1234.52
528.15	1227.66
528.51	1221.95
528.86	1219.89
529.22	1215.21
529.58	1210.76
529.93	1206.57
530.29	1202.10
530.65	1197.75
531.00	1195.90
531.36	1192.18
531.71	1189.34
532.07	1187.49
532.43	1186.96
532.78	1178.93
533.14	1175.56
533.49	1174.81
533.85	1168.54
534.21	1161.75
534.56	1164.70
534.92	1164.70
535.27	1159.17
535.63	1159.60
535.98	1159.57
536.34	1151.64
536.69	1152.04
537.05	1153.37
537.41	1151.57
537.76	1149.95
538.12	1149.60
538.47	1143.70
538.83	1141.06
539.18	1135.60
539.54	1132.61
539.89	1133.08
540.25	1129.85
540.60	1125.59
540.96	1125.63
541.31	1126.57
541.67	1121.56
542.02	1120.63
542.38	1120.02
542.73	1120.65
543.09	1113.98
543.44	1113.37
543.80	1113.95
544.15	1111.73
544.51	1108.10
544.86	1111.17
545.22	1113.86
545.57	1112.85
545.93	1116.86
546.28	1118.12
546.64	1115.71
546.99	1111.59
547.35	1112.55
547.70	1110.49
548.05	1108.57
548.41	1107.96
548.76	1111.01
549.12	1106.58
549.47	1104.52
549.83	1104.64
550.18	1103.70
550.53	1098.37
550.89	1100.24
551.24	1099.26
551.60	1099.21
551.95	1099.98
552.30	1102.28
552.66	1102.16
553.01	1102.51
553.37	1100.00
553.72	1102.11
554.07	1100.33
554.43	1097.13
554.78	1097.17
555.13	1097.66
555.49	1093.80
555.84	1094.46
556.19	1097.66
556.55	1095.89
556.90	1096.28
557.26	1096.35
557.61	1095.70
557.96	1093.26
558.32	1093.78
558.67	1094.79
559.02	1094.65
559.37	1093.33
559.73	1091.84
560.08	1089.33
560.43	1085.99
560.79	1084.04
561.14	1084.58
561.49	1083.71
561.85	1087.16
562.20	1085.03
562.55	1085.38
562.90	1084.25
563.26	1084.07
563.61	1081.56
563.96	1081.94
564.32	1083.25
564.67	1085.40
565.02	1087.46
565.37	1089.38
565.73	1093.12
566.08	1093.08
566.43	1090.43
566.78	1088.44
567.14	1086.01
567.49	1085.33
567.84	1084.25
568.19	1085.75
568.54	1085.31
568.90	1084.37
569.25	1081.09
569.60	1080.13
569.95	1077.28
570.31	1078.12
570.66	1076.81
571.01	1078.82
571.36	1080.95
571.71	1083.18
572.06	1081.68
572.42	1082.29
572.77	1085.00
573.12	1083.22
573.47	1085.68
573.82	1088.33
574.18	1091.77
574.53	1087.72
574.88	1085.38
575.23	1084.25
575.58	1082.36
575.93	1076.76
576.28	1075.20
576.64	1076.20
576.99	1076.69
577.34	1079.76
577.69	1081.77
578.04	1082.50
578.39	1084.93
578.74	1084.81
579.09	1083.50
579.44	1082.50
579.80	1084.35
580.15	1081.42
580.50	1080.09
580.85	1079.74
581.20	1080.18
581.55	1080.53
581.90	1084.56
582.25	1079.97
582.60	1079.34
582.95	1078.59
583.30	1078.17
583.65	1076.62
584.00	1081.26
584.35	1079.48
584.71	1081.56
585.06	1083.97
585.41	1081.70
585.76	1080.91
586.11	1084.04
586.46	1086.71
586.81	1084.23
587.16	1083.50
587.51	1085.14
587.86	1080.18
588.21	1078.52
588.56	1078.43
588.91	1076.72
589.26	1076.34
589.61	1078.26
589.96	1075.52
590.31	1074.00
590.66	1077.61
591.01	1074.14
591.36	1073.35
591.71	1074.91
592.06	1076.67
592.41	1077.56
592.76	1077.30
593.10	1077.21
593.45	1075.71
593.80	1073.98
594.15	1073.98
594.50	1077.58
594.85	1078.52
595.20	1077.70
595.55	1075.22
595.90	1073.53
596.25	1073.70
596.60	1074.05
596.95	1075.41
597.30	1077.09
597.64	1089.36
597.99	1085.84
598.34	1085.45
598.69	1088.91
599.04	1091.06
599.39	1078.87
599.74	1076.44
600.09	1074.54
600.44	1071.61
600.78	1070.37
601.13	1071.59
601.48	1072.83
601.83	1073.02
602.18	1072.85
602.53	1074.73
602.88	1078.64
603.22	1082.40
603.57	1086.01
603.92	1083.86
604.27	1082.05
604.62	1076.62
604.97	1078.36
605.31	1076.86
605.66	1079.46
606.01	1077.86
606.36	1081.56
606.71	1080.06
607.05	1079.03
607.40	1077.70
607.75	1079.71
608.10	1076.30
608.44	1076.37
608.79	1078.68
609.14	1081.35
609.49	1081.30
609.84	1080.56
610.18	1080.46
610.53	1081.44
610.88	1080.77
611.23	1081.47
611.57	1081.96
611.92	1081.82
612.27	1082.40
612.62	1081.02
612.96	1078.50
613.31	1078.99
613.66	1076.37
614.00	1073.00
614.35	1073.42
614.70	1076.72
615.05	1080.51
615.39	1083.08
615.74	1086.76
616.09	1085.77
616.43	1086.22
616.78	1087.93
617.13	1086.52
617.47	1082.03
617.82	1083.46
618.17	1081.77
618.51	1078.45
618.86	1079.27
619.21	1079.17
619.55	1077.96
619.90	1079.36
620.25	1079.36
620.59	1080.37
620.94	1082.83
621.29	1082.52
621.63	1081.37
621.98	1081.16
622.32	1077.09
622.67	1075.99
623.02	1075.41
623.36	1073.00
623.71	1072.88
624.05	1076.46
624.40	1077.93
624.75	1082.12
625.09	1084.42
625.44	1083.43
625.78	1081.80
626.13	1081.33
626.48	1078.19
626.82	1078.10
627.17	1080.13
627.51	1078.21
627.86	1074.31
628.20	1073.91
628.55	1074.54
628.89	1070.30
629.24	1073.88
629.58	1077.33
629.93	1077.04
630.28	1076.48
630.62	1079.17
630.97	1077.72
631.31	1075.45
631.66	1075.80
632.00	1075.08
632.35	1074.84
632.69	1075.43
633.04	1076.62
633.38	1076.51
633.73	1075.10
634.07	1073.60
634.42	1073.42
634.76	1073.65
635.11	1074.33
635.45	1074.40
635.79	1076.53
636.14	1076.27
636.48	1076.51
636.83	1077.82
637.17	1078.50
637.52	1076.44
637.86	1075.85
638.21	1074.45
638.55	1073.42
638.89	1072.69
639.24	1073.16
639.58	1074.49
639.93	1074.40
640.27	1073.79
640.61	1075.01
640.96	1077.25
641.30	1077.54
641.65	1078.85
641.99	1081.12
642.33	1082.73
642.68	1082.40
643.02	1081.23
643.37	1085.42
643.71	1083.97
644.05	1080.95
644.40	1082.45
644.74	1082.47
645.08	1080.53
645.43	1077.82
645.77	1080.88
646.11	1077.04
646.46	1074.56
646.80	1075.13
647.14	1076.04
647.49	1075.69
647.83	1076.13
648.17	1076.53
648.52	1074.84
648.86	1076.60
649.20	1075.50
649.55	1074.87
649.89	1077.75
650.23	1075.64
650.57	1076.95
650.92	1078.40
651.26	1081.12
651.60	1081.84
651.95	1081.35
652.29	1079.46
652.63	1079.34
652.97	1077.51
653.32	1073.95
653.66	1075.99
654.00	1074.61
654.34	1076.48
654.69	1076.37
655.03	1076.34
655.37	1077.18
655.71	1079.46
656.05	1073.72
656.40	1074.31
656.74	1074.73
657.08	1073.39
657.42	1071.29
657.76	1073.02
658.11	1070.21
658.45	1069.93
658.79	1068.34
659.13	1068.90
659.47	1070.26
659.82	1073.49
660.16	1074.03
660.50	1077.09
660.84	1078.66
661.18	1078.73
661.52	1075.83
661.87	1076.46
662.21	1074.26
662.55	1073.74
662.89	1073.28
663.23	1074.73
663.57	1076.08
663.91	1076.65
664.25	1077.49
664.60	1078.43
664.94	1076.86
665.28	1077.56
665.62	1075.87
665.96	1075.15
666.30	1075.41
666.64	1075.15
666.98	1073.49
667.32	1074.28
667.66	1075.29
668.01	1074.12
668.35	1078.61
668.69	1077.91
669.03	1078.87
669.37	1078.19
669.71	1078.66
670.05	1077.54
670.39	1080.84
670.73	1081.07
671.07	1080.65
671.41	1076.48
671.75	1073.98
672.09	1068.99
672.43	1069.95
672.77	1070.07
673.11	1074.54
673.45	1076.11
673.79	1080.79
674.13	1079.83
674.47	1077.96
674.81	1077.79
675.15	1079.69
675.49	1078.28
675.83	1077.68
676.17	1079.31
676.51	1079.50
676.85	1076.67
677.19	1076.86
677.53	1078.05
677.87	1078.43
678.21	1078.61
678.55	1080.11
678.89	1080.34
679.23	1080.72
679.57	1078.99
679.90	1076.32
680.24	1075.10
680.58	1074.87
680.92	1075.94
681.26	1076.55
681.60	1082.01
681.94	1083.93
682.28	1085.56
682.62	1082.80
682.96	1080.81
683.29	1079.57
683.63	1078.28
683.97	1074.68
684.31	1075.31
684.65	1079.36
684.99	1077.65
685.33	1074.52
685.67	1075.87
686.00	1074.98
686.34	1071.66
686.68	1068.50
687.02	1072.81
687.36	1072.39
687.70	1073.91
688.03	1075.13
688.37	1079.29
688.71	1081.44
689.05	1082.47
689.39	1080.04
689.72	1076.04
690.06	1073.70
690.40	1071.92
690.74	1072.22
691.08	1071.64
691.41	1074.38
691.75	1075.62
692.09	1072.92
692.43	1073.86
692.76	1076.93
693.10	1078.99
693.44	1074.89
693.78	1075.71
694.11	1075.17
694.45	1073.07
694.79	1073.74
695.13	1076.88
695.46	1075.05
695.80	1071.24
696.14	1071.26
696.48	1070.82
696.81	1070.58
697.15	1073.77
697.49	1079.78
697.82	1082.73
698.16	1083.76
698.50	1085.49
698.83	1084.81
699.17	1079.27
699.51	1077.51
699.84	1076.37
700.18	1074.45
700.52	1073.72
700.85	1073.70
701.19	1074.24
701.53	1074.35
701.86	1072.83
702.20	1072.83
702.54	1075.10
702.87	1073.37
703.21	1071.64
703.55	1075.03
703.88	1074.89
704.22	1074.94
704.55	1077.33
704.89	1080.60
705.23	1078.21
705.56	1078.00
705.90	1078.47
706.23	1075.90
706.57	1075.03
706.91	1076.39
707.24	1077.14
707.58	1074.89
707.91	1074.33
708.25	1072.92
708.58	1070.44
708.92	1068.36
709.26	1068.78
709.59	1072.74
709.93	1073.25
710.26	1078.31
710.60	1077.82
710.93	1078.92
711.27	1077.86
711.60	1078.17
711.94	1075.34
712.27	1077.00
712.61	1078.12
712.94	1076.08
713.28	1077.28
713.61	1077.21
713.95	1079.62
714.28	1078.31
714.62	1081.87
714.95	1080.16
715.29	1079.43
715.62	1079.48
715.96	1081.56
716.29	1081.84
716.63	1082.24
716.96	1081.96
717.29	1080.65
717.63	1076.46
717.96	1074.61
718.30	1073.16
718.63	1071.33
718.97	1068.67
719.30	1069.86
719.63	1071.31
719.97	1072.50
720.30	1075.34
720.64	1078.47
720.97	1080.67
721.30	1080.02
721.64	1080.98
721.97	1079.95
722.31	1076.32
722.64	1072.95
722.97	1071.82
723.31	1071.36
723.64	1073.39
723.97	1075.99
724.31	1075.78
724.64	1076.51
724.98	1074.87
725.31	1076.72
725.64	1078.31
725.98	1080.91
726.31	1079.36
726.64	1081.61
726.97	1080.27
727.31	1079.01
727.64	1080.25
727.97	1080.44
728.31	1077.30
728.64	1074.33
728.97	1070.09
729.31	1067.89
729.64	1065.27
729.97	1068.88
730.30	1069.13
730.64	1071.97
730.97	1073.74
731.30	1078.17
731.63	1076.55
731.97	1074.05
732.30	1075.87
732.63	1073.23
732.96	1069.93
733.30	1068.43
733.63	1073.39
733.96	1073.53
734.29	1076.95
734.63	1077.89
734.96	1076.95
735.29	1077.58
735.62	1075.48
735.95	1075.45
736.29	1078.31
736.62	1078.54
736.95	1072.08
737.28	1073.46
737.61	1073.51
737.94	1074.66
738.28	1078.12
738.61	1080.23
738.94	1078.12
739.27	1080.18
739.60	1075.94
739.93	1076.51
740.27	1078.24
740.60	1075.66
740.93	1069.95
741.26	1070.21
741.59	1067.26
741.92	1068.55
742.25	1071.24
742.58	1073.91
742.91	1072.43
743.25	1073.16
743.58	1073.86
743.91	1076.27
744.24	1075.01
744.57	1074.52
744.90	1073.95
745.23	1071.94
745.56	1070.00
745.89	1070.33
746.22	1073.02
746.55	1074.17
746.88	1072.18
747.21	1072.43
747.54	1075.62
747.87	1075.08
748.20	1076.15
748.53	1079.15
748.87	1081.23
749.20	1076.62
749.53	1075.10
749.86	1074.14
750.19	1071.90
750.52	1073.09
750.85	1074.19
751.18	1074.89
751.51	1074.70
751.84	1077.44
752.16	1072.48
752.49	1073.18
752.82	1075.57
753.15	1072.71
753.48	1075.36
753.81	1079.20
754.14	1078.85
754.47	1080.46
754.80	1085.49
755.13	1083.60
755.46	1081.40
755.79	1079.29
756.12	1075.62
756.45	1073.42
756.78	1073.30
757.11	1074.54
757.43	1077.61
757.76	1078.61
758.09	1079.92
758.42	1078.50
758.75	1080.30
759.08	1079.81
759.41	1079.17
759.74	1077.16
760.07	1079.48
760.39	1079.01
760.72	1079.41
761.05	1079.17
761.38	1081.02
761.71	1079.01
762.04	1078.57
762.36	1077.09
762.69	1075.57
763.02	1075.90
763.35	1076.79
763.68	1076.65
764.01	1078.85
764.33	1082.59
764.66	1081.56
764.99	1081.82
765.32	1081.44
765.65	1080.67
765.97	1082.19
766.30	1081.40
766.63	1080.23
766.96	1078.87
767.28	1079.17
767.61	1075.45
767.94	1077.65
768.27	1074.59
768.59	1076.39
768.92	1079.71
769.25	1080.98
769.58	1078.24
769.90	1083.18
770.23	1084.25
770.56	1080.09
770.89	1079.67
771.21	1080.72
771.54	1076.48
771.87	1076.18
772.19	1075.48
772.52	1073.72
772.85	1072.25
773.17	1074.35
773.50	1071.52
773.83	1071.36
774.15	1072.04
774.48	1072.55
774.81	1072.48
775.13	1072.41
775.46	1073.32
775.79	1073.49
776.11	1074.00
776.44	1073.39
776.77	1071.54
777.09	1071.94
777.42	1074.19
777.74	1073.23
778.07	1075.31
778.40	1077.18
778.72	1077.18
779.05	1076.55
779.37	1078.28
779.70	1073.98
780.03	1074.89
780.35	1072.08
780.68	1069.62
781.00	1068.41
781.33	1069.88
781.65	1067.82
781.98	1067.24
782.31	1069.62
782.63	1070.49
782.96	1072.62
783.28	1076.53
783.61	1078.45
783.93	1077.58
784.26	1077.77
784.58	1077.49
784.91	1074.75
785.23	1074.40
785.56	1073.21
785.88	1075.05
786.21	1072.53
786.53	1073.49
786.86	1075.78
787.18	1076.67
787.51	1075.41
787.83	1074.94
788.16	1075.05
788.48	1071.92
788.81	1072.27
789.13	1071.80
789.46	1071.85
789.78	1071.82
790.10	1071.61
790.43	1071.71
790.75	1070.82
791.08	1073.23
791.40	1073.44
791.73	1075.36
792.05	1072.97
792.37	1074.35
792.70	1073.30
793.02	1073.42
793.35	1073.70
793.67	1076.69
793.99	1074.40
794.32	1074.10
794.64	1073.39
794.96	1074.73
795.29	1074.89
795.61	1075.34
795.93	1076.81
796.26	1075.13
796.58	1075.85
796.91	1077.09
797.23	1079.71
797.55	1079.60
797.87	1083.79
798.20	1083.22
798.52	1082.64
798.84	1077.23
799.17	1076.90
799.49	1074.89
799.81	1067.68
800.14	1066.39
800.46	1069.98
800.78	1069.09
801.10	1068.29
801.43	1076.37
801.75	1077.63
802.07	1076.65
802.40	1078.40
802.72	1077.68
803.04	1073.98
803.36	1072.08
803.69	1075.31
804.01	1075.85
804.33	1075.97
804.65	1075.45
804.97	1075.31
805.30	1075.45
805.62	1075.85
805.94	1077.37
806.26	1077.42
806.58	1077.02
806.91	1072.50
807.23	1069.62
807.55	1068.83
807.87	1070.28
808.19	1074.40
808.52	1076.18
808.84	1078.50
809.16	1076.62
809.48	1079.15
809.80	1072.74
810.12	1074.45
810.44	1076.18
810.77	1076.55
811.09	1074.59
811.41	1075.59
811.73	1073.65
812.05	1071.68
812.37	1073.60
812.69	1072.41
813.01	1076.69
813.33	1077.61
813.66	1079.22
813.98	1079.57
814.30	1081.87
814.62	1080.58
814.94	1080.77
815.26	1079.31
815.58	1080.86
815.90	1078.12
816.22	1076.93
816.54	1076.20
816.86	1076.04
817.18	1076.25
817.50	1077.72
817.82	1076.20
818.14	1078.12
818.46	1075.78
818.78	1074.05
819.10	1070.89
819.42	1069.93
819.74	1069.27
820.06	1071.54
820.38	1068.78
820.70	1071.01
821.02	1073.81
821.34	1072.71
821.66	1073.28
821.98	1078.36
822.30	1078.59
822.62	1078.14
822.94	1079.31
823.26	1078.59
823.58	1076.11
823.90	1076.51
824.22	1076.51
824.54	1074.82
824.86	1073.46
825.18	1072.50
825.50	1071.66
825.81	1072.06
826.13	1072.25
826.45	1072.78
826.77	1073.18
827.09	1073.18
827.41	1071.50
827.73	1069.30
828.05	1070.35
828.36	1069.27
828.68	1071.08
829.00	1076.44
829.32	1080.65
829.64	1079.10
829.96	1081.75
830.28	1080.23
830.59	1075.59
830.91	1075.62
831.23	1079.08
831.55	1080.20
831.87	1081.63
832.19	1080.58
832.50	1076.60
832.82	1072.71
833.14	1070.07
833.46	1070.16
833.78	1072.81
834.09	1073.65
834.41	1076.15
834.73	1078.38
835.05	1076.58
835.36	1075.45
835.68	1074.35
836.00	1073.21
836.32	1069.72
836.63	1071.97
836.95	1073.70
837.27	1080.58
837.59	1082.29
837.90	1085.87
838.22	1086.17
838.54	1084.25
838.85	1079.74
839.17	1076.37
839.49	1076.11
839.80	1074.35
840.12	1073.11
840.44	1074.59
840.76	1076.72
841.07	1074.77
841.39	1073.77
841.71	1077.28
842.02	1071.64
842.34	1069.46
842.65	1066.32
842.97	1065.83
843.29	1065.93
843.60	1071.10
843.92	1072.83
844.24	1077.42
844.55	1080.13
844.87	1078.82
845.18	1078.31
845.50	1076.53
845.82	1073.56
846.13	1071.15
846.45	1071.78
846.76	1074.68
847.08	1074.33
847.40	1078.92
847.71	1081.14
848.03	1079.88
848.34	1077.47
848.66	1077.89
848.97	1074.26
849.29	1073.53
849.60	1073.86
849.92	1071.97
850.24	1072.60
850.55	1072.69
850.87	1071.82
851.18	1073.00
851.50	1074.00
851.81	1075.43
852.13	1076.53
852.44	1076.65
852.76	1075.90
853.07	1076.37
853.39	1075.85
853.70	1073.44
854.01	1073.88
854.33	1071.87
854.64	1071.59
854.96	1069.86
855.27	1071.82
855.59	1071.10
855.90	1071.26
856.22	1070.02
856.53	1069.95
856.84	1069.79
857.16	1069.18
857.47	1072.76
857.79	1072.15
858.10	1073.09
858.41	1075.59
858.73	1078.45
859.04	1077.40
859.36	1077.96
859.67	1077.65
859.98	1074.24
860.30	1073.49
860.61	1071.71
860.92	1071.36
861.24	1074.66
861.55	1076.58
861.87	1075.94
862.18	1076.04
862.49	1075.27
862.81	1072.90
863.12	1072.69
863.43	1071.29
863.74	1073.88
864.06	1075.15
864.37	1074.12
864.68	1074.00
865.00	1076.83
865.31	1074.61
865.62	1075.20
865.94	1077.49
866.25	1075.99
866.56	1076.32
866.87	1074.47
867.19	1073.11
867.50	1073.53
867.81	1073.49
868.12	1071.12
868.44	1070.75
868.75	1073.63
869.06	1073.11
869.37	1073.58
869.68	1073.67
870.00	1075.15
870.31	1072.88
870.62	1074.19
870.93	1071.94
871.24	1073.56
871.56	1073.95
871.87	1072.76
872.18	1070.47
872.49	1071.78
872.80	1070.82
873.12	1071.43
873.43	1073.95
873.74	1075.15
874.05	1076.88
874.36	1075.24
874.67	1076.06
874.98	1074.31
875.29	1072.64
875.61	1074.12
875.92	1073.49
876.23	1073.23
876.54	1073.44
876.85	1072.81
877.16	1070.70
877.47	1072.34
877.78	1072.90
878.09	1074.66
878.40	1077.63
878.72	1077.54
879.03	1079.67
879.34	1077.96
879.65	1077.82
879.96	1074.45
880.27	1073.16
880.58	1073.39
880.89	1072.22
881.20	1072.15
881.51	1071.24
881.82	1075.29
882.13	1073.60
882.44	1074.14
882.75	1072.92
883.06	1076.18
883.37	1073.16
883.68	1073.32
883.99	1074.96
884.30	1074.91
884.61	1073.72
884.92	1074.19
885.23	1076.81
885.54	1078.36
885.85	1080.18
886.16	1080.46
886.47	1078.26
886.78	1075.22
887.08	1070.80
887.39	1069.70
887.70	1068.78
888.01	1074.12
888.32	1075.94
888.63	1077.02
888.94	1074.19
889.25	1075.64
889.56	1072.53
889.87	1073.51
890.17	1078.73
890.48	1081.70
890.79	1079.53
891.10	1082.47
891.41	1080.53
891.72	1078.03
892.03	1078.05
892.34	1080.79
892.64	1077.25
892.95	1077.00
893.26	1073.32
893.57	1074.26
893.88	1069.65
894.18	1069.81
894.49	1068.92
894.80	1073.09
895.11	1072.11
895.42	1073.18
895.72	1073.18
896.03	1073.37
896.34	1072.25
896.65	1073.39
896.96	1078.54
897.26	1080.74
897.57	1080.34
897.88	1078.12
898.19	1077.16
898.49	1072.76
898.80	1071.03
899.11	1071.31
899.41	1072.57
899.72	1070.82
900.03	1070.44
900.34	1071.87
900.64	1071.54
900.95	1073.77
901.26	1077.56
901.56	1080.56
901.87	1080.13
902.18	1082.94
902.48	1080.79
902.79	1081.23
903.10	1081.82
903.40	1079.06
903.71	1079.88
904.02	1082.69
904.32	1080.88
904.63	1078.68
904.94	1078.82
905.24	1073.65
905.55	1070.54
905.85	1071.71
906.16	1071.19
906.47	1076.27
906.77	1080.88
907.08	1081.94
907.38	1081.42
907.69	1083.18
908.00	1080.72
908.30	1079.34
908.61	1079.50
908.91	1081.98
909.22	1078.38
909.52	1074.45
909.83	1073.58
910.14	1074.12
910.44	1071.08
910.75	1073.86
911.05	1076.81
911.36	1077.75
911.66	1078.92
911.97	1077.75
912.27	1075.05
912.58	1075.90
912.88	1075.76
913.19	1072.64
913.49	1073.63
913.80	1075.31
914.10	1071.75
914.41	1069.74
914.71	1069.34
915.01	1072.06
915.32	1072.60
915.62	1076.20
915.93	1080.91
916.23	1080.39
916.54	1078.14
916.84	1076.53
917.15	1076.08
917.45	1074.07
917.75	1076.04
918.06	1074.59
918.36	1078.87
918.67	1076.48
918.97	1073.35
919.27	1077.30
919.58	1078.61
919.88	1075.71
920.18	1080.04
920.49	1082.73
920.79	1076.97
921.10	1072.74
921.40	1074.98
921.70	1073.63
922.01	1071.61
922.31	1071.57
922.61	1074.14
922.92	1074.82
923.22	1076.04
923.52	1072.53
923.82	1071.59
924.13	1074.94
924.43	1073.74
924.73	1072.71
925.04	1078.05
925.34	1081.96
925.64	1079.71
925.94	1080.16
926.25	1080.34
926.55	1078.73
926.85	1076.86
927.15	1075.71
927.46	1073.93
927.76	1072.78
928.06	1071.73
928.36	1073.56
928.67	1075.03
928.97	1076.76
929.27	1077.49
929.57	1076.69
929.87	1076.08
930.18	1076.18
930.48	1075.41
930.78	1074.45
931.08	1075.99
931.38	1075.34
931.69	1073.58
931.99	1071.59
932.29	1070.00
932.59	1070.05
932.89	1069.30
933.19	1070.09
933.49	1070.91
933.80	1073.51
934.10	1073.09
934.40	1072.71
934.70	1072.13
935.00	1073.30
935.30	1075.62
935.60	1075.52
935.90	1079.41
936.20	1078.10
936.50	1079.29
936.81	1075.85
937.11	1077.93
937.41	1074.77
937.71	1076.74
938.01	1073.39
938.31	1073.28
938.61	1071.19
938.91	1072.27
939.21	1074.59
939.51	1079.55
939.81	1079.74
940.11	1078.64
940.41	1076.44
940.71	1072.22
941.01	1066.98
941.31	1066.11
941.61	1069.60
941.91	1071.36
942.21	1071.38
942.51	1068.29
942.81	1070.40
943.11	1067.96
943.41	1067.75
943.71	1070.58
944.01	1075.76
944.31	1075.57
944.61	1077.16
944.90	1075.45
945.20	1076.65
945.50	1078.50
945.80	1077.02
946.10	1077.79
946.40	1078.31
946.70	1076.11
947.00	1074.98
947.30	1076.37
947.60	1074.94
947.89	1072.20
948.19	1073.42
948.49	1075.03
948.79	1073.70
949.09	1075.52
949.39	1078.78
949.69	1078.38
949.98	1076.74
950.28	1078.57
950.58	1073.56
950.88	1072.46
951.18	1071.80
951.48	1069.51
951.77	1067.42
952.07	1070.47
952.37	1072.85
952.67	1071.97
952.97	1073.60
953.26	1075.57
953.56	1074.45
953.86	1075.87
954.16	1078.78
954.45	1080.81
954.75	1081.73
955.05	1084.11
955.35	1082.78
955.64	1080.58
955.94	1076.11
956.24	1076.04
956.54	1075.52
956.83	1075.13
957.13	1074.54
957.43	1077.40
957.72	1074.45
958.02	1075.24
958.32	1075.66
958.61	1074.82
958.91	1073.07
959.21	1075.80
959.50	1074.10
959.80	1071.85
960.10	1072.18
960.39	1076.97
960.69	1076.01
960.99	1076.01
961.28	1077.89
961.58	1080.44
961.87	1077.30
962.17	1077.18
962.47	1078.05
962.76	1076.65
963.06	1074.54
963.36	1074.96
963.65	1072.15
963.95	1072.67
964.24	1073.23
964.54	1074.59
964.83	1071.99
965.13	1072.55
965.42	1073.70
965.72	1075.08
966.02	1077.30
966.31	1076.69
966.61	1080.20
966.90	1079.17
967.20	1075.29
967.49	1073.42
967.79	1075.83
968.08	1072.08
968.38	1067.31
968.67	1070.61
968.97	1068.64
969.26	1067.21
969.56	1069.02
969.85	1073.77
970.15	1075.31
970.44	1076.93
970.74	1075.17
971.03	1075.94
971.32	1075.34
971.62	1073.39
971.91	1072.48
972.21	1076.15
972.50	1075.59
972.80	1074.96
973.09	1076.34
973.38	1077.84
973.68	1077.70
973.97	1074.59
974.27	1076.86
974.56	1074.63
974.85	1076.27
975.15	1073.58
975.44	1076.34
975.73	1073.16
976.03	1075.43
976.32	1071.15
976.61	1076.08
976.91	1075.59
977.20	1078.07
977.49	1075.38
977.79	1075.38
978.08	1071.45
978.37	1073.23
978.67	1074.68
978.96	1074.75
979.25	1076.88
979.55	1078.17
979.84	1078.00
980.13	1078.36
980.42	1078.05
980.72	1076.08
981.01	1078.21
981.30	1075.55
981.59	1072.15
981.89	1072.76
982.18	1075.29
982.47	1074.56
982.76	1076.27
983.06	1076.32
983.35	1077.25
983.64	1077.28
983.93	1074.21
984.22	1073.79
984.52	1072.57
984.81	1071.45
985.10	1069.23
985.39	1070.77
985.68	1071.68
985.97	1072.20
986.27	1074.96
986.56	1075.10
986.85	1073.53
987.14	1068.67
987.43	1067.47
987.72	1066.51
988.01	1067.21
988.31	1068.69
988.60	1071.33
988.89	1072.69
989.18	1072.32
989.47	1069.72
989.76	1067.45
990.05	1067.28
990.34	1072.01
990.63	1070.94
990.92	1074.59
991.21	1077.84
991.51	1078.75
991.80	1072.04
992.09	1073.09
992.38	1074.70
992.67	1074.70
992.96	1074.87
993.25	1078.68
993.54	1076.51
993.83	1072.55
994.12	1071.29
994.41	1069.98
994.70	1070.40
994.99	1070.68
995.28	1070.87
995.57	1070.47
995.86	1073.07
996.15	1073.67
996.44	1075.71
996.73	1078.50
997.02	1078.89
997.31	1079.22
997.59	1076.95
997.88	1075.76
998.17	1074.91
998.46	1075.97
998.75	1074.84
999.04	1074.54
999.33	1076.23
999.62	1074.45
999.91	1074.21
1000.20	1072.95
1000.49	1074.61
1000.77	1072.60
1001.06	1074.05
1001.35	1073.88
1001.64	1076.23
1001.93	1076.32
1002.22	1078.40
1002.51	1076.20
1002.79	1077.68
1003.08	1076.93
1003.37	1076.41
1003.66	1077.28
1003.95	1079.50
1004.23	1077.72
1004.52	1076.20
1004.81	1076.60
1005.10	1075.43
1005.39	1074.94
1005.67	1076.08
1005.96	1077.61
1006.25	1074.31
1006.54	1075.52
1006.83	1077.04
1007.11	1076.11
1007.40	1075.90
1007.69	1079.36
1007.97	1075.59
1008.26	1075.90
1008.55	1073.63
1008.84	1070.58
1009.12	1070.19
1009.41	1069.72
1009.70	1065.93
1009.98	1071.26
1010.27	1073.81
1010.56	1071.82
1010.85	1072.55
1011.13	1075.45
1011.42	1073.37
1011.71	1076.81
1011.99	1078.61
1012.28	1081.47
1012.56	1081.75
1012.85	1079.97
1013.14	1078.54
1013.42	1077.93
1013.71	1074.47
1014.00	1072.06
1014.28	1071.87
1014.57	1070.40
1014.85	1072.22
1015.14	1074.21
1015.43	1076.86
1015.71	1076.06
1016.00	1074.61
1016.28	1071.59
1016.57	1071.29
1016.85	1067.64
1017.14	1070.09
1017.43	1070.21
1017.71	1073.04
1018.00	1074.45
1018.28	1076.93
1018.57	1074.82
1018.85	1079.62
1019.14	1076.53
1019.42	1076.25
1019.71	1073.21
1019.99	1074.80
1020.28	1071.82
1020.56	1074.24
1020.85	1075.55
1021.13	1077.77
1021.42	1077.75
1021.70	1078.31
1021.99	1077.61
1022.27	1073.46
1022.55	1075.13
1022.84	1064.48
>>>>>End Processed Spectral Data<<<<<
