SpectraSuite Data File
++++++++++++++++++++++++++++++++++++
Date: Mon Aug 26 10:22:24 PDT 2019
User: corrico
Dark Spectrum Present: No
Reference Spectrum Present: No
Number of Sampled Component Spectra: 1
Spectrometers: USB2+H06089
Integration Time (usec): 2000 (USB2+H06089)
Spectra Averaged: 20 (USB2+H06089)
Boxcar Smoothing: 2 (USB2+H06089)
Correct for Electrical Dark: No (USB2+H06089)
Strobe/Lamp Enabled: No (USB2+H06089)
Correct for Detector Non-linearity: No (USB2+H06089)
Correct for Stray Light: No (USB2+H06089)
Number of Pixels in Processed Spectrum: 2048
>>>>>Begin Processed Spectral Data<<<<<
339.70	1023.63
340.07	1023.63
340.45	989.70
340.82	972.00
341.19	947.54
341.57	925.96
341.94	916.72
342.31	907.96
342.69	898.98
343.06	895.96
343.43	893.83
343.81	895.14
344.18	898.95
344.55	904.43
344.93	909.88
345.30	915.95
345.67	918.05
346.04	927.95
346.42	937.71
346.79	947.54
347.16	955.01
347.54	967.58
347.91	974.74
348.28	982.49
348.65	989.41
349.03	1001.73
349.40	1009.26
349.77	1019.23
350.14	1025.69
350.52	1036.39
350.89	1036.55
351.26	1043.46
351.63	1049.61
352.01	1055.11
352.38	1058.46
352.75	1067.19
353.12	1072.81
353.50	1076.18
353.87	1080.65
354.24	1083.53
354.61	1083.67
354.98	1080.74
355.36	1078.28
355.73	1079.10
356.10	1079.64
356.47	1083.32
356.84	1086.69
357.22	1088.70
357.59	1088.84
357.96	1090.41
358.33	1086.17
358.70	1085.40
359.08	1084.25
359.45	1081.73
359.82	1079.53
360.19	1078.31
360.56	1079.67
360.94	1077.68
361.31	1081.16
361.68	1079.78
362.05	1081.96
362.42	1077.18
362.79	1077.21
363.16	1072.50
363.54	1072.62
363.91	1070.89
364.28	1070.98
364.65	1071.75
365.02	1074.26
365.39	1072.92
365.76	1073.32
366.14	1076.55
366.51	1077.44
366.88	1078.87
367.25	1080.98
367.62	1082.66
367.99	1080.93
368.36	1077.91
368.73	1074.33
369.10	1071.75
369.48	1070.07
369.85	1070.09
370.22	1070.91
370.59	1071.45
370.96	1072.95
371.33	1069.91
371.70	1071.36
372.07	1072.78
372.44	1071.68
372.81	1073.93
373.18	1075.50
373.55	1077.56
373.93	1078.99
374.30	1078.47
374.67	1076.76
375.04	1077.47
375.41	1073.65
375.78	1070.87
376.15	1072.01
376.52	1070.87
376.89	1073.63
377.26	1074.40
377.63	1078.36
378.00	1079.24
378.37	1079.99
378.74	1079.85
379.11	1082.69
379.48	1081.96
379.85	1081.02
380.22	1083.79
380.59	1080.86
380.96	1076.86
381.33	1074.10
381.70	1073.65
382.07	1075.48
382.44	1079.29
382.81	1083.79
383.18	1085.31
383.55	1088.65
383.92	1086.15
384.29	1082.05
384.66	1079.20
385.03	1081.66
385.40	1082.43
385.77	1083.18
386.14	1086.62
386.51	1089.47
386.88	1089.33
387.25	1089.59
387.62	1089.54
387.99	1089.80
388.36	1089.64
388.73	1089.24
389.10	1089.57
389.46	1090.97
389.83	1092.26
390.20	1091.72
390.57	1092.66
390.94	1089.85
391.31	1089.99
391.68	1089.87
392.05	1089.14
392.42	1088.56
392.79	1087.23
393.16	1085.12
393.53	1085.40
393.89	1090.01
394.26	1092.84
394.63	1096.63
395.00	1096.89
395.37	1097.34
395.74	1090.39
396.11	1087.55
396.48	1085.14
396.84	1086.62
397.21	1084.98
397.58	1088.54
397.95	1087.76
398.32	1088.35
398.69	1085.96
399.06	1085.80
399.42	1086.64
399.79	1086.97
400.16	1086.64
400.53	1090.64
400.90	1091.04
401.27	1093.50
401.64	1097.08
402.00	1098.18
402.37	1095.28
402.74	1097.06
403.11	1096.03
403.48	1093.85
403.84	1093.17
404.21	1091.79
404.58	1092.00
404.95	1089.82
405.32	1091.86
405.68	1092.91
406.05	1094.57
406.42	1093.66
406.79	1090.64
407.16	1090.17
407.52	1089.66
407.89	1092.05
408.26	1090.97
408.63	1091.60
408.99	1090.29
409.36	1092.73
409.73	1090.06
410.10	1090.53
410.47	1096.94
410.83	1097.59
411.20	1096.52
411.57	1099.14
411.94	1100.29
412.30	1098.23
412.67	1100.22
413.04	1099.68
413.40	1097.13
413.77	1095.91
414.14	1097.76
414.51	1095.89
414.87	1100.24
415.24	1104.85
415.61	1106.21
415.97	1105.32
416.34	1104.33
416.71	1101.43
417.08	1101.43
417.44	1102.02
417.81	1100.87
418.18	1102.98
418.54	1104.01
418.91	1102.74
419.28	1108.10
419.64	1112.34
420.01	1115.69
420.38	1115.76
420.74	1119.45
421.11	1118.14
421.48	1117.30
421.84	1118.68
422.21	1123.76
422.58	1125.38
422.94	1126.13
423.31	1130.78
423.68	1132.19
424.04	1134.64
424.41	1136.92
424.77	1143.35
425.14	1145.90
425.51	1149.53
425.87	1150.09
426.24	1151.33
426.61	1152.27
426.97	1156.95
427.34	1160.41
427.70	1168.54
428.07	1176.24
428.44	1180.07
428.80	1188.59
429.17	1196.06
429.53	1204.95
429.90	1215.04
430.27	1229.44
430.63	1236.20
431.00	1249.52
431.36	1259.96
431.73	1270.77
432.09	1278.66
432.46	1293.10
432.83	1307.12
433.19	1319.57
433.56	1336.84
433.92	1359.94
434.29	1383.77
434.65	1409.87
435.02	1437.51
435.38	1468.17
435.75	1496.14
436.11	1524.48
436.48	1551.47
436.84	1588.24
437.21	1623.04
437.57	1660.24
437.94	1702.88
438.30	1748.50
438.67	1788.59
439.03	1835.40
439.40	1889.63
439.76	1942.27
440.13	1998.63
440.49	2062.41
440.86	2126.42
441.22	2197.29
441.59	2265.19
441.95	2345.01
442.32	2430.11
442.68	2521.25
443.05	2609.79
443.41	2710.36
443.78	2803.61
444.14	2907.53
444.51	3018.64
444.87	3158.20
445.24	3298.94
445.60	3460.27
445.96	3618.59
446.33	3795.34
446.69	3953.33
447.06	4131.02
447.42	4302.65
447.79	4488.40
448.15	4698.67
448.51	4919.92
448.88	5175.72
449.24	5422.60
449.61	5693.19
449.97	5961.60
450.33	6249.09
450.70	6515.35
451.06	6832.30
451.43	7136.53
451.79	7488.64
452.15	7883.25
452.52	8309.65
452.88	8771.93
453.24	9282.07
453.61	9840.13
453.97	10375.01
454.34	10919.11
454.70	11554.38
455.06	12206.78
455.43	12840.30
455.79	13439.73
456.15	14145.00
456.52	14775.22
456.88	15531.23
457.24	16232.97
457.61	17059.18
457.97	17816.30
458.33	18593.50
458.70	19334.63
459.06	20082.05
459.42	20898.43
459.79	21664.09
460.15	22550.22
460.51	23400.07
460.88	24320.67
461.24	25114.16
461.60	26052.34
461.96	26903.73
462.33	27725.68
462.69	28490.43
463.05	29339.06
463.42	30055.36
463.78	30701.20
464.14	31235.08
464.50	31827.77
464.87	32288.88
465.23	32624.66
465.59	32996.12
465.95	33316.26
466.32	33574.03
466.68	33792.82
467.04	33949.31
467.40	34039.35
467.77	34176.03
468.13	34171.00
468.49	34111.95
468.85	34038.04
469.22	33902.82
469.58	33579.60
469.94	33330.00
470.30	33002.16
470.66	32590.79
471.03	32004.88
471.39	31628.50
471.75	31008.92
472.11	30434.38
472.47	30085.08
472.84	29789.85
473.20	29318.72
473.56	29041.81
473.92	28617.73
474.28	28104.31
474.65	27602.92
475.01	27119.74
475.37	26559.65
475.73	26100.98
476.09	25572.48
476.45	25061.52
476.81	24543.98
477.18	24003.25
477.54	23541.16
477.90	23174.74
478.26	22745.75
478.62	22413.25
478.98	22134.10
479.34	21828.49
479.71	21445.25
480.07	21120.83
480.43	20788.76
480.79	20409.64
481.15	20057.29
481.51	19747.15
481.87	19489.87
482.23	19185.82
482.59	18931.26
482.96	18653.39
483.32	18358.41
483.68	18001.83
484.04	17683.99
484.40	17332.77
484.76	16989.20
485.12	16638.54
485.48	16331.44
485.84	15979.31
486.20	15638.90
486.56	15269.33
486.92	14949.84
487.28	14592.98
487.64	14243.73
488.00	13912.45
488.37	13608.74
488.73	13262.36
489.09	12923.17
489.45	12619.65
489.81	12312.11
490.17	12020.38
490.53	11750.52
490.89	11466.82
491.25	11166.53
491.61	10861.28
491.97	10538.24
492.33	10205.02
492.69	9906.95
493.05	9603.90
493.41	9318.89
493.77	9052.00
494.13	8807.55
494.49	8552.22
494.85	8321.12
495.21	8102.98
495.57	7887.04
495.93	7676.02
496.29	7482.97
496.64	7298.31
497.00	7109.94
497.36	6917.17
497.72	6732.29
498.08	6551.32
498.44	6370.07
498.80	6203.82
499.16	6045.81
499.52	5897.56
499.88	5771.55
500.24	5655.44
500.60	5536.09
500.96	5422.69
501.32	5310.91
501.68	5186.21
502.03	5052.42
502.39	4924.96
502.75	4788.22
503.11	4662.16
503.47	4541.65
503.83	4430.12
504.19	4316.42
504.55	4225.32
504.91	4130.13
505.26	4037.68
505.62	3955.11
505.98	3867.22
506.34	3769.03
506.70	3670.47
507.06	3581.23
507.42	3493.90
507.78	3413.60
508.13	3335.61
508.49	3261.47
508.85	3194.76
509.21	3120.10
509.57	3055.08
509.93	2992.84
510.28	2928.36
510.64	2862.90
511.00	2799.70
511.36	2735.13
511.72	2680.01
512.07	2630.41
512.43	2578.47
512.79	2533.82
513.15	2488.20
513.51	2441.93
513.86	2396.50
514.22	2354.18
514.58	2309.97
514.94	2277.08
515.30	2241.93
515.65	2205.81
516.01	2175.97
516.37	2146.97
516.73	2112.45
517.08	2083.99
517.44	2058.15
517.80	2032.12
518.16	2002.84
518.51	1979.67
518.87	1951.00
519.23	1925.23
519.59	1895.83
519.94	1872.59
520.30	1848.91
520.66	1824.33
521.01	1800.55
521.37	1778.22
521.73	1757.86
522.09	1736.63
522.44	1714.86
522.80	1693.92
523.16	1672.64
523.51	1653.82
523.87	1635.17
524.23	1622.48
524.58	1607.55
524.94	1594.79
525.30	1574.76
525.65	1555.71
526.01	1538.15
526.37	1523.01
526.72	1508.50
527.08	1498.65
527.44	1487.55
527.79	1475.36
528.15	1464.64
528.51	1450.87
528.86	1439.83
529.22	1428.64
529.58	1416.02
529.93	1407.20
530.29	1397.58
530.65	1388.01
531.00	1379.46
531.36	1370.80
531.71	1358.12
532.07	1349.30
532.43	1339.51
532.78	1333.31
533.14	1326.33
533.49	1323.46
533.85	1314.98
534.21	1308.83
534.56	1304.90
534.92	1300.82
535.27	1291.98
535.63	1290.31
535.98	1284.42
536.34	1274.98
536.69	1268.62
537.05	1262.67
537.41	1255.37
537.76	1249.45
538.12	1246.69
538.47	1242.57
538.83	1239.36
539.18	1234.49
539.54	1232.03
539.89	1226.21
540.25	1218.88
540.60	1215.28
540.96	1216.28
541.31	1212.26
541.67	1210.41
542.02	1212.75
542.38	1213.40
542.73	1209.05
543.09	1207.34
543.44	1202.40
543.80	1194.98
544.15	1189.02
544.51	1183.40
544.86	1176.99
545.22	1173.99
545.57	1171.13
545.93	1168.49
546.28	1167.37
546.64	1167.55
546.99	1166.38
547.35	1164.23
547.70	1160.88
548.05	1156.32
548.41	1157.49
548.76	1154.68
549.12	1154.59
549.47	1154.14
549.83	1152.15
550.18	1146.02
550.53	1145.04
550.89	1144.76
551.24	1143.14
551.60	1145.06
551.95	1145.97
552.30	1145.88
552.66	1145.13
553.01	1142.63
553.37	1141.15
553.72	1138.46
554.07	1136.17
554.43	1134.69
554.78	1133.90
555.13	1132.96
555.49	1132.98
555.84	1130.69
556.19	1131.67
556.55	1130.62
556.90	1131.23
557.26	1128.77
557.61	1129.87
557.96	1122.66
558.32	1121.35
558.67	1117.72
559.02	1119.53
559.37	1117.32
559.73	1115.69
560.08	1117.30
560.43	1120.23
560.79	1117.44
561.14	1116.37
561.49	1118.47
561.85	1115.69
562.20	1111.64
562.55	1112.48
562.90	1113.04
563.26	1113.44
563.61	1111.82
563.96	1113.28
564.32	1111.92
564.67	1110.35
565.02	1106.23
565.37	1108.97
565.73	1107.56
566.08	1106.86
566.43	1107.80
566.78	1110.49
567.14	1111.66
567.49	1111.61
567.84	1108.83
568.19	1103.89
568.54	1105.25
568.90	1099.89
569.25	1098.44
569.60	1098.86
569.95	1100.10
570.31	1097.43
570.66	1101.60
571.01	1100.64
571.36	1101.81
571.71	1099.44
572.06	1101.08
572.42	1097.48
572.77	1095.25
573.12	1092.52
573.47	1096.31
573.82	1095.39
574.18	1092.16
574.53	1093.59
574.88	1096.35
575.23	1093.97
575.58	1090.95
575.93	1092.96
576.28	1093.92
576.64	1094.13
576.99	1095.82
577.34	1098.44
577.69	1099.70
578.04	1097.69
578.39	1096.82
578.74	1094.65
579.09	1092.05
579.44	1089.94
579.80	1091.88
580.15	1091.67
580.50	1092.35
580.85	1091.09
581.20	1092.61
581.55	1087.90
581.90	1086.03
582.25	1086.17
582.60	1088.09
582.95	1088.09
583.30	1091.44
583.65	1095.18
584.00	1097.08
584.35	1099.47
584.71	1100.31
585.06	1097.83
585.41	1093.71
585.76	1088.86
586.11	1086.27
586.46	1084.60
586.81	1088.86
587.16	1087.23
587.51	1092.80
587.86	1094.20
588.21	1091.60
588.56	1090.81
588.91	1095.44
589.26	1091.20
589.61	1088.68
589.96	1090.17
590.31	1085.28
590.66	1083.74
591.01	1085.87
591.36	1088.37
591.71	1087.02
592.06	1090.57
592.41	1087.69
592.76	1088.70
593.10	1086.38
593.45	1090.62
593.80	1088.30
594.15	1090.13
594.50	1089.54
594.85	1090.67
595.20	1089.73
595.55	1092.91
595.90	1094.79
596.25	1093.31
596.60	1090.46
596.95	1088.86
597.30	1088.70
597.64	1097.69
597.99	1096.45
598.34	1099.84
598.69	1097.38
599.04	1095.60
599.39	1083.48
599.74	1084.21
600.09	1082.80
600.44	1084.42
600.78	1087.60
601.13	1088.04
601.48	1089.38
601.83	1089.96
602.18	1093.45
602.53	1090.95
602.88	1092.98
603.22	1092.84
603.57	1091.63
603.92	1089.24
604.27	1089.29
604.62	1085.42
604.97	1084.70
605.31	1084.00
605.66	1084.09
606.01	1080.53
606.36	1085.19
606.71	1085.99
607.05	1084.65
607.40	1084.86
607.75	1088.37
608.10	1085.00
608.44	1083.43
608.79	1086.13
609.14	1087.72
609.49	1087.02
609.84	1090.53
610.18	1092.00
610.53	1090.88
610.88	1089.22
611.23	1090.55
611.57	1087.41
611.92	1086.15
612.27	1084.07
612.62	1085.91
612.96	1081.82
613.31	1081.84
613.66	1082.78
614.00	1088.02
614.35	1085.07
614.70	1089.68
615.05	1090.15
615.39	1088.65
615.74	1086.83
616.09	1085.47
616.43	1082.29
616.78	1082.15
617.13	1083.01
617.47	1082.78
617.82	1084.96
618.17	1085.56
618.51	1084.58
618.86	1083.46
619.21	1084.35
619.55	1084.49
619.90	1087.16
620.25	1087.32
620.59	1089.22
620.94	1088.51
621.29	1086.87
621.63	1084.14
621.98	1087.20
622.32	1088.16
622.67	1087.32
623.02	1088.82
623.36	1089.92
623.71	1086.45
624.05	1083.27
624.40	1084.46
624.75	1085.49
625.09	1087.32
625.44	1091.74
625.78	1095.32
626.13	1093.64
626.48	1094.57
626.82	1095.32
627.17	1094.08
627.51	1090.48
627.86	1090.92
628.20	1086.62
628.55	1081.68
628.89	1079.92
629.24	1085.17
629.58	1088.12
629.93	1088.07
630.28	1088.44
630.62	1088.23
630.97	1084.67
631.31	1081.42
631.66	1081.80
632.00	1086.36
632.35	1084.09
632.69	1083.41
633.04	1081.05
633.38	1081.98
633.73	1078.85
634.07	1079.53
634.42	1080.56
634.76	1084.86
635.11	1082.71
635.45	1082.80
635.79	1085.87
636.14	1082.08
636.48	1077.44
636.83	1081.30
637.17	1079.06
637.52	1080.30
637.86	1082.43
638.21	1084.16
638.55	1078.96
638.89	1085.31
639.24	1084.32
639.58	1085.07
639.93	1086.17
640.27	1089.38
640.61	1085.59
640.96	1085.54
641.30	1084.39
641.65	1084.58
641.99	1084.89
642.33	1084.51
642.68	1084.58
643.02	1088.54
643.37	1089.29
643.71	1089.03
644.05	1087.09
644.40	1087.25
644.74	1086.43
645.08	1082.99
645.43	1082.17
645.77	1081.91
646.11	1077.16
646.46	1074.94
646.80	1078.61
647.14	1077.63
647.49	1081.02
647.83	1084.14
648.17	1084.35
648.52	1083.39
648.86	1085.28
649.20	1084.37
649.55	1083.97
649.89	1083.64
650.23	1085.24
650.57	1087.53
650.92	1086.31
651.26	1084.60
651.60	1085.52
651.95	1085.70
652.29	1082.54
652.63	1083.36
652.97	1084.86
653.32	1083.34
653.66	1077.51
654.00	1080.65
654.34	1079.20
654.69	1077.42
655.03	1077.63
655.37	1083.64
655.71	1079.64
656.05	1079.48
656.40	1086.10
656.74	1089.45
657.08	1087.51
657.42	1088.75
657.76	1089.89
658.11	1086.90
658.45	1083.90
658.79	1085.45
659.13	1084.49
659.47	1085.26
659.82	1084.49
660.16	1084.49
660.50	1082.43
660.84	1081.89
661.18	1083.67
661.52	1078.17
661.87	1077.33
662.21	1077.33
662.55	1080.41
662.89	1078.52
663.23	1083.50
663.57	1084.25
663.91	1082.76
664.25	1083.15
664.60	1081.30
664.94	1078.64
665.28	1079.74
665.62	1077.56
665.96	1077.16
666.30	1079.69
666.64	1084.63
666.98	1083.06
667.32	1084.51
667.66	1081.87
668.01	1081.89
668.35	1080.06
668.69	1080.63
669.03	1081.23
669.37	1080.51
669.71	1081.07
670.05	1079.22
670.39	1082.90
670.73	1087.69
671.07	1090.03
671.41	1090.67
671.75	1090.83
672.09	1087.97
672.43	1083.88
672.77	1083.22
673.11	1080.20
673.45	1080.93
673.79	1080.18
674.13	1079.53
674.47	1078.50
674.81	1080.34
675.15	1078.31
675.49	1077.37
675.83	1079.53
676.17	1080.51
676.51	1077.70
676.85	1079.60
677.19	1079.10
677.53	1075.78
677.87	1079.41
678.21	1081.19
678.55	1079.83
678.89	1082.69
679.23	1086.99
679.57	1086.36
679.90	1084.86
680.24	1083.67
680.58	1080.56
680.92	1077.04
681.26	1072.13
681.60	1073.95
681.94	1075.01
682.28	1074.94
682.62	1076.86
682.96	1078.07
683.29	1078.45
683.63	1081.49
683.97	1082.64
684.31	1083.90
684.65	1082.57
684.99	1078.31
685.33	1076.30
685.67	1076.69
686.00	1071.94
686.34	1074.63
686.68	1076.62
687.02	1076.39
687.36	1074.05
687.70	1077.65
688.03	1078.21
688.37	1080.98
688.71	1082.85
689.05	1084.84
689.39	1086.36
689.72	1084.63
690.06	1082.26
690.40	1081.68
690.74	1084.21
691.08	1081.37
691.41	1083.74
691.75	1085.54
692.09	1083.36
692.43	1082.24
692.76	1081.49
693.10	1083.15
693.44	1080.91
693.78	1079.60
694.11	1077.89
694.45	1078.10
694.79	1070.30
695.13	1073.53
695.46	1074.75
695.80	1075.78
696.14	1079.08
696.48	1082.61
696.81	1080.32
697.15	1081.75
697.49	1080.56
697.82	1077.07
698.16	1078.36
698.50	1078.36
698.83	1080.02
699.17	1080.32
699.51	1083.15
699.84	1083.22
700.18	1085.80
700.52	1083.08
700.85	1083.83
701.19	1084.32
701.53	1085.87
701.86	1082.87
702.20	1083.25
702.54	1084.25
702.87	1086.48
703.21	1083.81
703.55	1082.92
703.88	1085.12
704.22	1082.01
704.55	1077.14
704.89	1074.42
705.23	1078.66
705.56	1077.96
705.90	1078.59
706.23	1081.82
706.57	1084.04
706.91	1081.70
707.24	1079.27
707.58	1080.93
707.91	1080.09
708.25	1081.51
708.58	1082.22
708.92	1087.51
709.26	1088.16
709.59	1083.60
709.93	1082.64
710.26	1085.26
710.60	1080.20
710.93	1081.35
711.27	1088.37
711.60	1091.95
711.94	1088.37
712.27	1091.32
712.61	1089.17
712.94	1083.18
713.28	1080.32
713.61	1079.50
713.95	1079.31
714.28	1083.29
714.62	1087.83
714.95	1088.19
715.29	1089.78
715.62	1086.78
715.96	1086.08
716.29	1085.52
716.63	1083.60
716.96	1083.60
717.29	1081.94
717.63	1077.40
717.96	1076.37
718.30	1078.05
718.63	1077.47
718.97	1083.48
719.30	1088.21
719.63	1084.28
719.97	1084.74
720.30	1087.48
720.64	1082.57
720.97	1080.67
721.30	1084.72
721.64	1084.84
721.97	1080.81
722.31	1085.14
722.64	1084.21
722.97	1082.73
723.31	1082.31
723.64	1082.99
723.97	1080.04
724.31	1077.37
724.64	1077.04
724.98	1075.99
725.31	1076.23
725.64	1076.18
725.98	1077.28
726.31	1076.06
726.64	1077.84
726.97	1075.92
727.31	1075.59
727.64	1076.27
727.97	1082.29
728.31	1080.70
728.64	1084.86
728.97	1085.68
729.31	1086.31
729.64	1082.40
729.97	1083.81
730.30	1082.50
730.64	1082.05
730.97	1079.57
731.30	1080.91
731.63	1080.11
731.97	1078.64
732.30	1078.50
732.63	1081.63
732.96	1081.05
733.30	1079.13
733.63	1078.87
733.96	1080.34
734.29	1079.69
734.63	1075.80
734.96	1078.50
735.29	1077.77
735.62	1075.41
735.95	1072.88
736.29	1078.45
736.62	1079.01
736.95	1082.08
737.28	1081.42
737.61	1083.69
737.94	1080.04
738.28	1078.14
738.61	1077.61
738.94	1080.27
739.27	1080.46
739.60	1082.15
739.93	1082.94
740.27	1082.12
740.60	1082.33
740.93	1082.43
741.26	1082.85
741.59	1082.52
741.92	1082.47
742.25	1081.00
742.58	1078.59
742.91	1076.23
743.25	1076.46
743.58	1079.17
743.91	1081.14
744.24	1082.05
744.57	1082.69
744.90	1084.37
745.23	1081.70
745.56	1076.69
745.89	1078.24
746.22	1078.64
746.55	1074.56
746.88	1072.48
747.21	1076.32
747.54	1073.74
747.87	1073.53
748.20	1074.75
748.53	1076.25
748.87	1077.04
749.20	1079.13
749.53	1078.14
749.86	1079.76
750.19	1078.45
750.52	1077.47
750.85	1076.34
751.18	1077.47
751.51	1075.78
751.84	1081.26
752.16	1081.40
752.49	1085.00
752.82	1087.60
753.15	1087.62
753.48	1085.73
753.81	1085.35
754.14	1082.64
754.47	1079.71
754.80	1080.25
755.13	1077.82
755.46	1078.07
755.79	1078.31
756.12	1080.48
756.45	1080.51
756.78	1079.15
757.11	1080.48
757.43	1078.33
757.76	1075.64
758.09	1077.79
758.42	1081.82
758.75	1080.02
759.08	1079.83
759.41	1081.09
759.74	1076.88
760.07	1076.76
760.39	1080.09
760.72	1081.19
761.05	1081.12
761.38	1083.53
761.71	1079.81
762.04	1077.11
762.36	1077.04
762.69	1073.77
763.02	1073.21
763.35	1075.31
763.68	1078.87
764.01	1078.47
764.33	1080.44
764.66	1077.77
764.99	1075.55
765.32	1072.08
765.65	1072.81
765.97	1073.11
766.30	1076.88
766.63	1077.30
766.96	1077.00
767.28	1078.66
767.61	1079.71
767.94	1078.61
768.27	1079.95
768.59	1078.40
768.92	1075.05
769.25	1074.00
769.58	1074.96
769.90	1076.34
770.23	1077.25
770.56	1079.08
770.89	1080.16
771.21	1079.53
771.54	1076.74
771.87	1073.91
772.19	1074.66
772.52	1076.30
772.85	1075.55
773.17	1075.45
773.50	1077.25
773.83	1074.24
774.15	1072.43
774.48	1072.64
774.81	1075.62
775.13	1077.49
775.46	1078.71
775.79	1078.54
776.11	1077.40
776.44	1075.36
776.77	1078.59
777.09	1076.18
777.42	1076.46
777.74	1079.55
778.07	1079.85
778.40	1076.06
778.72	1082.08
779.05	1079.46
779.37	1080.53
779.70	1081.70
780.03	1079.41
780.35	1078.10
780.68	1080.34
781.00	1079.10
781.33	1077.70
781.65	1084.16
781.98	1085.42
782.31	1086.34
782.63	1080.93
782.96	1079.71
783.28	1075.80
783.61	1074.89
783.93	1076.06
784.26	1079.78
784.58	1083.01
784.91	1084.63
785.23	1084.56
785.56	1082.64
785.88	1085.91
786.21	1084.30
786.53	1083.88
786.86	1081.82
787.18	1080.11
787.51	1074.68
787.83	1073.51
788.16	1072.62
788.48	1073.11
788.81	1075.45
789.13	1076.65
789.46	1075.59
789.78	1074.77
790.10	1073.21
790.43	1071.66
790.75	1072.48
791.08	1073.88
791.40	1074.63
791.73	1077.98
792.05	1080.74
792.37	1080.67
792.70	1078.89
793.02	1079.24
793.35	1081.42
793.67	1080.48
793.99	1078.96
794.32	1083.41
794.64	1081.70
794.96	1079.10
795.29	1078.00
795.61	1080.86
795.93	1077.93
796.26	1076.86
796.58	1075.85
796.91	1076.51
797.23	1076.55
797.55	1077.63
797.87	1082.94
798.20	1083.25
798.52	1082.12
798.84	1082.19
799.17	1085.12
799.49	1080.37
799.81	1078.78
800.14	1083.13
800.46	1082.66
800.78	1082.03
801.10	1083.62
801.43	1085.10
801.75	1081.21
802.07	1079.22
802.40	1077.44
802.72	1078.17
803.04	1079.60
803.36	1078.28
803.69	1079.38
804.01	1080.18
804.33	1079.43
804.65	1075.64
804.97	1079.15
805.30	1078.96
805.62	1078.66
805.94	1077.16
806.26	1078.82
806.58	1076.83
806.91	1075.97
807.23	1076.88
807.55	1079.78
807.87	1080.93
808.19	1082.99
808.52	1082.31
808.84	1081.40
809.16	1079.08
809.48	1077.30
809.80	1074.38
810.12	1074.52
810.44	1071.68
810.77	1073.56
811.09	1073.51
811.41	1074.49
811.73	1076.34
812.05	1075.85
812.37	1075.45
812.69	1077.04
813.01	1075.73
813.33	1075.55
813.66	1075.69
813.98	1076.93
814.30	1076.95
814.62	1077.96
814.94	1074.98
815.26	1077.07
815.58	1076.60
815.90	1074.52
816.22	1073.30
816.54	1078.43
816.86	1077.72
817.18	1074.21
817.50	1073.77
817.82	1075.08
818.14	1073.51
818.46	1075.20
818.78	1077.75
819.10	1081.16
819.42	1081.30
819.74	1081.70
820.06	1081.35
820.38	1078.52
820.70	1073.30
821.02	1074.66
821.34	1074.45
821.66	1074.87
821.98	1077.02
822.30	1081.00
822.62	1079.20
822.94	1075.97
823.26	1072.01
823.58	1071.78
823.90	1069.79
824.22	1068.92
824.54	1073.70
824.86	1078.73
825.18	1079.41
825.50	1079.62
825.81	1081.91
826.13	1077.63
826.45	1074.66
826.77	1075.38
827.09	1077.09
827.41	1077.89
827.73	1080.09
828.05	1081.96
828.36	1080.32
828.68	1080.95
829.00	1080.98
829.32	1082.05
829.64	1080.02
829.96	1079.78
830.28	1079.24
830.59	1079.01
830.91	1078.43
831.23	1077.04
831.55	1076.83
831.87	1075.01
832.19	1073.70
832.50	1073.84
832.82	1077.79
833.14	1080.74
833.46	1083.11
833.78	1079.76
834.09	1079.53
834.41	1077.70
834.73	1077.14
835.05	1078.96
835.36	1081.09
835.68	1079.83
836.00	1080.81
836.32	1078.14
836.63	1075.78
836.95	1075.24
837.27	1074.40
837.59	1074.19
837.90	1073.28
838.22	1073.42
838.54	1072.48
838.85	1076.74
839.17	1074.47
839.49	1075.64
839.80	1071.94
840.12	1070.91
840.44	1068.03
840.76	1070.75
841.07	1071.26
841.39	1075.66
841.71	1078.89
842.02	1076.88
842.34	1074.98
842.65	1073.77
842.97	1074.19
843.29	1071.29
843.60	1074.73
843.92	1074.54
844.24	1079.83
844.55	1075.83
844.87	1080.84
845.18	1081.47
845.50	1083.34
845.82	1077.77
846.13	1080.18
846.45	1076.06
846.76	1075.64
847.08	1074.28
847.40	1076.30
847.71	1074.56
848.03	1073.46
848.34	1073.18
848.66	1072.92
848.97	1071.85
849.29	1075.03
849.60	1076.06
849.92	1075.64
850.24	1076.58
850.55	1076.88
850.87	1075.71
851.18	1078.52
851.50	1078.17
851.81	1077.21
852.13	1076.72
852.44	1073.88
852.76	1069.91
853.07	1069.67
853.39	1070.80
853.70	1072.78
854.01	1074.33
854.33	1076.65
854.64	1078.61
854.96	1081.07
855.27	1080.84
855.59	1079.78
855.90	1082.52
856.22	1079.78
856.53	1078.03
856.84	1079.29
857.16	1082.64
857.47	1082.73
857.79	1082.73
858.10	1079.62
858.41	1077.72
858.73	1077.70
859.04	1075.99
859.36	1077.86
859.67	1078.54
859.98	1080.25
860.30	1078.00
860.61	1077.61
860.92	1077.89
861.24	1078.38
861.55	1075.38
861.87	1078.68
862.18	1079.57
862.49	1076.44
862.81	1075.94
863.12	1076.72
863.43	1072.22
863.74	1071.26
864.06	1072.36
864.37	1074.07
864.68	1075.59
865.00	1078.21
865.31	1079.57
865.62	1078.26
865.94	1076.18
866.25	1076.58
866.56	1077.61
866.87	1075.62
867.19	1075.10
867.50	1077.51
867.81	1078.40
868.12	1073.56
868.44	1076.13
868.75	1081.12
869.06	1082.47
869.37	1081.47
869.68	1085.87
870.00	1084.70
870.31	1082.85
870.62	1079.95
870.93	1078.71
871.24	1078.66
871.56	1077.70
871.87	1076.25
872.18	1078.28
872.49	1080.95
872.80	1080.79
873.12	1080.06
873.43	1082.59
873.74	1081.70
874.05	1080.70
874.36	1083.11
874.67	1085.66
874.98	1086.97
875.29	1085.31
875.61	1084.56
875.92	1080.56
876.23	1080.58
876.54	1079.78
876.85	1080.79
877.16	1080.11
877.47	1079.22
877.78	1079.36
878.09	1081.23
878.40	1081.98
878.72	1080.48
879.03	1083.32
879.34	1081.51
879.65	1077.72
879.96	1077.91
880.27	1080.77
880.58	1082.52
880.89	1082.85
881.20	1083.25
881.51	1081.26
881.82	1081.47
882.13	1076.15
882.44	1078.66
882.75	1074.49
883.06	1075.73
883.37	1073.93
883.68	1078.68
883.99	1079.15
884.30	1080.30
884.61	1081.84
884.92	1082.76
885.23	1080.11
885.54	1079.10
885.85	1081.77
886.16	1077.42
886.47	1073.86
886.78	1074.73
887.08	1072.36
887.39	1072.95
887.70	1074.66
888.01	1080.06
888.32	1079.36
888.63	1081.30
888.94	1080.53
889.25	1084.09
889.56	1082.24
889.87	1083.13
890.17	1082.15
890.48	1081.42
890.79	1080.06
891.10	1079.38
891.41	1079.57
891.72	1076.53
892.03	1077.25
892.34	1077.04
892.64	1077.84
892.95	1077.56
893.26	1078.85
893.57	1080.58
893.88	1082.57
894.18	1079.27
894.49	1075.41
894.80	1074.61
895.11	1075.64
895.42	1075.59
895.72	1078.59
896.03	1081.87
896.34	1083.79
896.65	1079.78
896.96	1079.27
897.26	1080.20
897.57	1081.00
897.88	1078.10
898.19	1077.33
898.49	1073.35
898.80	1072.64
899.11	1072.83
899.41	1073.67
899.72	1077.21
900.03	1076.86
900.34	1073.86
900.64	1071.66
900.95	1073.16
901.26	1073.44
901.56	1076.48
901.87	1078.40
902.18	1079.41
902.48	1079.17
902.79	1077.51
903.10	1075.59
903.40	1074.52
903.71	1074.05
904.02	1073.32
904.32	1071.29
904.63	1072.50
904.94	1073.70
905.24	1076.95
905.55	1077.40
905.85	1079.69
906.16	1079.95
906.47	1079.76
906.77	1077.37
907.08	1079.64
907.38	1077.79
907.69	1076.60
908.00	1076.69
908.30	1076.86
908.61	1074.96
908.91	1074.80
909.22	1074.80
909.52	1073.81
909.83	1073.02
910.14	1073.32
910.44	1072.53
910.75	1072.13
911.05	1070.49
911.36	1071.66
911.66	1071.24
911.97	1072.43
912.27	1074.80
912.58	1079.69
912.88	1079.83
913.19	1079.74
913.49	1076.88
913.80	1074.40
914.10	1074.17
914.41	1073.11
914.71	1076.30
915.01	1081.42
915.32	1084.65
915.62	1081.96
915.93	1082.59
916.23	1079.83
916.54	1079.62
916.84	1079.69
917.15	1079.20
917.45	1077.35
917.75	1076.04
918.06	1074.82
918.36	1073.23
918.67	1076.58
918.97	1078.43
919.27	1080.13
919.58	1082.38
919.88	1081.47
920.18	1081.07
920.49	1081.00
920.79	1078.26
921.10	1075.57
921.40	1075.97
921.70	1071.31
922.01	1069.13
922.31	1072.50
922.61	1072.39
922.92	1072.25
923.22	1074.42
923.52	1074.87
923.82	1075.87
924.13	1076.60
924.43	1078.45
924.73	1079.74
925.04	1080.25
925.34	1081.84
925.64	1084.74
925.94	1084.35
926.25	1085.05
926.55	1085.31
926.85	1084.04
927.15	1084.18
927.46	1082.57
927.76	1081.33
928.06	1082.57
928.36	1081.28
928.67	1079.36
928.97	1082.90
929.27	1081.09
929.57	1081.51
929.87	1080.30
930.18	1080.51
930.48	1078.14
930.78	1078.94
931.08	1079.20
931.38	1080.13
931.69	1081.89
931.99	1083.76
932.29	1086.85
932.59	1089.50
932.89	1090.32
933.19	1087.69
933.49	1086.15
933.80	1084.07
934.10	1081.44
934.40	1081.44
934.70	1077.84
935.00	1077.44
935.30	1076.97
935.60	1075.43
935.90	1073.28
936.20	1077.84
936.50	1076.44
936.81	1074.77
937.11	1074.03
937.41	1076.34
937.71	1079.24
938.01	1079.71
938.31	1079.22
938.61	1080.11
938.91	1079.88
939.21	1077.79
939.51	1077.44
939.81	1080.91
940.11	1080.25
940.41	1076.18
940.71	1074.61
941.01	1076.37
941.31	1072.71
941.61	1072.46
941.91	1077.09
942.21	1075.59
942.51	1074.59
942.81	1079.06
943.11	1081.82
943.41	1076.44
943.71	1076.95
944.01	1076.86
944.31	1075.62
944.61	1073.79
944.90	1079.10
945.20	1076.79
945.50	1077.96
945.80	1077.09
946.10	1075.52
946.40	1072.48
946.70	1072.95
947.00	1068.88
947.30	1069.34
947.60	1071.10
947.89	1071.80
948.19	1074.45
948.49	1076.11
948.79	1076.95
949.09	1075.29
949.39	1074.05
949.69	1070.65
949.98	1070.89
950.28	1067.82
950.58	1068.59
950.88	1070.40
951.18	1071.47
951.48	1070.96
951.77	1073.67
952.07	1072.64
952.37	1074.12
952.67	1077.09
952.97	1077.77
953.26	1079.06
953.56	1083.41
953.86	1081.42
954.16	1080.81
954.45	1084.79
954.75	1083.32
955.05	1081.07
955.35	1084.49
955.64	1085.87
955.94	1085.45
956.24	1088.96
956.54	1088.91
956.83	1083.83
957.13	1083.48
957.43	1083.01
957.72	1078.82
958.02	1074.70
958.32	1077.47
958.61	1077.14
958.91	1075.03
959.21	1074.38
959.50	1079.76
959.80	1079.71
960.10	1079.97
960.39	1080.25
960.69	1081.30
960.99	1078.40
961.28	1078.87
961.58	1079.15
961.87	1078.59
962.17	1078.43
962.47	1079.01
962.76	1077.44
963.06	1076.69
963.36	1077.02
963.65	1077.18
963.95	1079.85
964.24	1078.38
964.54	1076.97
964.83	1076.15
965.13	1075.52
965.42	1073.98
965.72	1075.94
966.02	1077.75
966.31	1077.40
966.61	1076.79
966.90	1073.21
967.20	1073.18
967.49	1071.19
967.79	1073.81
968.08	1074.10
968.38	1077.49
968.67	1078.00
968.97	1078.28
969.26	1077.70
969.56	1078.92
969.85	1079.29
970.15	1081.54
970.44	1085.10
970.74	1083.90
971.03	1083.69
971.32	1083.27
971.62	1083.13
971.91	1079.85
972.21	1079.13
972.50	1077.47
972.80	1080.18
973.09	1078.26
973.38	1078.59
973.68	1075.59
973.97	1078.85
974.27	1074.80
974.56	1074.89
974.85	1072.34
975.15	1075.66
975.44	1074.12
975.73	1076.55
976.03	1078.45
976.32	1080.23
976.61	1079.83
976.91	1079.08
977.20	1079.20
977.49	1076.53
977.79	1077.11
978.08	1076.41
978.37	1077.04
978.67	1076.81
978.96	1076.58
979.25	1077.04
979.55	1080.65
979.84	1080.46
980.13	1079.13
980.42	1079.20
980.72	1079.01
981.01	1078.64
981.30	1078.24
981.59	1078.75
981.89	1078.05
982.18	1076.79
982.47	1075.66
982.76	1076.20
983.06	1078.31
983.35	1078.59
983.64	1076.76
983.93	1075.64
984.22	1078.66
984.52	1076.27
984.81	1075.92
985.10	1077.65
985.39	1077.98
985.68	1074.00
985.97	1071.31
986.27	1072.57
986.56	1072.20
986.85	1072.90
987.14	1076.34
987.43	1078.54
987.72	1074.75
988.01	1075.17
988.31	1077.40
988.60	1074.73
988.89	1075.05
989.18	1082.10
989.47	1085.03
989.76	1084.42
990.05	1083.97
990.34	1085.87
990.63	1083.83
990.92	1081.21
991.21	1078.54
991.51	1079.95
991.80	1079.85
992.09	1077.23
992.38	1076.13
992.67	1078.87
992.96	1079.99
993.25	1078.05
993.54	1081.40
993.83	1082.54
994.12	1083.29
994.41	1081.87
994.70	1080.86
994.99	1079.60
995.28	1078.73
995.57	1077.02
995.86	1079.81
996.15	1082.85
996.44	1083.04
996.73	1084.86
997.02	1082.90
997.31	1080.46
997.59	1077.91
997.88	1075.69
998.17	1075.17
998.46	1076.13
998.75	1075.57
999.04	1076.79
999.33	1076.23
999.62	1074.91
999.91	1073.02
1000.20	1072.06
1000.49	1071.33
1000.77	1071.54
1001.06	1072.69
1001.35	1071.47
1001.64	1071.36
1001.93	1070.77
1002.22	1073.23
1002.51	1070.89
1002.79	1072.69
1003.08	1073.23
1003.37	1075.52
1003.66	1076.13
1003.95	1078.52
1004.23	1080.53
1004.52	1083.93
1004.81	1083.39
1005.10	1083.55
1005.39	1084.28
1005.67	1084.14
1005.96	1082.01
1006.25	1080.41
1006.54	1076.95
1006.83	1075.10
1007.11	1073.51
1007.40	1072.67
1007.69	1075.38
1007.97	1076.46
1008.26	1078.94
1008.55	1081.14
1008.84	1081.61
1009.12	1079.92
1009.41	1081.51
1009.70	1082.52
1009.98	1082.12
1010.27	1083.81
1010.56	1080.93
1010.85	1079.71
1011.13	1079.48
1011.42	1080.53
1011.71	1075.73
1011.99	1080.67
1012.28	1080.70
1012.56	1078.66
1012.85	1075.52
1013.14	1075.97
1013.42	1074.94
1013.71	1076.15
1014.00	1076.88
1014.28	1077.77
1014.57	1080.53
1014.85	1080.16
1015.14	1079.55
1015.43	1079.85
1015.71	1078.14
1016.00	1074.21
1016.28	1073.30
1016.57	1070.77
1016.85	1069.84
1017.14	1072.34
1017.43	1076.18
1017.71	1077.56
1018.00	1082.03
1018.28	1084.21
1018.57	1083.90
1018.85	1084.98
1019.14	1082.17
1019.42	1079.71
1019.71	1078.24
1019.99	1077.84
1020.28	1074.68
1020.56	1075.94
1020.85	1079.55
1021.13	1078.75
1021.42	1077.47
1021.70	1079.34
1021.99	1078.14
1022.27	1076.13
1022.55	1071.15
1022.84	1083.20
>>>>>End Processed Spectral Data<<<<<
