SpectraSuite Data File
++++++++++++++++++++++++++++++++++++
Date: Mon Aug 26 10:22:08 PDT 2019
User: corrico
Dark Spectrum Present: No
Reference Spectrum Present: No
Number of Sampled Component Spectra: 1
Spectrometers: USB2+H06089
Integration Time (usec): 2000 (USB2+H06089)
Spectra Averaged: 20 (USB2+H06089)
Boxcar Smoothing: 2 (USB2+H06089)
Correct for Electrical Dark: No (USB2+H06089)
Strobe/Lamp Enabled: No (USB2+H06089)
Correct for Detector Non-linearity: No (USB2+H06089)
Correct for Stray Light: No (USB2+H06089)
Number of Pixels in Processed Spectrum: 2048
>>>>>Begin Processed Spectral Data<<<<<
339.70	1013.69
340.07	1013.69
340.45	983.91
340.82	963.60
341.19	943.66
341.57	921.33
341.94	906.56
342.31	901.01
342.69	895.77
343.06	894.83
343.43	896.14
343.81	896.85
344.18	898.58
344.55	905.09
344.93	906.26
345.30	912.25
345.67	920.42
346.04	929.29
346.42	935.98
346.79	945.74
347.16	953.09
347.54	960.63
347.91	968.82
348.28	984.29
348.65	994.73
349.03	1006.31
349.40	1019.42
349.77	1031.24
350.14	1035.03
350.52	1041.54
350.89	1041.94
351.26	1049.31
351.63	1054.15
352.01	1058.81
352.38	1061.69
352.75	1071.45
353.12	1073.53
353.50	1077.49
353.87	1079.76
354.24	1080.95
354.61	1079.95
354.98	1079.31
355.36	1076.72
355.73	1077.49
356.10	1080.51
356.47	1082.45
356.84	1084.09
357.22	1085.84
357.59	1084.70
357.96	1084.09
358.33	1083.97
358.70	1083.53
359.08	1084.56
359.45	1084.39
359.82	1083.01
360.19	1081.05
360.56	1078.87
360.94	1075.71
361.31	1074.10
361.68	1074.19
362.05	1075.03
362.42	1073.72
362.79	1076.53
363.16	1078.52
363.54	1079.74
363.91	1080.41
364.28	1081.26
364.65	1078.36
365.02	1077.72
365.39	1077.25
365.76	1074.40
366.14	1076.48
366.51	1077.47
366.88	1075.31
367.25	1077.68
367.62	1077.54
367.99	1077.16
368.36	1074.98
368.73	1075.29
369.10	1069.60
369.48	1070.49
369.85	1070.98
370.22	1072.39
370.59	1073.84
370.96	1077.54
371.33	1080.60
371.70	1080.37
372.07	1077.44
372.44	1077.28
372.81	1075.43
373.18	1071.90
373.55	1069.55
373.93	1071.99
374.30	1073.67
374.67	1075.29
375.04	1074.28
375.41	1075.80
375.78	1078.12
376.15	1074.12
376.52	1073.60
376.89	1077.23
377.26	1077.51
377.63	1076.01
378.00	1076.76
378.37	1077.44
378.74	1075.17
379.11	1074.66
379.48	1074.82
379.85	1074.03
380.22	1073.35
380.59	1074.35
380.96	1074.96
381.33	1076.23
381.70	1081.73
382.07	1082.38
382.44	1083.95
382.81	1087.13
383.18	1089.19
383.55	1087.25
383.92	1084.67
384.29	1083.93
384.66	1081.98
385.03	1080.46
385.40	1081.33
385.77	1086.08
386.14	1089.47
386.51	1086.83
386.88	1084.77
387.25	1086.97
387.62	1085.10
387.99	1081.33
388.36	1083.36
388.73	1085.63
389.10	1082.76
389.46	1083.39
389.83	1085.14
390.20	1088.09
390.57	1084.91
390.94	1084.42
391.31	1086.17
391.68	1086.43
392.05	1083.25
392.42	1084.98
392.79	1085.14
393.16	1084.35
393.53	1086.03
393.89	1085.38
394.26	1089.82
394.63	1092.33
395.00	1092.87
395.37	1090.67
395.74	1090.60
396.11	1089.40
396.48	1091.25
396.84	1091.44
397.21	1094.65
397.58	1098.13
397.95	1095.04
398.32	1090.55
398.69	1089.36
399.06	1083.95
399.42	1084.46
399.79	1084.65
400.16	1086.62
400.53	1085.77
400.90	1082.83
401.27	1082.31
401.64	1086.38
402.00	1087.76
402.37	1089.33
402.74	1095.39
403.11	1094.67
403.48	1095.91
403.84	1094.27
404.21	1094.69
404.58	1094.90
404.95	1097.48
405.32	1093.99
405.68	1092.82
406.05	1093.92
406.42	1094.08
406.79	1094.65
407.16	1096.38
407.52	1098.83
407.89	1100.82
408.26	1100.64
408.63	1099.26
408.99	1100.61
409.36	1101.85
409.73	1096.99
410.10	1096.47
410.47	1097.55
410.83	1097.22
411.20	1094.55
411.57	1098.30
411.94	1100.80
412.30	1100.03
412.67	1101.13
413.04	1102.98
413.40	1102.21
413.77	1101.50
414.14	1103.80
414.51	1101.83
414.87	1102.88
415.24	1104.22
415.61	1104.92
415.97	1102.46
416.34	1102.72
416.71	1100.73
417.08	1100.03
417.44	1103.02
417.81	1106.07
418.18	1106.58
418.54	1111.57
418.91	1112.62
419.28	1113.74
419.64	1112.22
420.01	1113.70
420.38	1115.29
420.74	1117.42
421.11	1115.03
421.48	1118.28
421.84	1122.15
422.21	1125.28
422.58	1131.60
422.94	1138.39
423.31	1143.21
423.68	1143.87
424.04	1145.83
424.41	1146.75
424.77	1145.83
425.14	1149.95
425.51	1158.89
425.87	1162.82
426.24	1167.08
426.61	1177.66
426.97	1181.78
427.34	1186.42
427.70	1194.35
428.07	1202.50
428.44	1209.71
428.80	1219.49
429.17	1230.21
429.53	1240.91
429.90	1252.91
430.27	1265.06
430.63	1278.19
431.00	1290.52
431.36	1305.78
431.73	1321.68
432.09	1336.68
432.46	1355.10
432.83	1373.40
433.19	1392.20
433.56	1412.05
433.92	1436.08
434.29	1458.18
434.65	1488.72
435.02	1519.22
435.38	1550.63
435.75	1584.10
436.11	1624.94
436.48	1661.71
436.84	1708.10
437.21	1758.35
437.57	1807.69
437.94	1856.56
438.30	1913.27
438.67	1966.96
439.03	2030.51
439.40	2098.52
439.76	2167.85
440.13	2239.68
440.49	2321.11
440.86	2397.27
441.22	2482.21
441.59	2579.13
441.95	2685.37
442.32	2791.46
442.68	2914.25
443.05	3035.42
443.41	3158.51
443.78	3289.08
444.14	3422.26
444.51	3555.77
444.87	3722.55
445.24	3888.24
445.60	4065.86
445.96	4256.64
446.33	4469.53
446.69	4668.71
447.06	4890.48
447.42	5112.13
447.79	5350.86
448.15	5618.08
448.51	5897.05
448.88	6217.82
449.24	6526.35
449.61	6876.49
449.97	7224.70
450.33	7609.69
450.70	7968.42
451.06	8405.45
451.43	8803.48
451.79	9266.49
452.15	9754.86
452.52	10291.66
452.88	10837.24
453.24	11470.05
453.61	12183.35
453.97	12898.79
454.34	13596.10
454.70	14430.39
455.06	15249.83
455.43	16008.98
455.79	16693.80
456.15	17522.07
456.52	18255.36
456.88	19177.16
457.24	20092.35
457.61	21206.17
457.97	22250.84
458.33	23356.91
458.70	24403.20
459.06	25374.47
459.42	26397.38
459.79	27337.55
460.15	28401.72
460.51	29396.80
460.88	30519.28
461.24	31505.74
461.60	32660.12
461.96	33705.49
462.33	34742.28
462.69	35797.77
463.05	36930.63
463.42	37937.46
463.78	38878.24
464.14	39613.75
464.50	40339.34
464.87	40859.81
465.23	41201.78
465.59	41610.54
465.95	41951.36
466.32	42186.94
466.68	42436.04
467.04	42599.22
467.40	42609.03
467.77	42723.11
468.13	42651.32
468.49	42510.19
468.85	42412.47
469.22	42279.51
469.58	42017.27
469.94	41870.94
470.30	41631.20
470.66	41276.26
471.03	40763.57
471.39	40399.99
471.75	39696.59
472.11	39003.74
472.47	38503.87
472.84	38003.02
473.20	37328.88
473.56	36910.65
473.92	36341.54
474.28	35715.64
474.65	35048.77
475.01	34342.12
475.37	33523.54
475.73	32821.85
476.09	32106.09
476.45	31460.62
476.81	30902.72
477.18	30344.65
477.54	29868.77
477.90	29423.65
478.26	28855.41
478.62	28321.54
478.98	27872.83
479.34	27434.38
479.71	26850.04
480.07	26394.08
480.43	25965.34
480.79	25491.38
481.15	25000.08
481.51	24636.88
481.87	24334.43
482.23	23966.52
482.59	23639.71
482.96	23314.94
483.32	22999.18
483.68	22581.63
484.04	22229.28
484.40	21816.60
484.76	21397.18
485.12	20935.95
485.48	20503.89
485.84	20005.47
486.20	19563.53
486.56	19118.55
486.92	18727.28
487.28	18330.49
487.64	17916.89
488.00	17528.15
488.37	17154.25
488.73	16720.37
489.09	16256.57
489.45	15839.48
489.81	15373.81
490.17	14919.77
490.53	14523.77
490.89	14121.74
491.25	13699.93
491.61	13311.75
491.97	12919.01
492.33	12505.51
492.69	12149.63
493.05	11815.33
493.41	11491.02
493.77	11163.63
494.13	10857.37
494.49	10556.03
494.85	10275.12
495.21	9998.30
495.57	9737.52
495.93	9482.14
496.29	9233.44
496.64	8996.60
497.00	8743.84
497.36	8490.60
497.72	8242.95
498.08	8023.38
498.44	7801.38
498.80	7597.66
499.16	7400.17
499.52	7208.78
499.88	7021.84
500.24	6847.12
500.60	6681.39
500.96	6527.92
501.32	6370.42
501.68	6199.21
502.03	6023.28
502.39	5854.57
502.75	5684.65
503.11	5532.25
503.47	5385.03
503.83	5255.18
504.19	5129.73
504.55	5011.95
504.91	4894.90
505.26	4782.23
505.62	4662.21
505.98	4542.82
506.34	4416.59
506.70	4296.80
507.06	4187.55
507.42	4080.93
507.78	3984.22
508.13	3895.12
508.49	3812.71
508.85	3735.75
509.21	3657.04
509.57	3579.31
509.93	3505.56
510.28	3419.87
510.64	3335.83
511.00	3253.30
511.36	3180.16
511.72	3108.07
512.07	3042.53
512.43	2980.48
512.79	2924.97
513.15	2860.13
513.51	2797.83
513.86	2746.27
514.22	2692.51
514.58	2637.78
514.94	2588.77
515.30	2545.22
515.65	2497.94
516.01	2455.03
516.37	2417.75
516.73	2383.72
517.08	2346.34
517.44	2308.73
517.80	2270.20
518.16	2228.28
518.51	2190.11
518.87	2155.94
519.23	2122.98
519.59	2089.91
519.94	2060.96
520.30	2030.13
520.66	1999.57
521.01	1971.90
521.37	1949.55
521.73	1922.38
522.09	1898.24
522.44	1871.77
522.80	1846.17
523.16	1820.96
523.51	1804.86
523.87	1782.53
524.23	1762.49
524.58	1741.85
524.94	1721.51
525.30	1694.69
525.65	1679.55
526.01	1662.48
526.37	1645.56
526.72	1626.16
527.08	1609.68
527.44	1589.36
527.79	1570.90
528.15	1556.71
528.51	1545.71
528.86	1533.78
529.22	1520.83
529.58	1510.68
529.93	1496.35
530.29	1482.17
530.65	1469.67
531.00	1459.16
531.36	1445.12
531.71	1433.95
532.07	1420.05
532.43	1407.74
532.78	1392.74
533.14	1388.29
533.49	1379.86
533.85	1371.65
534.21	1365.52
534.56	1362.47
534.92	1350.63
535.27	1342.65
535.63	1338.65
535.98	1330.13
536.34	1318.17
536.69	1309.90
537.05	1302.65
537.41	1292.89
537.76	1286.19
538.12	1280.06
538.47	1273.60
538.83	1272.24
539.18	1268.55
539.54	1265.79
539.89	1261.53
540.25	1257.36
540.60	1248.63
540.96	1242.78
541.31	1239.01
541.67	1239.59
542.02	1234.73
542.38	1232.64
542.73	1230.72
543.09	1227.26
543.44	1220.10
543.80	1221.69
544.15	1217.15
544.51	1210.10
544.86	1203.50
545.22	1202.80
545.57	1196.86
545.93	1194.26
546.28	1195.29
546.64	1195.52
546.99	1191.22
547.35	1188.95
547.70	1184.55
548.05	1181.43
548.41	1176.56
548.76	1174.41
549.12	1173.59
549.47	1170.99
549.83	1169.00
550.18	1168.70
550.53	1167.90
550.89	1165.28
551.24	1163.34
551.60	1159.95
551.95	1157.84
552.30	1153.28
552.66	1147.59
553.01	1146.09
553.37	1143.49
553.72	1140.75
554.07	1142.44
554.43	1139.91
554.78	1136.59
555.13	1134.41
555.49	1134.15
555.84	1132.52
556.19	1135.63
556.55	1138.60
556.90	1136.68
557.26	1137.24
557.61	1134.29
557.96	1131.53
558.32	1129.87
558.67	1130.03
559.02	1126.13
559.37	1125.35
559.73	1125.54
560.08	1123.29
560.43	1125.98
560.79	1124.16
561.14	1124.58
561.49	1125.05
561.85	1123.01
562.20	1122.97
562.55	1124.30
562.90	1119.83
563.26	1118.99
563.61	1118.59
563.96	1112.95
564.32	1111.22
564.67	1113.42
565.02	1110.51
565.37	1110.00
565.73	1112.25
566.08	1111.71
566.43	1110.35
566.78	1110.65
567.14	1109.84
567.49	1109.65
567.84	1111.54
568.19	1112.60
568.54	1112.08
568.90	1114.80
569.25	1112.15
569.60	1109.46
569.95	1106.32
570.31	1105.13
570.66	1102.46
571.01	1102.49
571.36	1099.70
571.71	1099.68
572.06	1102.79
572.42	1100.85
572.77	1100.50
573.12	1104.78
573.47	1105.32
573.82	1101.85
574.18	1102.32
574.53	1101.15
574.88	1099.49
575.23	1098.16
575.58	1096.38
575.93	1096.45
576.28	1096.52
576.64	1095.46
576.99	1094.76
577.34	1094.93
577.69	1095.07
578.04	1096.80
578.39	1095.58
578.74	1096.73
579.09	1097.71
579.44	1096.68
579.80	1098.06
580.15	1098.44
580.50	1094.60
580.85	1092.84
581.20	1091.60
581.55	1085.94
581.90	1086.43
582.25	1089.29
582.60	1088.42
582.95	1091.09
583.30	1092.16
583.65	1088.77
584.00	1090.64
584.35	1091.58
584.71	1090.48
585.06	1091.91
585.41	1092.61
585.76	1090.13
586.11	1087.23
586.46	1088.61
586.81	1089.24
587.16	1091.81
587.51	1091.72
587.86	1095.35
588.21	1093.57
588.56	1094.50
588.91	1094.20
589.26	1096.14
589.61	1096.14
589.96	1095.09
590.31	1094.25
590.66	1093.03
591.01	1090.62
591.36	1088.21
591.71	1089.99
592.06	1090.90
592.41	1091.11
592.76	1089.59
593.10	1090.34
593.45	1089.99
593.80	1086.31
594.15	1089.05
594.50	1090.95
594.85	1092.52
595.20	1090.29
595.55	1089.99
595.90	1086.52
596.25	1086.85
596.60	1084.42
596.95	1086.73
597.30	1087.18
597.64	1098.04
597.99	1099.09
598.34	1099.09
598.69	1097.20
599.04	1097.27
599.39	1089.68
599.74	1090.32
600.09	1090.67
600.44	1092.91
600.78	1093.66
601.13	1089.68
601.48	1089.73
601.83	1091.11
602.18	1088.54
602.53	1088.93
602.88	1091.60
603.22	1089.03
603.57	1087.53
603.92	1086.20
604.27	1084.70
604.62	1082.26
604.97	1083.88
605.31	1084.63
605.66	1089.92
606.01	1090.62
606.36	1089.24
606.71	1087.90
607.05	1086.01
607.40	1082.50
607.75	1085.28
608.10	1086.59
608.44	1086.50
608.79	1085.94
609.14	1086.41
609.49	1081.75
609.84	1081.82
610.18	1083.18
610.53	1085.61
610.88	1085.66
611.23	1086.41
611.57	1084.63
611.92	1083.86
612.27	1087.20
612.62	1088.12
612.96	1088.75
613.31	1090.41
613.66	1090.69
614.00	1087.16
614.35	1084.23
614.70	1084.07
615.05	1083.48
615.39	1082.12
615.74	1082.36
616.09	1084.58
616.43	1084.72
616.78	1087.88
617.13	1090.64
617.47	1087.51
617.82	1087.44
618.17	1088.00
618.51	1086.45
618.86	1087.74
619.21	1089.17
619.55	1091.51
619.90	1090.67
620.25	1087.58
620.59	1083.04
620.94	1084.30
621.29	1080.44
621.63	1082.05
621.98	1084.58
622.32	1083.06
622.67	1083.29
623.02	1085.59
623.36	1081.68
623.71	1081.66
624.05	1085.56
624.40	1085.59
624.75	1085.66
625.09	1089.85
625.44	1087.34
625.78	1083.32
626.13	1083.55
626.48	1084.81
626.82	1081.51
627.17	1083.48
627.51	1086.62
627.86	1084.46
628.20	1082.17
628.55	1082.36
628.89	1079.48
629.24	1075.31
629.58	1075.55
629.93	1075.20
630.28	1074.21
630.62	1078.07
630.97	1080.13
631.31	1082.03
631.66	1080.63
632.00	1083.69
632.35	1083.71
632.69	1081.82
633.04	1078.96
633.38	1081.07
633.73	1079.64
634.07	1079.20
634.42	1080.18
634.76	1083.50
635.11	1082.61
635.45	1081.21
635.79	1080.32
636.14	1083.20
636.48	1083.60
636.83	1085.10
637.17	1086.97
637.52	1088.14
637.86	1087.51
638.21	1082.69
638.55	1081.12
638.89	1081.47
639.24	1080.13
639.58	1081.75
639.93	1083.36
640.27	1081.40
640.61	1078.26
640.96	1077.11
641.30	1078.00
641.65	1081.47
641.99	1082.97
642.33	1082.52
642.68	1081.96
643.02	1078.94
643.37	1073.81
643.71	1073.14
644.05	1077.28
644.40	1077.35
644.74	1079.10
645.08	1084.35
645.43	1088.72
645.77	1084.96
646.11	1085.82
646.46	1084.35
646.80	1082.59
647.14	1080.88
647.49	1084.11
647.83	1086.29
648.17	1081.56
648.52	1081.37
648.86	1079.01
649.20	1076.34
649.55	1072.67
649.89	1078.31
650.23	1077.89
650.57	1077.33
650.92	1080.58
651.26	1083.25
651.60	1083.41
651.95	1081.84
652.29	1084.58
652.63	1084.23
652.97	1084.56
653.32	1079.53
653.66	1078.43
654.00	1078.75
654.34	1080.60
654.69	1079.15
655.03	1082.66
655.37	1081.47
655.71	1080.18
656.05	1077.35
656.40	1079.20
656.74	1078.92
657.08	1082.57
657.42	1080.98
657.76	1081.75
658.11	1083.06
658.45	1082.76
658.79	1083.13
659.13	1086.20
659.47	1085.28
659.82	1082.15
660.16	1083.18
660.50	1081.96
660.84	1080.98
661.18	1079.99
661.52	1080.18
661.87	1077.79
662.21	1079.60
662.55	1080.18
662.89	1082.87
663.23	1085.05
663.57	1086.80
663.91	1087.97
664.25	1089.29
664.60	1085.40
664.94	1085.07
665.28	1084.60
665.62	1081.80
665.96	1078.12
666.30	1080.53
666.64	1078.33
666.98	1080.37
667.32	1081.12
667.66	1081.54
668.01	1082.99
668.35	1085.05
668.69	1083.71
669.03	1084.74
669.37	1084.35
669.71	1080.74
670.05	1077.00
670.39	1076.06
670.73	1076.74
671.07	1076.67
671.41	1077.70
671.75	1077.72
672.09	1076.01
672.43	1074.91
672.77	1077.82
673.11	1076.97
673.45	1081.80
673.79	1084.44
674.13	1085.59
674.47	1080.93
674.81	1082.99
675.15	1081.23
675.49	1080.86
675.83	1079.55
676.17	1081.40
676.51	1083.41
676.85	1082.94
677.19	1083.90
677.53	1082.47
677.87	1084.00
678.21	1081.37
678.55	1080.93
678.89	1078.96
679.23	1078.36
679.57	1074.87
679.90	1074.59
680.24	1076.55
680.58	1077.91
680.92	1079.90
681.26	1086.43
681.60	1086.66
681.94	1084.79
682.28	1085.80
682.62	1088.89
682.96	1084.46
683.29	1085.52
683.63	1084.93
683.97	1082.76
684.31	1079.15
684.65	1079.97
684.99	1079.20
685.33	1081.68
685.67	1087.55
686.00	1087.25
686.34	1088.44
686.68	1088.02
687.02	1085.99
687.36	1082.12
687.70	1083.97
688.03	1085.24
688.37	1087.34
688.71	1089.87
689.05	1088.61
689.39	1085.10
689.72	1080.79
690.06	1080.74
690.40	1077.75
690.74	1079.38
691.08	1083.43
691.41	1081.75
691.75	1082.01
692.09	1081.49
692.43	1078.05
692.76	1073.37
693.10	1075.05
693.44	1070.09
693.78	1070.16
694.11	1073.16
694.45	1075.69
694.79	1076.97
695.13	1081.80
695.46	1081.28
695.80	1079.67
696.14	1080.32
696.48	1079.10
696.81	1081.30
697.15	1083.81
697.49	1082.19
697.82	1081.47
698.16	1083.41
698.50	1079.36
698.83	1077.65
699.17	1079.43
699.51	1078.75
699.84	1078.80
700.18	1077.84
700.52	1078.85
700.85	1077.07
701.19	1076.08
701.53	1073.09
701.86	1073.79
702.20	1073.04
702.54	1074.45
702.87	1073.09
703.21	1076.81
703.55	1077.44
703.88	1076.69
704.22	1078.28
704.55	1082.78
704.89	1081.35
705.23	1078.75
705.56	1079.55
705.90	1080.32
706.23	1079.01
706.57	1078.78
706.91	1082.08
707.24	1083.27
707.58	1081.73
707.91	1081.26
708.25	1080.51
708.58	1079.13
708.92	1082.10
709.26	1082.03
709.59	1081.58
709.93	1082.50
710.26	1080.48
710.60	1074.82
710.93	1077.30
711.27	1078.54
711.60	1078.89
711.94	1080.93
712.27	1082.94
712.61	1085.05
712.94	1085.28
713.28	1086.78
713.61	1086.38
713.95	1084.91
714.28	1082.01
714.62	1084.23
714.95	1083.08
715.29	1082.73
715.62	1085.84
715.96	1083.39
716.29	1081.42
716.63	1078.61
716.96	1079.13
717.29	1076.83
717.63	1074.70
717.96	1071.17
718.30	1072.76
718.63	1073.84
718.97	1075.85
719.30	1076.53
719.63	1077.54
719.97	1077.37
720.30	1076.62
720.64	1074.77
720.97	1076.46
721.30	1078.59
721.64	1078.73
721.97	1078.31
722.31	1079.43
722.64	1079.85
722.97	1081.16
723.31	1081.19
723.64	1079.64
723.97	1077.58
724.31	1077.58
724.64	1075.59
724.98	1077.02
725.31	1079.22
725.64	1081.00
725.98	1079.15
726.31	1080.91
726.64	1082.15
726.97	1081.80
727.31	1079.31
727.64	1081.56
727.97	1079.20
728.31	1075.66
728.64	1077.72
728.97	1081.33
729.31	1082.50
729.64	1081.54
729.97	1083.60
730.30	1082.76
730.64	1081.49
730.97	1079.83
731.30	1080.30
731.63	1079.90
731.97	1078.50
732.30	1079.03
732.63	1080.18
732.96	1080.53
733.30	1080.18
733.63	1079.53
733.96	1078.26
734.29	1079.15
734.63	1081.26
734.96	1079.24
735.29	1079.71
735.62	1082.08
735.95	1081.33
736.29	1081.58
736.62	1081.84
736.95	1082.36
737.28	1079.81
737.61	1076.83
737.94	1074.87
738.28	1076.20
738.61	1075.24
738.94	1072.76
739.27	1075.29
739.60	1077.14
739.93	1076.83
740.27	1078.92
740.60	1083.97
740.93	1085.47
741.26	1086.34
741.59	1083.08
741.92	1081.12
742.25	1080.02
742.58	1077.11
742.91	1076.90
743.25	1082.43
743.58	1084.58
743.91	1078.61
744.24	1077.61
744.57	1076.18
744.90	1075.05
745.23	1074.82
745.56	1080.37
745.89	1080.81
746.22	1079.60
746.55	1079.81
746.88	1079.38
747.21	1078.66
747.54	1081.70
747.87	1079.29
748.20	1079.43
748.53	1078.85
748.87	1076.32
749.20	1075.99
749.53	1079.76
749.86	1077.09
750.19	1077.07
750.52	1082.40
750.85	1077.65
751.18	1075.48
751.51	1078.12
751.84	1079.53
752.16	1077.02
752.49	1078.33
752.82	1079.90
753.15	1080.44
753.48	1078.96
753.81	1078.52
754.14	1080.46
754.47	1080.53
754.80	1079.06
755.13	1078.47
755.46	1075.36
755.79	1074.38
756.12	1075.52
756.45	1075.41
756.78	1073.98
757.11	1076.15
757.43	1078.10
757.76	1076.27
758.09	1076.46
758.42	1077.33
758.75	1079.29
759.08	1078.10
759.41	1077.09
759.74	1078.21
760.07	1079.74
760.39	1081.14
760.72	1083.95
761.05	1084.16
761.38	1081.77
761.71	1083.48
762.04	1080.93
762.36	1077.91
762.69	1076.37
763.02	1077.63
763.35	1076.58
763.68	1076.97
764.01	1076.93
764.33	1080.32
764.66	1080.20
764.99	1081.16
765.32	1079.29
765.65	1081.98
765.97	1083.18
766.30	1083.20
766.63	1082.05
766.96	1081.58
767.28	1079.69
767.61	1076.74
767.94	1078.14
768.27	1074.07
768.59	1075.43
768.92	1074.49
769.25	1073.88
769.58	1074.12
769.90	1077.23
770.23	1077.11
770.56	1078.43
770.89	1078.52
771.21	1080.41
771.54	1080.39
771.87	1078.33
772.19	1076.97
772.52	1076.53
772.85	1070.56
773.17	1069.67
773.50	1075.31
773.83	1076.58
774.15	1078.61
774.48	1082.12
774.81	1083.13
775.13	1080.56
775.46	1081.23
775.79	1078.43
776.11	1074.84
776.44	1074.75
776.77	1073.42
777.09	1071.57
777.42	1075.94
777.74	1078.92
778.07	1079.69
778.40	1080.02
778.72	1078.71
779.05	1080.06
779.37	1079.57
779.70	1077.28
780.03	1080.39
780.35	1080.91
780.68	1079.36
781.00	1079.81
781.33	1082.61
781.65	1080.98
781.98	1082.15
782.31	1079.53
782.63	1079.38
782.96	1079.13
783.28	1076.74
783.61	1072.90
783.93	1074.66
784.26	1074.59
784.58	1073.77
784.91	1077.02
785.23	1079.08
785.56	1081.26
785.88	1080.67
786.21	1078.03
786.53	1077.07
786.86	1077.89
787.18	1075.05
787.51	1074.07
787.83	1076.15
788.16	1073.18
788.48	1070.77
788.81	1069.91
789.13	1073.07
789.46	1075.03
789.78	1076.18
790.10	1081.96
790.43	1082.83
790.75	1078.75
791.08	1074.94
791.40	1075.13
791.73	1071.66
792.05	1074.17
792.37	1073.79
792.70	1074.94
793.02	1074.91
793.35	1075.55
793.67	1072.25
793.99	1075.29
794.32	1077.04
794.64	1078.31
794.96	1080.56
795.29	1079.06
795.61	1077.70
795.93	1077.98
796.26	1077.23
796.58	1075.90
796.91	1078.57
797.23	1080.30
797.55	1077.91
797.87	1079.88
798.20	1081.49
798.52	1082.43
798.84	1081.00
799.17	1080.95
799.49	1079.15
799.81	1078.28
800.14	1074.94
800.46	1074.82
800.78	1075.64
801.10	1075.59
801.43	1072.62
801.75	1077.16
802.07	1079.24
802.40	1079.31
802.72	1079.64
803.04	1081.89
803.36	1079.78
803.69	1078.66
804.01	1079.43
804.33	1080.25
804.65	1079.64
804.97	1079.92
805.30	1076.81
805.62	1076.90
805.94	1076.51
806.26	1076.51
806.58	1074.87
806.91	1076.79
807.23	1077.28
807.55	1073.32
807.87	1073.91
808.19	1077.72
808.52	1080.53
808.84	1078.87
809.16	1081.73
809.48	1081.09
809.80	1076.32
810.12	1074.38
810.44	1072.85
810.77	1074.61
811.09	1074.61
811.41	1077.63
811.73	1076.58
812.05	1079.62
812.37	1076.88
812.69	1077.58
813.01	1077.00
813.33	1078.66
813.66	1077.58
813.98	1080.77
814.30	1083.29
814.62	1083.55
814.94	1083.46
815.26	1083.18
815.58	1079.38
815.90	1074.94
816.22	1077.16
816.54	1076.32
816.86	1076.97
817.18	1076.53
817.50	1079.15
817.82	1075.29
818.14	1075.99
818.46	1076.83
818.78	1080.44
819.10	1079.36
819.42	1078.33
819.74	1077.93
820.06	1073.70
820.38	1069.86
820.70	1069.98
821.02	1072.88
821.34	1075.03
821.66	1078.12
821.98	1077.93
822.30	1077.96
822.62	1077.70
822.94	1073.93
823.26	1075.73
823.58	1079.06
823.90	1077.33
824.22	1075.94
824.54	1077.28
824.86	1075.52
825.18	1075.71
825.50	1077.00
825.81	1075.38
826.13	1072.74
826.45	1071.31
826.77	1070.21
827.09	1070.51
827.41	1071.50
827.73	1075.08
828.05	1074.87
828.36	1076.41
828.68	1076.67
829.00	1079.71
829.32	1081.47
829.64	1083.50
829.96	1083.36
830.28	1084.04
830.59	1080.39
830.91	1077.35
831.23	1077.75
831.55	1078.05
831.87	1073.67
832.19	1075.69
832.50	1077.14
832.82	1076.93
833.14	1076.65
833.46	1080.98
833.78	1080.58
834.09	1083.08
834.41	1082.15
834.73	1083.01
835.05	1081.23
835.36	1082.36
835.68	1077.77
836.00	1078.47
836.32	1076.25
836.63	1075.36
836.95	1074.28
837.27	1074.84
837.59	1073.23
837.90	1076.62
838.22	1079.13
838.54	1080.30
838.85	1079.10
839.17	1078.85
839.49	1075.43
839.80	1074.47
840.12	1073.46
840.44	1074.59
840.76	1079.62
841.07	1082.87
841.39	1084.37
841.71	1085.28
842.02	1084.81
842.34	1083.27
842.65	1079.41
842.97	1078.19
843.29	1075.87
843.60	1078.47
843.92	1074.42
844.24	1076.48
844.55	1074.05
844.87	1076.13
845.18	1074.70
845.50	1077.49
845.82	1076.97
846.13	1075.94
846.45	1074.98
846.76	1072.04
847.08	1068.29
847.40	1066.68
847.71	1069.25
848.03	1067.47
848.34	1072.41
848.66	1077.14
848.97	1075.38
849.29	1075.83
849.60	1077.25
849.92	1072.46
850.24	1069.55
850.55	1073.18
850.87	1072.22
851.18	1074.28
851.50	1076.20
851.81	1075.38
852.13	1075.62
852.44	1076.32
852.76	1072.08
853.07	1071.85
853.39	1076.08
853.70	1077.28
854.01	1077.11
854.33	1080.91
854.64	1080.91
854.96	1079.78
855.27	1077.44
855.59	1077.42
855.90	1076.34
856.22	1075.38
856.53	1073.51
856.84	1073.16
857.16	1071.45
857.47	1069.37
857.79	1073.39
858.10	1073.30
858.41	1073.63
858.73	1077.07
859.04	1078.54
859.36	1076.08
859.67	1076.95
859.98	1079.97
860.30	1078.66
860.61	1078.19
860.92	1079.08
861.24	1078.89
861.55	1074.84
861.87	1074.75
862.18	1077.30
862.49	1079.43
862.81	1079.60
863.12	1080.86
863.43	1081.42
863.74	1083.08
864.06	1078.85
864.37	1078.19
864.68	1079.88
865.00	1076.23
865.31	1073.58
865.62	1073.32
865.94	1072.41
866.25	1071.15
866.56	1075.22
866.87	1073.49
867.19	1075.03
867.50	1075.62
867.81	1072.13
868.12	1070.72
868.44	1072.43
868.75	1073.46
869.06	1076.69
869.37	1079.43
869.68	1081.02
870.00	1084.77
870.31	1082.92
870.62	1078.66
870.93	1081.47
871.24	1080.63
871.56	1075.15
871.87	1076.65
872.18	1076.95
872.49	1076.34
872.80	1075.45
873.12	1077.58
873.43	1076.88
873.74	1079.53
874.05	1080.63
874.36	1079.76
874.67	1079.08
874.98	1074.66
875.29	1073.53
875.61	1071.99
875.92	1075.05
876.23	1074.73
876.54	1079.10
876.85	1076.41
877.16	1073.58
877.47	1071.33
877.78	1072.36
878.09	1074.98
878.40	1077.61
878.72	1075.80
879.03	1077.54
879.34	1074.70
879.65	1073.28
879.96	1070.07
880.27	1074.87
880.58	1073.88
880.89	1078.59
881.20	1077.82
881.51	1079.31
881.82	1077.54
882.13	1077.11
882.44	1072.92
882.75	1074.59
883.06	1076.53
883.37	1076.18
883.68	1077.84
883.99	1076.72
884.30	1072.39
884.61	1070.87
884.92	1071.87
885.23	1069.41
885.54	1073.65
885.85	1075.31
886.16	1075.87
886.47	1074.40
886.78	1072.34
887.08	1071.40
887.39	1072.32
887.70	1074.82
888.01	1076.97
888.32	1079.88
888.63	1077.65
888.94	1078.12
889.25	1073.95
889.56	1072.78
889.87	1072.01
890.17	1072.88
890.48	1071.90
890.79	1073.56
891.10	1074.17
891.41	1078.92
891.72	1079.34
892.03	1080.16
892.34	1081.80
892.64	1077.58
892.95	1074.56
893.26	1072.83
893.57	1072.11
893.88	1073.00
894.18	1077.82
894.49	1076.58
894.80	1076.13
895.11	1079.03
895.42	1080.48
895.72	1079.31
896.03	1081.47
896.34	1082.08
896.65	1077.61
896.96	1074.19
897.26	1075.08
897.57	1073.53
897.88	1075.55
898.19	1077.56
898.49	1075.97
898.80	1073.42
899.11	1073.23
899.41	1072.29
899.72	1072.11
900.03	1073.02
900.34	1073.56
900.64	1075.85
900.95	1077.00
901.26	1077.28
901.56	1078.26
901.87	1079.85
902.18	1078.85
902.48	1078.75
902.79	1077.49
903.10	1075.27
903.40	1073.42
903.71	1070.68
904.02	1069.88
904.32	1072.95
904.63	1075.50
904.94	1076.58
905.24	1077.00
905.55	1074.89
905.85	1071.15
906.16	1072.67
906.47	1074.47
906.77	1074.61
907.08	1079.24
907.38	1080.51
907.69	1079.15
908.00	1074.98
908.30	1073.91
908.61	1075.01
908.91	1076.74
909.22	1078.33
909.52	1080.74
909.83	1083.25
910.14	1080.04
910.44	1077.47
910.75	1074.73
911.05	1075.85
911.36	1074.38
911.66	1074.54
911.97	1077.75
912.27	1079.60
912.58	1077.72
912.88	1077.09
913.19	1077.11
913.49	1074.40
913.80	1075.97
914.10	1078.26
914.41	1077.14
914.71	1077.98
915.01	1079.03
915.32	1077.16
915.62	1077.37
915.93	1075.27
916.23	1074.42
916.54	1073.14
916.84	1072.71
917.15	1069.32
917.45	1074.96
917.75	1075.59
918.06	1078.38
918.36	1077.23
918.67	1079.50
918.97	1074.91
919.27	1073.07
919.58	1071.94
919.88	1070.02
920.18	1068.13
920.49	1070.98
920.79	1072.39
921.10	1071.05
921.40	1069.13
921.70	1068.27
922.01	1069.20
922.31	1069.23
922.61	1068.92
922.92	1073.98
923.22	1076.15
923.52	1077.44
923.82	1075.24
924.13	1077.91
924.43	1076.53
924.73	1075.15
925.04	1071.38
925.34	1071.01
925.64	1068.99
925.94	1069.27
926.25	1069.79
926.55	1073.18
926.85	1075.55
927.15	1075.76
927.46	1077.42
927.76	1077.09
928.06	1073.32
928.36	1072.57
928.67	1073.56
928.97	1072.04
929.27	1070.26
929.57	1075.29
929.87	1077.14
930.18	1076.34
930.48	1073.46
930.78	1076.46
931.08	1073.44
931.38	1072.95
931.69	1071.26
931.99	1072.97
932.29	1071.24
932.59	1070.51
932.89	1071.40
933.19	1071.71
933.49	1073.70
933.80	1075.59
934.10	1078.03
934.40	1075.29
934.70	1075.76
935.00	1074.84
935.30	1069.67
935.60	1069.39
935.90	1069.18
936.20	1066.84
936.50	1066.96
936.81	1072.74
937.11	1070.12
937.41	1073.53
937.71	1076.27
938.01	1074.98
938.31	1075.99
938.61	1078.68
938.91	1079.15
939.21	1079.67
939.51	1081.30
939.81	1080.27
940.11	1078.07
940.41	1075.64
940.71	1074.73
941.01	1073.56
941.31	1072.01
941.61	1074.35
941.91	1072.41
942.21	1073.14
942.51	1074.17
942.81	1071.75
943.11	1070.89
943.41	1073.32
943.71	1072.81
944.01	1073.74
944.31	1076.74
944.61	1075.17
944.90	1077.40
945.20	1079.48
945.50	1077.23
945.80	1077.23
946.10	1078.50
946.40	1072.90
946.70	1071.29
947.00	1075.22
947.30	1076.74
947.60	1077.44
947.89	1082.50
948.19	1082.03
948.49	1082.29
948.79	1083.11
949.09	1081.33
949.39	1079.74
949.69	1078.61
949.98	1076.11
950.28	1072.76
950.58	1072.78
950.88	1071.87
951.18	1074.73
951.48	1074.12
951.77	1075.83
952.07	1075.92
952.37	1075.41
952.67	1072.22
952.97	1071.68
953.26	1073.51
953.56	1075.36
953.86	1077.42
954.16	1080.06
954.45	1081.40
954.75	1080.16
955.05	1080.46
955.35	1079.38
955.64	1077.82
955.94	1077.16
956.24	1076.39
956.54	1074.35
956.83	1073.37
957.13	1074.10
957.43	1074.56
957.72	1073.16
958.02	1074.80
958.32	1075.92
958.61	1077.16
958.91	1078.36
959.21	1079.83
959.50	1079.76
959.80	1082.10
960.10	1081.12
960.39	1078.92
960.69	1079.36
960.99	1080.37
961.28	1078.52
961.58	1078.21
961.87	1079.17
962.17	1078.59
962.47	1076.44
962.76	1073.18
963.06	1073.14
963.36	1069.84
963.65	1069.34
963.95	1067.73
964.24	1069.04
964.54	1070.47
964.83	1074.52
965.13	1077.35
965.42	1080.11
965.72	1079.46
966.02	1079.24
966.31	1080.56
966.61	1075.85
966.90	1075.05
967.20	1078.45
967.49	1077.86
967.79	1076.15
968.08	1078.68
968.38	1079.36
968.67	1076.93
968.97	1077.96
969.26	1074.59
969.56	1076.60
969.85	1078.28
970.15	1076.48
970.44	1075.15
970.74	1080.04
971.03	1077.14
971.32	1077.56
971.62	1079.48
971.91	1078.14
972.21	1075.59
972.50	1074.28
972.80	1070.47
973.09	1070.56
973.38	1072.92
973.68	1076.15
973.97	1078.26
974.27	1078.96
974.56	1077.93
974.85	1074.26
975.15	1071.47
975.44	1072.43
975.73	1073.67
976.03	1075.97
976.32	1081.40
976.61	1080.74
976.91	1079.53
977.20	1078.94
977.49	1079.57
977.79	1073.72
978.08	1073.88
978.37	1074.07
978.67	1073.37
978.96	1072.27
979.25	1075.59
979.55	1076.18
979.84	1076.39
980.13	1076.86
980.42	1074.66
980.72	1073.86
981.01	1073.00
981.30	1073.16
981.59	1074.10
981.89	1075.99
982.18	1074.24
982.47	1075.38
982.76	1073.65
983.06	1072.01
983.35	1072.01
983.64	1073.86
983.93	1072.39
984.22	1075.27
984.52	1073.30
984.81	1074.84
985.10	1077.04
985.39	1078.96
985.68	1078.07
985.97	1081.09
986.27	1078.52
986.56	1077.18
986.85	1076.01
987.14	1074.33
987.43	1074.31
987.72	1074.19
988.01	1074.33
988.31	1072.60
988.60	1074.73
988.89	1075.20
989.18	1077.96
989.47	1076.23
989.76	1077.21
990.05	1076.51
990.34	1075.80
990.63	1073.18
990.92	1074.31
991.21	1073.98
991.51	1070.96
991.80	1070.65
992.09	1069.16
992.38	1070.37
992.67	1071.82
992.96	1074.05
993.25	1073.58
993.54	1076.39
993.83	1077.54
994.12	1075.52
994.41	1074.77
994.70	1076.27
994.99	1076.01
995.28	1073.00
995.57	1074.19
995.86	1075.43
996.15	1076.06
996.44	1076.44
996.73	1077.35
997.02	1078.03
997.31	1078.61
997.59	1078.73
997.88	1076.41
998.17	1076.44
998.46	1075.99
998.75	1073.63
999.04	1074.12
999.33	1073.67
999.62	1070.91
999.91	1069.44
1000.20	1069.77
1000.49	1070.68
1000.77	1070.82
1001.06	1074.00
1001.35	1074.40
1001.64	1072.50
1001.93	1070.02
1002.22	1074.17
1002.51	1073.16
1002.79	1072.78
1003.08	1075.15
1003.37	1075.71
1003.66	1073.32
1003.95	1074.38
1004.23	1075.48
1004.52	1074.91
1004.81	1073.30
1005.10	1075.10
1005.39	1075.92
1005.67	1078.17
1005.96	1079.08
1006.25	1082.31
1006.54	1081.42
1006.83	1077.30
1007.11	1077.61
1007.40	1077.77
1007.69	1073.51
1007.97	1071.05
1008.26	1077.96
1008.55	1079.55
1008.84	1077.61
1009.12	1079.76
1009.41	1080.88
1009.70	1075.10
1009.98	1070.49
1010.27	1073.02
1010.56	1071.31
1010.85	1071.10
1011.13	1073.65
1011.42	1075.13
1011.71	1076.60
1011.99	1076.25
1012.28	1075.90
1012.56	1075.71
1012.85	1077.09
1013.14	1078.10
1013.42	1079.17
1013.71	1081.42
1014.00	1082.08
1014.28	1078.94
1014.57	1074.56
1014.85	1073.60
1015.14	1074.17
1015.43	1074.28
1015.71	1075.73
1016.00	1076.18
1016.28	1075.31
1016.57	1074.47
1016.85	1071.97
1017.14	1072.53
1017.43	1072.81
1017.71	1075.01
1018.00	1073.37
1018.28	1075.52
1018.57	1073.86
1018.85	1074.26
1019.14	1076.18
1019.42	1075.48
1019.71	1075.10
1019.99	1077.42
1020.28	1077.77
1020.56	1076.72
1020.85	1077.40
1021.13	1075.48
1021.42	1074.73
1021.70	1075.62
1021.99	1072.15
1022.27	1072.69
1022.55	1061.55
1022.84	1074.31
>>>>>End Processed Spectral Data<<<<<
