SpectraSuite Data File
++++++++++++++++++++++++++++++++++++
Date: Mon Aug 26 10:22:03 PDT 2019
User: corrico
Dark Spectrum Present: No
Reference Spectrum Present: No
Number of Sampled Component Spectra: 1
Spectrometers: USB2+H06089
Integration Time (usec): 2000 (USB2+H06089)
Spectra Averaged: 20 (USB2+H06089)
Boxcar Smoothing: 2 (USB2+H06089)
Correct for Electrical Dark: No (USB2+H06089)
Strobe/Lamp Enabled: No (USB2+H06089)
Correct for Detector Non-linearity: No (USB2+H06089)
Correct for Stray Light: No (USB2+H06089)
Number of Pixels in Processed Spectrum: 2048
>>>>>Begin Processed Spectral Data<<<<<
339.70	1022.70
340.07	1022.70
340.45	988.10
340.82	966.27
341.19	945.41
341.57	923.67
341.94	911.76
342.31	906.58
342.69	904.69
343.06	899.84
343.43	894.01
343.81	897.74
344.18	897.57
344.55	899.35
344.93	902.77
345.30	910.63
345.67	914.87
346.04	925.33
346.42	933.62
346.79	944.31
347.16	955.48
347.54	965.35
347.91	972.80
348.28	983.17
348.65	991.87
349.03	1000.11
349.40	1011.39
349.77	1021.13
350.14	1028.01
350.52	1034.77
350.89	1039.88
351.26	1043.41
351.63	1046.97
352.01	1051.46
352.38	1056.92
352.75	1060.36
353.12	1064.03
353.50	1067.47
353.87	1072.15
354.24	1074.38
354.61	1078.17
354.98	1081.54
355.36	1083.39
355.73	1081.73
356.10	1087.11
356.47	1087.16
356.84	1087.30
357.22	1091.74
357.59	1094.90
357.96	1091.13
358.33	1091.77
358.70	1091.77
359.08	1087.83
359.45	1085.94
359.82	1086.43
360.19	1086.50
360.56	1085.12
360.94	1081.89
361.31	1082.90
361.68	1082.80
362.05	1080.79
362.42	1083.83
362.79	1083.64
363.16	1081.66
363.54	1079.31
363.91	1076.34
364.28	1075.64
364.65	1076.41
365.02	1076.41
365.39	1075.43
365.76	1076.48
366.14	1074.14
366.51	1072.11
366.88	1069.70
367.25	1069.51
367.62	1070.33
367.99	1068.62
368.36	1072.50
368.73	1074.35
369.10	1073.98
369.48	1072.55
369.85	1075.05
370.22	1074.98
370.59	1077.14
370.96	1078.43
371.33	1080.30
371.70	1078.89
372.07	1074.75
372.44	1071.87
372.81	1068.92
373.18	1065.48
373.55	1062.93
373.93	1070.16
374.30	1071.08
374.67	1074.38
375.04	1077.72
375.41	1080.95
375.78	1079.01
376.15	1077.86
376.52	1074.21
376.89	1077.33
377.26	1075.73
377.63	1072.69
378.00	1072.43
378.37	1074.07
378.74	1071.45
379.11	1074.12
379.48	1073.72
379.85	1073.95
380.22	1077.23
380.59	1075.97
380.96	1078.80
381.33	1079.76
381.70	1079.24
382.07	1077.23
382.44	1080.98
382.81	1076.20
383.18	1075.94
383.55	1076.74
383.92	1077.70
384.29	1075.15
384.66	1074.05
385.03	1076.25
385.40	1078.17
385.77	1077.14
386.14	1076.62
386.51	1080.30
386.88	1081.82
387.25	1076.74
387.62	1077.09
387.99	1080.86
388.36	1080.37
388.73	1078.78
389.10	1083.01
389.46	1083.50
389.83	1083.76
390.20	1084.81
390.57	1084.32
390.94	1085.63
391.31	1085.61
391.68	1082.59
392.05	1081.12
392.42	1080.79
392.79	1081.16
393.16	1082.50
393.53	1084.79
393.89	1085.84
394.26	1085.94
394.63	1086.01
395.00	1086.41
395.37	1085.28
395.74	1084.00
396.11	1086.08
396.48	1085.70
396.84	1088.54
397.21	1090.92
397.58	1092.98
397.95	1092.37
398.32	1094.62
398.69	1092.68
399.06	1091.95
399.42	1091.23
399.79	1092.35
400.16	1091.23
400.53	1091.56
400.90	1092.94
401.27	1091.72
401.64	1091.11
402.00	1092.37
402.37	1088.75
402.74	1085.19
403.11	1087.27
403.48	1085.70
403.84	1084.32
404.21	1088.12
404.58	1093.45
404.95	1093.26
405.32	1094.83
405.68	1096.52
406.05	1098.67
406.42	1094.57
406.79	1097.66
407.16	1099.14
407.52	1096.31
407.89	1094.86
408.26	1098.41
408.63	1095.75
408.99	1093.45
409.36	1098.88
409.73	1099.65
410.10	1099.05
410.47	1098.98
410.83	1099.96
411.20	1093.97
411.57	1093.45
411.94	1097.78
412.30	1099.65
412.67	1099.89
413.04	1103.91
413.40	1102.06
413.77	1098.11
414.14	1099.63
414.51	1098.95
414.87	1098.41
415.24	1101.74
415.61	1103.31
415.97	1104.38
416.34	1109.62
416.71	1111.89
417.08	1113.04
417.44	1111.52
417.81	1112.11
418.18	1109.98
418.54	1109.06
418.91	1108.71
419.28	1108.71
419.64	1108.17
420.01	1110.79
420.38	1113.04
420.74	1113.93
421.11	1119.95
421.48	1122.17
421.84	1126.15
422.21	1129.96
422.58	1134.20
422.94	1134.62
423.31	1137.27
423.68	1140.10
424.04	1144.66
424.41	1148.22
424.77	1154.96
425.14	1161.33
425.51	1165.31
425.87	1168.63
426.24	1172.63
426.61	1175.16
426.97	1182.42
427.34	1189.18
427.70	1198.19
428.07	1206.50
428.44	1218.27
428.80	1224.29
429.17	1230.28
429.53	1240.30
429.90	1252.77
430.27	1260.10
430.63	1274.56
431.00	1292.75
431.36	1306.07
431.73	1318.17
432.09	1336.19
432.46	1352.85
432.83	1370.69
433.19	1390.93
433.56	1415.28
433.92	1440.44
434.29	1467.24
434.65	1498.08
435.02	1528.91
435.38	1560.46
435.75	1592.97
436.11	1634.58
436.48	1675.68
436.84	1720.72
437.21	1768.91
437.57	1817.73
437.94	1860.30
438.30	1911.33
438.67	1965.18
439.03	2029.95
439.40	2100.37
439.76	2170.29
440.13	2245.07
440.49	2326.59
440.86	2407.05
441.22	2494.12
441.59	2588.23
441.95	2691.99
442.32	2797.13
442.68	2911.67
443.05	3033.92
443.41	3165.43
443.78	3291.80
444.14	3428.72
444.51	3571.33
444.87	3740.97
445.24	3907.27
445.60	4089.59
445.96	4273.72
446.33	4484.42
446.69	4671.66
447.06	4886.92
447.42	5113.77
447.79	5358.33
448.15	5625.92
448.51	5921.46
448.88	6255.46
449.24	6569.86
449.61	6930.84
449.97	7299.52
450.33	7679.41
450.70	8041.10
451.06	8490.01
451.43	8898.93
451.79	9360.46
452.15	9857.40
452.52	10392.40
452.88	10928.36
453.24	11575.12
453.61	12263.33
453.97	12966.26
454.34	13665.03
454.70	14486.77
455.06	15288.22
455.43	16065.16
455.79	16775.04
456.15	17627.65
456.52	18403.21
456.88	19335.94
457.24	20273.74
457.61	21385.36
457.97	22408.83
458.33	23459.94
458.70	24486.61
459.06	25436.92
459.42	26477.75
459.79	27437.94
460.15	28526.52
460.51	29529.91
460.88	30636.75
461.24	31605.78
461.60	32742.39
461.96	33818.24
462.33	34870.26
462.69	35944.10
463.05	37083.61
463.42	38115.95
463.78	39019.14
464.14	39764.91
464.50	40493.30
464.87	41012.93
465.23	41364.03
465.59	41773.32
465.95	42161.83
466.32	42460.52
466.68	42780.41
467.04	42991.52
467.40	43082.22
467.77	43188.22
468.13	43114.94
468.49	42913.25
468.85	42785.02
469.22	42647.32
469.58	42357.66
469.94	42164.21
470.30	41964.19
470.66	41617.70
471.03	41063.48
471.39	40639.85
471.75	39876.15
472.11	39044.86
472.47	38431.95
472.84	37846.88
473.20	37127.10
473.56	36753.46
473.92	36277.74
474.28	35729.19
474.65	35150.42
475.01	34516.70
475.37	33695.94
475.73	32986.60
476.09	32230.30
476.45	31557.05
476.81	31003.86
477.18	30442.65
477.54	29976.74
477.90	29562.35
478.26	29001.79
478.62	28471.26
478.98	28044.98
479.34	27609.01
479.71	27052.57
480.07	26627.99
480.43	26178.96
480.79	25687.31
481.15	25187.49
481.51	24786.30
481.87	24416.82
482.23	24035.92
482.59	23692.82
482.96	23334.53
483.32	22995.25
483.68	22590.71
484.04	22238.97
484.40	21832.99
484.76	21448.08
485.12	21032.85
485.48	20625.22
485.84	20145.83
486.20	19730.18
486.56	19266.78
486.92	18845.01
487.28	18429.12
487.64	18015.13
488.00	17588.21
488.37	17173.84
488.73	16688.11
489.09	16181.57
489.45	15727.37
489.81	15266.73
490.17	14837.03
490.53	14479.16
490.89	14115.09
491.25	13733.23
491.61	13343.93
491.97	12959.01
492.33	12557.93
492.69	12214.32
493.05	11879.30
493.41	11558.76
493.77	11220.04
494.13	10915.11
494.49	10602.86
494.85	10296.63
495.21	10011.74
495.57	9758.11
495.93	9479.19
496.29	9214.43
496.64	8980.68
497.00	8729.71
497.36	8469.32
497.72	8237.66
498.08	8019.26
498.44	7786.73
498.80	7575.31
499.16	7376.03
499.52	7167.05
499.88	6984.04
500.24	6823.34
500.60	6666.88
500.96	6519.77
501.32	6380.96
501.68	6215.62
502.03	6042.00
502.39	5874.51
502.75	5715.94
503.11	5560.32
503.47	5423.26
503.83	5296.91
504.19	5173.54
504.55	5046.03
504.91	4927.93
505.26	4806.22
505.62	4685.52
505.98	4572.66
506.34	4456.24
506.70	4337.13
507.06	4226.12
507.42	4124.98
507.78	4027.41
508.13	3929.34
508.49	3844.10
508.85	3767.79
509.21	3681.99
509.57	3595.09
509.93	3515.74
510.28	3427.78
510.64	3344.39
511.00	3264.88
511.36	3186.31
511.72	3116.21
512.07	3055.64
512.43	2991.04
512.79	2930.42
513.15	2871.51
513.51	2810.37
513.86	2751.28
514.22	2700.09
514.58	2647.12
514.94	2600.64
515.30	2555.84
515.65	2515.35
516.01	2475.68
516.37	2432.26
516.73	2391.75
517.08	2349.57
517.44	2303.37
517.80	2259.95
518.16	2227.89
518.51	2195.63
518.87	2166.77
519.23	2137.24
519.59	2104.89
519.94	2065.78
520.30	2033.71
520.66	2002.80
521.01	1974.34
521.37	1946.44
521.73	1924.15
522.09	1894.29
522.44	1868.82
522.80	1850.33
523.16	1830.09
523.51	1812.11
523.87	1795.17
524.23	1778.46
524.58	1752.85
524.94	1733.78
525.30	1705.03
525.65	1684.53
526.01	1663.37
526.37	1643.03
526.72	1627.26
527.08	1612.98
527.44	1599.41
527.79	1581.90
528.15	1573.17
528.51	1551.19
528.86	1533.19
529.22	1514.21
529.58	1498.81
529.93	1482.92
530.29	1474.44
530.65	1467.68
531.00	1455.84
531.36	1443.55
531.71	1426.84
532.07	1415.16
532.43	1400.83
532.78	1389.53
533.14	1383.63
533.49	1376.84
533.85	1369.05
534.21	1363.81
534.56	1357.81
534.92	1348.08
535.27	1344.36
535.63	1331.13
535.98	1326.17
536.34	1319.78
536.69	1313.72
537.05	1303.96
537.41	1300.50
537.76	1289.96
538.12	1283.64
538.47	1274.05
538.83	1266.77
539.18	1261.15
539.54	1256.61
539.89	1252.82
540.25	1252.51
540.60	1252.87
540.96	1251.62
541.31	1247.46
541.67	1242.19
542.02	1237.28
542.38	1229.18
542.73	1221.57
543.09	1218.01
543.44	1216.89
543.80	1215.30
544.15	1211.02
544.51	1211.04
544.86	1206.12
545.22	1199.83
545.57	1196.53
545.93	1196.97
546.28	1195.69
546.64	1192.78
546.99	1190.49
547.35	1188.22
547.70	1185.15
548.05	1181.92
548.41	1182.16
548.76	1180.38
549.12	1177.48
549.47	1175.89
549.83	1169.99
550.18	1166.01
550.53	1163.18
550.89	1158.28
551.24	1154.89
551.60	1152.81
551.95	1153.16
552.30	1152.62
552.66	1151.96
553.01	1150.26
553.37	1151.31
553.72	1147.00
554.07	1145.11
554.43	1144.15
554.78	1141.39
555.13	1139.49
555.49	1140.38
555.84	1137.13
556.19	1135.51
556.55	1139.89
556.90	1140.75
557.26	1141.90
557.61	1145.22
557.96	1140.96
558.32	1136.77
558.67	1133.31
559.02	1129.61
559.37	1122.73
559.73	1129.24
560.08	1127.60
560.43	1127.79
560.79	1124.21
561.14	1123.81
561.49	1118.61
561.85	1119.17
562.20	1117.09
562.55	1117.56
562.90	1117.77
563.26	1116.88
563.61	1115.43
563.96	1116.48
564.32	1116.53
564.67	1117.86
565.02	1116.39
565.37	1111.45
565.73	1110.44
566.08	1110.37
566.43	1106.54
566.78	1107.00
567.14	1109.69
567.49	1108.83
567.84	1108.48
568.19	1111.54
568.54	1109.06
568.90	1109.27
569.25	1106.56
569.60	1105.60
569.95	1102.21
570.31	1099.86
570.66	1098.55
571.01	1098.20
571.36	1099.49
571.71	1098.98
572.06	1104.26
572.42	1105.95
572.77	1106.14
573.12	1104.80
573.47	1104.73
573.82	1104.50
574.18	1102.02
574.53	1105.20
574.88	1101.81
575.23	1098.86
575.58	1095.18
575.93	1092.91
576.28	1089.45
576.64	1093.01
576.99	1094.41
577.34	1094.01
577.69	1092.96
578.04	1092.66
578.39	1088.93
578.74	1088.19
579.09	1087.11
579.44	1089.99
579.80	1091.53
580.15	1095.02
580.50	1097.71
580.85	1098.06
581.20	1099.00
581.55	1097.17
581.90	1096.89
582.25	1097.85
582.60	1100.08
582.95	1096.70
583.30	1093.90
583.65	1090.13
584.00	1091.04
584.35	1090.01
584.71	1091.23
585.06	1088.56
585.41	1090.99
585.76	1085.73
586.11	1085.59
586.46	1085.91
586.81	1091.09
587.16	1089.73
587.51	1090.34
587.86	1093.38
588.21	1092.19
588.56	1091.46
588.91	1091.84
589.26	1092.45
589.61	1089.87
589.96	1089.07
590.31	1090.67
590.66	1088.63
591.01	1090.22
591.36	1088.56
591.71	1088.89
592.06	1085.21
592.41	1086.66
592.76	1085.38
593.10	1085.61
593.45	1087.30
593.80	1085.00
594.15	1083.11
594.50	1083.88
594.85	1082.31
595.20	1078.82
595.55	1082.57
595.90	1084.67
596.25	1084.37
596.60	1084.07
596.95	1085.17
597.30	1085.59
597.64	1097.43
597.99	1097.83
598.34	1097.69
598.69	1099.42
599.04	1097.22
599.39	1086.08
599.74	1084.04
600.09	1084.98
600.44	1083.08
600.78	1084.93
601.13	1084.37
601.48	1084.84
601.83	1085.21
602.18	1085.99
602.53	1084.30
602.88	1080.34
603.22	1081.98
603.57	1082.50
603.92	1083.27
604.27	1086.59
604.62	1088.02
604.97	1085.99
605.31	1082.73
605.66	1082.01
606.01	1078.19
606.36	1079.20
606.71	1079.83
607.05	1080.70
607.40	1079.60
607.75	1082.50
608.10	1085.73
608.44	1085.96
608.79	1088.89
609.14	1092.96
609.49	1093.24
609.84	1091.37
610.18	1093.45
610.53	1095.21
610.88	1093.10
611.23	1090.55
611.57	1092.80
611.92	1088.37
612.27	1083.69
612.62	1079.55
612.96	1080.67
613.31	1077.11
613.66	1079.17
614.00	1080.93
614.35	1084.49
614.70	1085.84
615.05	1088.19
615.39	1089.64
615.74	1088.63
616.09	1085.99
616.43	1082.64
616.78	1079.41
617.13	1077.75
617.47	1079.83
617.82	1080.77
618.17	1083.13
618.51	1084.98
618.86	1083.83
619.21	1083.43
619.55	1085.38
619.90	1088.23
620.25	1089.80
620.59	1092.49
620.94	1094.97
621.29	1095.58
621.63	1094.01
621.98	1091.65
622.32	1089.22
622.67	1083.41
623.02	1082.43
623.36	1081.35
623.71	1083.60
624.05	1083.34
624.40	1085.03
624.75	1083.74
625.09	1082.61
625.44	1081.21
625.78	1084.07
626.13	1085.03
626.48	1084.02
626.82	1084.70
627.17	1082.54
627.51	1082.10
627.86	1082.17
628.20	1085.61
628.55	1087.76
628.89	1090.48
629.24	1090.06
629.58	1092.09
629.93	1090.69
630.28	1087.09
630.62	1086.36
630.97	1084.09
631.31	1082.29
631.66	1081.82
632.00	1082.19
632.35	1081.70
632.69	1082.03
633.04	1080.77
633.38	1080.70
633.73	1081.68
634.07	1080.93
634.42	1082.69
634.76	1084.44
635.11	1082.99
635.45	1082.97
635.79	1079.27
636.14	1078.05
636.48	1073.25
636.83	1073.42
637.17	1072.60
637.52	1073.28
637.86	1076.06
638.21	1078.52
638.55	1080.53
638.89	1079.97
639.24	1085.80
639.58	1083.86
639.93	1085.52
640.27	1083.04
640.61	1083.08
640.96	1082.19
641.30	1083.04
641.65	1083.64
641.99	1085.03
642.33	1086.45
642.68	1086.36
643.02	1082.45
643.37	1082.54
643.71	1083.32
644.05	1083.34
644.40	1083.36
644.74	1085.38
645.08	1085.45
645.43	1083.41
645.77	1082.47
646.11	1084.49
646.46	1085.42
646.80	1081.49
647.14	1082.73
647.49	1082.99
647.83	1077.70
648.17	1075.55
648.52	1077.77
648.86	1076.25
649.20	1075.76
649.55	1077.54
649.89	1078.45
650.23	1078.36
650.57	1082.90
650.92	1082.99
651.26	1082.69
651.60	1084.28
651.95	1085.70
652.29	1082.92
652.63	1083.71
652.97	1083.46
653.32	1079.97
653.66	1079.57
654.00	1076.93
654.34	1077.09
654.69	1077.58
655.03	1076.15
655.37	1074.75
655.71	1078.54
656.05	1076.83
656.40	1077.70
656.74	1082.52
657.08	1085.12
657.42	1084.56
657.76	1088.61
658.11	1087.72
658.45	1086.99
658.79	1085.73
659.13	1085.52
659.47	1082.59
659.82	1080.86
660.16	1083.39
660.50	1081.89
660.84	1082.45
661.18	1081.87
661.52	1082.15
661.87	1080.30
662.21	1080.86
662.55	1082.47
662.89	1081.80
663.23	1082.03
663.57	1080.34
663.91	1081.61
664.25	1079.48
664.60	1079.48
664.94	1080.37
665.28	1082.05
665.62	1083.11
665.96	1083.60
666.30	1084.96
666.64	1083.93
666.98	1085.28
667.32	1084.56
667.66	1086.34
668.01	1086.99
668.35	1090.69
668.69	1088.93
669.03	1089.14
669.37	1084.28
669.71	1083.27
670.05	1077.98
670.39	1075.27
670.73	1072.01
671.07	1076.11
671.41	1077.18
671.75	1081.42
672.09	1084.77
672.43	1087.44
672.77	1084.70
673.11	1087.18
673.45	1087.27
673.79	1085.00
674.13	1086.87
674.47	1087.60
674.81	1081.98
675.15	1080.04
675.49	1078.36
675.83	1075.76
676.17	1073.37
676.51	1073.49
676.85	1074.63
677.19	1079.99
677.53	1080.23
677.87	1082.61
678.21	1082.80
678.55	1080.91
678.89	1077.93
679.23	1079.48
679.57	1079.88
679.90	1081.70
680.24	1080.51
680.58	1079.38
680.92	1077.28
681.26	1074.82
681.60	1075.29
681.94	1076.01
682.28	1078.12
682.62	1077.77
682.96	1078.82
683.29	1077.75
683.63	1080.95
683.97	1082.64
684.31	1083.46
684.65	1082.66
684.99	1081.94
685.33	1080.23
685.67	1078.94
686.00	1076.41
686.34	1077.16
686.68	1078.73
687.02	1079.13
687.36	1078.71
687.70	1078.75
688.03	1079.85
688.37	1081.56
688.71	1085.38
689.05	1087.41
689.39	1088.42
689.72	1090.41
690.06	1087.93
690.40	1084.30
690.74	1082.03
691.08	1081.66
691.41	1079.99
691.75	1081.47
692.09	1079.74
692.43	1080.06
692.76	1079.99
693.10	1077.61
693.44	1078.85
693.78	1081.37
694.11	1079.06
694.45	1082.45
694.79	1084.67
695.13	1085.10
695.46	1087.20
695.80	1088.09
696.14	1085.73
696.48	1086.22
696.81	1083.18
697.15	1082.64
697.49	1084.98
697.82	1085.17
698.16	1084.07
698.50	1085.38
698.83	1087.93
699.17	1087.53
699.51	1087.30
699.84	1085.28
700.18	1084.00
700.52	1080.27
700.85	1078.36
701.19	1080.41
701.53	1085.24
701.86	1086.45
702.20	1084.44
702.54	1083.83
702.87	1080.63
703.21	1075.27
703.55	1073.93
703.88	1074.05
704.22	1072.95
704.55	1073.60
704.89	1077.98
705.23	1077.91
705.56	1078.14
705.90	1077.75
706.23	1074.96
706.57	1075.38
706.91	1077.56
707.24	1079.95
707.58	1083.97
707.91	1089.26
708.25	1085.73
708.58	1083.97
708.92	1081.56
709.26	1080.91
709.59	1082.08
709.93	1080.18
710.26	1080.18
710.60	1079.69
710.93	1079.97
711.27	1076.37
711.60	1079.83
711.94	1078.64
712.27	1079.46
712.61	1080.48
712.94	1080.63
713.28	1079.08
713.61	1081.54
713.95	1080.32
714.28	1079.27
714.62	1080.41
714.95	1083.13
715.29	1082.73
715.62	1084.42
715.96	1086.62
716.29	1085.87
716.63	1082.87
716.96	1083.50
717.29	1080.70
717.63	1076.88
717.96	1075.99
718.30	1079.10
718.63	1077.16
718.97	1079.90
719.30	1081.87
719.63	1081.37
719.97	1079.67
720.30	1078.43
720.64	1081.33
720.97	1080.30
721.30	1082.43
721.64	1083.04
721.97	1084.67
722.31	1079.74
722.64	1079.71
722.97	1076.37
723.31	1077.44
723.64	1077.75
723.97	1077.16
724.31	1075.78
724.64	1079.41
724.98	1079.08
725.31	1082.83
725.64	1082.76
725.98	1085.80
726.31	1084.25
726.64	1083.18
726.97	1078.73
727.31	1081.14
727.64	1081.28
727.97	1081.19
728.31	1083.27
728.64	1084.60
728.97	1085.91
729.31	1082.76
729.64	1085.40
729.97	1084.14
730.30	1086.15
730.64	1082.90
730.97	1082.31
731.30	1079.85
731.63	1076.90
731.97	1074.91
732.30	1076.65
732.63	1078.89
732.96	1080.32
733.30	1086.01
733.63	1084.23
733.96	1085.33
734.29	1085.56
734.63	1084.30
734.96	1080.48
735.29	1081.84
735.62	1078.03
735.95	1075.59
736.29	1080.37
736.62	1080.91
736.95	1079.48
737.28	1083.41
737.61	1085.47
737.94	1082.01
738.28	1081.63
738.61	1082.90
738.94	1080.67
739.27	1077.79
739.60	1077.25
739.93	1075.34
740.27	1076.65
740.60	1076.55
740.93	1081.68
741.26	1085.26
741.59	1087.41
741.92	1084.86
742.25	1085.17
742.58	1082.71
742.91	1082.03
743.25	1080.51
743.58	1082.73
743.91	1082.83
744.24	1084.30
744.57	1080.39
744.90	1082.69
745.23	1080.70
745.56	1081.82
745.89	1080.20
746.22	1080.77
746.55	1080.30
746.88	1082.69
747.21	1082.61
747.54	1082.64
747.87	1083.97
748.20	1081.96
748.53	1078.96
748.87	1077.61
749.20	1077.51
749.53	1078.38
749.86	1079.64
750.19	1081.02
750.52	1083.62
750.85	1085.19
751.18	1084.67
751.51	1087.34
751.84	1088.54
752.16	1088.77
752.49	1085.82
752.82	1083.81
753.15	1078.14
753.48	1077.63
753.81	1074.49
754.14	1076.37
754.47	1079.57
754.80	1083.57
755.13	1085.35
755.46	1086.90
755.79	1085.28
756.12	1082.17
756.45	1082.69
756.78	1079.64
757.11	1079.57
757.43	1080.95
757.76	1084.44
758.09	1080.72
758.42	1080.48
758.75	1078.50
759.08	1079.06
759.41	1076.90
759.74	1077.07
760.07	1079.67
760.39	1082.78
760.72	1083.48
761.05	1083.22
761.38	1083.81
761.71	1080.32
762.04	1081.19
762.36	1079.01
762.69	1076.93
763.02	1077.93
763.35	1079.20
763.68	1076.37
764.01	1074.14
764.33	1073.81
764.66	1074.84
764.99	1075.48
765.32	1074.38
765.65	1080.63
765.97	1084.02
766.30	1082.57
766.63	1084.91
766.96	1084.51
767.28	1079.15
767.61	1077.35
767.94	1075.36
768.27	1071.54
768.59	1074.66
768.92	1076.01
769.25	1075.66
769.58	1075.92
769.90	1078.68
770.23	1078.94
770.56	1078.47
770.89	1076.48
771.21	1080.23
771.54	1076.79
771.87	1072.88
772.19	1074.59
772.52	1074.17
772.85	1074.66
773.17	1073.72
773.50	1074.61
773.83	1073.72
774.15	1075.85
774.48	1072.69
774.81	1073.81
775.13	1076.11
775.46	1077.28
775.79	1074.96
776.11	1075.27
776.44	1076.04
776.77	1072.97
777.09	1073.88
777.42	1076.69
777.74	1078.50
778.07	1078.36
778.40	1080.39
778.72	1079.13
779.05	1078.45
779.37	1079.36
779.70	1079.29
780.03	1079.41
780.35	1077.51
780.68	1075.05
781.00	1074.84
781.33	1071.64
781.65	1070.40
781.98	1070.77
782.31	1073.60
782.63	1074.52
782.96	1079.27
783.28	1082.50
783.61	1082.78
783.93	1082.15
784.26	1080.60
784.58	1079.50
784.91	1076.25
785.23	1076.72
785.56	1077.58
785.88	1079.29
786.21	1080.91
786.53	1081.49
786.86	1081.66
787.18	1081.00
787.51	1078.21
787.83	1075.76
788.16	1077.93
788.48	1077.28
788.81	1077.11
789.13	1078.71
789.46	1078.05
789.78	1075.71
790.10	1076.46
790.43	1080.11
790.75	1079.74
791.08	1080.53
791.40	1081.23
791.73	1081.00
792.05	1079.31
792.37	1078.68
792.70	1077.72
793.02	1075.66
793.35	1073.88
793.67	1073.63
793.99	1071.26
794.32	1071.68
794.64	1074.84
794.96	1077.37
795.29	1075.90
795.61	1078.26
795.93	1080.53
796.26	1078.03
796.58	1078.54
796.91	1081.30
797.23	1081.89
797.55	1080.23
797.87	1080.58
798.20	1079.64
798.52	1080.18
798.84	1078.64
799.17	1077.11
799.49	1078.31
799.81	1077.16
800.14	1076.04
800.46	1075.85
800.78	1079.13
801.10	1081.28
801.43	1082.43
801.75	1079.74
802.07	1077.16
802.40	1075.20
802.72	1071.97
803.04	1072.06
803.36	1074.61
803.69	1077.82
804.01	1081.80
804.33	1082.57
804.65	1079.69
804.97	1080.09
805.30	1080.95
805.62	1078.71
805.94	1080.41
806.26	1082.26
806.58	1081.47
806.91	1081.89
807.23	1080.11
807.55	1077.49
807.87	1079.85
808.19	1077.98
808.52	1076.39
808.84	1075.87
809.16	1078.26
809.48	1079.36
809.80	1079.22
810.12	1082.33
810.44	1084.65
810.77	1084.67
811.09	1082.94
811.41	1083.32
811.73	1079.31
812.05	1080.51
812.37	1080.02
812.69	1077.21
813.01	1078.45
813.33	1079.83
813.66	1075.76
813.98	1077.93
814.30	1080.98
814.62	1082.22
814.94	1081.37
815.26	1083.67
815.58	1080.79
815.90	1079.88
816.22	1078.87
816.54	1081.44
816.86	1080.20
817.18	1082.43
817.50	1080.48
817.82	1077.40
818.14	1078.45
818.46	1079.57
818.78	1079.78
819.10	1080.84
819.42	1083.08
819.74	1082.87
820.06	1083.62
820.38	1079.60
820.70	1077.91
821.02	1081.58
821.34	1081.56
821.66	1078.59
821.98	1080.20
822.30	1083.69
822.62	1081.44
822.94	1079.17
823.26	1081.58
823.58	1081.42
823.90	1078.80
824.22	1075.31
824.54	1075.05
824.86	1075.66
825.18	1076.48
825.50	1077.82
825.81	1081.05
826.13	1077.14
826.45	1078.21
826.77	1075.45
827.09	1077.30
827.41	1078.45
827.73	1081.94
828.05	1079.60
828.36	1080.34
828.68	1079.08
829.00	1076.51
829.32	1075.38
829.64	1074.28
829.96	1076.86
830.28	1074.47
830.59	1074.96
830.91	1075.57
831.23	1077.79
831.55	1078.61
831.87	1078.26
832.19	1079.38
832.50	1080.74
832.82	1081.54
833.14	1079.92
833.46	1082.19
833.78	1082.52
834.09	1084.44
834.41	1082.99
834.73	1083.55
835.05	1083.93
835.36	1080.60
835.68	1078.36
836.00	1077.44
836.32	1075.59
836.63	1073.74
836.95	1072.78
837.27	1073.88
837.59	1075.48
837.90	1077.37
838.22	1079.48
838.54	1080.77
838.85	1080.79
839.17	1081.91
839.49	1081.49
839.80	1078.05
840.12	1080.09
840.44	1079.38
840.76	1079.90
841.07	1079.08
841.39	1081.28
841.71	1082.10
842.02	1078.73
842.34	1076.44
842.65	1076.13
842.97	1077.37
843.29	1076.37
843.60	1081.00
843.92	1079.15
844.24	1081.68
844.55	1079.41
844.87	1076.55
845.18	1076.25
845.50	1076.55
845.82	1075.76
846.13	1077.14
846.45	1078.05
846.76	1076.58
847.08	1075.73
847.40	1071.94
847.71	1072.55
848.03	1072.43
848.34	1074.52
848.66	1077.47
848.97	1077.21
849.29	1076.30
849.60	1076.65
849.92	1074.33
850.24	1076.30
850.55	1081.00
850.87	1077.98
851.18	1078.99
851.50	1081.66
851.81	1078.14
852.13	1075.17
852.44	1080.41
852.76	1079.81
853.07	1076.72
853.39	1077.63
853.70	1077.30
854.01	1072.22
854.33	1072.60
854.64	1073.32
854.96	1071.94
855.27	1073.46
855.59	1076.46
855.90	1076.69
856.22	1076.23
856.53	1075.85
856.84	1076.62
857.16	1075.69
857.47	1076.08
857.79	1074.26
858.10	1077.61
858.41	1077.02
858.73	1078.82
859.04	1080.81
859.36	1083.22
859.67	1080.98
859.98	1079.97
860.30	1083.74
860.61	1081.05
860.92	1083.64
861.24	1084.91
861.55	1085.00
861.87	1077.77
862.18	1077.51
862.49	1075.45
862.81	1075.45
863.12	1074.10
863.43	1073.07
863.74	1074.91
864.06	1074.66
864.37	1075.31
864.68	1076.90
865.00	1079.60
865.31	1078.47
865.62	1078.71
865.94	1077.72
866.25	1071.17
866.56	1072.06
866.87	1072.25
867.19	1071.90
867.50	1073.88
867.81	1078.68
868.12	1080.06
868.44	1082.76
868.75	1082.15
869.06	1079.55
869.37	1082.01
869.68	1080.16
870.00	1077.25
870.31	1077.25
870.62	1076.55
870.93	1074.24
871.24	1075.55
871.56	1075.76
871.87	1075.15
872.18	1078.57
872.49	1080.84
872.80	1082.40
873.12	1083.81
873.43	1085.68
873.74	1081.30
874.05	1079.99
874.36	1076.67
874.67	1073.86
874.98	1072.41
875.29	1073.93
875.61	1074.56
875.92	1075.41
876.23	1075.10
876.54	1075.03
876.85	1076.58
877.16	1078.75
877.47	1078.05
877.78	1078.07
878.09	1078.52
878.40	1079.74
878.72	1077.89
879.03	1079.81
879.34	1082.54
879.65	1082.40
879.96	1077.63
880.27	1078.45
880.58	1078.36
880.89	1076.04
881.20	1072.83
881.51	1075.55
881.82	1074.94
882.13	1074.49
882.44	1074.10
882.75	1077.86
883.06	1078.24
883.37	1079.71
883.68	1080.13
883.99	1082.05
884.30	1081.91
884.61	1081.00
884.92	1078.87
885.23	1079.99
885.54	1078.19
885.85	1078.99
886.16	1082.38
886.47	1081.51
886.78	1081.14
887.08	1081.84
887.39	1081.54
887.70	1078.73
888.01	1076.34
888.32	1074.80
888.63	1075.20
888.94	1075.55
889.25	1076.39
889.56	1082.83
889.87	1081.51
890.17	1081.19
890.48	1078.43
890.79	1079.76
891.10	1077.30
891.41	1078.45
891.72	1077.84
892.03	1078.89
892.34	1075.48
892.64	1077.51
892.95	1080.20
893.26	1078.80
893.57	1079.01
893.88	1082.85
894.18	1078.36
894.49	1077.35
894.80	1079.48
895.11	1079.53
895.42	1075.29
895.72	1078.73
896.03	1074.84
896.34	1074.87
896.65	1075.78
896.96	1077.02
897.26	1076.08
897.57	1076.62
897.88	1076.41
898.19	1078.14
898.49	1075.87
898.80	1075.99
899.11	1075.57
899.41	1080.81
899.72	1077.77
900.03	1080.98
900.34	1080.74
900.64	1081.28
900.95	1076.51
901.26	1076.48
901.56	1076.37
901.87	1076.67
902.18	1078.17
902.48	1079.78
902.79	1078.80
903.10	1077.49
903.40	1076.81
903.71	1078.07
904.02	1076.30
904.32	1077.98
904.63	1083.20
904.94	1081.80
905.24	1080.46
905.55	1082.61
905.85	1082.47
906.16	1078.17
906.47	1082.24
906.77	1085.47
907.08	1082.76
907.38	1082.69
907.69	1083.29
908.00	1081.49
908.30	1078.26
908.61	1077.98
908.91	1077.93
909.22	1075.38
909.52	1076.76
909.83	1075.87
910.14	1076.11
910.44	1076.79
910.75	1079.76
911.05	1080.60
911.36	1084.02
911.66	1086.20
911.97	1085.19
912.27	1085.61
912.58	1084.00
912.88	1084.04
913.19	1082.43
913.49	1082.90
913.80	1079.81
914.10	1076.60
914.41	1075.29
914.71	1074.05
915.01	1073.49
915.32	1075.71
915.62	1076.97
915.93	1076.58
916.23	1077.35
916.54	1077.40
916.84	1077.63
917.15	1077.47
917.45	1075.36
917.75	1075.03
918.06	1076.74
918.36	1074.84
918.67	1076.34
918.97	1077.40
919.27	1080.32
919.58	1079.34
919.88	1077.40
920.18	1076.30
920.49	1076.81
920.79	1075.38
921.10	1072.88
921.40	1075.78
921.70	1074.96
922.01	1074.66
922.31	1073.79
922.61	1074.66
922.92	1074.17
923.22	1075.71
923.52	1074.87
923.82	1073.16
924.13	1073.21
924.43	1073.04
924.73	1075.38
925.04	1075.73
925.34	1076.88
925.64	1076.81
925.94	1078.68
926.25	1076.30
926.55	1076.58
926.85	1076.67
927.15	1077.89
927.46	1074.94
927.76	1073.42
928.06	1071.87
928.36	1073.46
928.67	1073.35
928.97	1074.52
929.27	1076.46
929.57	1079.71
929.87	1080.39
930.18	1079.83
930.48	1078.31
930.78	1079.67
931.08	1081.54
931.38	1080.06
931.69	1078.05
931.99	1079.38
932.29	1077.14
932.59	1071.29
932.89	1069.84
933.19	1072.06
933.49	1076.67
933.80	1077.86
934.10	1082.10
934.40	1086.01
934.70	1086.78
935.00	1081.89
935.30	1080.06
935.60	1077.89
935.90	1077.25
936.20	1076.25
936.50	1077.30
936.81	1077.23
937.11	1076.65
937.41	1073.25
937.71	1073.21
938.01	1072.25
938.31	1074.26
938.61	1076.81
938.91	1079.24
939.21	1080.95
939.51	1084.30
939.81	1077.61
940.11	1074.42
940.41	1073.42
940.71	1070.91
941.01	1067.00
941.31	1071.99
941.61	1077.33
941.91	1077.37
942.21	1079.20
942.51	1077.54
942.81	1078.80
943.11	1074.80
943.41	1075.99
943.71	1077.28
944.01	1080.74
944.31	1080.79
944.61	1081.09
944.90	1080.37
945.20	1081.49
945.50	1080.70
945.80	1082.01
946.10	1081.26
946.40	1083.25
946.70	1080.46
947.00	1082.50
947.30	1079.83
947.60	1079.64
947.89	1075.85
948.19	1079.62
948.49	1077.47
948.79	1077.75
949.09	1074.07
949.39	1073.91
949.69	1070.56
949.98	1070.63
950.28	1071.22
950.58	1078.17
950.88	1080.79
951.18	1079.85
951.48	1079.01
951.77	1076.65
952.07	1071.47
952.37	1067.49
952.67	1069.58
952.97	1072.71
953.26	1074.17
953.56	1078.33
953.86	1081.23
954.16	1079.27
954.45	1074.82
954.75	1074.19
955.05	1073.18
955.35	1072.67
955.64	1076.39
955.94	1078.38
956.24	1081.44
956.54	1078.92
956.83	1080.32
957.13	1076.39
957.43	1073.18
957.72	1068.43
958.02	1071.31
958.32	1068.38
958.61	1070.14
958.91	1074.91
959.21	1079.01
959.50	1079.74
959.80	1082.43
960.10	1083.79
960.39	1082.71
960.69	1082.99
960.99	1081.51
961.28	1081.80
961.58	1076.74
961.87	1080.53
962.17	1078.80
962.47	1078.47
962.76	1076.34
963.06	1080.81
963.36	1080.13
963.65	1080.32
963.95	1080.60
964.24	1082.87
964.54	1083.22
964.83	1079.36
965.13	1077.49
965.42	1077.56
965.72	1075.24
966.02	1072.22
966.31	1072.67
966.61	1076.08
966.90	1073.72
967.20	1076.72
967.49	1078.12
967.79	1080.65
968.08	1078.19
968.38	1081.73
968.67	1081.05
968.97	1079.78
969.26	1078.73
969.56	1081.21
969.85	1080.53
970.15	1077.79
970.44	1078.50
970.74	1078.85
971.03	1077.14
971.32	1078.28
971.62	1079.67
971.91	1079.43
972.21	1078.45
972.50	1078.24
972.80	1075.73
973.09	1076.88
973.38	1076.95
973.68	1076.79
973.97	1077.61
974.27	1079.55
974.56	1079.22
974.85	1081.21
975.15	1082.08
975.44	1080.06
975.73	1081.75
976.03	1080.91
976.32	1081.09
976.61	1080.53
976.91	1082.05
977.20	1081.51
977.49	1081.42
977.79	1076.32
978.08	1075.99
978.37	1078.33
978.67	1076.48
978.96	1077.25
979.25	1080.58
979.55	1081.28
979.84	1083.29
980.13	1083.46
980.42	1081.73
980.72	1082.38
981.01	1079.67
981.30	1071.82
981.59	1071.31
981.89	1074.52
982.18	1070.58
982.47	1073.51
982.76	1076.81
983.06	1077.21
983.35	1075.27
983.64	1078.21
983.93	1077.84
984.22	1076.67
984.52	1077.37
984.81	1078.28
985.10	1076.27
985.39	1075.99
985.68	1078.78
985.97	1075.80
986.27	1074.38
986.56	1075.57
986.85	1077.28
987.14	1076.93
987.43	1080.09
987.72	1080.46
988.01	1082.08
988.31	1078.12
988.60	1078.80
988.89	1076.39
989.18	1080.79
989.47	1080.20
989.76	1083.62
990.05	1082.57
990.34	1085.42
990.63	1081.63
990.92	1082.31
991.21	1082.22
991.51	1079.85
991.80	1077.30
992.09	1073.46
992.38	1074.38
992.67	1072.34
992.96	1073.98
993.25	1073.28
993.54	1074.91
993.83	1073.39
994.12	1072.81
994.41	1077.02
994.70	1078.73
994.99	1083.86
995.28	1083.48
995.57	1084.84
995.86	1082.57
996.15	1082.31
996.44	1079.03
996.73	1080.74
997.02	1082.76
997.31	1080.06
997.59	1078.68
997.88	1078.92
998.17	1078.85
998.46	1078.52
998.75	1078.87
999.04	1081.49
999.33	1079.92
999.62	1079.13
999.91	1074.66
1000.20	1076.76
1000.49	1074.98
1000.77	1074.61
1001.06	1074.98
1001.35	1078.31
1001.64	1073.84
1001.93	1074.70
1002.22	1078.05
1002.51	1078.10
1002.79	1076.44
1003.08	1079.48
1003.37	1076.67
1003.66	1075.15
1003.95	1071.19
1004.23	1070.87
1004.52	1070.40
1004.81	1075.08
1005.10	1075.27
1005.39	1077.47
1005.67	1080.18
1005.96	1079.31
1006.25	1078.07
1006.54	1077.30
1006.83	1078.36
1007.11	1077.11
1007.40	1076.44
1007.69	1072.95
1007.97	1073.07
1008.26	1070.02
1008.55	1068.69
1008.84	1069.65
1009.12	1072.83
1009.41	1072.60
1009.70	1074.96
1009.98	1074.10
1010.27	1074.47
1010.56	1075.45
1010.85	1075.01
1011.13	1073.79
1011.42	1078.36
1011.71	1079.03
1011.99	1076.88
1012.28	1075.22
1012.56	1077.56
1012.85	1076.62
1013.14	1075.64
1013.42	1076.20
1013.71	1081.12
1014.00	1079.83
1014.28	1076.23
1014.57	1076.23
1014.85	1076.67
1015.14	1073.84
1015.43	1072.32
1015.71	1073.02
1016.00	1074.61
1016.28	1072.22
1016.57	1072.06
1016.85	1075.43
1017.14	1075.27
1017.43	1073.63
1017.71	1075.27
1018.00	1076.97
1018.28	1075.24
1018.57	1075.78
1018.85	1075.05
1019.14	1076.74
1019.42	1075.27
1019.71	1074.12
1019.99	1073.35
1020.28	1073.56
1020.56	1072.95
1020.85	1072.46
1021.13	1073.09
1021.42	1076.39
1021.70	1076.23
1021.99	1074.87
1022.27	1074.40
1022.55	1074.42
1022.84	1068.81
>>>>>End Processed Spectral Data<<<<<
