SpectraSuite Data File
++++++++++++++++++++++++++++++++++++
Date: Mon Aug 26 10:21:59 PDT 2019
User: corrico
Dark Spectrum Present: No
Reference Spectrum Present: No
Number of Sampled Component Spectra: 1
Spectrometers: USB2+H06089
Integration Time (usec): 2000 (USB2+H06089)
Spectra Averaged: 20 (USB2+H06089)
Boxcar Smoothing: 2 (USB2+H06089)
Correct for Electrical Dark: No (USB2+H06089)
Strobe/Lamp Enabled: No (USB2+H06089)
Correct for Detector Non-linearity: No (USB2+H06089)
Correct for Stray Light: No (USB2+H06089)
Number of Pixels in Processed Spectrum: 2048
>>>>>Begin Processed Spectral Data<<<<<
339.70	1029.37
340.07	1029.37
340.45	992.27
340.82	972.40
341.19	951.05
341.57	925.87
341.94	914.89
342.31	907.14
342.69	900.97
343.06	898.88
343.43	900.17
343.81	903.89
344.18	907.59
344.55	909.84
344.93	910.26
345.30	913.02
345.67	914.59
346.04	922.43
346.42	930.46
346.79	939.98
347.16	951.64
347.54	964.96
347.91	975.72
348.28	985.90
348.65	993.81
349.03	1001.94
349.40	1009.47
349.77	1015.16
350.14	1021.99
350.52	1028.17
350.89	1034.12
351.26	1041.75
351.63	1048.00
352.01	1053.08
352.38	1060.57
352.75	1064.03
353.12	1066.54
353.50	1070.42
353.87	1072.22
354.24	1071.80
354.61	1072.69
354.98	1074.63
355.36	1076.55
355.73	1078.05
356.10	1079.38
356.47	1081.91
356.84	1080.56
357.22	1079.78
357.59	1080.34
357.96	1078.94
358.33	1074.47
358.70	1072.01
359.08	1074.61
359.45	1072.81
359.82	1073.98
360.19	1076.81
360.56	1081.58
360.94	1078.21
361.31	1077.65
361.68	1076.67
362.05	1074.94
362.42	1070.72
362.79	1069.16
363.16	1071.85
363.54	1072.85
363.91	1072.62
364.28	1071.43
364.65	1071.99
365.02	1072.25
365.39	1071.85
365.76	1071.68
366.14	1074.19
366.51	1073.65
366.88	1073.09
367.25	1073.60
367.62	1073.74
367.99	1073.56
368.36	1074.28
368.73	1071.94
369.10	1071.45
369.48	1071.19
369.85	1070.51
370.22	1070.19
370.59	1071.92
370.96	1071.12
371.33	1073.02
371.70	1072.06
372.07	1069.23
372.44	1066.35
372.81	1066.21
373.18	1065.55
373.55	1066.82
373.93	1068.99
374.30	1068.41
374.67	1071.19
375.04	1069.02
375.41	1067.66
375.78	1068.31
376.15	1068.71
376.52	1066.30
376.89	1067.10
377.26	1067.24
377.63	1066.02
378.00	1067.92
378.37	1069.18
378.74	1068.06
379.11	1070.42
379.48	1069.39
379.85	1069.53
380.22	1068.03
380.59	1072.22
380.96	1070.87
381.33	1072.39
381.70	1071.57
382.07	1074.14
382.44	1072.48
382.81	1073.44
383.18	1072.20
383.55	1072.69
383.92	1072.64
384.29	1074.63
384.66	1075.41
385.03	1077.98
385.40	1078.92
385.77	1075.22
386.14	1072.08
386.51	1070.14
386.88	1069.79
387.25	1071.75
387.62	1072.60
387.99	1071.85
388.36	1069.58
388.73	1068.45
389.10	1066.70
389.46	1067.31
389.83	1066.93
390.20	1070.09
390.57	1070.87
390.94	1068.38
391.31	1071.15
391.68	1076.34
392.05	1077.93
392.42	1080.74
392.79	1085.47
393.16	1083.81
393.53	1082.15
393.89	1082.24
394.26	1079.24
394.63	1077.98
395.00	1081.05
395.37	1082.57
395.74	1083.57
396.11	1084.04
396.48	1084.02
396.84	1081.58
397.21	1077.84
397.58	1076.48
397.95	1078.96
398.32	1080.74
398.69	1081.58
399.06	1084.96
399.42	1081.96
399.79	1080.88
400.16	1079.92
400.53	1081.77
400.90	1081.28
401.27	1084.32
401.64	1083.97
402.00	1079.83
402.37	1077.30
402.74	1078.40
403.11	1078.82
403.48	1079.08
403.84	1078.78
404.21	1079.85
404.58	1078.96
404.95	1081.54
405.32	1082.99
405.68	1084.30
406.05	1082.17
406.42	1081.84
406.79	1077.11
407.16	1074.96
407.52	1076.93
407.89	1077.91
408.26	1076.65
408.63	1076.48
408.99	1078.71
409.36	1080.13
409.73	1077.79
410.10	1080.88
410.47	1083.50
410.83	1083.22
411.20	1083.04
411.57	1085.17
411.94	1083.29
412.30	1084.84
412.67	1084.02
413.04	1083.67
413.40	1084.77
413.77	1085.82
414.14	1085.73
414.51	1085.19
414.87	1085.66
415.24	1082.94
415.61	1082.38
415.97	1082.66
416.34	1084.37
416.71	1086.85
417.08	1091.06
417.44	1093.38
417.81	1093.66
418.18	1092.98
418.54	1091.42
418.91	1092.84
419.28	1095.18
419.64	1096.28
420.01	1095.65
420.38	1095.75
420.74	1093.29
421.11	1091.81
421.48	1090.74
421.84	1094.93
422.21	1098.34
422.58	1105.51
422.94	1104.22
423.31	1106.54
423.68	1110.16
424.04	1115.10
424.41	1111.99
424.77	1117.91
425.14	1118.19
425.51	1118.66
425.87	1115.36
426.24	1122.19
426.61	1121.89
426.97	1125.10
427.34	1125.56
427.70	1131.41
428.07	1130.60
428.44	1138.09
428.80	1141.25
429.17	1146.56
429.53	1148.95
429.90	1156.37
430.27	1160.53
430.63	1169.28
431.00	1177.62
431.36	1187.94
431.73	1193.18
432.09	1202.59
432.46	1210.13
432.83	1217.59
433.19	1225.62
433.56	1238.33
433.92	1247.72
434.29	1262.23
434.65	1278.75
435.02	1291.20
435.38	1304.76
435.75	1321.35
436.11	1337.12
436.48	1354.30
436.84	1375.79
437.21	1397.25
437.57	1414.74
437.94	1434.28
438.30	1455.53
438.67	1481.14
439.03	1507.80
439.40	1543.00
439.76	1577.59
440.13	1620.21
440.49	1659.67
440.86	1700.96
441.22	1744.28
441.59	1795.80
441.95	1839.15
442.32	1886.73
442.68	1941.40
443.05	1996.10
443.41	2048.60
443.78	2107.25
444.14	2165.79
444.51	2227.49
444.87	2297.49
445.24	2367.83
445.60	2447.08
445.96	2530.33
446.33	2623.86
446.69	2717.71
447.06	2819.81
447.42	2921.78
447.79	3028.89
448.15	3149.87
448.51	3269.75
448.88	3405.83
449.24	3539.83
449.61	3703.71
449.97	3870.64
450.33	4047.56
450.70	4217.95
451.06	4405.36
451.43	4566.57
451.79	4751.10
452.15	4956.18
452.52	5187.21
452.88	5440.86
453.24	5742.88
453.61	6065.85
453.97	6377.54
454.34	6676.47
454.70	7009.16
455.06	7321.29
455.43	7620.92
455.79	7899.75
456.15	8231.29
456.52	8543.68
456.88	8945.93
457.24	9363.99
457.61	9892.88
457.97	10393.76
458.33	10905.80
458.70	11400.87
459.06	11848.45
459.42	12319.18
459.79	12732.33
460.15	13199.31
460.51	13603.08
460.88	14057.96
461.24	14448.10
461.60	14944.25
461.96	15376.01
462.33	15806.01
462.69	16229.13
463.05	16687.81
463.42	17110.23
463.78	17496.63
464.14	17846.16
464.50	18242.14
464.87	18543.36
465.23	18753.96
465.59	19010.86
465.95	19218.49
466.32	19336.29
466.68	19447.68
467.04	19522.13
467.40	19534.98
467.77	19573.50
468.13	19528.54
468.49	19411.68
468.85	19311.18
469.22	19201.68
469.58	19050.49
469.94	18935.50
470.30	18792.23
470.66	18565.11
471.03	18267.58
471.39	18010.68
471.75	17644.48
472.11	17330.08
472.47	17123.55
472.84	16898.57
473.20	16606.41
473.56	16399.13
473.92	16072.06
474.28	15710.82
474.65	15389.12
475.01	15076.54
475.37	14719.32
475.73	14461.61
476.09	14203.87
476.45	13956.43
476.81	13751.05
477.18	13551.73
477.54	13375.37
477.90	13214.13
478.26	13021.10
478.62	12828.62
478.98	12684.60
479.34	12559.64
479.71	12378.79
480.07	12203.83
480.43	12012.38
480.79	11757.75
481.15	11496.08
481.51	11291.94
481.87	11132.43
482.23	10962.30
482.59	10819.15
482.96	10682.63
483.32	10522.30
483.68	10327.10
484.04	10142.73
484.40	9963.80
484.76	9760.13
485.12	9572.44
485.48	9408.44
485.84	9243.62
486.20	9085.07
486.56	8925.77
486.92	8769.64
487.28	8590.02
487.64	8405.71
488.00	8237.23
488.37	8060.13
488.73	7884.96
489.09	7720.73
489.45	7560.42
489.81	7373.81
490.17	7184.63
490.53	6982.17
490.89	6759.23
491.25	6557.95
491.61	6365.81
491.97	6199.94
492.33	6050.21
492.69	5920.67
493.05	5789.20
493.41	5676.31
493.77	5548.78
494.13	5417.97
494.49	5286.64
494.85	5150.28
495.21	5019.65
495.57	4896.82
495.93	4782.49
496.29	4667.87
496.64	4565.45
497.00	4446.60
497.36	4345.67
497.72	4243.58
498.08	4160.49
498.44	4074.17
498.80	4003.42
499.16	3913.91
499.52	3816.36
499.88	3711.48
500.24	3604.96
500.60	3506.71
500.96	3418.75
501.32	3348.42
501.68	3283.65
502.03	3221.44
502.39	3165.86
502.75	3106.08
503.11	3046.89
503.47	2991.60
503.83	2941.12
504.19	2887.80
504.55	2838.32
504.91	2797.99
505.26	2743.27
505.62	2692.11
505.98	2636.43
506.34	2581.59
506.70	2515.14
507.06	2460.23
507.42	2406.49
507.78	2358.79
508.13	2311.86
508.49	2278.30
508.85	2250.35
509.21	2223.42
509.57	2187.61
509.93	2157.79
510.28	2121.25
510.64	2087.80
511.00	2049.37
511.36	2017.35
511.72	1984.14
512.07	1956.80
512.43	1926.49
512.79	1900.75
513.15	1875.07
513.51	1853.07
513.86	1827.51
514.22	1800.43
514.58	1777.33
514.94	1754.89
515.30	1733.21
515.65	1711.59
516.01	1693.00
516.37	1673.09
516.73	1656.44
517.08	1638.98
517.44	1623.44
517.80	1605.56
518.16	1589.39
518.51	1571.72
518.87	1557.39
519.23	1541.69
519.59	1527.64
519.94	1511.78
520.30	1498.74
520.66	1486.26
521.01	1470.79
521.37	1460.12
521.73	1451.60
522.09	1439.64
522.44	1425.08
522.80	1416.63
523.16	1406.83
523.51	1396.55
523.87	1388.66
524.23	1382.23
524.58	1374.32
524.94	1366.33
525.30	1353.95
525.65	1344.33
526.01	1335.63
526.37	1324.44
526.72	1316.81
527.08	1310.61
527.44	1304.26
527.79	1299.07
528.15	1294.53
528.51	1287.74
528.86	1282.96
529.22	1274.63
529.58	1265.48
529.93	1260.07
530.29	1251.53
530.65	1243.55
531.00	1243.36
531.36	1240.58
531.71	1238.10
532.07	1236.25
532.43	1232.22
532.78	1225.53
533.14	1219.68
533.49	1209.38
533.85	1209.26
534.21	1205.91
534.56	1199.38
534.92	1196.69
535.27	1193.79
535.63	1188.10
535.98	1186.39
536.34	1185.69
536.69	1182.35
537.05	1183.73
537.41	1178.65
537.76	1174.86
538.12	1171.13
538.47	1169.47
538.83	1166.52
539.18	1165.47
539.54	1162.73
539.89	1161.91
540.25	1156.22
540.60	1155.83
540.96	1153.25
541.31	1149.67
541.67	1148.29
542.02	1146.93
542.38	1143.94
542.73	1141.71
543.09	1137.71
543.44	1133.26
543.80	1134.06
544.15	1131.18
544.51	1131.51
544.86	1133.33
545.22	1133.33
545.57	1131.63
545.93	1131.37
546.28	1129.87
546.64	1128.02
546.99	1128.75
547.35	1127.86
547.70	1127.62
548.05	1128.96
548.41	1127.79
548.76	1124.51
549.12	1123.93
549.47	1122.17
549.83	1119.06
550.18	1121.91
550.53	1119.83
550.89	1117.70
551.24	1114.31
551.60	1112.76
551.95	1108.52
552.30	1107.54
552.66	1107.33
553.01	1106.98
553.37	1104.97
553.72	1105.32
554.07	1109.46
554.43	1108.45
554.78	1107.45
555.13	1107.07
555.49	1106.46
555.84	1103.09
556.19	1099.65
556.55	1100.92
556.90	1101.99
557.26	1101.48
557.61	1100.08
557.96	1099.72
558.32	1097.43
558.67	1095.82
559.02	1095.72
559.37	1094.76
559.73	1095.77
560.08	1094.65
560.43	1096.05
560.79	1094.36
561.14	1095.56
561.49	1097.43
561.85	1098.39
562.20	1094.72
562.55	1092.84
562.90	1090.03
563.26	1087.11
563.61	1085.59
563.96	1086.85
564.32	1088.56
564.67	1088.98
565.02	1090.64
565.37	1091.65
565.73	1089.71
566.08	1093.83
566.43	1092.05
566.78	1091.23
567.14	1091.32
567.49	1090.95
567.84	1088.21
568.19	1090.83
568.54	1089.12
568.90	1090.10
569.25	1091.63
569.60	1088.56
569.95	1088.91
570.31	1091.13
570.66	1090.34
571.01	1087.09
571.36	1087.02
571.71	1084.25
572.06	1084.25
572.42	1081.84
572.77	1084.58
573.12	1085.28
573.47	1089.75
573.82	1086.73
574.18	1086.76
574.53	1085.03
574.88	1085.66
575.23	1082.80
575.58	1086.90
575.93	1087.16
576.28	1089.17
576.64	1088.49
576.99	1084.07
577.34	1080.65
577.69	1083.67
578.04	1084.49
578.39	1085.07
578.74	1090.60
579.09	1089.82
579.44	1089.00
579.80	1087.69
580.15	1086.78
580.50	1084.93
580.85	1085.31
581.20	1080.98
581.55	1080.53
581.90	1077.84
582.25	1077.98
582.60	1081.42
582.95	1083.62
583.30	1083.60
583.65	1086.73
584.00	1085.82
584.35	1080.70
584.71	1081.51
585.06	1083.76
585.41	1082.97
585.76	1083.64
586.11	1086.55
586.46	1086.29
586.81	1085.24
587.16	1083.64
587.51	1081.54
587.86	1081.12
588.21	1081.21
588.56	1081.37
588.91	1081.58
589.26	1084.84
589.61	1085.00
589.96	1084.91
590.31	1082.61
590.66	1083.46
591.01	1080.56
591.36	1077.14
591.71	1075.05
592.06	1075.01
592.41	1075.71
592.76	1077.18
593.10	1079.43
593.45	1082.33
593.80	1082.17
594.15	1081.21
594.50	1083.41
594.85	1084.53
595.20	1083.18
595.55	1082.85
595.90	1081.98
596.25	1080.11
596.60	1079.15
596.95	1080.41
597.30	1081.16
597.64	1089.50
597.99	1087.72
598.34	1086.15
598.69	1088.14
599.04	1087.86
599.39	1081.44
599.74	1081.37
600.09	1085.07
600.44	1082.36
600.78	1082.17
601.13	1081.58
601.48	1080.98
601.83	1077.04
602.18	1076.83
602.53	1077.91
602.88	1077.35
603.22	1077.77
603.57	1078.87
603.92	1077.56
604.27	1077.37
604.62	1077.65
604.97	1078.64
605.31	1078.75
605.66	1076.08
606.01	1073.32
606.36	1071.71
606.71	1071.68
607.05	1071.52
607.40	1075.62
607.75	1077.77
608.10	1078.82
608.44	1076.06
608.79	1076.69
609.14	1076.25
609.49	1077.47
609.84	1079.55
610.18	1083.43
610.53	1081.61
610.88	1080.60
611.23	1078.05
611.57	1075.83
611.92	1075.92
612.27	1075.59
612.62	1075.34
612.96	1080.16
613.31	1079.88
613.66	1077.68
614.00	1077.93
614.35	1077.89
614.70	1076.81
615.05	1074.05
615.39	1075.66
615.74	1079.36
616.09	1080.93
616.43	1079.20
616.78	1084.96
617.13	1084.18
617.47	1085.38
617.82	1085.00
618.17	1082.73
618.51	1082.90
618.86	1082.97
619.21	1080.27
619.55	1079.78
619.90	1084.09
620.25	1081.16
620.59	1079.67
620.94	1077.86
621.29	1079.27
621.63	1078.33
621.98	1079.20
622.32	1079.62
622.67	1081.47
623.02	1079.62
623.36	1078.80
623.71	1079.17
624.05	1082.03
624.40	1082.99
624.75	1083.95
625.09	1081.42
625.44	1079.36
625.78	1076.62
626.13	1074.12
626.48	1073.65
626.82	1076.39
627.17	1079.78
627.51	1078.50
627.86	1078.47
628.20	1078.33
628.55	1077.42
628.89	1073.70
629.24	1076.53
629.58	1079.31
629.93	1077.96
630.28	1079.55
630.62	1077.96
630.97	1076.11
631.31	1073.09
631.66	1075.48
632.00	1075.80
632.35	1081.73
632.69	1082.59
633.04	1081.94
633.38	1082.94
633.73	1079.71
634.07	1075.20
634.42	1075.78
634.76	1079.95
635.11	1076.60
635.45	1077.49
635.79	1078.00
636.14	1078.85
636.48	1075.41
636.83	1076.37
637.17	1074.87
637.52	1075.38
637.86	1074.26
638.21	1075.27
638.55	1075.80
638.89	1080.60
639.24	1080.91
639.58	1082.17
639.93	1079.43
640.27	1078.26
640.61	1073.11
640.96	1072.97
641.30	1071.73
641.65	1076.67
641.99	1078.17
642.33	1078.61
642.68	1080.98
643.02	1081.68
643.37	1077.77
643.71	1077.93
644.05	1077.65
644.40	1074.45
644.74	1075.13
645.08	1078.31
645.43	1078.66
645.77	1081.63
646.11	1083.39
646.46	1085.00
646.80	1080.81
647.14	1083.79
647.49	1083.55
647.83	1084.32
648.17	1082.26
648.52	1086.78
648.86	1082.38
649.20	1083.53
649.55	1082.90
649.89	1081.19
650.23	1078.64
650.57	1076.72
650.92	1071.57
651.26	1071.43
651.60	1068.01
651.95	1066.96
652.29	1071.15
652.63	1074.94
652.97	1072.20
653.32	1075.03
653.66	1076.37
654.00	1075.64
654.34	1075.94
654.69	1080.56
655.03	1081.14
655.37	1079.99
655.71	1076.32
656.05	1075.66
656.40	1074.35
656.74	1075.78
657.08	1075.13
657.42	1079.90
657.76	1082.26
658.11	1080.09
658.45	1080.72
658.79	1084.30
659.13	1084.04
659.47	1083.50
659.82	1083.62
660.16	1082.22
660.50	1081.40
660.84	1079.85
661.18	1079.17
661.52	1079.67
661.87	1081.09
662.21	1080.46
662.55	1080.74
662.89	1078.89
663.23	1082.15
663.57	1080.06
663.91	1082.10
664.25	1084.11
664.60	1087.11
664.94	1084.89
665.28	1086.57
665.62	1084.91
665.96	1082.85
666.30	1079.69
666.64	1080.04
666.98	1077.00
667.32	1074.35
667.66	1072.64
668.01	1073.72
668.35	1073.53
668.69	1075.90
669.03	1079.71
669.37	1080.95
669.71	1079.64
670.05	1079.13
670.39	1078.59
670.73	1076.95
671.07	1076.76
671.41	1079.92
671.75	1076.62
672.09	1077.65
672.43	1074.89
672.77	1075.97
673.11	1071.22
673.45	1073.79
673.79	1071.24
674.13	1074.49
674.47	1073.72
674.81	1073.53
675.15	1075.55
675.49	1078.80
675.83	1078.78
676.17	1079.81
676.51	1081.73
676.85	1079.92
677.19	1075.48
677.53	1072.69
677.87	1071.36
678.21	1072.78
678.55	1074.70
678.89	1078.07
679.23	1079.88
679.57	1080.88
679.90	1080.16
680.24	1075.05
680.58	1073.95
680.92	1073.95
681.26	1074.03
681.60	1071.43
681.94	1074.75
682.28	1075.57
682.62	1074.61
682.96	1073.39
683.29	1075.87
683.63	1073.23
683.97	1071.85
684.31	1075.55
684.65	1076.25
684.99	1074.63
685.33	1077.49
685.67	1078.26
686.00	1075.99
686.34	1077.44
686.68	1079.74
687.02	1079.81
687.36	1083.39
687.70	1082.08
688.03	1083.15
688.37	1081.70
688.71	1083.29
689.05	1082.78
689.39	1082.83
689.72	1082.22
690.06	1082.36
690.40	1081.26
690.74	1079.15
691.08	1083.20
691.41	1079.76
691.75	1079.83
692.09	1077.49
692.43	1075.01
692.76	1070.89
693.10	1073.86
693.44	1074.47
693.78	1077.04
694.11	1079.06
694.45	1079.06
694.79	1074.38
695.13	1072.88
695.46	1070.19
695.80	1070.47
696.14	1073.60
696.48	1077.25
696.81	1078.10
697.15	1081.68
697.49	1081.98
697.82	1078.78
698.16	1077.18
698.50	1078.38
698.83	1076.25
699.17	1075.59
699.51	1075.20
699.84	1077.14
700.18	1078.78
700.52	1079.17
700.85	1079.85
701.19	1082.24
701.53	1083.22
701.86	1079.83
702.20	1079.62
702.54	1077.84
702.87	1076.58
703.21	1072.76
703.55	1075.10
703.88	1078.10
704.22	1078.26
704.55	1078.28
704.89	1080.93
705.23	1081.30
705.56	1076.79
705.90	1079.78
706.23	1080.79
706.57	1077.93
706.91	1075.15
707.24	1077.65
707.58	1077.00
707.91	1079.22
708.25	1083.81
708.58	1084.09
708.92	1081.30
709.26	1078.99
709.59	1076.41
709.93	1072.50
710.26	1073.18
710.60	1075.80
710.93	1077.72
711.27	1077.79
711.60	1079.38
711.94	1080.86
712.27	1080.25
712.61	1077.30
712.94	1075.55
713.28	1072.43
713.61	1070.23
713.95	1071.80
714.28	1072.39
714.62	1075.87
714.95	1080.53
715.29	1080.56
715.62	1078.19
715.96	1079.67
716.29	1078.92
716.63	1076.72
716.96	1079.27
717.29	1077.77
717.63	1076.97
717.96	1072.25
718.30	1068.90
718.63	1064.55
718.97	1066.04
719.30	1068.69
719.63	1071.59
719.97	1076.20
720.30	1080.20
720.64	1085.07
720.97	1083.25
721.30	1082.90
721.64	1084.14
721.97	1082.08
722.31	1078.28
722.64	1078.33
722.97	1079.60
723.31	1077.56
723.64	1079.71
723.97	1078.96
724.31	1082.64
724.64	1080.44
724.98	1081.33
725.31	1078.14
725.64	1075.48
725.98	1066.21
726.31	1067.80
726.64	1065.46
726.97	1070.21
727.31	1071.94
727.64	1076.01
727.97	1073.63
728.31	1075.80
728.64	1072.29
728.97	1073.49
729.31	1078.66
729.64	1080.81
729.97	1080.25
730.30	1083.86
730.64	1083.46
730.97	1079.01
731.30	1079.22
731.63	1078.68
731.97	1075.29
732.30	1079.08
732.63	1080.20
732.96	1077.86
733.30	1077.18
733.63	1077.68
733.96	1072.27
734.29	1072.71
734.63	1076.44
734.96	1077.77
735.29	1079.34
735.62	1079.31
735.95	1080.88
736.29	1080.81
736.62	1081.19
736.95	1080.93
737.28	1085.42
737.61	1082.50
737.94	1080.44
738.28	1079.38
738.61	1075.76
738.94	1073.23
739.27	1075.17
739.60	1076.65
739.93	1077.07
740.27	1079.22
740.60	1080.67
740.93	1076.97
741.26	1076.23
741.59	1077.84
741.92	1080.58
742.25	1079.01
742.58	1080.11
742.91	1080.95
743.25	1077.82
743.58	1074.98
743.91	1074.24
744.24	1075.24
744.57	1074.45
744.90	1077.56
745.23	1077.58
745.56	1079.57
745.89	1079.76
746.22	1082.08
746.55	1079.64
746.88	1082.76
747.21	1082.03
747.54	1083.27
747.87	1081.21
748.20	1082.85
748.53	1081.02
748.87	1080.30
749.20	1076.88
749.53	1079.38
749.86	1075.57
750.19	1073.02
750.52	1072.76
750.85	1074.17
751.18	1071.43
751.51	1073.93
751.84	1073.18
752.16	1072.29
752.49	1073.21
752.82	1072.78
753.15	1072.43
753.48	1073.79
753.81	1077.16
754.14	1076.34
754.47	1075.83
754.80	1076.44
755.13	1077.25
755.46	1073.67
755.79	1076.90
756.12	1078.92
756.45	1080.04
756.78	1079.97
757.11	1080.63
757.43	1080.48
757.76	1078.31
758.09	1075.92
758.42	1072.76
758.75	1073.35
759.08	1072.90
759.41	1072.18
759.74	1071.68
760.07	1076.58
760.39	1076.25
760.72	1075.41
761.05	1074.49
761.38	1075.69
761.71	1077.21
762.04	1079.43
762.36	1078.36
762.69	1082.59
763.02	1081.51
763.35	1077.07
763.68	1074.84
764.01	1074.26
764.33	1073.79
764.66	1074.07
764.99	1075.48
765.32	1077.30
765.65	1078.75
765.97	1078.26
766.30	1081.16
766.63	1082.26
766.96	1081.51
767.28	1079.06
767.61	1081.12
767.94	1078.94
768.27	1079.08
768.59	1078.64
768.92	1079.55
769.25	1076.15
769.58	1076.06
769.90	1072.74
770.23	1072.29
770.56	1072.15
770.89	1071.52
771.21	1073.37
771.54	1075.50
771.87	1075.85
772.19	1078.73
772.52	1081.47
772.85	1081.56
773.17	1080.16
773.50	1082.38
773.83	1078.92
774.15	1075.73
774.48	1071.78
774.81	1073.32
775.13	1071.66
775.46	1071.31
775.79	1072.97
776.11	1077.42
776.44	1075.01
776.77	1075.20
777.09	1075.38
777.42	1076.69
777.74	1071.12
778.07	1075.05
778.40	1071.78
778.72	1075.73
779.05	1076.32
779.37	1080.44
779.70	1077.58
780.03	1080.84
780.35	1078.75
780.68	1078.64
781.00	1077.77
781.33	1078.38
781.65	1075.92
781.98	1075.55
782.31	1074.96
782.63	1075.52
782.96	1076.69
783.28	1076.41
783.61	1077.09
783.93	1075.01
784.26	1073.74
784.58	1073.00
784.91	1077.33
785.23	1076.86
785.56	1076.37
785.88	1077.30
786.21	1078.57
786.53	1078.21
786.86	1075.43
787.18	1080.23
787.51	1080.77
787.83	1079.92
788.16	1080.13
788.48	1082.43
788.81	1081.44
789.13	1081.58
789.46	1081.09
789.78	1075.62
790.10	1075.94
790.43	1074.49
790.75	1072.67
791.08	1071.05
791.40	1072.76
791.73	1074.73
792.05	1075.05
792.37	1079.20
792.70	1081.16
793.02	1083.06
793.35	1081.51
793.67	1079.71
793.99	1075.08
794.32	1075.57
794.64	1075.73
794.96	1075.76
795.29	1075.97
795.61	1079.50
795.93	1074.52
796.26	1073.81
796.58	1074.26
796.91	1072.85
797.23	1071.71
797.55	1075.73
797.87	1076.79
798.20	1077.56
798.52	1082.19
798.84	1081.47
799.17	1084.18
799.49	1084.51
799.81	1081.96
800.14	1078.07
800.46	1077.84
800.78	1071.80
801.10	1072.22
801.43	1070.49
801.75	1074.38
802.07	1075.62
802.40	1078.57
802.72	1076.18
803.04	1079.06
803.36	1075.99
803.69	1075.80
804.01	1078.92
804.33	1080.91
804.65	1080.11
804.97	1081.33
805.30	1082.08
805.62	1078.52
805.94	1079.53
806.26	1080.39
806.58	1079.36
806.91	1077.79
807.23	1079.13
807.55	1073.44
807.87	1069.55
808.19	1066.77
808.52	1064.43
808.84	1063.87
809.16	1067.87
809.48	1071.12
809.80	1072.53
810.12	1073.16
810.44	1072.55
810.77	1070.80
811.09	1070.49
811.41	1070.63
811.73	1071.05
812.05	1071.24
812.37	1071.45
812.69	1070.68
813.01	1070.94
813.33	1070.44
813.66	1070.65
813.98	1072.25
814.30	1074.68
814.62	1075.48
814.94	1076.01
815.26	1077.25
815.58	1076.60
815.90	1075.62
816.22	1076.60
816.54	1073.63
816.86	1074.28
817.18	1073.07
817.50	1072.27
817.82	1071.40
818.14	1076.79
818.46	1075.80
818.78	1073.37
819.10	1074.89
819.42	1075.57
819.74	1074.10
820.06	1074.05
820.38	1078.61
820.70	1077.16
821.02	1074.84
821.34	1073.88
821.66	1070.84
821.98	1073.28
822.30	1075.03
822.62	1075.36
822.94	1076.72
823.26	1078.80
823.58	1074.40
823.90	1070.94
824.22	1069.02
824.54	1068.13
824.86	1064.85
825.18	1064.01
825.50	1068.69
825.81	1075.45
826.13	1076.34
826.45	1080.16
826.77	1081.89
827.09	1078.64
827.41	1075.64
827.73	1076.97
828.05	1075.94
828.36	1075.87
828.68	1075.66
829.00	1075.20
829.32	1073.28
829.64	1073.16
829.96	1074.73
830.28	1077.77
830.59	1075.71
830.91	1077.44
831.23	1076.72
831.55	1075.10
831.87	1072.76
832.19	1076.15
832.50	1074.75
832.82	1077.28
833.14	1080.63
833.46	1081.68
833.78	1080.18
834.09	1083.93
834.41	1083.18
834.73	1082.33
835.05	1084.11
835.36	1085.10
835.68	1083.81
836.00	1080.77
836.32	1077.91
836.63	1072.22
836.95	1071.99
837.27	1070.87
837.59	1070.96
837.90	1069.91
838.22	1073.18
838.54	1074.40
838.85	1074.63
839.17	1078.57
839.49	1079.95
839.80	1082.90
840.12	1080.65
840.44	1078.92
840.76	1078.50
841.07	1076.60
841.39	1073.16
841.71	1072.15
842.02	1074.24
842.34	1075.38
842.65	1076.69
842.97	1078.75
843.29	1079.71
843.60	1075.59
843.92	1071.40
844.24	1071.19
844.55	1069.46
844.87	1069.30
845.18	1073.32
845.50	1077.18
845.82	1079.24
846.13	1081.23
846.45	1085.87
846.76	1084.93
847.08	1082.85
847.40	1083.50
847.71	1080.48
848.03	1072.78
848.34	1072.04
848.66	1072.48
848.97	1070.70
849.29	1071.47
849.60	1076.65
849.92	1077.42
850.24	1077.37
850.55	1079.50
850.87	1078.21
851.18	1079.20
851.50	1077.68
851.81	1076.34
852.13	1073.84
852.44	1075.62
852.76	1072.50
853.07	1072.36
853.39	1073.79
853.70	1072.43
854.01	1073.00
854.33	1072.83
854.64	1074.03
854.96	1071.78
855.27	1075.94
855.59	1074.12
855.90	1075.85
856.22	1078.38
856.53	1081.26
856.84	1081.98
857.16	1081.56
857.47	1080.20
857.79	1075.03
858.10	1076.93
858.41	1072.55
858.73	1072.36
859.04	1073.35
859.36	1075.78
859.67	1074.24
859.98	1077.61
860.30	1081.16
860.61	1077.84
860.92	1078.71
861.24	1079.22
861.55	1079.62
861.87	1076.76
862.18	1079.43
862.49	1077.54
862.81	1073.42
863.12	1069.53
863.43	1070.82
863.74	1070.37
864.06	1070.65
864.37	1074.82
864.68	1076.65
865.00	1076.95
865.31	1074.35
865.62	1074.38
865.94	1071.43
866.25	1074.26
866.56	1072.62
866.87	1076.97
867.19	1079.38
867.50	1081.87
867.81	1081.37
868.12	1084.23
868.44	1084.93
868.75	1082.43
869.06	1081.33
869.37	1078.21
869.68	1077.25
870.00	1075.94
870.31	1080.93
870.62	1081.16
870.93	1083.13
871.24	1083.67
871.56	1083.04
871.87	1081.12
872.18	1078.28
872.49	1076.88
872.80	1077.70
873.12	1075.90
873.43	1072.20
873.74	1074.54
874.05	1071.43
874.36	1066.77
874.67	1068.03
874.98	1070.98
875.29	1071.26
875.61	1075.59
875.92	1077.49
876.23	1077.25
876.54	1074.33
876.85	1076.06
877.16	1073.14
877.47	1072.74
877.78	1072.95
878.09	1074.66
878.40	1070.40
878.72	1071.90
879.03	1070.68
879.34	1071.17
879.65	1071.03
879.96	1079.13
880.27	1081.91
880.58	1082.10
880.89	1081.28
881.20	1080.18
881.51	1074.28
881.82	1071.64
882.13	1074.24
882.44	1077.75
882.75	1079.67
883.06	1081.89
883.37	1082.05
883.68	1081.77
883.99	1076.48
884.30	1076.48
884.61	1075.80
884.92	1073.79
885.23	1075.55
885.54	1079.92
885.85	1080.13
886.16	1079.50
886.47	1082.92
886.78	1081.51
887.08	1078.59
887.39	1078.92
887.70	1078.07
888.01	1073.60
888.32	1070.75
888.63	1068.99
888.94	1068.24
889.25	1070.12
889.56	1072.15
889.87	1074.70
890.17	1078.10
890.48	1078.07
890.79	1073.35
891.10	1074.89
891.41	1073.49
891.72	1073.60
892.03	1071.82
892.34	1075.55
892.64	1076.25
892.95	1077.70
893.26	1077.33
893.57	1077.63
893.88	1074.31
894.18	1072.11
894.49	1070.30
894.80	1068.43
895.11	1068.92
895.42	1072.64
895.72	1073.18
896.03	1075.24
896.34	1077.02
896.65	1078.19
896.96	1077.16
897.26	1077.93
897.57	1077.23
897.88	1076.01
898.19	1077.35
898.49	1076.51
898.80	1077.37
899.11	1078.66
899.41	1080.06
899.72	1077.21
900.03	1078.05
900.34	1076.86
900.64	1073.93
900.95	1072.60
901.26	1072.97
901.56	1073.11
901.87	1076.46
902.18	1079.67
902.48	1081.33
902.79	1080.23
903.10	1082.52
903.40	1078.28
903.71	1074.12
904.02	1073.77
904.32	1075.01
904.63	1073.46
904.94	1077.30
905.24	1077.89
905.55	1077.28
905.85	1077.44
906.16	1075.45
906.47	1070.35
906.77	1071.15
907.08	1071.29
907.38	1070.89
907.69	1070.51
908.00	1071.01
908.30	1070.94
908.61	1070.77
908.91	1072.97
909.22	1075.22
909.52	1075.17
909.83	1076.15
910.14	1076.86
910.44	1072.34
910.75	1068.67
911.05	1071.87
911.36	1069.88
911.66	1069.18
911.97	1074.14
912.27	1075.13
912.58	1072.69
912.88	1072.48
913.19	1074.77
913.49	1070.75
913.80	1072.78
914.10	1078.64
914.41	1081.82
914.71	1081.35
915.01	1083.69
915.32	1082.33
915.62	1077.86
915.93	1078.38
916.23	1078.03
916.54	1079.53
916.84	1080.74
917.15	1079.85
917.45	1077.14
917.75	1077.42
918.06	1076.44
918.36	1077.56
918.67	1079.20
918.97	1079.69
919.27	1078.64
919.58	1076.79
919.88	1075.20
920.18	1075.45
920.49	1077.63
920.79	1080.34
921.10	1081.12
921.40	1083.86
921.70	1081.35
922.01	1082.61
922.31	1081.49
922.61	1080.04
922.92	1076.06
923.22	1079.46
923.52	1079.06
923.82	1073.28
924.13	1075.83
924.43	1078.07
924.73	1075.45
925.04	1074.38
925.34	1077.51
925.64	1077.49
925.94	1077.98
926.25	1076.62
926.55	1075.78
926.85	1075.66
927.15	1073.51
927.46	1071.12
927.76	1074.03
928.06	1073.42
928.36	1074.14
928.67	1073.84
928.97	1076.32
929.27	1074.21
929.57	1074.47
929.87	1078.10
930.18	1081.44
930.48	1084.11
930.78	1084.35
931.08	1082.78
931.38	1077.44
931.69	1073.23
931.99	1068.85
932.29	1071.61
932.59	1071.75
932.89	1076.13
933.19	1078.14
933.49	1078.73
933.80	1075.10
934.10	1076.44
934.40	1075.08
934.70	1076.95
935.00	1076.81
935.30	1077.33
935.60	1076.76
935.90	1074.19
936.20	1072.53
936.50	1072.88
936.81	1074.10
937.11	1078.12
937.41	1078.45
937.71	1082.26
938.01	1081.61
938.31	1079.13
938.61	1075.50
938.91	1077.58
939.21	1076.20
939.51	1075.29
939.81	1077.37
940.11	1078.59
940.41	1077.84
940.71	1075.48
941.01	1078.10
941.31	1078.89
941.61	1079.43
941.91	1080.06
942.21	1083.41
942.51	1082.50
942.81	1079.48
943.11	1079.20
943.41	1078.75
943.71	1073.98
944.01	1072.13
944.31	1074.77
944.61	1074.73
944.90	1071.71
945.20	1073.51
945.50	1074.07
945.80	1073.35
946.10	1072.60
946.40	1077.40
946.70	1074.82
947.00	1076.41
947.30	1078.85
947.60	1079.88
947.89	1079.29
948.19	1080.84
948.49	1078.47
948.79	1075.76
949.09	1075.31
949.39	1072.15
949.69	1069.67
949.98	1067.14
950.28	1069.67
950.58	1070.91
950.88	1071.26
951.18	1075.41
951.48	1079.15
951.77	1075.36
952.07	1073.95
952.37	1074.28
952.67	1071.36
952.97	1070.61
953.26	1070.33
953.56	1068.67
953.86	1069.70
954.16	1069.95
954.45	1072.67
954.75	1076.95
955.05	1076.27
955.35	1076.37
955.64	1078.00
955.94	1073.51
956.24	1070.89
956.54	1074.00
956.83	1072.85
957.13	1068.22
957.43	1070.33
957.72	1071.17
958.02	1073.63
958.32	1076.88
958.61	1082.47
958.91	1082.61
959.21	1081.77
959.50	1078.45
959.80	1077.54
960.10	1078.12
960.39	1080.37
960.69	1079.57
960.99	1077.98
961.28	1076.74
961.58	1073.49
961.87	1070.07
962.17	1073.70
962.47	1074.45
962.76	1073.98
963.06	1076.95
963.36	1077.79
963.65	1074.31
963.95	1073.65
964.24	1071.17
964.54	1068.76
964.83	1067.75
965.13	1071.24
965.42	1071.50
965.72	1074.03
966.02	1074.91
966.31	1076.58
966.61	1072.88
966.90	1074.00
967.20	1073.42
967.49	1073.67
967.79	1076.27
968.08	1077.47
968.38	1079.13
968.67	1081.91
968.97	1081.98
969.26	1079.34
969.56	1080.70
969.85	1078.00
970.15	1076.13
970.44	1077.16
970.74	1075.01
971.03	1073.91
971.32	1073.98
971.62	1072.36
971.91	1070.23
972.21	1071.71
972.50	1070.98
972.80	1073.21
973.09	1076.55
973.38	1078.31
973.68	1079.55
973.97	1082.92
974.27	1083.01
974.56	1079.34
974.85	1076.06
975.15	1078.73
975.44	1075.36
975.73	1073.77
976.03	1077.00
976.32	1078.96
976.61	1076.34
976.91	1074.14
977.20	1074.24
977.49	1076.30
977.79	1079.24
978.08	1079.38
978.37	1081.14
978.67	1080.27
978.96	1079.24
979.25	1076.34
979.55	1075.15
979.84	1078.12
980.13	1077.84
980.42	1074.89
980.72	1073.35
981.01	1073.35
981.30	1071.05
981.59	1070.33
981.89	1070.96
982.18	1072.97
982.47	1074.33
982.76	1073.84
983.06	1076.93
983.35	1076.37
983.64	1074.49
983.93	1075.03
984.22	1075.36
984.52	1072.76
984.81	1071.73
985.10	1072.92
985.39	1070.96
985.68	1071.52
985.97	1071.99
986.27	1075.13
986.56	1076.32
986.85	1077.40
987.14	1078.66
987.43	1077.28
987.72	1075.55
988.01	1077.21
988.31	1080.77
988.60	1079.24
988.89	1079.62
989.18	1079.60
989.47	1079.78
989.76	1074.82
990.05	1074.80
990.34	1074.40
990.63	1073.84
990.92	1072.76
991.21	1072.74
991.51	1070.96
991.80	1077.28
992.09	1076.81
992.38	1075.13
992.67	1075.29
992.96	1078.38
993.25	1071.87
993.54	1072.90
993.83	1074.10
994.12	1075.34
994.41	1073.51
994.70	1073.98
994.99	1074.10
995.28	1072.85
995.57	1072.27
995.86	1072.71
996.15	1073.77
996.44	1075.01
996.73	1078.54
997.02	1079.01
997.31	1079.78
997.59	1078.71
997.88	1076.86
998.17	1075.10
998.46	1075.03
998.75	1075.94
999.04	1078.68
999.33	1078.99
999.62	1080.04
999.91	1080.74
1000.20	1082.47
1000.49	1085.12
1000.77	1085.17
1001.06	1082.66
1001.35	1083.39
1001.64	1080.65
1001.93	1078.40
1002.22	1080.02
1002.51	1080.16
1002.79	1078.31
1003.08	1076.81
1003.37	1076.69
1003.66	1073.23
1003.95	1075.05
1004.23	1075.71
1004.52	1076.83
1004.81	1076.51
1005.10	1077.91
1005.39	1076.88
1005.67	1077.35
1005.96	1079.81
1006.25	1079.69
1006.54	1081.05
1006.83	1080.86
1007.11	1081.77
1007.40	1081.82
1007.69	1080.72
1007.97	1082.08
1008.26	1083.27
1008.55	1082.17
1008.84	1079.31
1009.12	1077.09
1009.41	1076.55
1009.70	1074.91
1009.98	1075.64
1010.27	1074.91
1010.56	1077.93
1010.85	1078.78
1011.13	1076.27
1011.42	1075.66
1011.71	1078.52
1011.99	1079.03
1012.28	1075.85
1012.56	1077.58
1012.85	1077.47
1013.14	1074.42
1013.42	1071.82
1013.71	1069.81
1014.00	1070.23
1014.28	1072.08
1014.57	1074.82
1014.85	1076.48
1015.14	1081.61
1015.43	1083.83
1015.71	1078.99
1016.00	1081.33
1016.28	1083.69
1016.57	1081.30
1016.85	1076.13
1017.14	1080.11
1017.43	1077.70
1017.71	1074.77
1018.00	1074.54
1018.28	1079.01
1018.57	1075.66
1018.85	1071.54
1019.14	1068.36
1019.42	1068.06
1019.71	1066.04
1019.99	1068.36
1020.28	1067.59
1020.56	1070.65
1020.85	1072.08
1021.13	1073.44
1021.42	1074.21
1021.70	1079.60
1021.99	1077.84
1022.27	1076.32
1022.55	1064.12
1022.84	1071.26
>>>>>End Processed Spectral Data<<<<<
