SpectraSuite Data File
++++++++++++++++++++++++++++++++++++
Date: Mon Aug 26 10:22:35 PDT 2019
User: corrico
Dark Spectrum Present: No
Reference Spectrum Present: No
Number of Sampled Component Spectra: 1
Spectrometers: USB2+H06089
Integration Time (usec): 2000 (USB2+H06089)
Spectra Averaged: 20 (USB2+H06089)
Boxcar Smoothing: 2 (USB2+H06089)
Correct for Electrical Dark: No (USB2+H06089)
Strobe/Lamp Enabled: No (USB2+H06089)
Correct for Detector Non-linearity: No (USB2+H06089)
Correct for Stray Light: No (USB2+H06089)
Number of Pixels in Processed Spectrum: 2048
>>>>>Begin Processed Spectral Data<<<<<
339.70	1033.11
340.07	1033.11
340.45	1000.95
340.82	979.09
341.19	956.62
341.57	929.05
341.94	918.92
342.31	907.78
342.69	901.04
343.06	895.00
343.43	895.44
343.81	895.28
344.18	898.06
344.55	903.21
344.93	908.69
345.30	918.71
345.67	926.55
346.04	935.16
346.42	941.50
346.79	950.66
347.16	955.57
347.54	963.06
347.91	970.27
348.28	981.60
348.65	989.67
349.03	998.40
349.40	1006.90
349.77	1014.18
350.14	1021.27
350.52	1028.76
350.89	1034.87
351.26	1041.23
351.63	1047.34
352.01	1054.76
352.38	1060.96
352.75	1064.90
353.12	1069.11
353.50	1074.59
353.87	1075.76
354.24	1076.65
354.61	1077.89
354.98	1078.26
355.36	1081.84
355.73	1082.90
356.10	1083.36
356.47	1085.59
356.84	1084.67
357.22	1082.71
357.59	1084.96
357.96	1085.94
358.33	1086.76
358.70	1088.04
359.08	1083.86
359.45	1079.24
359.82	1080.93
360.19	1077.51
360.56	1079.88
360.94	1080.81
361.31	1082.90
361.68	1077.89
362.05	1078.31
362.42	1077.21
362.79	1079.81
363.16	1079.69
363.54	1082.36
363.91	1082.26
364.28	1078.92
364.65	1076.30
365.02	1074.61
365.39	1072.36
365.76	1070.68
366.14	1068.57
366.51	1071.64
366.88	1073.79
367.25	1075.03
367.62	1078.24
367.99	1086.64
368.36	1085.12
368.73	1082.40
369.10	1080.46
369.48	1081.63
369.85	1075.55
370.22	1071.87
370.59	1071.05
370.96	1068.88
371.33	1065.74
371.70	1067.12
372.07	1067.49
372.44	1067.17
372.81	1070.35
373.18	1068.67
373.55	1064.64
373.93	1066.63
374.30	1068.67
374.67	1067.92
375.04	1069.95
375.41	1071.85
375.78	1069.84
376.15	1070.63
376.52	1073.74
376.89	1074.77
377.26	1075.62
377.63	1076.37
378.00	1076.46
378.37	1074.28
378.74	1073.88
379.11	1073.21
379.48	1077.25
379.85	1075.41
380.22	1076.58
380.59	1077.79
380.96	1079.71
381.33	1081.56
381.70	1082.80
382.07	1086.55
382.44	1085.12
382.81	1084.21
383.18	1079.81
383.55	1078.59
383.92	1077.11
384.29	1078.92
384.66	1078.94
385.03	1080.70
385.40	1084.93
385.77	1084.89
386.14	1083.11
386.51	1086.97
386.88	1085.59
387.25	1083.62
387.62	1081.19
387.99	1081.58
388.36	1077.49
388.73	1079.92
389.10	1078.43
389.46	1079.88
389.83	1081.87
390.20	1085.07
390.57	1081.12
390.94	1083.55
391.31	1084.63
391.68	1082.15
392.05	1083.79
392.42	1085.70
392.79	1084.28
393.16	1081.87
393.53	1085.82
393.89	1082.01
394.26	1083.29
394.63	1087.44
395.00	1086.99
395.37	1084.28
395.74	1089.36
396.11	1093.71
396.48	1091.81
396.84	1093.52
397.21	1096.54
397.58	1094.29
397.95	1089.00
398.32	1086.01
398.69	1086.31
399.06	1085.38
399.42	1082.10
399.79	1082.97
400.16	1086.13
400.53	1086.59
400.90	1085.56
401.27	1087.55
401.64	1086.99
402.00	1085.56
402.37	1086.24
402.74	1086.55
403.11	1088.30
403.48	1090.85
403.84	1091.67
404.21	1092.45
404.58	1094.81
404.95	1095.58
405.32	1094.53
405.68	1094.29
406.05	1093.57
406.42	1091.09
406.79	1090.13
407.16	1089.66
407.52	1089.57
407.89	1091.20
408.26	1093.03
408.63	1093.52
408.99	1094.60
409.36	1093.57
409.73	1092.59
410.10	1091.84
410.47	1092.84
410.83	1094.01
411.20	1099.28
411.57	1099.33
411.94	1100.38
412.30	1100.50
412.67	1100.54
413.04	1099.75
413.40	1099.96
413.77	1097.17
414.14	1094.18
414.51	1090.20
414.87	1089.80
415.24	1087.76
415.61	1091.27
415.97	1091.77
416.34	1097.57
416.71	1097.80
417.08	1102.42
417.44	1104.38
417.81	1106.61
418.18	1106.44
418.54	1106.25
418.91	1105.04
419.28	1105.46
419.64	1106.39
420.01	1107.96
420.38	1108.52
420.74	1110.98
421.11	1112.71
421.48	1114.66
421.84	1116.41
422.21	1119.69
422.58	1121.61
422.94	1119.76
423.31	1122.01
423.68	1122.90
424.04	1127.44
424.41	1132.49
424.77	1139.30
425.14	1143.09
425.51	1148.99
425.87	1151.89
426.24	1154.77
426.61	1159.22
426.97	1164.09
427.34	1167.67
427.70	1172.91
428.07	1174.57
428.44	1181.76
428.80	1188.22
429.17	1194.02
429.53	1200.48
429.90	1214.55
430.27	1223.44
430.63	1236.53
431.00	1249.40
431.36	1260.99
431.73	1271.85
432.09	1286.76
432.46	1298.18
432.83	1313.27
433.19	1328.04
433.56	1347.59
433.92	1364.72
434.29	1382.93
434.65	1404.56
435.02	1432.50
435.38	1453.73
435.75	1479.97
436.11	1512.95
436.48	1545.83
436.84	1577.26
437.21	1611.53
437.57	1643.52
437.94	1683.17
438.30	1725.65
438.67	1769.33
439.03	1820.09
439.40	1877.23
439.76	1926.89
440.13	1986.30
440.49	2052.04
440.86	2116.57
441.22	2187.37
441.59	2259.41
441.95	2334.43
442.32	2415.57
442.68	2505.89
443.05	2598.88
443.41	2698.61
443.78	2793.05
444.14	2894.63
444.51	3005.27
444.87	3142.68
445.24	3283.07
445.60	3438.81
445.96	3588.81
446.33	3752.02
446.69	3901.56
447.06	4065.91
447.42	4236.56
447.79	4425.93
448.15	4642.08
448.51	4866.77
448.88	5124.25
449.24	5370.38
449.61	5643.24
449.97	5912.97
450.33	6195.23
450.70	6447.50
451.06	6755.11
451.43	7047.33
451.79	7392.47
452.15	7771.87
452.52	8214.18
452.88	8676.67
453.24	9195.87
453.61	9748.17
453.97	10307.04
454.34	10851.03
454.70	11476.86
455.06	12110.70
455.43	12728.04
455.79	13302.72
456.15	13989.97
456.52	14623.92
456.88	15365.48
457.24	16066.44
457.61	16891.53
457.97	17616.37
458.33	18366.07
458.70	19100.32
459.06	19842.45
459.42	20649.77
459.79	21426.83
460.15	22312.21
460.51	23164.40
460.88	24081.65
461.24	24874.07
461.60	25823.20
461.96	26677.54
462.33	27485.47
462.69	28221.78
463.05	29009.16
463.42	29674.79
463.78	30284.17
464.14	30807.42
464.50	31393.09
464.87	31883.15
465.23	32239.92
465.59	32598.96
465.95	32897.91
466.32	33149.24
466.68	33349.85
467.04	33463.79
467.40	33588.96
467.77	33753.78
468.13	33747.01
468.49	33669.50
468.85	33617.37
469.22	33456.93
469.58	33114.51
469.94	32854.31
470.30	32529.72
470.66	32126.31
471.03	31551.24
471.39	31157.94
471.75	30517.29
472.11	29928.66
472.47	29558.41
472.84	29240.50
473.20	28767.88
473.56	28514.42
473.92	28113.93
474.28	27593.39
474.65	27113.21
475.01	26659.40
475.37	26091.89
475.73	25627.63
476.09	25127.24
476.45	24607.25
476.81	24071.54
477.18	23562.80
477.54	23160.26
477.90	22828.30
478.26	22436.12
478.62	22128.27
478.98	21868.54
479.34	21542.45
479.71	21122.98
480.07	20780.61
480.43	20438.75
480.79	20066.07
481.15	19727.39
481.51	19447.77
481.87	19207.79
482.23	18928.17
482.59	18669.31
482.96	18382.36
483.32	18088.99
483.68	17716.76
484.04	17367.78
484.40	17012.56
484.76	16653.89
485.12	16295.65
485.48	16014.88
485.84	15696.97
486.20	15355.48
486.56	15014.33
486.92	14709.54
487.28	14343.29
487.64	13974.82
488.00	13643.50
488.37	13318.40
488.73	12976.44
489.09	12627.52
489.45	12356.32
489.81	12062.44
490.17	11781.25
490.53	11503.10
490.89	11227.06
491.25	10908.21
491.61	10612.08
491.97	10300.49
492.33	9978.83
492.69	9690.71
493.05	9403.45
493.41	9127.79
493.77	8857.92
494.13	8622.21
494.49	8376.24
494.85	8149.37
495.21	7925.83
495.57	7724.03
495.93	7509.45
496.29	7326.13
496.64	7145.30
497.00	6963.94
497.36	6785.77
497.72	6610.63
498.08	6427.09
498.44	6252.16
498.80	6093.30
499.16	5939.86
499.52	5793.79
499.88	5669.90
500.24	5563.90
500.60	5436.69
500.96	5322.33
501.32	5213.87
501.68	5095.46
502.03	4959.01
502.39	4841.49
502.75	4703.45
503.11	4578.98
503.47	4464.55
503.83	4356.44
504.19	4240.00
504.55	4139.42
504.91	4046.22
505.26	3951.55
505.62	3861.46
505.98	3783.52
506.34	3700.01
506.70	3608.90
507.06	3521.76
507.42	3443.16
507.78	3363.65
508.13	3289.79
508.49	3223.99
508.85	3158.97
509.21	3088.57
509.57	3017.23
509.93	2953.64
510.28	2881.04
510.64	2820.02
511.00	2761.64
511.36	2710.86
511.72	2650.52
512.07	2605.09
512.43	2552.19
512.79	2502.90
513.15	2455.43
513.51	2414.36
513.86	2371.83
514.22	2333.89
514.58	2294.87
514.94	2259.32
515.30	2227.70
515.65	2187.39
516.01	2153.81
516.37	2125.09
516.73	2093.38
517.08	2060.58
517.44	2039.66
517.80	2015.29
518.16	1986.53
518.51	1962.54
518.87	1939.27
519.23	1911.63
519.59	1885.47
519.94	1858.62
520.30	1835.92
520.66	1809.56
521.01	1785.17
521.37	1761.37
521.73	1746.48
522.09	1723.22
522.44	1707.80
522.80	1689.49
523.16	1672.92
523.51	1649.00
523.87	1629.50
524.23	1611.51
524.58	1592.78
524.94	1573.85
525.30	1557.63
525.65	1545.67
526.01	1529.59
526.37	1518.26
526.72	1508.83
527.08	1498.06
527.44	1481.82
527.79	1473.34
528.15	1458.22
528.51	1444.81
528.86	1429.41
529.22	1420.63
529.58	1409.52
529.93	1400.76
530.29	1392.76
530.65	1386.09
531.00	1374.92
531.36	1366.43
531.71	1356.27
532.07	1343.02
532.43	1335.91
532.78	1329.03
533.14	1318.07
533.49	1311.94
533.85	1305.86
534.21	1299.37
534.56	1294.81
534.92	1287.18
535.27	1283.48
535.63	1280.93
535.98	1275.90
536.34	1268.43
536.69	1265.34
537.05	1261.29
537.41	1253.40
537.76	1244.09
538.12	1238.68
538.47	1233.65
538.83	1228.73
539.18	1224.47
539.54	1222.86
539.89	1220.36
540.25	1215.39
540.60	1210.53
540.96	1206.80
541.31	1202.94
541.67	1199.15
542.02	1196.25
542.38	1195.87
542.73	1191.57
543.09	1195.45
543.44	1193.49
543.80	1192.85
544.15	1189.25
544.51	1188.43
544.86	1180.05
545.22	1178.39
545.57	1174.60
545.93	1168.18
546.28	1165.26
546.64	1161.02
546.99	1160.74
547.35	1158.07
547.70	1155.66
548.05	1158.80
548.41	1160.09
548.76	1156.01
549.12	1152.85
549.47	1151.89
549.83	1150.00
550.18	1149.09
550.53	1143.47
550.89	1142.42
551.24	1142.42
551.60	1137.78
551.95	1135.16
552.30	1137.08
552.66	1135.32
553.01	1137.45
553.37	1135.67
553.72	1135.14
554.07	1136.05
554.43	1136.00
554.78	1130.20
555.13	1128.14
555.49	1123.93
555.84	1121.42
556.19	1123.18
556.55	1123.78
556.90	1121.00
557.26	1121.87
557.61	1118.66
557.96	1115.20
558.32	1113.04
558.67	1115.62
559.02	1116.37
559.37	1116.34
559.73	1116.90
560.08	1115.92
560.43	1116.25
560.79	1114.96
561.14	1115.80
561.49	1114.17
561.85	1116.13
562.20	1111.36
562.55	1111.50
562.90	1109.39
563.26	1107.59
563.61	1104.71
563.96	1107.26
564.32	1106.04
564.67	1107.78
565.02	1110.23
565.37	1109.98
565.73	1111.71
566.08	1112.25
566.43	1112.01
566.78	1108.34
567.14	1109.81
567.49	1107.17
567.84	1104.48
568.19	1103.05
568.54	1102.91
568.90	1101.29
569.25	1100.68
569.60	1101.27
569.95	1102.32
570.31	1103.49
570.66	1100.24
571.01	1100.22
571.36	1101.29
571.71	1100.59
572.06	1098.23
572.42	1099.47
572.77	1097.62
573.12	1097.36
573.47	1097.71
573.82	1098.88
574.18	1100.80
574.53	1100.66
574.88	1098.69
575.23	1097.41
575.58	1097.10
575.93	1094.34
576.28	1099.19
576.64	1098.30
576.99	1095.49
577.34	1095.07
577.69	1097.24
578.04	1094.06
578.39	1094.76
578.74	1094.36
579.09	1094.01
579.44	1094.29
579.80	1093.10
580.15	1093.17
580.50	1096.10
580.85	1096.87
581.20	1096.80
581.55	1094.43
581.90	1093.43
582.25	1090.15
582.60	1090.48
582.95	1089.66
583.30	1089.80
583.65	1090.95
584.00	1092.09
584.35	1091.20
584.71	1090.01
585.06	1090.99
585.41	1086.83
585.76	1085.70
586.11	1087.37
586.46	1085.68
586.81	1085.00
587.16	1089.99
587.51	1093.62
587.86	1092.77
588.21	1095.07
588.56	1094.97
588.91	1093.38
589.26	1088.93
589.61	1088.98
589.96	1085.68
590.31	1085.49
590.66	1084.70
591.01	1083.74
591.36	1083.20
591.71	1082.40
592.06	1081.61
592.41	1081.84
592.76	1086.85
593.10	1086.73
593.45	1090.41
593.80	1091.60
594.15	1089.94
594.50	1088.09
594.85	1085.70
595.20	1082.87
595.55	1084.32
595.90	1083.69
596.25	1081.14
596.60	1085.73
596.95	1089.96
597.30	1090.53
597.64	1104.83
597.99	1107.54
598.34	1103.68
598.69	1102.60
599.04	1100.43
599.39	1091.06
599.74	1088.04
600.09	1088.42
600.44	1087.09
600.78	1088.26
601.13	1083.74
601.48	1087.11
601.83	1087.23
602.18	1085.73
602.53	1085.42
602.88	1086.01
603.22	1086.78
603.57	1086.76
603.92	1088.89
604.27	1088.51
604.62	1089.38
604.97	1087.39
605.31	1085.40
605.66	1084.49
606.01	1086.97
606.36	1086.34
606.71	1085.31
607.05	1084.98
607.40	1083.11
607.75	1080.74
608.10	1080.93
608.44	1085.19
608.79	1087.46
609.14	1090.95
609.49	1090.71
609.84	1090.64
610.18	1087.41
610.53	1088.89
610.88	1089.80
611.23	1090.34
611.57	1090.29
611.92	1090.48
612.27	1089.22
612.62	1082.80
612.96	1081.66
613.31	1084.37
613.66	1082.36
614.00	1082.59
614.35	1084.02
614.70	1081.82
615.05	1079.53
615.39	1082.15
615.74	1081.33
616.09	1082.43
616.43	1085.54
616.78	1083.57
617.13	1081.96
617.47	1078.89
617.82	1077.21
618.17	1073.65
618.51	1075.48
618.86	1073.65
619.21	1075.99
619.55	1078.85
619.90	1079.46
620.25	1077.65
620.59	1079.53
620.94	1079.01
621.29	1078.87
621.63	1081.54
621.98	1081.91
622.32	1082.47
622.67	1082.15
623.02	1082.29
623.36	1081.47
623.71	1083.97
624.05	1084.44
624.40	1086.41
624.75	1084.72
625.09	1085.96
625.44	1085.73
625.78	1085.70
626.13	1087.44
626.48	1089.87
626.82	1088.82
627.17	1090.67
627.51	1093.62
627.86	1091.56
628.20	1091.04
628.55	1093.62
628.89	1092.87
629.24	1088.86
629.58	1087.34
629.93	1084.37
630.28	1081.12
630.62	1078.10
630.97	1079.48
631.31	1080.02
631.66	1081.42
632.00	1082.61
632.35	1085.17
632.69	1081.77
633.04	1082.24
633.38	1082.80
633.73	1078.87
634.07	1078.92
634.42	1084.30
634.76	1084.04
635.11	1085.68
635.45	1089.89
635.79	1088.02
636.14	1083.11
636.48	1081.73
636.83	1079.15
637.17	1075.78
637.52	1076.53
637.86	1078.19
638.21	1080.72
638.55	1083.76
638.89	1087.48
639.24	1085.21
639.58	1087.65
639.93	1083.71
640.27	1082.31
640.61	1081.94
640.96	1081.91
641.30	1080.56
641.65	1084.07
641.99	1083.13
642.33	1078.99
642.68	1078.73
643.02	1077.37
643.37	1078.00
643.71	1077.68
644.05	1079.67
644.40	1079.90
644.74	1079.55
645.08	1079.53
645.43	1081.07
645.77	1083.46
646.11	1085.03
646.46	1083.22
646.80	1082.17
647.14	1080.98
647.49	1076.90
647.83	1074.73
648.17	1077.42
648.52	1077.86
648.86	1079.01
649.20	1081.49
649.55	1081.47
649.89	1080.86
650.23	1081.49
650.57	1081.21
650.92	1081.73
651.26	1083.64
651.60	1085.40
651.95	1085.12
652.29	1084.63
652.63	1083.13
652.97	1084.86
653.32	1080.63
653.66	1080.88
654.00	1080.79
654.34	1082.45
654.69	1080.91
655.03	1082.97
655.37	1080.04
655.71	1082.12
656.05	1083.39
656.40	1082.40
656.74	1080.39
657.08	1078.82
657.42	1075.50
657.76	1074.21
658.11	1075.55
658.45	1079.43
658.79	1081.00
659.13	1082.29
659.47	1081.77
659.82	1081.02
660.16	1081.07
660.50	1082.50
660.84	1082.10
661.18	1083.43
661.52	1085.38
661.87	1082.15
662.21	1082.99
662.55	1080.58
662.89	1078.85
663.23	1076.18
663.57	1077.96
663.91	1076.23
664.25	1079.15
664.60	1079.76
664.94	1080.60
665.28	1080.98
665.62	1084.53
665.96	1085.42
666.30	1085.31
666.64	1083.15
666.98	1082.92
667.32	1077.56
667.66	1075.38
668.01	1075.01
668.35	1077.35
668.69	1079.64
669.03	1083.46
669.37	1085.96
669.71	1085.77
670.05	1087.97
670.39	1086.71
670.73	1082.94
671.07	1078.57
671.41	1080.51
671.75	1078.85
672.09	1074.73
672.43	1077.02
672.77	1079.03
673.11	1080.44
673.45	1080.56
673.79	1080.37
674.13	1080.11
674.47	1081.75
674.81	1078.54
675.15	1076.97
675.49	1078.80
675.83	1079.34
676.17	1075.31
676.51	1073.46
676.85	1073.00
677.19	1072.04
677.53	1072.76
677.87	1075.85
678.21	1075.69
678.55	1076.32
678.89	1079.97
679.23	1079.13
679.57	1077.82
679.90	1080.65
680.24	1082.08
680.58	1078.36
680.92	1078.12
681.26	1081.40
681.60	1081.19
681.94	1083.48
682.28	1087.25
682.62	1086.17
682.96	1082.17
683.29	1078.94
683.63	1077.86
683.97	1073.58
684.31	1075.62
684.65	1074.49
684.99	1078.17
685.33	1073.86
685.67	1073.49
686.00	1074.70
686.34	1080.04
686.68	1080.65
687.02	1082.15
687.36	1084.93
687.70	1081.40
688.03	1078.87
688.37	1076.95
688.71	1077.98
689.05	1077.51
689.39	1080.20
689.72	1078.66
690.06	1078.31
690.40	1077.86
690.74	1079.29
691.08	1078.43
691.41	1079.41
691.75	1080.02
692.09	1079.97
692.43	1077.11
692.76	1075.69
693.10	1074.56
693.44	1077.07
693.78	1076.46
694.11	1079.64
694.45	1079.15
694.79	1081.16
695.13	1078.26
695.46	1076.34
695.80	1074.59
696.14	1077.42
696.48	1078.80
696.81	1080.20
697.15	1082.47
697.49	1083.57
697.82	1081.70
698.16	1079.90
698.50	1077.77
698.83	1077.40
699.17	1076.37
699.51	1075.08
699.84	1077.25
700.18	1077.23
700.52	1076.51
700.85	1074.89
701.19	1078.03
701.53	1074.52
701.86	1076.46
702.20	1079.76
702.54	1081.42
702.87	1082.10
703.21	1083.29
703.55	1079.85
703.88	1077.21
704.22	1078.92
704.55	1081.09
704.89	1082.08
705.23	1084.74
705.56	1088.02
705.90	1087.53
706.23	1084.21
706.57	1084.02
706.91	1078.85
707.24	1078.00
707.58	1080.65
707.91	1080.84
708.25	1081.30
708.58	1089.40
708.92	1090.74
709.26	1086.48
709.59	1083.22
709.93	1085.19
710.26	1084.56
710.60	1080.39
710.93	1079.57
711.27	1080.25
711.60	1076.11
711.94	1073.07
712.27	1074.10
712.61	1078.36
712.94	1081.44
713.28	1084.30
713.61	1083.36
713.95	1081.05
714.28	1078.38
714.62	1077.11
714.95	1075.90
715.29	1077.72
715.62	1080.44
715.96	1082.26
716.29	1083.76
716.63	1081.77
716.96	1082.76
717.29	1083.69
717.63	1082.69
717.96	1083.13
718.30	1082.83
718.63	1080.70
718.97	1081.68
719.30	1081.94
719.63	1080.30
719.97	1082.24
720.30	1083.76
720.64	1081.47
720.97	1079.57
721.30	1080.91
721.64	1082.47
721.97	1082.43
722.31	1080.77
722.64	1080.51
722.97	1081.94
723.31	1080.79
723.64	1082.03
723.97	1085.05
724.31	1088.93
724.64	1088.09
724.98	1086.59
725.31	1083.41
725.64	1081.16
725.98	1079.29
726.31	1077.00
726.64	1074.49
726.97	1078.21
727.31	1079.48
727.64	1078.10
727.97	1076.79
728.31	1079.38
728.64	1076.88
728.97	1075.15
729.31	1073.86
729.64	1076.30
729.97	1078.52
730.30	1079.43
730.64	1079.13
730.97	1081.40
731.30	1080.09
731.63	1083.86
731.97	1084.18
732.30	1089.26
732.63	1087.93
732.96	1088.28
733.30	1082.38
733.63	1080.86
733.96	1073.74
734.29	1076.41
734.63	1076.37
734.96	1075.83
735.29	1076.67
735.62	1083.36
735.95	1078.96
736.29	1077.40
736.62	1080.13
736.95	1078.73
737.28	1075.05
737.61	1078.36
737.94	1079.22
738.28	1077.18
738.61	1074.10
738.94	1075.76
739.27	1076.76
739.60	1075.34
739.93	1078.94
740.27	1082.61
740.60	1079.36
740.93	1075.85
741.26	1078.43
741.59	1075.08
741.92	1077.98
742.25	1081.00
742.58	1082.15
742.91	1083.04
743.25	1085.03
743.58	1083.55
743.91	1083.25
744.24	1081.16
744.57	1080.04
744.90	1078.14
745.23	1077.02
745.56	1073.70
745.89	1077.14
746.22	1080.32
746.55	1079.92
746.88	1078.26
747.21	1081.21
747.54	1079.06
747.87	1074.94
748.20	1077.35
748.53	1079.74
748.87	1080.09
749.20	1080.20
749.53	1081.16
749.86	1079.50
750.19	1079.27
750.52	1077.65
750.85	1081.21
751.18	1080.53
751.51	1078.80
751.84	1076.62
752.16	1078.17
752.49	1075.05
752.82	1076.48
753.15	1078.52
753.48	1079.38
753.81	1081.42
754.14	1081.73
754.47	1079.50
754.80	1078.33
755.13	1080.02
755.46	1078.68
755.79	1079.81
756.12	1079.92
756.45	1081.75
756.78	1080.32
757.11	1077.96
757.43	1077.23
757.76	1076.04
758.09	1075.45
758.42	1076.39
758.75	1079.06
759.08	1080.39
759.41	1084.67
759.74	1084.39
760.07	1084.77
760.39	1080.63
760.72	1079.48
761.05	1078.36
761.38	1076.83
761.71	1072.69
762.04	1076.51
762.36	1076.90
762.69	1077.58
763.02	1082.64
763.35	1086.06
763.68	1085.33
764.01	1081.68
764.33	1081.96
764.66	1078.10
764.99	1077.11
765.32	1078.17
765.65	1082.10
765.97	1082.08
766.30	1081.56
766.63	1082.31
766.96	1081.23
767.28	1081.40
767.61	1078.78
767.94	1081.58
768.27	1078.61
768.59	1076.95
768.92	1075.17
769.25	1075.38
769.58	1073.37
769.90	1076.90
770.23	1078.00
770.56	1079.06
770.89	1078.73
771.21	1079.38
771.54	1079.15
771.87	1079.08
772.19	1078.36
772.52	1079.08
772.85	1078.03
773.17	1075.80
773.50	1075.97
773.83	1074.96
774.15	1071.61
774.48	1071.36
774.81	1072.81
775.13	1071.85
775.46	1074.42
775.79	1077.18
776.11	1077.65
776.44	1079.62
776.77	1081.05
777.09	1080.18
777.42	1081.12
777.74	1079.83
778.07	1081.58
778.40	1081.23
778.72	1080.60
779.05	1078.50
779.37	1079.55
779.70	1078.57
780.03	1075.85
780.35	1076.86
780.68	1077.75
781.00	1077.00
781.33	1074.96
781.65	1079.85
781.98	1079.97
782.31	1081.05
782.63	1082.59
782.96	1082.33
783.28	1080.74
783.61	1078.89
783.93	1078.96
784.26	1079.17
784.58	1079.08
784.91	1076.58
785.23	1077.04
785.56	1073.09
785.88	1073.07
786.21	1075.15
786.53	1077.02
786.86	1075.90
787.18	1081.05
787.51	1078.59
787.83	1075.08
788.16	1076.60
788.48	1078.52
788.81	1077.89
789.13	1078.68
789.46	1077.23
789.78	1073.30
790.10	1071.19
790.43	1066.86
790.75	1065.48
791.08	1067.89
791.40	1068.88
791.73	1073.28
792.05	1075.45
792.37	1075.78
792.70	1074.61
793.02	1077.00
793.35	1074.94
793.67	1077.72
793.99	1079.88
794.32	1078.82
794.64	1079.78
794.96	1077.37
795.29	1074.35
795.61	1073.23
795.93	1077.96
796.26	1077.42
796.58	1079.97
796.91	1079.90
797.23	1082.87
797.55	1079.67
797.87	1080.44
798.20	1078.12
798.52	1080.39
798.84	1075.92
799.17	1078.26
799.49	1076.55
799.81	1077.37
800.14	1075.57
800.46	1076.41
800.78	1077.51
801.10	1078.87
801.43	1078.57
801.75	1080.13
802.07	1083.01
802.40	1080.09
802.72	1079.36
803.04	1077.58
803.36	1077.63
803.69	1076.04
804.01	1075.43
804.33	1073.37
804.65	1077.49
804.97	1076.72
805.30	1078.24
805.62	1079.74
805.94	1080.98
806.26	1078.12
806.58	1078.38
806.91	1078.43
807.23	1077.65
807.55	1073.77
807.87	1074.68
808.19	1073.39
808.52	1071.87
808.84	1071.57
809.16	1073.18
809.48	1073.84
809.80	1074.87
810.12	1074.59
810.44	1075.69
810.77	1074.52
811.09	1073.63
811.41	1073.04
811.73	1075.48
812.05	1079.71
812.37	1085.10
812.69	1088.26
813.01	1091.06
813.33	1086.41
813.66	1080.16
813.98	1078.50
814.30	1078.68
814.62	1076.44
814.94	1081.44
815.26	1084.79
815.58	1085.17
815.90	1080.37
816.22	1080.67
816.54	1077.04
816.86	1076.69
817.18	1078.92
817.50	1081.37
817.82	1080.16
818.14	1082.19
818.46	1082.66
818.78	1078.17
819.10	1077.11
819.42	1077.30
819.74	1077.07
820.06	1076.37
820.38	1075.92
820.70	1074.03
821.02	1073.88
821.34	1075.27
821.66	1074.63
821.98	1076.18
822.30	1079.29
822.62	1080.30
822.94	1076.97
823.26	1076.65
823.58	1077.42
823.90	1075.08
824.22	1073.91
824.54	1075.71
824.86	1070.40
825.18	1070.80
825.50	1073.44
825.81	1074.82
826.13	1074.56
826.45	1079.92
826.77	1075.03
827.09	1075.73
827.41	1076.11
827.73	1078.26
828.05	1076.88
828.36	1081.61
828.68	1078.05
829.00	1075.62
829.32	1075.36
829.64	1077.33
829.96	1075.22
830.28	1081.40
830.59	1083.34
830.91	1080.39
831.23	1078.92
831.55	1079.27
831.87	1077.14
832.19	1076.62
832.50	1076.65
832.82	1076.48
833.14	1078.19
833.46	1074.59
833.78	1073.53
834.09	1073.18
834.41	1073.42
834.73	1074.33
835.05	1076.23
835.36	1075.73
835.68	1076.30
836.00	1076.41
836.32	1074.68
836.63	1074.03
836.95	1076.04
837.27	1078.80
837.59	1079.38
837.90	1079.01
838.22	1080.98
838.54	1077.86
838.85	1075.38
839.17	1075.45
839.49	1075.03
839.80	1075.15
840.12	1075.38
840.44	1075.27
840.76	1074.77
841.07	1075.62
841.39	1074.42
841.71	1078.00
842.02	1080.11
842.34	1078.94
842.65	1078.31
842.97	1078.50
843.29	1076.23
843.60	1075.57
843.92	1076.32
844.24	1076.72
844.55	1077.86
844.87	1079.03
845.18	1075.80
845.50	1073.18
845.82	1072.69
846.13	1067.94
846.45	1066.11
846.76	1069.18
847.08	1074.24
847.40	1074.66
847.71	1078.47
848.03	1079.69
848.34	1076.69
848.66	1073.84
848.97	1072.04
849.29	1069.25
849.60	1068.83
849.92	1069.93
850.24	1074.70
850.55	1075.55
850.87	1077.37
851.18	1078.75
851.50	1079.90
851.81	1073.46
852.13	1074.96
852.44	1072.13
852.76	1071.08
853.07	1071.97
853.39	1072.41
853.70	1070.35
854.01	1073.25
854.33	1071.52
854.64	1071.26
854.96	1074.91
855.27	1076.32
855.59	1078.07
855.90	1080.93
856.22	1079.83
856.53	1077.96
856.84	1078.87
857.16	1077.47
857.47	1076.81
857.79	1074.82
858.10	1075.43
858.41	1075.83
858.73	1074.12
859.04	1074.31
859.36	1076.58
859.67	1075.10
859.98	1074.98
860.30	1076.74
860.61	1077.61
860.92	1076.25
861.24	1076.46
861.55	1075.76
861.87	1074.07
862.18	1071.59
862.49	1072.78
862.81	1071.52
863.12	1071.80
863.43	1073.72
863.74	1078.10
864.06	1077.72
864.37	1081.47
864.68	1081.89
865.00	1080.91
865.31	1078.28
865.62	1080.93
865.94	1080.25
866.25	1081.75
866.56	1079.69
866.87	1080.20
867.19	1078.00
867.50	1080.27
867.81	1079.97
868.12	1084.39
868.44	1081.33
868.75	1079.38
869.06	1075.41
869.37	1072.55
869.68	1070.72
870.00	1075.34
870.31	1078.68
870.62	1079.43
870.93	1079.31
871.24	1077.18
871.56	1077.79
871.87	1076.18
872.18	1076.74
872.49	1077.44
872.80	1075.73
873.12	1074.07
873.43	1075.41
873.74	1076.76
874.05	1077.37
874.36	1080.86
874.67	1078.36
874.98	1074.10
875.29	1074.73
875.61	1074.45
875.92	1071.26
876.23	1069.98
876.54	1074.26
876.85	1073.25
877.16	1072.36
877.47	1077.91
877.78	1080.91
878.09	1079.15
878.40	1081.14
878.72	1081.73
879.03	1081.98
879.34	1083.18
879.65	1086.43
879.96	1083.15
880.27	1085.17
880.58	1081.35
880.89	1081.49
881.20	1081.12
881.51	1079.38
881.82	1074.96
882.13	1076.18
882.44	1076.86
882.75	1074.54
883.06	1075.27
883.37	1077.93
883.68	1077.42
883.99	1078.07
884.30	1078.19
884.61	1077.42
884.92	1076.08
885.23	1076.25
885.54	1073.18
885.85	1072.67
886.16	1074.00
886.47	1073.11
886.78	1076.58
887.08	1075.85
887.39	1076.86
887.70	1079.55
888.01	1083.57
888.32	1081.44
888.63	1083.11
888.94	1083.41
889.25	1082.05
889.56	1080.53
889.87	1080.86
890.17	1081.44
890.48	1080.16
890.79	1079.83
891.10	1079.36
891.41	1076.01
891.72	1074.77
892.03	1073.53
892.34	1073.63
892.64	1072.97
892.95	1076.48
893.26	1076.04
893.57	1077.25
893.88	1077.00
894.18	1078.07
894.49	1073.28
894.80	1075.57
895.11	1076.81
895.42	1077.02
895.72	1075.08
896.03	1078.89
896.34	1077.84
896.65	1075.92
896.96	1073.30
897.26	1076.93
897.57	1076.58
897.88	1073.37
898.19	1073.86
898.49	1073.60
898.80	1071.43
899.11	1070.00
899.41	1067.28
899.72	1068.71
900.03	1072.60
900.34	1072.22
900.64	1069.98
900.95	1075.94
901.26	1075.13
901.56	1073.72
901.87	1074.26
902.18	1080.02
902.48	1077.61
902.79	1076.62
903.10	1077.37
903.40	1076.25
903.71	1073.84
904.02	1074.47
904.32	1075.41
904.63	1075.29
904.94	1079.17
905.24	1078.03
905.55	1077.58
905.85	1075.73
906.16	1076.39
906.47	1073.70
906.77	1077.00
907.08	1076.90
907.38	1079.76
907.69	1077.63
908.00	1078.14
908.30	1074.05
908.61	1074.45
908.91	1071.87
909.22	1073.02
909.52	1074.73
909.83	1079.22
910.14	1078.82
910.44	1081.42
910.75	1079.48
911.05	1077.84
911.36	1075.08
911.66	1076.30
911.97	1077.44
912.27	1079.67
912.58	1081.09
912.88	1078.78
913.19	1079.83
913.49	1072.20
913.80	1071.85
914.10	1069.11
914.41	1072.85
914.71	1072.64
915.01	1076.34
915.32	1074.38
915.62	1072.50
915.93	1071.66
916.23	1070.75
916.54	1072.36
916.84	1071.85
917.15	1073.37
917.45	1071.01
917.75	1071.61
918.06	1073.44
918.36	1077.51
918.67	1077.58
918.97	1079.17
919.27	1079.08
919.58	1077.21
919.88	1073.23
920.18	1073.00
920.49	1075.41
920.79	1076.13
921.10	1076.25
921.40	1076.46
921.70	1076.74
922.01	1074.82
922.31	1073.91
922.61	1073.84
922.92	1071.97
923.22	1072.78
923.52	1073.37
923.82	1070.51
924.13	1072.06
924.43	1074.82
924.73	1074.82
925.04	1074.35
925.34	1075.78
925.64	1073.51
925.94	1072.92
926.25	1073.60
926.55	1071.61
926.85	1074.31
927.15	1075.52
927.46	1077.04
927.76	1075.29
928.06	1078.14
928.36	1076.65
928.67	1078.66
928.97	1080.18
929.27	1080.88
929.57	1080.48
929.87	1076.13
930.18	1070.68
930.48	1070.51
930.78	1070.65
931.08	1069.58
931.38	1074.47
931.69	1077.98
931.99	1075.69
932.29	1073.32
932.59	1073.02
932.89	1075.03
933.19	1076.08
933.49	1075.20
933.80	1081.70
934.10	1079.01
934.40	1078.80
934.70	1077.75
935.00	1077.56
935.30	1073.51
935.60	1076.46
935.90	1073.79
936.20	1074.66
936.50	1078.03
936.81	1078.82
937.11	1081.16
937.41	1082.92
937.71	1081.61
938.01	1081.89
938.31	1081.56
938.61	1077.51
938.91	1074.14
939.21	1074.75
939.51	1074.56
939.81	1073.79
940.11	1073.70
940.41	1075.55
940.71	1076.34
941.01	1076.83
941.31	1078.26
941.61	1081.61
941.91	1081.80
942.21	1079.95
942.51	1078.07
942.81	1077.51
943.11	1077.23
943.41	1078.59
943.71	1078.43
944.01	1078.78
944.31	1076.44
944.61	1073.49
944.90	1069.51
945.20	1070.26
945.50	1067.61
945.80	1070.14
946.10	1074.80
946.40	1076.51
946.70	1078.50
947.00	1082.76
947.30	1084.37
947.60	1081.58
947.89	1082.22
948.19	1081.94
948.49	1079.48
948.79	1077.93
949.09	1077.00
949.39	1077.58
949.69	1075.59
949.98	1076.60
950.28	1075.78
950.58	1074.84
950.88	1073.53
951.18	1073.88
951.48	1070.89
951.77	1070.40
952.07	1071.75
952.37	1075.24
952.67	1076.79
952.97	1076.25
953.26	1074.61
953.56	1074.96
953.86	1072.36
954.16	1068.88
954.45	1070.02
954.75	1071.05
955.05	1072.39
955.35	1070.91
955.64	1072.01
955.94	1074.89
956.24	1074.80
956.54	1076.01
956.83	1077.54
957.13	1083.79
957.43	1083.71
957.72	1085.05
958.02	1082.38
958.32	1083.57
958.61	1078.73
958.91	1076.23
959.21	1075.41
959.50	1078.19
959.80	1076.90
960.10	1074.66
960.39	1074.31
960.69	1076.15
960.99	1070.87
961.28	1070.26
961.58	1074.28
961.87	1075.78
962.17	1071.52
962.47	1074.80
962.76	1075.83
963.06	1073.58
963.36	1075.64
963.65	1078.75
963.95	1077.96
964.24	1078.82
964.54	1080.77
964.83	1080.48
965.13	1081.54
965.42	1082.64
965.72	1082.69
966.02	1081.23
966.31	1078.10
966.61	1077.04
966.90	1078.47
967.20	1077.47
967.49	1079.46
967.79	1079.57
968.08	1078.43
968.38	1078.87
968.67	1082.61
968.97	1079.36
969.26	1082.29
969.56	1083.46
969.85	1081.14
970.15	1080.25
970.44	1081.70
970.74	1080.44
971.03	1079.83
971.32	1079.60
971.62	1075.08
971.91	1074.28
972.21	1073.16
972.50	1076.44
972.80	1076.97
973.09	1077.09
973.38	1078.47
973.68	1081.05
973.97	1074.73
974.27	1074.89
974.56	1076.32
974.85	1074.28
975.15	1072.85
975.44	1078.45
975.73	1076.93
976.03	1077.37
976.32	1076.72
976.61	1077.58
976.91	1077.00
977.20	1080.84
977.49	1081.68
977.79	1087.23
978.08	1088.89
978.37	1087.97
978.67	1087.02
978.96	1085.19
979.25	1080.86
979.55	1076.69
979.84	1079.03
980.13	1078.68
980.42	1079.85
980.72	1079.29
981.01	1083.71
981.30	1080.79
981.59	1078.17
981.89	1075.76
982.18	1074.45
982.47	1073.58
982.76	1075.38
983.06	1075.24
983.35	1076.97
983.64	1079.41
983.93	1076.41
984.22	1076.51
984.52	1078.57
984.81	1078.00
985.10	1075.69
985.39	1077.93
985.68	1073.60
985.97	1069.13
986.27	1068.64
986.56	1070.80
986.85	1070.05
987.14	1073.63
987.43	1076.90
987.72	1079.92
988.01	1081.19
988.31	1081.77
988.60	1079.92
988.89	1080.86
989.18	1078.38
989.47	1076.23
989.76	1074.40
990.05	1074.98
990.34	1075.10
990.63	1076.58
990.92	1075.57
991.21	1076.32
991.51	1078.80
991.80	1079.74
992.09	1077.42
992.38	1079.97
992.67	1082.99
992.96	1079.69
993.25	1074.52
993.54	1074.12
993.83	1073.72
994.12	1071.99
994.41	1072.60
994.70	1076.39
994.99	1078.96
995.28	1076.81
995.57	1075.45
995.86	1077.54
996.15	1077.72
996.44	1075.55
996.73	1079.10
997.02	1079.76
997.31	1079.92
997.59	1078.92
997.88	1082.90
998.17	1082.40
998.46	1079.81
998.75	1082.80
999.04	1084.77
999.33	1079.76
999.62	1076.13
999.91	1079.46
1000.20	1073.51
1000.49	1071.94
1000.77	1076.39
1001.06	1078.66
1001.35	1078.45
1001.64	1079.48
1001.93	1081.51
1002.22	1080.18
1002.51	1078.85
1002.79	1078.61
1003.08	1079.50
1003.37	1077.21
1003.66	1075.97
1003.95	1078.05
1004.23	1077.72
1004.52	1077.72
1004.81	1082.17
1005.10	1080.44
1005.39	1079.64
1005.67	1080.46
1005.96	1078.52
1006.25	1075.31
1006.54	1078.57
1006.83	1078.45
1007.11	1079.71
1007.40	1082.26
1007.69	1081.87
1007.97	1079.06
1008.26	1079.17
1008.55	1077.33
1008.84	1077.42
1009.12	1073.67
1009.41	1074.96
1009.70	1075.90
1009.98	1075.71
1010.27	1072.97
1010.56	1074.91
1010.85	1077.33
1011.13	1075.66
1011.42	1074.07
1011.71	1075.36
1011.99	1078.43
1012.28	1076.39
1012.56	1077.47
1012.85	1080.91
1013.14	1079.06
1013.42	1077.25
1013.71	1077.07
1014.00	1078.52
1014.28	1075.62
1014.57	1079.22
1014.85	1077.72
1015.14	1078.82
1015.43	1077.09
1015.71	1075.92
1016.00	1075.34
1016.28	1076.48
1016.57	1074.05
1016.85	1074.12
1017.14	1074.77
1017.43	1072.71
1017.71	1070.26
1018.00	1070.63
1018.28	1070.70
1018.57	1072.39
1018.85	1074.82
1019.14	1077.77
1019.42	1079.22
1019.71	1081.16
1019.99	1081.66
1020.28	1080.60
1020.56	1079.34
1020.85	1079.69
1021.13	1076.95
1021.42	1074.87
1021.70	1074.42
1021.99	1074.70
1022.27	1078.50
1022.55	1070.91
1022.84	1097.83
>>>>>End Processed Spectral Data<<<<<
