SpectraSuite Data File
++++++++++++++++++++++++++++++++++++
Date: Mon Aug 26 10:22:20 PDT 2019
User: corrico
Dark Spectrum Present: No
Reference Spectrum Present: No
Number of Sampled Component Spectra: 1
Spectrometers: USB2+H06089
Integration Time (usec): 2000 (USB2+H06089)
Spectra Averaged: 20 (USB2+H06089)
Boxcar Smoothing: 2 (USB2+H06089)
Correct for Electrical Dark: No (USB2+H06089)
Strobe/Lamp Enabled: No (USB2+H06089)
Correct for Detector Non-linearity: No (USB2+H06089)
Correct for Stray Light: No (USB2+H06089)
Number of Pixels in Processed Spectrum: 2048
>>>>>Begin Processed Spectral Data<<<<<
339.70	1032.64
340.07	1032.64
340.45	998.40
340.82	975.42
341.19	948.15
341.57	920.42
341.94	910.75
342.31	900.40
342.69	896.82
343.06	895.09
343.43	895.65
343.81	892.17
344.18	894.60
344.55	899.49
344.93	904.94
345.30	914.59
345.67	922.69
346.04	932.19
346.42	938.51
346.79	949.88
347.16	954.94
347.54	965.47
347.91	974.93
348.28	982.65
348.65	991.54
349.03	1000.42
349.40	1008.12
349.77	1015.25
350.14	1028.88
350.52	1036.48
350.89	1043.20
351.26	1051.20
351.63	1058.95
352.01	1060.17
352.38	1063.87
352.75	1068.20
353.12	1070.42
353.50	1072.39
353.87	1070.14
354.24	1072.36
354.61	1076.62
354.98	1077.02
355.36	1076.97
355.73	1081.26
356.10	1082.78
356.47	1080.51
356.84	1082.22
357.22	1085.14
357.59	1085.61
357.96	1084.32
358.33	1084.70
358.70	1086.41
359.08	1084.46
359.45	1086.15
359.82	1085.63
360.19	1083.76
360.56	1081.54
360.94	1080.23
361.31	1076.39
361.68	1076.08
362.05	1077.04
362.42	1077.44
362.79	1075.71
363.16	1077.63
363.54	1077.35
363.91	1078.28
364.28	1078.24
364.65	1082.73
365.02	1081.07
365.39	1077.93
365.76	1075.62
366.14	1073.09
366.51	1071.10
366.88	1072.48
367.25	1072.95
367.62	1074.84
367.99	1077.02
368.36	1073.93
368.73	1071.12
369.10	1071.03
369.48	1071.90
369.85	1069.72
370.22	1073.25
370.59	1078.07
370.96	1077.91
371.33	1079.78
371.70	1081.82
372.07	1081.91
372.44	1077.16
372.81	1077.23
373.18	1071.31
373.55	1070.37
373.93	1066.72
374.30	1067.92
374.67	1071.64
375.04	1074.45
375.41	1072.74
375.78	1075.45
376.15	1077.40
376.52	1076.18
376.89	1077.98
377.26	1082.71
377.63	1082.47
378.00	1078.64
378.37	1078.45
378.74	1076.41
379.11	1072.88
379.48	1070.37
379.85	1074.63
380.22	1074.49
380.59	1077.11
380.96	1082.05
381.33	1083.55
381.70	1082.73
382.07	1083.27
382.44	1080.30
382.81	1076.88
383.18	1076.06
383.55	1074.68
383.92	1073.37
384.29	1072.25
384.66	1070.07
385.03	1073.04
385.40	1074.52
385.77	1075.24
386.14	1076.11
386.51	1081.54
386.88	1080.48
387.25	1082.45
387.62	1083.22
387.99	1088.09
388.36	1086.87
388.73	1086.62
389.10	1085.96
389.46	1088.93
389.83	1086.90
390.20	1085.14
390.57	1085.42
390.94	1085.73
391.31	1085.47
391.68	1084.32
392.05	1085.17
392.42	1088.61
392.79	1087.48
393.16	1087.62
393.53	1087.69
393.89	1087.97
394.26	1088.14
394.63	1088.68
395.00	1088.93
395.37	1089.14
395.74	1088.58
396.11	1084.79
396.48	1086.38
396.84	1083.06
397.21	1081.68
397.58	1083.90
397.95	1088.72
398.32	1088.09
398.69	1090.81
399.06	1093.78
399.42	1091.34
399.79	1089.03
400.16	1089.29
400.53	1086.94
400.90	1086.43
401.27	1086.01
401.64	1086.50
402.00	1086.59
402.37	1087.58
402.74	1090.60
403.11	1092.59
403.48	1088.84
403.84	1089.26
404.21	1089.71
404.58	1082.83
404.95	1082.59
405.32	1085.96
405.68	1088.82
406.05	1092.45
406.42	1095.75
406.79	1095.51
407.16	1094.34
407.52	1091.39
407.89	1088.84
408.26	1089.92
408.63	1092.56
408.99	1093.31
409.36	1094.11
409.73	1094.20
410.10	1094.11
410.47	1093.31
410.83	1095.98
411.20	1094.36
411.57	1093.15
411.94	1094.69
412.30	1095.53
412.67	1095.91
413.04	1097.83
413.40	1100.71
413.77	1099.72
414.14	1099.30
414.51	1097.59
414.87	1094.79
415.24	1096.10
415.61	1099.61
415.97	1099.28
416.34	1103.12
416.71	1106.30
417.08	1108.10
417.44	1107.12
417.81	1108.88
418.18	1106.75
418.54	1107.33
418.91	1105.88
419.28	1105.29
419.64	1109.25
420.01	1114.63
420.38	1116.32
420.74	1116.69
421.11	1119.27
421.48	1117.58
421.84	1119.64
422.21	1122.61
422.58	1127.25
422.94	1127.44
423.31	1128.33
423.68	1124.32
424.04	1126.31
424.41	1125.54
424.77	1132.28
425.14	1135.32
425.51	1142.32
425.87	1146.89
426.24	1153.37
426.61	1155.41
426.97	1163.71
427.34	1171.16
427.70	1176.63
428.07	1180.31
428.44	1185.90
428.80	1193.32
429.17	1201.05
429.53	1212.02
429.90	1226.44
430.27	1236.58
430.63	1244.84
431.00	1253.05
431.36	1261.55
431.73	1272.41
432.09	1287.15
432.46	1300.54
432.83	1316.25
433.19	1332.70
433.56	1350.18
433.92	1370.15
434.29	1391.73
434.65	1413.24
435.02	1438.70
435.38	1463.21
435.75	1490.29
436.11	1520.27
436.48	1552.10
436.84	1583.79
437.21	1621.45
437.57	1659.18
437.94	1700.61
438.30	1743.98
438.67	1789.15
439.03	1837.58
439.40	1893.75
439.76	1949.60
440.13	2005.91
440.49	2073.34
440.86	2133.66
441.22	2200.41
441.59	2267.39
441.95	2352.82
442.32	2433.90
442.68	2535.55
443.05	2632.96
443.41	2738.26
443.78	2837.29
444.14	2948.65
444.51	3050.63
444.87	3186.38
445.24	3323.42
445.60	3475.88
445.96	3626.57
446.33	3803.09
446.69	3960.12
447.06	4140.55
447.42	4315.55
447.79	4508.22
448.15	4727.41
448.51	4960.98
448.88	5210.73
449.24	5460.87
449.61	5738.62
449.97	6003.73
450.33	6278.28
450.70	6539.27
451.06	6860.37
451.43	7163.58
451.79	7521.97
452.15	7927.42
452.52	8373.36
452.88	8836.93
453.24	9366.26
453.61	9946.04
453.97	10497.33
454.34	11038.25
454.70	11682.15
455.06	12316.30
455.43	12932.33
455.79	13524.79
456.15	14245.34
456.52	14886.56
456.88	15647.60
457.24	16353.51
457.61	17210.50
457.97	17967.05
458.33	18761.08
458.70	19527.56
459.06	20303.52
459.42	21132.51
459.79	21921.93
460.15	22793.45
460.51	23648.19
460.88	24553.34
461.24	25321.39
461.60	26265.19
461.96	27156.11
462.33	27993.04
462.69	28810.85
463.05	29694.56
463.42	30430.01
463.78	31079.62
464.14	31628.08
464.50	32226.16
464.87	32688.30
465.23	33036.50
465.59	33384.96
465.95	33714.71
466.32	33978.03
466.68	34208.78
467.04	34336.83
467.40	34473.24
467.77	34615.35
468.13	34584.79
468.49	34490.20
468.85	34438.20
469.22	34283.61
469.58	33951.30
469.94	33730.58
470.30	33445.39
470.66	33019.46
471.03	32440.50
471.39	32055.60
471.75	31421.65
472.11	30834.31
472.47	30511.08
472.84	30223.08
473.20	29749.66
473.56	29467.39
473.92	29046.38
474.28	28523.85
474.65	28018.72
475.01	27547.47
475.37	26981.13
475.73	26524.96
476.09	26007.05
476.45	25497.63
476.81	24973.96
477.18	24444.27
477.54	23986.32
477.90	23615.14
478.26	23174.39
478.62	22833.56
478.98	22550.34
479.34	22224.42
479.71	21813.30
480.07	21474.09
480.43	21119.82
480.79	20715.00
481.15	20340.26
481.51	20020.40
481.87	19756.88
482.23	19464.76
482.59	19231.50
482.96	18962.01
483.32	18680.66
483.68	18307.39
484.04	17971.27
484.40	17591.05
484.76	17233.97
485.12	16882.56
485.48	16572.51
485.84	16201.54
486.20	15854.06
486.56	15497.88
486.92	15172.15
487.28	14833.38
487.64	14507.74
488.00	14191.93
488.37	13861.80
488.73	13495.04
489.09	13137.73
489.45	12816.00
489.81	12489.29
490.17	12187.36
490.53	11916.07
490.89	11607.51
491.25	11305.26
491.61	10992.68
491.97	10673.24
492.33	10340.95
492.69	10050.10
493.05	9738.48
493.41	9460.49
493.77	9190.42
494.13	8933.80
494.49	8677.65
494.85	8444.72
495.21	8214.34
495.57	7992.46
495.93	7778.35
496.29	7570.02
496.64	7386.82
497.00	7196.49
497.36	7010.89
497.72	6818.33
498.08	6640.87
498.44	6455.78
498.80	6279.94
499.16	6116.78
499.52	5964.69
499.88	5832.47
500.24	5711.49
500.60	5578.48
500.96	5454.20
501.32	5339.96
501.68	5214.62
502.03	5080.51
502.39	4970.39
502.75	4838.96
503.11	4713.39
503.47	4595.43
503.83	4482.01
504.19	4355.62
504.55	4252.43
504.91	4155.78
505.26	4064.39
505.62	3980.13
505.98	3895.45
506.34	3801.24
506.70	3709.23
507.06	3618.49
507.42	3526.53
507.78	3453.25
508.13	3382.61
508.49	3308.28
508.85	3239.35
509.21	3173.81
509.57	3103.08
509.93	3032.26
510.28	2969.48
510.64	2902.73
511.00	2837.41
511.36	2778.59
511.72	2726.49
512.07	2673.64
512.43	2625.82
512.79	2575.81
513.15	2526.30
513.51	2480.38
513.86	2433.50
514.22	2393.90
514.58	2352.26
514.94	2313.20
515.30	2278.07
515.65	2245.93
516.01	2209.79
516.37	2178.31
516.73	2143.91
517.08	2114.98
517.44	2084.76
517.80	2053.56
518.16	2026.53
518.51	2003.90
518.87	1972.84
519.23	1944.70
519.59	1917.53
519.94	1889.84
520.30	1864.75
520.66	1837.16
521.01	1814.69
521.37	1795.40
521.73	1771.46
522.09	1750.30
522.44	1737.03
522.80	1715.40
523.16	1694.29
523.51	1676.43
523.87	1656.33
524.23	1633.11
524.58	1615.93
524.94	1599.73
525.30	1586.93
525.65	1564.25
526.01	1550.51
526.37	1536.19
526.72	1522.59
527.08	1507.63
527.44	1503.09
527.79	1489.87
528.15	1475.40
528.51	1461.24
528.86	1447.50
529.22	1434.26
529.58	1424.73
529.93	1411.81
530.29	1401.26
530.65	1390.44
531.00	1381.45
531.36	1369.94
531.71	1362.71
532.07	1356.39
532.43	1351.10
532.78	1342.86
533.14	1335.77
533.49	1332.49
533.85	1324.02
534.21	1316.13
534.56	1309.67
534.92	1302.11
535.27	1293.78
535.63	1286.29
535.98	1278.63
536.34	1270.77
536.69	1266.49
537.05	1259.91
537.41	1256.84
537.76	1254.06
538.12	1250.01
538.47	1246.78
538.83	1241.89
539.18	1237.18
539.54	1233.63
539.89	1228.90
540.25	1222.65
540.60	1216.77
540.96	1211.16
541.31	1207.58
541.67	1207.44
542.02	1203.76
542.38	1202.31
542.73	1203.85
543.09	1200.30
543.44	1196.88
543.80	1193.84
544.15	1187.56
544.51	1181.13
544.86	1178.79
545.22	1174.01
545.57	1170.06
545.93	1171.86
546.28	1171.04
546.64	1171.20
546.99	1169.78
547.35	1172.05
547.70	1169.14
548.05	1167.48
548.41	1163.64
548.76	1164.18
549.12	1161.07
549.47	1156.20
549.83	1152.64
550.18	1148.34
550.53	1144.38
550.89	1141.29
551.24	1143.70
551.60	1142.49
551.95	1143.68
552.30	1143.21
552.66	1142.81
553.01	1141.36
553.37	1143.40
553.72	1139.82
554.07	1135.98
554.43	1132.42
554.78	1131.32
555.13	1127.76
555.49	1127.27
555.84	1127.51
556.19	1126.87
556.55	1127.41
556.90	1126.97
557.26	1125.35
557.61	1124.79
557.96	1127.20
558.32	1125.63
558.67	1125.07
559.02	1125.66
559.37	1121.96
559.73	1114.19
560.08	1112.39
560.43	1110.89
560.79	1107.33
561.14	1108.08
561.49	1111.19
561.85	1108.48
562.20	1105.11
562.55	1107.94
562.90	1105.18
563.26	1104.59
563.61	1106.25
563.96	1107.78
564.32	1107.52
564.67	1106.51
565.02	1109.18
565.37	1107.54
565.73	1107.19
566.08	1105.81
566.43	1108.74
566.78	1106.79
567.14	1104.94
567.49	1102.72
567.84	1097.71
568.19	1097.24
568.54	1095.39
568.90	1094.55
569.25	1095.65
569.60	1098.37
569.95	1098.30
570.31	1100.12
570.66	1102.81
571.01	1099.89
571.36	1100.10
571.71	1098.60
572.06	1101.32
572.42	1099.93
572.77	1101.41
573.12	1100.33
573.47	1100.17
573.82	1094.55
574.18	1093.36
574.53	1090.78
574.88	1091.44
575.23	1090.29
575.58	1090.92
575.93	1091.70
576.28	1089.94
576.64	1087.90
576.99	1088.93
577.34	1089.38
577.69	1088.68
578.04	1094.65
578.39	1098.53
578.74	1095.56
579.09	1095.93
579.44	1095.23
579.80	1091.58
580.15	1088.61
580.50	1089.87
580.85	1086.43
581.20	1086.31
581.55	1088.51
581.90	1087.06
582.25	1088.04
582.60	1090.67
582.95	1092.68
583.30	1091.30
583.65	1088.84
584.00	1088.58
584.35	1084.51
584.71	1081.66
585.06	1080.37
585.41	1084.49
585.76	1083.48
586.11	1088.75
586.46	1090.15
586.81	1091.63
587.16	1092.77
587.51	1092.05
587.86	1089.50
588.21	1089.50
588.56	1088.16
588.91	1086.76
589.26	1090.64
589.61	1093.17
589.96	1091.06
590.31	1092.49
590.66	1089.54
591.01	1088.00
591.36	1087.88
591.71	1093.36
592.06	1090.83
592.41	1090.48
592.76	1088.54
593.10	1084.60
593.45	1080.16
593.80	1081.98
594.15	1085.84
594.50	1085.87
594.85	1087.39
595.20	1088.54
595.55	1090.17
595.90	1087.46
596.25	1088.65
596.60	1088.40
596.95	1087.30
597.30	1085.47
597.64	1096.28
597.99	1095.77
598.34	1096.80
598.69	1097.90
599.04	1096.73
599.39	1086.71
599.74	1086.03
600.09	1085.59
600.44	1085.94
600.78	1088.16
601.13	1088.70
601.48	1090.24
601.83	1092.96
602.18	1092.49
602.53	1091.63
602.88	1090.81
603.22	1089.57
603.57	1086.69
603.92	1084.37
604.27	1083.71
604.62	1083.81
604.97	1085.52
605.31	1084.18
605.66	1087.48
606.01	1087.39
606.36	1086.64
606.71	1084.09
607.05	1082.73
607.40	1081.56
607.75	1084.65
608.10	1086.66
608.44	1087.79
608.79	1086.71
609.14	1087.60
609.49	1083.93
609.84	1081.66
610.18	1079.55
610.53	1082.47
610.88	1079.69
611.23	1077.47
611.57	1079.03
611.92	1080.48
612.27	1081.00
612.62	1084.93
612.96	1087.34
613.31	1088.30
613.66	1087.58
614.00	1085.87
614.35	1084.28
614.70	1085.10
615.05	1082.90
615.39	1082.85
615.74	1084.67
616.09	1080.04
616.43	1079.71
616.78	1080.79
617.13	1080.04
617.47	1078.73
617.82	1080.09
618.17	1078.21
618.51	1075.97
618.86	1078.43
619.21	1077.47
619.55	1079.99
619.90	1081.56
620.25	1081.84
620.59	1081.16
620.94	1084.16
621.29	1085.12
621.63	1087.16
621.98	1089.50
622.32	1088.61
622.67	1086.52
623.02	1085.59
623.36	1083.29
623.71	1080.70
624.05	1080.04
624.40	1078.52
624.75	1077.35
625.09	1080.25
625.44	1081.70
625.78	1083.71
626.13	1084.42
626.48	1084.02
626.82	1081.47
627.17	1079.99
627.51	1078.52
627.86	1079.34
628.20	1077.44
628.55	1078.85
628.89	1078.45
629.24	1080.20
629.58	1079.81
629.93	1083.53
630.28	1082.92
630.62	1085.31
630.97	1081.94
631.31	1081.30
631.66	1082.10
632.00	1081.75
632.35	1081.02
632.69	1083.69
633.04	1085.19
633.38	1081.49
633.73	1080.25
634.07	1080.34
634.42	1079.83
634.76	1080.18
635.11	1081.26
635.45	1080.81
635.79	1082.78
636.14	1079.50
636.48	1080.67
636.83	1080.02
637.17	1084.07
637.52	1083.74
637.86	1089.19
638.21	1084.89
638.55	1087.83
638.89	1083.41
639.24	1081.28
639.58	1079.36
639.93	1084.16
640.27	1083.48
640.61	1087.11
640.96	1085.47
641.30	1084.65
641.65	1083.76
641.99	1084.67
642.33	1085.94
642.68	1084.25
643.02	1084.25
643.37	1086.01
643.71	1082.92
644.05	1077.47
644.40	1080.81
644.74	1082.94
645.08	1081.09
645.43	1080.34
645.77	1082.19
646.11	1082.50
646.46	1080.04
646.80	1080.91
647.14	1083.50
647.49	1084.51
647.83	1084.04
648.17	1086.85
648.52	1084.00
648.86	1081.14
649.20	1080.39
649.55	1081.94
649.89	1080.51
650.23	1082.17
650.57	1085.14
650.92	1088.21
651.26	1085.80
651.60	1086.85
651.95	1085.96
652.29	1088.14
652.63	1084.49
652.97	1087.60
653.32	1084.91
653.66	1084.56
654.00	1079.62
654.34	1083.53
654.69	1080.16
655.03	1081.96
655.37	1082.47
655.71	1083.39
656.05	1079.92
656.40	1083.29
656.74	1085.42
657.08	1086.03
657.42	1088.68
657.76	1090.95
658.11	1089.96
658.45	1088.54
658.79	1086.22
659.13	1085.80
659.47	1081.75
659.82	1080.18
660.16	1080.79
660.50	1080.79
660.84	1080.58
661.18	1080.34
661.52	1080.74
661.87	1080.41
662.21	1082.29
662.55	1079.38
662.89	1082.94
663.23	1083.57
663.57	1081.84
663.91	1079.95
664.25	1080.37
664.60	1078.40
664.94	1078.59
665.28	1078.33
665.62	1081.68
665.96	1082.90
666.30	1085.26
666.64	1085.42
666.98	1085.17
667.32	1082.17
667.66	1080.41
668.01	1079.10
668.35	1079.34
668.69	1082.66
669.03	1081.14
669.37	1081.70
669.71	1080.48
670.05	1080.11
670.39	1075.20
670.73	1077.18
671.07	1077.58
671.41	1079.97
671.75	1083.32
672.09	1083.97
672.43	1083.60
672.77	1086.06
673.11	1082.10
673.45	1079.74
673.79	1079.10
674.13	1083.69
674.47	1082.90
674.81	1082.59
675.15	1081.75
675.49	1084.23
675.83	1081.16
676.17	1078.75
676.51	1085.70
676.85	1087.46
677.19	1086.38
677.53	1087.30
677.87	1087.11
678.21	1081.35
678.55	1079.55
678.89	1079.53
679.23	1079.38
679.57	1082.85
679.90	1085.31
680.24	1087.20
680.58	1088.33
680.92	1085.28
681.26	1083.22
681.60	1082.61
681.94	1079.15
682.28	1079.64
682.62	1077.37
682.96	1078.89
683.29	1080.41
683.63	1080.58
683.97	1077.02
684.31	1077.65
684.65	1076.27
684.99	1071.66
685.33	1072.41
685.67	1072.39
686.00	1075.10
686.34	1074.73
686.68	1076.15
687.02	1077.79
687.36	1082.31
687.70	1084.72
688.03	1086.03
688.37	1083.81
688.71	1081.47
689.05	1076.95
689.39	1074.07
689.72	1073.98
690.06	1078.61
690.40	1079.64
690.74	1083.79
691.08	1084.84
691.41	1082.38
691.75	1078.89
692.09	1077.79
692.43	1072.83
692.76	1074.10
693.10	1076.27
693.44	1078.45
693.78	1081.44
694.11	1086.99
694.45	1085.31
694.79	1084.14
695.13	1085.68
695.46	1085.31
695.80	1080.20
696.14	1080.39
696.48	1080.46
696.81	1078.36
697.15	1075.80
697.49	1076.65
697.82	1076.97
698.16	1076.15
698.50	1075.36
698.83	1075.45
699.17	1077.09
699.51	1076.90
699.84	1076.46
700.18	1078.80
700.52	1079.29
700.85	1077.56
701.19	1077.84
701.53	1079.46
701.86	1077.79
702.20	1077.23
702.54	1079.76
702.87	1079.34
703.21	1080.02
703.55	1082.36
703.88	1083.32
704.22	1082.29
704.55	1080.60
704.89	1081.68
705.23	1083.25
705.56	1086.10
705.90	1087.32
706.23	1089.14
706.57	1085.21
706.91	1083.29
707.24	1079.62
707.58	1077.37
707.91	1074.07
708.25	1076.37
708.58	1074.38
708.92	1077.23
709.26	1080.34
709.59	1080.25
709.93	1080.27
710.26	1082.33
710.60	1078.52
710.93	1079.34
711.27	1082.22
711.60	1081.58
711.94	1077.65
712.27	1078.10
712.61	1077.96
712.94	1076.74
713.28	1079.29
713.61	1081.26
713.95	1082.52
714.28	1081.58
714.62	1084.56
714.95	1083.27
715.29	1085.00
715.62	1086.80
715.96	1085.99
716.29	1082.83
716.63	1081.44
716.96	1079.88
717.29	1078.38
717.63	1077.09
717.96	1078.92
718.30	1079.55
718.63	1077.98
718.97	1077.42
719.30	1076.04
719.63	1073.04
719.97	1073.74
720.30	1075.76
720.64	1076.58
720.97	1076.48
721.30	1080.34
721.64	1081.30
721.97	1079.71
722.31	1081.09
722.64	1080.93
722.97	1077.79
723.31	1078.07
723.64	1080.63
723.97	1081.07
724.31	1084.98
724.64	1086.92
724.98	1086.01
725.31	1084.65
725.64	1081.49
725.98	1080.72
726.31	1079.67
726.64	1077.82
726.97	1074.42
727.31	1075.71
727.64	1075.24
727.97	1075.76
728.31	1079.10
728.64	1082.12
728.97	1083.57
729.31	1084.81
729.64	1085.24
729.97	1081.98
730.30	1081.94
730.64	1080.79
730.97	1077.86
731.30	1081.44
731.63	1082.54
731.97	1081.02
732.30	1078.73
732.63	1080.53
732.96	1077.84
733.30	1076.65
733.63	1081.37
733.96	1081.28
734.29	1081.70
734.63	1084.11
734.96	1086.69
735.29	1079.34
735.62	1079.31
735.95	1079.01
736.29	1075.13
736.62	1071.47
736.95	1076.65
737.28	1077.09
737.61	1078.10
737.94	1079.08
738.28	1081.44
738.61	1081.70
738.94	1083.41
739.27	1084.60
739.60	1082.61
739.93	1082.22
740.27	1082.76
740.60	1083.55
740.93	1085.05
741.26	1087.02
741.59	1086.38
741.92	1084.16
742.25	1083.79
742.58	1077.61
742.91	1078.59
743.25	1078.64
743.58	1080.53
743.91	1077.07
744.24	1078.26
744.57	1076.34
744.90	1076.53
745.23	1071.29
745.56	1073.56
745.89	1074.45
746.22	1076.20
746.55	1074.61
746.88	1080.41
747.21	1078.99
747.54	1078.17
747.87	1080.65
748.20	1082.76
748.53	1078.00
748.87	1076.97
749.20	1075.52
749.53	1069.74
749.86	1067.75
750.19	1069.77
750.52	1070.63
750.85	1072.20
751.18	1073.86
751.51	1075.29
751.84	1077.07
752.16	1078.73
752.49	1077.21
752.82	1078.28
753.15	1080.77
753.48	1079.83
753.81	1077.18
754.14	1078.87
754.47	1079.55
754.80	1076.69
755.13	1076.01
755.46	1077.84
755.79	1077.93
756.12	1076.58
756.45	1076.65
756.78	1074.73
757.11	1074.96
757.43	1075.03
757.76	1076.06
758.09	1074.80
758.42	1073.58
758.75	1074.47
759.08	1077.68
759.41	1080.16
759.74	1082.01
760.07	1085.42
760.39	1084.81
760.72	1080.27
761.05	1076.06
761.38	1074.87
761.71	1074.82
762.04	1072.25
762.36	1072.90
762.69	1072.39
763.02	1071.22
763.35	1071.31
763.68	1073.53
764.01	1073.84
764.33	1075.87
764.66	1078.89
764.99	1079.27
765.32	1078.92
765.65	1079.34
765.97	1080.46
766.30	1080.60
766.63	1082.29
766.96	1085.84
767.28	1088.44
767.61	1087.79
767.94	1087.69
768.27	1090.24
768.59	1086.73
768.92	1082.03
769.25	1078.33
769.58	1076.37
769.90	1072.69
770.23	1072.41
770.56	1075.27
770.89	1074.33
771.21	1074.12
771.54	1074.14
771.87	1075.48
772.19	1072.71
772.52	1075.03
772.85	1074.49
773.17	1071.73
773.50	1072.50
773.83	1073.14
774.15	1073.28
774.48	1077.07
774.81	1077.07
775.13	1074.42
775.46	1071.90
775.79	1072.20
776.11	1070.44
776.44	1073.02
776.77	1074.61
777.09	1082.05
777.42	1082.43
777.74	1082.71
778.07	1081.35
778.40	1078.99
778.72	1077.07
779.05	1077.02
779.37	1075.90
779.70	1075.08
780.03	1076.46
780.35	1074.52
780.68	1077.96
781.00	1075.27
781.33	1074.80
781.65	1075.15
781.98	1075.38
782.31	1072.64
782.63	1076.65
782.96	1078.17
783.28	1077.58
783.61	1077.11
783.93	1077.84
784.26	1079.34
784.58	1081.91
784.91	1083.06
785.23	1083.60
785.56	1081.54
785.88	1081.91
786.21	1079.97
786.53	1079.62
786.86	1079.97
787.18	1079.88
787.51	1076.97
787.83	1075.62
788.16	1076.06
788.48	1074.45
788.81	1075.69
789.13	1074.03
789.46	1077.33
789.78	1078.40
790.10	1079.15
790.43	1078.94
790.75	1078.17
791.08	1078.19
791.40	1073.09
791.73	1071.87
792.05	1070.82
792.37	1071.80
792.70	1071.82
793.02	1077.33
793.35	1077.56
793.67	1076.69
793.99	1078.87
794.32	1074.45
794.64	1070.51
794.96	1069.48
795.29	1072.55
795.61	1072.15
795.93	1074.98
796.26	1077.77
796.58	1077.56
796.91	1074.31
797.23	1075.03
797.55	1074.94
797.87	1077.28
798.20	1080.58
798.52	1083.41
798.84	1082.17
799.17	1080.65
799.49	1077.72
799.81	1078.85
800.14	1076.53
800.46	1074.66
800.78	1075.34
801.10	1077.21
801.43	1076.37
801.75	1077.86
802.07	1081.96
802.40	1082.36
802.72	1080.63
803.04	1082.03
803.36	1082.12
803.69	1080.74
804.01	1080.20
804.33	1079.08
804.65	1078.85
804.97	1077.89
805.30	1076.20
805.62	1076.72
805.94	1076.44
806.26	1076.65
806.58	1076.01
806.91	1078.07
807.23	1080.48
807.55	1081.16
807.87	1076.20
808.19	1077.93
808.52	1074.21
808.84	1070.91
809.16	1070.91
809.48	1072.53
809.80	1073.81
810.12	1075.76
810.44	1076.27
810.77	1075.62
811.09	1074.26
811.41	1073.63
811.73	1073.18
812.05	1072.08
812.37	1073.35
812.69	1077.77
813.01	1077.68
813.33	1079.50
813.66	1079.97
813.98	1079.60
814.30	1076.76
814.62	1075.48
814.94	1073.02
815.26	1072.01
815.58	1071.92
815.90	1072.85
816.22	1073.56
816.54	1074.52
816.86	1076.88
817.18	1077.63
817.50	1075.17
817.82	1076.34
818.14	1075.01
818.46	1073.98
818.78	1072.48
819.10	1072.25
819.42	1070.28
819.74	1071.99
820.06	1074.45
820.38	1075.10
820.70	1078.73
821.02	1079.31
821.34	1077.09
821.66	1072.95
821.98	1073.58
822.30	1074.38
822.62	1075.03
822.94	1078.99
823.26	1083.55
823.58	1083.13
823.90	1080.48
824.22	1078.03
824.54	1077.61
824.86	1075.90
825.18	1076.95
825.50	1075.80
825.81	1076.44
826.13	1075.03
826.45	1074.89
826.77	1074.89
827.09	1075.01
827.41	1076.95
827.73	1077.75
828.05	1076.83
828.36	1073.28
828.68	1075.69
829.00	1074.80
829.32	1075.62
829.64	1076.81
829.96	1080.93
830.28	1082.50
830.59	1080.93
830.91	1078.64
831.23	1076.81
831.55	1075.64
831.87	1072.69
832.19	1072.76
832.50	1074.42
832.82	1075.71
833.14	1076.62
833.46	1077.82
833.78	1080.58
834.09	1081.33
834.41	1081.75
834.73	1081.02
835.05	1080.72
835.36	1078.36
835.68	1076.41
836.00	1074.77
836.32	1073.11
836.63	1072.01
836.95	1071.03
837.27	1072.15
837.59	1073.32
837.90	1073.53
838.22	1074.21
838.54	1075.69
838.85	1077.70
839.17	1078.38
839.49	1081.70
839.80	1083.20
840.12	1086.38
840.44	1083.64
840.76	1083.39
841.07	1082.47
841.39	1083.88
841.71	1080.93
842.02	1081.44
842.34	1079.27
842.65	1076.74
842.97	1072.36
843.29	1072.97
843.60	1074.33
843.92	1077.30
844.24	1078.14
844.55	1082.31
844.87	1081.54
845.18	1079.53
845.50	1077.82
845.82	1078.85
846.13	1076.37
846.45	1078.12
846.76	1077.89
847.08	1078.03
847.40	1077.11
847.71	1076.23
848.03	1077.89
848.34	1080.72
848.66	1080.95
848.97	1082.54
849.29	1083.76
849.60	1077.18
849.92	1074.96
850.24	1074.82
850.55	1073.16
850.87	1070.37
851.18	1073.11
851.50	1073.70
851.81	1073.65
852.13	1075.10
852.44	1079.76
852.76	1080.81
853.07	1081.51
853.39	1078.00
853.70	1078.54
854.01	1075.94
854.33	1077.91
854.64	1076.65
854.96	1081.94
855.27	1080.09
855.59	1079.03
855.90	1076.60
856.22	1078.75
856.53	1075.22
856.84	1075.05
857.16	1077.93
857.47	1078.26
857.79	1076.65
858.10	1078.45
858.41	1076.13
858.73	1074.80
859.04	1075.73
859.36	1072.83
859.67	1070.63
859.98	1074.38
860.30	1072.92
860.61	1073.74
860.92	1076.81
861.24	1077.61
861.55	1075.24
861.87	1076.79
862.18	1075.17
862.49	1073.00
862.81	1075.36
863.12	1074.68
863.43	1074.80
863.74	1075.10
864.06	1078.00
864.37	1077.07
864.68	1080.70
865.00	1078.59
865.31	1078.12
865.62	1073.86
865.94	1073.46
866.25	1070.35
866.56	1072.85
866.87	1074.59
867.19	1079.20
867.50	1080.67
867.81	1081.47
868.12	1080.09
868.44	1079.53
868.75	1076.95
869.06	1075.59
869.37	1074.77
869.68	1073.60
870.00	1072.74
870.31	1075.69
870.62	1076.76
870.93	1077.49
871.24	1077.04
871.56	1076.37
871.87	1076.74
872.18	1076.39
872.49	1075.24
872.80	1077.23
873.12	1075.99
873.43	1074.91
873.74	1074.56
874.05	1076.20
874.36	1077.33
874.67	1076.62
874.98	1074.14
875.29	1076.81
875.61	1078.40
875.92	1078.05
876.23	1082.26
876.54	1084.72
876.85	1080.77
877.16	1077.72
877.47	1076.48
877.78	1073.70
878.09	1073.00
878.40	1072.20
878.72	1072.53
879.03	1073.63
879.34	1075.34
879.65	1072.32
879.96	1073.25
880.27	1075.24
880.58	1075.62
880.89	1077.28
881.20	1081.26
881.51	1081.47
881.82	1079.81
882.13	1080.98
882.44	1080.16
882.75	1079.69
883.06	1079.31
883.37	1080.02
883.68	1077.18
883.99	1076.08
884.30	1074.26
884.61	1075.62
884.92	1075.90
885.23	1074.31
885.54	1076.13
885.85	1078.45
886.16	1078.17
886.47	1078.12
886.78	1078.94
887.08	1077.63
887.39	1075.20
887.70	1072.60
888.01	1070.33
888.32	1072.85
888.63	1072.97
888.94	1074.66
889.25	1076.51
889.56	1075.92
889.87	1074.73
890.17	1072.25
890.48	1071.71
890.79	1075.24
891.10	1079.31
891.41	1078.00
891.72	1079.69
892.03	1076.55
892.34	1072.25
892.64	1069.79
892.95	1071.19
893.26	1071.15
893.57	1074.54
893.88	1074.59
894.18	1075.20
894.49	1077.47
894.80	1075.29
895.11	1076.01
895.42	1078.17
895.72	1081.37
896.03	1081.30
896.34	1083.46
896.65	1085.45
896.96	1085.24
897.26	1082.38
897.57	1080.16
897.88	1080.81
898.19	1076.41
898.49	1076.32
898.80	1074.49
899.11	1072.55
899.41	1072.41
899.72	1075.48
900.03	1074.75
900.34	1077.23
900.64	1078.92
900.95	1076.88
901.26	1074.73
901.56	1075.10
901.87	1075.13
902.18	1075.92
902.48	1077.82
902.79	1079.24
903.10	1078.78
903.40	1076.76
903.71	1076.20
904.02	1074.14
904.32	1071.40
904.63	1073.09
904.94	1074.03
905.24	1073.49
905.55	1074.19
905.85	1075.52
906.16	1075.10
906.47	1074.40
906.77	1075.83
907.08	1077.63
907.38	1079.03
907.69	1076.18
908.00	1074.17
908.30	1073.56
908.61	1072.08
908.91	1070.05
909.22	1074.21
909.52	1076.60
909.83	1072.01
910.14	1071.66
910.44	1072.64
910.75	1069.77
911.05	1066.82
911.36	1072.62
911.66	1074.49
911.97	1075.22
912.27	1076.13
912.58	1077.33
912.88	1077.56
913.19	1077.21
913.49	1076.79
913.80	1080.11
914.10	1082.33
914.41	1082.52
914.71	1080.20
915.01	1079.69
915.32	1076.37
915.62	1078.21
915.93	1075.62
916.23	1075.94
916.54	1075.71
916.84	1076.44
917.15	1075.97
917.45	1076.48
917.75	1077.72
918.06	1077.91
918.36	1076.23
918.67	1074.24
918.97	1076.67
919.27	1075.43
919.58	1072.57
919.88	1071.22
920.18	1073.02
920.49	1070.72
920.79	1073.86
921.10	1080.48
921.40	1083.04
921.70	1082.80
922.01	1081.40
922.31	1079.15
922.61	1077.93
922.92	1079.06
923.22	1080.18
923.52	1084.53
923.82	1088.54
924.13	1088.91
924.43	1089.26
924.73	1088.21
925.04	1087.93
925.34	1082.90
925.64	1082.73
925.94	1081.56
926.25	1080.41
926.55	1080.58
926.85	1081.75
927.15	1078.94
927.46	1078.21
927.76	1074.89
928.06	1070.05
928.36	1068.57
928.67	1072.15
928.97	1072.48
929.27	1076.06
929.57	1076.18
929.87	1076.93
930.18	1072.29
930.48	1070.87
930.78	1070.00
931.08	1072.60
931.38	1073.81
931.69	1077.72
931.99	1081.77
932.29	1084.49
932.59	1085.35
932.89	1086.20
933.19	1084.65
933.49	1081.05
933.80	1077.25
934.10	1075.83
934.40	1076.65
934.70	1077.49
935.00	1078.33
935.30	1081.23
935.60	1080.18
935.90	1077.47
936.20	1077.35
936.50	1077.16
936.81	1076.95
937.11	1075.71
937.41	1074.03
937.71	1070.30
938.01	1068.81
938.31	1069.67
938.61	1072.74
938.91	1074.66
939.21	1078.92
939.51	1076.62
939.81	1076.53
940.11	1075.78
940.41	1078.57
940.71	1077.44
941.01	1080.30
941.31	1082.71
941.61	1084.25
941.91	1080.44
942.21	1079.62
942.51	1078.17
942.81	1076.53
943.11	1074.70
943.41	1077.04
943.71	1077.86
944.01	1080.53
944.31	1078.52
944.61	1078.14
944.90	1076.69
945.20	1075.87
945.50	1076.86
945.80	1078.99
946.10	1078.12
946.40	1077.42
946.70	1076.34
947.00	1079.13
947.30	1076.53
947.60	1078.87
947.89	1080.53
948.19	1078.89
948.49	1074.35
948.79	1075.87
949.09	1072.83
949.39	1073.88
949.69	1078.17
949.98	1080.18
950.28	1080.39
950.58	1082.38
950.88	1080.23
951.18	1079.71
951.48	1077.47
951.77	1073.67
952.07	1074.59
952.37	1076.76
952.67	1075.15
952.97	1077.33
953.26	1079.48
953.56	1080.39
953.86	1080.39
954.16	1079.34
954.45	1075.83
954.75	1077.42
955.05	1075.29
955.35	1072.95
955.64	1076.20
955.94	1078.71
956.24	1078.40
956.54	1081.58
956.83	1082.33
957.13	1076.79
957.43	1075.71
957.72	1074.12
958.02	1069.72
958.32	1071.85
958.61	1073.81
958.91	1074.03
959.21	1076.83
959.50	1079.88
959.80	1077.82
960.10	1076.72
960.39	1076.69
960.69	1077.70
960.99	1076.97
961.28	1077.40
961.58	1077.51
961.87	1080.74
962.17	1079.17
962.47	1080.34
962.76	1080.44
963.06	1083.55
963.36	1081.14
963.65	1078.19
963.95	1074.89
964.24	1076.46
964.54	1076.93
964.83	1077.00
965.13	1077.65
965.42	1077.65
965.72	1075.31
966.02	1072.29
966.31	1068.88
966.61	1067.71
966.90	1068.62
967.20	1070.00
967.49	1073.35
967.79	1075.73
968.08	1082.66
968.38	1079.81
968.67	1080.02
968.97	1079.88
969.26	1083.04
969.56	1078.36
969.85	1082.43
970.15	1083.18
970.44	1083.46
970.74	1082.29
971.03	1085.00
971.32	1081.73
971.62	1078.64
971.91	1075.08
972.21	1072.39
972.50	1069.51
972.80	1069.81
973.09	1069.74
973.38	1071.85
973.68	1072.22
973.97	1072.85
974.27	1073.37
974.56	1074.33
974.85	1076.04
975.15	1078.75
975.44	1079.97
975.73	1081.91
976.03	1081.94
976.32	1081.63
976.61	1080.23
976.91	1080.65
977.20	1080.46
977.49	1081.54
977.79	1081.00
978.08	1081.54
978.37	1080.91
978.67	1081.61
978.96	1080.41
979.25	1077.07
979.55	1077.82
979.84	1075.71
980.13	1072.55
980.42	1075.59
980.72	1079.67
981.01	1078.52
981.30	1082.22
981.59	1087.37
981.89	1086.66
982.18	1086.52
982.47	1087.67
982.76	1082.45
983.06	1078.36
983.35	1076.53
983.64	1076.90
983.93	1076.18
984.22	1077.47
984.52	1080.27
984.81	1082.29
985.10	1079.74
985.39	1080.95
985.68	1080.44
985.97	1078.80
986.27	1075.97
986.56	1078.12
986.85	1075.90
987.14	1079.64
987.43	1080.20
987.72	1078.50
988.01	1078.31
988.31	1078.31
988.60	1073.74
988.89	1071.38
989.18	1075.17
989.47	1074.80
989.76	1074.07
990.05	1076.90
990.34	1080.18
990.63	1079.06
990.92	1077.49
991.21	1079.38
991.51	1078.80
991.80	1078.00
992.09	1076.51
992.38	1079.50
992.67	1078.64
992.96	1076.74
993.25	1078.00
993.54	1077.96
993.83	1075.27
994.12	1076.27
994.41	1074.45
994.70	1072.85
994.99	1076.51
995.28	1077.18
995.57	1079.43
995.86	1081.98
996.15	1079.76
996.44	1074.26
996.73	1072.76
997.02	1070.56
997.31	1072.01
997.59	1073.44
997.88	1074.56
998.17	1075.17
998.46	1074.96
998.75	1077.00
999.04	1077.02
999.33	1079.22
999.62	1079.34
999.91	1079.69
1000.20	1076.65
1000.49	1077.89
1000.77	1078.68
1001.06	1079.06
1001.35	1078.54
1001.64	1081.54
1001.93	1083.01
1002.22	1084.67
1002.51	1085.47
1002.79	1087.34
1003.08	1085.70
1003.37	1084.28
1003.66	1079.17
1003.95	1077.33
1004.23	1075.36
1004.52	1075.01
1004.81	1074.03
1005.10	1073.86
1005.39	1072.90
1005.67	1073.74
1005.96	1073.88
1006.25	1073.70
1006.54	1076.72
1006.83	1078.99
1007.11	1080.46
1007.40	1078.00
1007.69	1077.25
1007.97	1078.85
1008.26	1077.65
1008.55	1076.41
1008.84	1076.25
1009.12	1075.71
1009.41	1074.66
1009.70	1074.42
1009.98	1073.44
1010.27	1074.66
1010.56	1077.11
1010.85	1073.28
1011.13	1073.21
1011.42	1070.00
1011.71	1070.42
1011.99	1071.03
1012.28	1073.53
1012.56	1074.00
1012.85	1076.25
1013.14	1075.41
1013.42	1072.95
1013.71	1071.85
1014.00	1075.27
1014.28	1073.21
1014.57	1073.32
1014.85	1077.35
1015.14	1078.82
1015.43	1075.38
1015.71	1075.41
1016.00	1073.63
1016.28	1073.84
1016.57	1069.84
1016.85	1070.91
1017.14	1074.45
1017.43	1074.54
1017.71	1072.27
1018.00	1077.72
1018.28	1076.32
1018.57	1076.79
1018.85	1078.82
1019.14	1077.77
1019.42	1078.87
1019.71	1082.66
1019.99	1081.47
1020.28	1081.54
1020.56	1080.18
1020.85	1077.51
1021.13	1076.79
1021.42	1078.59
1021.70	1080.51
1021.99	1085.54
1022.27	1085.84
1022.55	1093.38
1022.84	1077.70
>>>>>End Processed Spectral Data<<<<<
