SpectraSuite Data File
++++++++++++++++++++++++++++++++++++
Date: Mon Aug 26 10:21:54 PDT 2019
User: corrico
Dark Spectrum Present: No
Reference Spectrum Present: No
Number of Sampled Component Spectra: 1
Spectrometers: USB2+H06089
Integration Time (usec): 2000 (USB2+H06089)
Spectra Averaged: 20 (USB2+H06089)
Boxcar Smoothing: 2 (USB2+H06089)
Correct for Electrical Dark: No (USB2+H06089)
Strobe/Lamp Enabled: No (USB2+H06089)
Correct for Detector Non-linearity: No (USB2+H06089)
Correct for Stray Light: No (USB2+H06089)
Number of Pixels in Processed Spectrum: 2048
>>>>>Begin Processed Spectral Data<<<<<
339.70	1033.58
340.07	1033.58
340.45	993.84
340.82	969.36
341.19	943.38
341.57	916.48
341.94	907.24
342.31	899.02
342.69	895.44
343.06	891.93
343.43	889.38
343.81	891.88
344.18	890.78
344.55	894.62
344.93	902.14
345.30	909.27
345.67	917.79
346.04	928.89
346.42	938.32
346.79	944.03
347.16	952.41
347.54	956.65
347.91	960.98
348.28	967.32
348.65	976.96
349.03	986.79
349.40	996.86
349.77	1009.87
350.14	1019.21
350.52	1026.70
350.89	1033.39
351.26	1040.46
351.63	1045.68
352.01	1048.98
352.38	1054.50
352.75	1060.38
353.12	1066.23
353.50	1068.59
353.87	1071.22
354.24	1071.36
354.61	1071.85
354.98	1071.99
355.36	1074.75
355.73	1078.66
356.10	1079.67
356.47	1079.95
356.84	1079.78
357.22	1078.43
357.59	1076.97
357.96	1077.35
358.33	1075.71
358.70	1074.63
359.08	1073.60
359.45	1072.22
359.82	1073.81
360.19	1073.46
360.56	1068.95
360.94	1066.70
361.31	1066.09
361.68	1062.30
362.05	1063.24
362.42	1069.30
362.79	1071.38
363.16	1069.44
363.54	1070.12
363.91	1070.70
364.28	1068.13
364.65	1068.67
365.02	1069.16
365.39	1072.50
365.76	1070.84
366.14	1070.82
366.51	1070.87
366.88	1073.18
367.25	1069.41
367.62	1069.02
367.99	1069.44
368.36	1066.23
368.73	1062.60
369.10	1066.77
369.48	1067.52
369.85	1068.41
370.22	1069.13
370.59	1070.33
370.96	1065.32
371.33	1064.66
371.70	1064.87
372.07	1064.71
372.44	1063.12
372.81	1063.80
373.18	1064.15
373.55	1062.39
373.93	1065.18
374.30	1068.03
374.67	1066.18
375.04	1067.47
375.41	1066.77
375.78	1066.47
376.15	1066.00
376.52	1066.51
376.89	1064.78
377.26	1065.41
377.63	1065.55
378.00	1066.00
378.37	1067.96
378.74	1067.47
379.11	1066.30
379.48	1065.34
379.85	1065.67
380.22	1063.84
380.59	1064.62
380.96	1066.49
381.33	1066.75
381.70	1063.61
382.07	1064.73
382.44	1067.49
382.81	1067.28
383.18	1068.71
383.55	1071.17
383.92	1071.29
384.29	1069.41
384.66	1069.04
385.03	1069.93
385.40	1070.94
385.77	1074.17
386.14	1071.38
386.51	1070.98
386.88	1069.93
387.25	1069.48
387.62	1067.07
387.99	1069.77
388.36	1069.18
388.73	1068.99
389.10	1066.07
389.46	1066.47
389.83	1068.29
390.20	1066.58
390.57	1067.47
390.94	1068.01
391.31	1065.97
391.68	1063.24
392.05	1065.55
392.42	1065.37
392.79	1067.80
393.16	1068.01
393.53	1067.28
393.89	1067.00
394.26	1066.35
394.63	1067.05
395.00	1070.75
395.37	1073.30
395.74	1076.20
396.11	1074.07
396.48	1076.86
396.84	1074.24
397.21	1072.43
397.58	1070.94
397.95	1073.91
398.32	1073.49
398.69	1075.13
399.06	1075.55
399.42	1076.37
399.79	1077.61
400.16	1073.58
400.53	1075.76
400.90	1076.65
401.27	1075.85
401.64	1074.54
402.00	1074.80
402.37	1071.82
402.74	1070.91
403.11	1071.75
403.48	1073.11
403.84	1071.57
404.21	1069.55
404.58	1070.58
404.95	1068.83
405.32	1064.19
405.68	1063.45
406.05	1068.17
406.42	1066.98
406.79	1069.11
407.16	1070.02
407.52	1075.34
407.89	1072.29
408.26	1071.90
408.63	1070.89
408.99	1071.40
409.36	1070.89
409.73	1071.50
410.10	1074.45
410.47	1076.53
410.83	1078.47
411.20	1077.79
411.57	1080.77
411.94	1076.27
412.30	1073.04
412.67	1069.48
413.04	1070.40
413.40	1069.13
413.77	1074.61
414.14	1073.58
414.51	1075.20
414.87	1073.65
415.24	1069.84
415.61	1070.40
415.97	1072.85
416.34	1077.07
416.71	1076.74
417.08	1080.93
417.44	1077.61
417.81	1075.99
418.18	1074.40
418.54	1077.40
418.91	1076.25
419.28	1077.04
419.64	1079.53
420.01	1078.82
420.38	1081.96
420.74	1080.86
421.11	1082.05
421.48	1080.18
421.84	1082.01
422.21	1078.75
422.58	1080.06
422.94	1079.60
423.31	1084.42
423.68	1084.00
424.04	1084.23
424.41	1086.64
424.77	1088.58
425.14	1087.55
425.51	1088.68
425.87	1088.40
426.24	1087.69
426.61	1088.28
426.97	1089.68
427.34	1089.26
427.70	1093.83
428.07	1098.60
428.44	1100.19
428.80	1101.50
429.17	1104.36
429.53	1102.67
429.90	1103.35
430.27	1107.10
430.63	1109.39
431.00	1113.16
431.36	1115.52
431.73	1117.25
432.09	1116.15
432.46	1117.89
432.83	1119.43
433.19	1123.86
433.56	1125.12
433.92	1131.41
434.29	1135.56
434.65	1136.89
435.02	1141.83
435.38	1148.17
435.75	1151.96
436.11	1159.99
436.48	1170.55
436.84	1175.67
437.21	1182.04
437.57	1188.31
437.94	1192.41
438.30	1199.31
438.67	1208.70
439.03	1219.56
439.40	1229.25
439.76	1241.02
440.13	1247.97
440.49	1260.82
440.86	1272.01
441.22	1288.44
441.59	1302.67
441.95	1320.79
442.32	1335.06
442.68	1350.91
443.05	1363.83
443.41	1381.08
443.78	1401.98
444.14	1423.70
444.51	1446.85
444.87	1476.22
445.24	1504.00
445.60	1527.88
445.96	1554.93
446.33	1584.43
446.69	1610.22
447.06	1641.58
447.42	1678.37
447.79	1711.68
448.15	1753.93
448.51	1799.59
448.88	1843.80
449.24	1883.38
449.61	1939.53
449.97	1989.74
450.33	2042.28
450.70	2093.98
451.06	2152.64
451.43	2202.33
451.79	2263.39
452.15	2329.07
452.52	2402.28
452.88	2485.65
453.24	2570.45
453.61	2666.90
453.97	2758.18
454.34	2847.24
454.70	2945.49
455.06	3048.90
455.43	3152.44
455.79	3257.28
456.15	3382.96
456.52	3496.06
456.88	3632.79
457.24	3757.36
457.61	3904.79
457.97	4041.31
458.33	4189.77
458.70	4335.89
459.06	4482.24
459.42	4642.85
459.79	4785.16
460.15	4948.38
460.51	5104.26
460.88	5264.10
461.24	5402.49
461.60	5573.00
461.96	5709.55
462.33	5838.47
462.69	5969.75
463.05	6115.80
463.42	6253.58
463.78	6388.75
464.14	6523.73
464.50	6662.71
464.87	6745.47
465.23	6807.87
465.59	6880.05
465.95	6932.97
466.32	6971.78
466.68	7042.67
467.04	7090.49
467.40	7133.58
467.77	7171.78
468.13	7174.35
468.49	7170.91
468.85	7169.27
469.22	7150.34
469.58	7114.06
469.94	7104.11
470.30	7060.93
470.66	7005.15
471.03	6924.29
471.39	6857.47
471.75	6748.35
472.11	6641.60
472.47	6557.41
472.84	6475.09
473.20	6366.47
473.56	6293.89
473.92	6213.07
474.28	6142.60
474.65	6071.65
475.01	6013.19
475.37	5930.17
475.73	5868.47
476.09	5781.66
476.45	5700.33
476.81	5620.52
477.18	5542.25
477.54	5459.44
477.90	5382.02
478.26	5298.88
478.62	5216.59
478.98	5156.90
479.34	5098.60
479.71	5030.93
480.07	4973.61
480.43	4938.13
480.79	4885.89
481.15	4828.13
481.51	4784.41
481.87	4744.38
482.23	4671.66
482.59	4609.45
482.96	4548.92
483.32	4484.26
483.68	4415.77
484.04	4366.57
484.40	4308.83
484.76	4254.91
485.12	4199.90
485.48	4144.01
485.84	4080.42
486.20	4024.15
486.56	3963.23
486.92	3908.34
487.28	3845.08
487.64	3781.98
488.00	3718.92
488.37	3658.82
488.73	3586.47
489.09	3521.55
489.45	3464.55
489.81	3402.23
490.17	3342.87
490.53	3289.55
490.89	3235.49
491.25	3180.76
491.61	3125.65
491.97	3062.38
492.33	3001.62
492.69	2943.60
493.05	2889.27
493.41	2833.20
493.77	2783.11
494.13	2738.38
494.49	2690.42
494.85	2639.56
495.21	2594.95
495.57	2552.26
495.93	2507.42
496.29	2469.80
496.64	2429.22
497.00	2387.37
497.36	2348.56
497.72	2309.22
498.08	2271.42
498.44	2237.13
498.80	2203.83
499.16	2173.47
499.52	2142.85
499.88	2114.72
500.24	2091.55
500.60	2064.28
500.96	2033.34
501.32	2007.76
501.68	1983.88
502.03	1951.61
502.39	1924.18
502.75	1898.27
503.11	1873.48
503.47	1847.17
503.83	1825.88
504.19	1806.75
504.55	1787.42
504.91	1765.30
505.26	1746.02
505.62	1720.22
505.98	1701.34
506.34	1683.48
506.70	1664.78
507.06	1639.71
507.42	1624.36
507.78	1606.50
508.13	1584.85
508.49	1568.28
508.85	1552.29
509.21	1536.89
509.57	1517.58
509.93	1504.68
510.28	1491.79
510.64	1485.21
511.00	1468.05
511.36	1460.24
511.72	1446.47
512.07	1432.48
512.43	1416.63
512.79	1408.86
513.15	1395.76
513.51	1387.91
513.86	1376.63
514.22	1365.49
514.58	1355.73
514.94	1344.03
515.30	1332.86
515.65	1324.16
516.01	1317.51
516.37	1308.06
516.73	1301.85
517.08	1297.92
517.44	1290.36
517.80	1281.14
518.16	1273.88
518.51	1266.77
518.87	1256.91
519.23	1252.14
519.59	1250.45
519.94	1250.95
520.30	1248.77
520.66	1247.81
521.01	1242.31
521.37	1239.38
521.73	1232.20
522.09	1226.11
522.44	1218.88
522.80	1217.85
523.16	1209.92
523.51	1208.21
523.87	1202.61
524.23	1197.21
524.58	1189.67
524.94	1184.85
525.30	1178.23
525.65	1178.69
526.01	1177.57
526.37	1175.25
526.72	1172.33
527.08	1169.31
527.44	1164.72
527.79	1164.84
528.15	1164.60
528.51	1163.62
528.86	1160.81
529.22	1157.37
529.58	1152.76
529.93	1148.64
530.29	1147.17
530.65	1151.26
531.00	1145.74
531.36	1142.13
531.71	1140.43
532.07	1138.16
532.43	1131.65
532.78	1132.09
533.14	1130.36
533.49	1131.86
533.85	1128.42
534.21	1126.97
534.56	1129.94
534.92	1130.24
535.27	1125.84
535.63	1124.23
535.98	1119.69
536.34	1115.99
536.69	1112.15
537.05	1114.47
537.41	1114.49
537.76	1116.72
538.12	1112.48
538.47	1111.71
538.83	1106.58
539.18	1107.59
539.54	1104.22
539.89	1105.20
540.25	1108.20
540.60	1110.16
540.96	1110.35
541.31	1112.22
541.67	1111.50
542.02	1106.37
542.38	1103.12
542.73	1100.05
543.09	1098.34
543.44	1098.90
543.80	1099.75
544.15	1100.00
544.51	1097.43
544.86	1094.67
545.22	1090.43
545.57	1092.77
545.93	1092.35
546.28	1095.60
546.64	1097.76
546.99	1098.60
547.35	1094.93
547.70	1092.14
548.05	1091.27
548.41	1089.80
548.76	1092.52
549.12	1089.40
549.47	1090.43
549.83	1090.53
550.18	1089.73
550.53	1088.19
550.89	1090.41
551.24	1091.67
551.60	1090.62
551.95	1090.88
552.30	1088.98
552.66	1088.58
553.01	1085.54
553.37	1083.76
553.72	1084.98
554.07	1088.49
554.43	1093.55
554.78	1095.91
555.13	1096.73
555.49	1094.18
555.84	1089.17
556.19	1084.84
556.55	1081.19
556.90	1079.46
557.26	1079.83
557.61	1082.85
557.96	1083.48
558.32	1085.10
558.67	1087.90
559.02	1091.98
559.37	1090.81
559.73	1086.10
560.08	1085.54
560.43	1084.51
560.79	1078.99
561.14	1079.57
561.49	1083.81
561.85	1085.96
562.20	1081.66
562.55	1085.14
562.90	1084.84
563.26	1083.06
563.61	1083.57
563.96	1083.64
564.32	1082.10
564.67	1081.23
565.02	1079.24
565.37	1079.48
565.73	1084.04
566.08	1083.11
566.43	1081.16
566.78	1081.89
567.14	1078.14
567.49	1076.06
567.84	1075.50
568.19	1077.11
568.54	1080.39
568.90	1084.39
569.25	1083.01
569.60	1083.11
569.95	1084.07
570.31	1083.50
570.66	1082.03
571.01	1081.51
571.36	1084.44
571.71	1083.81
572.06	1081.66
572.42	1078.78
572.77	1080.32
573.12	1076.32
573.47	1074.00
573.82	1074.10
574.18	1073.25
574.53	1073.25
574.88	1074.61
575.23	1076.20
575.58	1076.13
575.93	1077.35
576.28	1077.42
576.64	1079.29
576.99	1083.48
577.34	1082.54
577.69	1080.32
578.04	1078.50
578.39	1074.84
578.74	1071.12
579.09	1073.86
579.44	1076.62
579.80	1077.75
580.15	1079.81
580.50	1077.42
580.85	1074.96
581.20	1075.90
581.55	1074.31
581.90	1074.56
582.25	1077.37
582.60	1079.03
582.95	1075.90
583.30	1077.47
583.65	1079.50
584.00	1076.86
584.35	1074.75
584.71	1081.07
585.06	1082.45
585.41	1079.36
585.76	1082.40
586.11	1086.52
586.46	1083.08
586.81	1079.67
587.16	1080.41
587.51	1079.78
587.86	1076.48
588.21	1076.13
588.56	1077.49
588.91	1078.92
589.26	1080.70
589.61	1080.09
589.96	1080.16
590.31	1080.70
590.66	1080.70
591.01	1078.03
591.36	1078.85
591.71	1080.25
592.06	1081.00
592.41	1077.93
592.76	1076.01
593.10	1074.33
593.45	1071.43
593.80	1069.32
594.15	1070.16
594.50	1075.03
594.85	1074.94
595.20	1075.87
595.55	1076.27
595.90	1075.34
596.25	1073.70
596.60	1074.94
596.95	1075.94
597.30	1076.79
597.64	1090.24
597.99	1091.37
598.34	1092.12
598.69	1091.32
599.04	1090.50
599.39	1080.13
599.74	1077.58
600.09	1076.30
600.44	1076.44
600.78	1076.23
601.13	1075.43
601.48	1075.66
601.83	1075.97
602.18	1076.32
602.53	1077.68
602.88	1077.58
603.22	1076.86
603.57	1077.86
603.92	1075.55
604.27	1078.57
604.62	1079.55
604.97	1079.57
605.31	1077.77
605.66	1080.46
606.01	1079.60
606.36	1075.59
606.71	1076.11
607.05	1077.70
607.40	1079.38
607.75	1077.79
608.10	1078.50
608.44	1079.15
608.79	1080.09
609.14	1079.27
609.49	1077.14
609.84	1078.21
610.18	1077.30
610.53	1076.83
610.88	1073.25
611.23	1076.55
611.57	1079.57
611.92	1079.95
612.27	1079.46
612.62	1080.44
612.96	1078.47
613.31	1075.80
613.66	1080.34
614.00	1079.81
614.35	1080.86
614.70	1080.77
615.05	1078.59
615.39	1072.50
615.74	1072.01
616.09	1071.61
616.43	1072.57
616.78	1073.63
617.13	1075.20
617.47	1075.29
617.82	1077.65
618.17	1078.52
618.51	1081.19
618.86	1082.31
619.21	1082.50
619.55	1080.06
619.90	1082.69
620.25	1082.78
620.59	1082.64
620.94	1083.34
621.29	1084.09
621.63	1080.06
621.98	1079.15
622.32	1078.33
622.67	1077.93
623.02	1074.87
623.36	1073.60
623.71	1070.26
624.05	1066.25
624.40	1064.10
624.75	1068.62
625.09	1069.79
625.44	1071.15
625.78	1074.52
626.13	1076.81
626.48	1076.08
626.82	1075.43
627.17	1075.05
627.51	1074.94
627.86	1075.69
628.20	1075.78
628.55	1079.46
628.89	1077.70
629.24	1077.33
629.58	1079.62
629.93	1078.59
630.28	1074.12
630.62	1075.01
630.97	1073.44
631.31	1070.30
631.66	1072.50
632.00	1075.97
632.35	1078.21
632.69	1081.07
633.04	1080.51
633.38	1077.82
633.73	1075.66
634.07	1076.67
634.42	1075.36
634.76	1076.48
635.11	1076.41
635.45	1076.11
635.79	1073.30
636.14	1074.87
636.48	1071.61
636.83	1070.05
637.17	1069.86
637.52	1070.94
637.86	1068.90
638.21	1071.12
638.55	1071.92
638.89	1074.33
639.24	1078.14
639.58	1079.22
639.93	1081.09
640.27	1082.87
640.61	1080.23
640.96	1077.09
641.30	1080.06
641.65	1077.07
641.99	1074.80
642.33	1075.38
642.68	1073.98
643.02	1070.61
643.37	1072.39
643.71	1074.84
644.05	1072.62
644.40	1072.92
644.74	1071.71
645.08	1072.69
645.43	1071.82
645.77	1073.95
646.11	1073.32
646.46	1077.28
646.80	1079.22
647.14	1077.79
647.49	1074.75
647.83	1077.86
648.17	1077.58
648.52	1073.37
648.86	1073.37
649.20	1078.85
649.55	1077.25
649.89	1076.46
650.23	1078.78
650.57	1081.73
650.92	1079.57
651.26	1079.88
651.60	1077.91
651.95	1076.30
652.29	1074.59
652.63	1073.79
652.97	1076.34
653.32	1077.35
653.66	1080.79
654.00	1079.38
654.34	1082.03
654.69	1079.62
655.03	1081.68
655.37	1078.50
655.71	1080.53
656.05	1078.66
656.40	1079.99
656.74	1077.93
657.08	1079.13
657.42	1077.65
657.76	1078.66
658.11	1075.20
658.45	1072.08
658.79	1071.43
659.13	1073.74
659.47	1069.88
659.82	1068.85
660.16	1068.48
660.50	1067.00
660.84	1065.01
661.18	1068.78
661.52	1071.97
661.87	1073.91
662.21	1072.29
662.55	1072.67
662.89	1070.84
663.23	1070.19
663.57	1073.02
663.91	1075.73
664.25	1077.49
664.60	1080.95
664.94	1080.63
665.28	1081.33
665.62	1080.65
665.96	1078.87
666.30	1072.60
666.64	1072.69
666.98	1070.94
667.32	1073.07
667.66	1075.03
668.01	1078.50
668.35	1076.01
668.69	1074.49
669.03	1074.98
669.37	1072.81
669.71	1073.11
670.05	1076.04
670.39	1077.58
670.73	1073.86
671.07	1075.38
671.41	1075.24
671.75	1072.92
672.09	1072.50
672.43	1074.73
672.77	1076.51
673.11	1076.18
673.45	1078.85
673.79	1078.24
674.13	1075.31
674.47	1071.87
674.81	1072.78
675.15	1071.85
675.49	1072.48
675.83	1075.15
676.17	1076.55
676.51	1077.07
676.85	1075.55
677.19	1073.70
677.53	1074.96
677.87	1074.03
678.21	1069.46
678.55	1073.25
678.89	1074.75
679.23	1077.37
679.57	1079.90
679.90	1084.84
680.24	1081.77
680.58	1081.49
680.92	1078.54
681.26	1075.85
681.60	1072.95
681.94	1076.39
682.28	1075.66
682.62	1073.49
682.96	1074.24
683.29	1073.77
683.63	1073.00
683.97	1072.76
684.31	1074.89
684.65	1072.11
684.99	1073.16
685.33	1069.72
685.67	1073.46
686.00	1072.62
686.34	1072.90
686.68	1074.54
687.02	1077.11
687.36	1073.35
687.70	1072.57
688.03	1075.64
688.37	1072.11
688.71	1073.58
689.05	1073.79
689.39	1075.27
689.72	1074.31
690.06	1081.54
690.40	1078.87
690.74	1080.70
691.08	1079.01
691.41	1078.07
691.75	1075.36
692.09	1074.21
692.43	1074.98
692.76	1079.06
693.10	1079.22
693.44	1074.91
693.78	1078.21
694.11	1077.63
694.45	1074.26
694.79	1074.94
695.13	1076.11
695.46	1072.83
695.80	1073.72
696.14	1074.03
696.48	1074.47
696.81	1073.67
697.15	1075.55
697.49	1072.90
697.82	1074.73
698.16	1077.14
698.50	1077.51
698.83	1075.97
699.17	1075.36
699.51	1072.60
699.84	1069.53
700.18	1072.04
700.52	1071.52
700.85	1071.50
701.19	1072.27
701.53	1073.53
701.86	1071.99
702.20	1074.07
702.54	1075.10
702.87	1072.15
703.21	1070.00
703.55	1073.39
703.88	1074.00
704.22	1070.02
704.55	1073.42
704.89	1073.79
705.23	1071.01
705.56	1069.60
705.90	1074.24
706.23	1071.31
706.57	1070.70
706.91	1069.09
707.24	1068.90
707.58	1068.22
707.91	1070.07
708.25	1071.57
708.58	1073.74
708.92	1072.95
709.26	1071.47
709.59	1072.57
709.93	1070.70
710.26	1068.22
710.60	1071.85
710.93	1074.42
711.27	1073.88
711.60	1075.83
711.94	1076.97
712.27	1074.49
712.61	1073.88
712.94	1075.29
713.28	1076.90
713.61	1077.82
713.95	1075.24
714.28	1074.05
714.62	1073.46
714.95	1073.91
715.29	1074.33
715.62	1077.58
715.96	1080.48
716.29	1083.57
716.63	1080.09
716.96	1080.06
717.29	1079.83
717.63	1078.21
717.96	1074.94
718.30	1073.25
718.63	1072.67
718.97	1071.24
719.30	1072.27
719.63	1071.22
719.97	1074.12
720.30	1073.53
720.64	1078.17
720.97	1074.70
721.30	1074.05
721.64	1074.59
721.97	1076.13
722.31	1073.44
722.64	1075.31
722.97	1075.94
723.31	1074.47
723.64	1072.25
723.97	1070.30
724.31	1070.44
724.64	1069.16
724.98	1070.05
725.31	1067.24
725.64	1069.20
725.98	1072.64
726.31	1073.32
726.64	1072.27
726.97	1075.76
727.31	1074.26
727.64	1069.53
727.97	1068.83
728.31	1068.88
728.64	1071.12
728.97	1072.43
729.31	1072.74
729.64	1075.43
729.97	1073.84
730.30	1070.84
730.64	1072.41
730.97	1076.58
731.30	1075.10
731.63	1075.55
731.97	1075.36
732.30	1074.33
732.63	1071.64
732.96	1072.55
733.30	1074.66
733.63	1076.48
733.96	1076.11
734.29	1075.71
734.63	1074.21
734.96	1071.68
735.29	1070.68
735.62	1070.26
735.95	1070.26
736.29	1073.70
736.62	1076.88
736.95	1074.73
737.28	1075.08
737.61	1072.32
737.94	1071.19
738.28	1071.29
738.61	1073.11
738.94	1070.30
739.27	1071.17
739.60	1068.69
739.93	1067.73
740.27	1067.05
740.60	1067.78
740.93	1072.04
741.26	1074.73
741.59	1072.81
741.92	1073.98
742.25	1075.97
742.58	1073.09
742.91	1071.90
743.25	1075.29
743.58	1075.27
743.91	1076.20
744.24	1073.49
744.57	1074.56
744.90	1073.63
745.23	1074.70
745.56	1073.51
745.89	1078.96
746.22	1078.19
746.55	1077.98
746.88	1076.23
747.21	1077.91
747.54	1075.99
747.87	1075.52
748.20	1073.72
748.53	1074.75
748.87	1074.26
749.20	1072.92
749.53	1071.97
749.86	1072.15
750.19	1075.50
750.52	1075.78
750.85	1077.63
751.18	1076.67
751.51	1076.62
751.84	1073.21
752.16	1071.80
752.49	1073.65
752.82	1075.62
753.15	1078.00
753.48	1077.37
753.81	1077.61
754.14	1075.31
754.47	1070.72
754.80	1067.94
755.13	1068.55
755.46	1069.46
755.79	1066.82
756.12	1072.67
756.45	1073.46
756.78	1073.11
757.11	1071.10
757.43	1073.28
757.76	1073.42
758.09	1075.15
758.42	1073.88
758.75	1076.62
759.08	1078.75
759.41	1078.07
759.74	1076.08
760.07	1078.33
760.39	1076.13
760.72	1073.16
761.05	1073.09
761.38	1074.42
761.71	1074.80
762.04	1074.42
762.36	1075.38
762.69	1073.39
763.02	1074.49
763.35	1073.88
763.68	1073.46
764.01	1074.12
764.33	1076.11
764.66	1074.31
764.99	1075.15
765.32	1072.78
765.65	1073.42
765.97	1076.93
766.30	1077.14
766.63	1075.55
766.96	1079.81
767.28	1078.80
767.61	1075.83
767.94	1075.66
768.27	1077.00
768.59	1076.97
768.92	1074.94
769.25	1072.32
769.58	1073.23
769.90	1071.68
770.23	1069.37
770.56	1071.24
770.89	1071.10
771.21	1070.09
771.54	1069.18
771.87	1070.35
772.19	1066.37
772.52	1067.31
772.85	1068.08
773.17	1069.84
773.50	1071.10
773.83	1073.32
774.15	1075.03
774.48	1075.20
774.81	1075.99
775.13	1077.37
775.46	1077.61
775.79	1076.90
776.11	1077.89
776.44	1078.66
776.77	1077.49
777.09	1079.15
777.42	1079.78
777.74	1079.85
778.07	1079.88
778.40	1077.70
778.72	1078.87
779.05	1080.74
779.37	1080.88
779.70	1080.48
780.03	1080.60
780.35	1081.89
780.68	1079.92
781.00	1077.72
781.33	1079.13
781.65	1081.98
781.98	1080.56
782.31	1079.01
782.63	1080.13
782.96	1077.23
783.28	1074.03
783.61	1071.33
783.93	1069.11
784.26	1070.87
784.58	1071.26
784.91	1072.67
785.23	1074.35
785.56	1076.55
785.88	1070.54
786.21	1070.05
786.53	1068.55
786.86	1066.98
787.18	1066.14
787.51	1071.64
787.83	1074.21
788.16	1076.60
788.48	1079.17
788.81	1080.72
789.13	1074.98
789.46	1069.09
789.78	1068.88
790.10	1067.24
790.43	1067.35
790.75	1069.74
791.08	1072.08
791.40	1071.52
791.73	1069.48
792.05	1067.42
792.37	1070.98
792.70	1077.77
793.02	1075.69
793.35	1079.38
793.67	1081.05
793.99	1079.36
794.32	1074.26
794.64	1072.27
794.96	1070.14
795.29	1072.71
795.61	1073.67
795.93	1072.27
796.26	1077.23
796.58	1076.93
796.91	1075.71
797.23	1077.23
797.55	1078.96
797.87	1079.71
798.20	1080.95
798.52	1080.09
798.84	1079.71
799.17	1076.72
799.49	1072.57
799.81	1069.81
800.14	1067.45
800.46	1061.99
800.78	1061.53
801.10	1061.76
801.43	1064.45
801.75	1066.35
802.07	1072.27
802.40	1073.49
802.72	1077.18
803.04	1076.48
803.36	1077.25
803.69	1075.94
804.01	1079.27
804.33	1078.33
804.65	1075.92
804.97	1070.54
805.30	1067.05
805.62	1067.26
805.94	1066.68
806.26	1070.42
806.58	1073.00
806.91	1075.15
807.23	1073.58
807.55	1073.14
807.87	1073.11
808.19	1076.18
808.52	1077.40
808.84	1076.55
809.16	1079.34
809.48	1077.61
809.80	1080.18
810.12	1077.70
810.44	1076.88
810.77	1072.71
811.09	1071.45
811.41	1066.35
811.73	1069.20
812.05	1069.74
812.37	1072.95
812.69	1074.56
813.01	1077.11
813.33	1074.80
813.66	1076.62
813.98	1076.04
814.30	1075.85
814.62	1074.07
814.94	1074.56
815.26	1072.92
815.58	1073.30
815.90	1074.75
816.22	1077.40
816.54	1080.37
816.86	1081.09
817.18	1079.10
817.50	1075.76
817.82	1071.05
818.14	1065.51
818.46	1064.92
818.78	1066.28
819.10	1067.28
819.42	1070.26
819.74	1073.70
820.06	1071.29
820.38	1070.14
820.70	1070.44
821.02	1071.94
821.34	1068.55
821.66	1072.22
821.98	1073.49
822.30	1074.47
822.62	1074.42
822.94	1077.25
823.26	1076.74
823.58	1075.90
823.90	1076.23
824.22	1075.57
824.54	1076.97
824.86	1076.55
825.18	1079.31
825.50	1080.39
825.81	1079.92
826.13	1079.53
826.45	1079.97
826.77	1077.09
827.09	1076.41
827.41	1074.82
827.73	1075.94
828.05	1077.65
828.36	1075.92
828.68	1074.73
829.00	1077.40
829.32	1074.21
829.64	1073.04
829.96	1074.56
830.28	1073.86
830.59	1071.68
830.91	1074.38
831.23	1076.08
831.55	1074.03
831.87	1074.31
832.19	1075.69
832.50	1073.70
832.82	1070.28
833.14	1070.09
833.46	1071.68
833.78	1070.80
834.09	1073.09
834.41	1075.01
834.73	1079.60
835.05	1080.02
835.36	1079.46
835.68	1080.88
836.00	1078.52
836.32	1078.38
836.63	1079.78
836.95	1080.65
837.27	1077.77
837.59	1079.15
837.90	1077.82
838.22	1073.21
838.54	1074.80
838.85	1070.70
839.17	1070.05
839.49	1070.80
839.80	1075.97
840.12	1072.57
840.44	1077.82
840.76	1078.57
841.07	1078.78
841.39	1073.21
841.71	1075.41
842.02	1075.66
842.34	1075.29
842.65	1072.25
842.97	1074.03
843.29	1074.14
843.60	1072.20
843.92	1074.07
844.24	1076.60
844.55	1077.54
844.87	1077.68
845.18	1076.95
845.50	1072.95
845.82	1070.35
846.13	1067.52
846.45	1064.78
846.76	1064.50
847.08	1066.65
847.40	1068.74
847.71	1071.40
848.03	1073.63
848.34	1071.75
848.66	1072.76
848.97	1071.05
849.29	1068.88
849.60	1070.23
849.92	1070.87
850.24	1069.23
850.55	1070.21
850.87	1071.59
851.18	1068.83
851.50	1071.85
851.81	1074.26
852.13	1072.88
852.44	1076.62
852.76	1075.90
853.07	1075.45
853.39	1072.25
853.70	1072.53
854.01	1072.15
854.33	1076.51
854.64	1073.91
854.96	1073.02
855.27	1075.52
855.59	1073.02
855.90	1069.67
856.22	1073.25
856.53	1075.85
856.84	1076.11
857.16	1076.83
857.47	1076.01
857.79	1075.31
858.10	1077.21
858.41	1077.79
858.73	1074.45
859.04	1075.45
859.36	1072.67
859.67	1068.95
859.98	1066.72
860.30	1070.87
860.61	1072.81
860.92	1072.64
861.24	1073.86
861.55	1071.87
861.87	1069.25
862.18	1067.49
862.49	1071.50
862.81	1067.99
863.12	1070.23
863.43	1071.85
863.74	1072.27
864.06	1069.91
864.37	1074.84
864.68	1075.55
865.00	1076.51
865.31	1074.17
865.62	1074.84
865.94	1072.43
866.25	1073.84
866.56	1070.58
866.87	1073.09
867.19	1075.85
867.50	1077.30
867.81	1074.45
868.12	1077.72
868.44	1079.95
868.75	1076.01
869.06	1077.75
869.37	1077.84
869.68	1077.84
870.00	1077.25
870.31	1077.68
870.62	1078.19
870.93	1078.26
871.24	1076.60
871.56	1075.38
871.87	1073.16
872.18	1070.98
872.49	1072.50
872.80	1070.44
873.12	1069.48
873.43	1072.76
873.74	1073.51
874.05	1072.78
874.36	1075.34
874.67	1077.25
874.98	1078.14
875.29	1075.43
875.61	1072.55
875.92	1072.83
876.23	1073.39
876.54	1071.59
876.85	1074.77
877.16	1076.01
877.47	1077.14
877.78	1074.73
878.09	1075.17
878.40	1075.31
878.72	1075.76
879.03	1074.52
879.34	1075.64
879.65	1076.79
879.96	1077.70
880.27	1079.03
880.58	1077.23
880.89	1077.47
881.20	1078.59
881.51	1075.90
881.82	1074.21
882.13	1075.34
882.44	1072.57
882.75	1070.37
883.06	1072.71
883.37	1073.30
883.68	1073.79
883.99	1076.46
884.30	1076.74
884.61	1072.69
884.92	1072.85
885.23	1070.75
885.54	1067.14
885.85	1063.40
886.16	1065.32
886.47	1065.44
886.78	1070.12
887.08	1075.03
887.39	1077.07
887.70	1076.30
888.01	1074.77
888.32	1072.41
888.63	1069.09
888.94	1070.63
889.25	1076.27
889.56	1076.93
889.87	1077.30
890.17	1078.17
890.48	1078.45
890.79	1074.45
891.10	1078.07
891.41	1079.10
891.72	1078.40
892.03	1079.71
892.34	1081.37
892.64	1078.50
892.95	1077.82
893.26	1080.53
893.57	1077.18
893.88	1076.23
894.18	1076.95
894.49	1076.83
894.80	1074.59
895.11	1075.08
895.42	1071.31
895.72	1068.76
896.03	1066.37
896.34	1066.04
896.65	1065.74
896.96	1068.29
897.26	1070.21
897.57	1071.57
897.88	1071.92
898.19	1074.75
898.49	1075.34
898.80	1079.64
899.11	1079.95
899.41	1081.58
899.72	1080.09
900.03	1078.26
900.34	1073.04
900.64	1076.79
900.95	1078.75
901.26	1079.74
901.56	1077.58
901.87	1078.92
902.18	1074.24
902.48	1071.50
902.79	1069.86
903.10	1073.35
903.40	1073.04
903.71	1072.48
904.02	1071.64
904.32	1070.07
904.63	1070.51
904.94	1071.75
905.24	1076.06
905.55	1076.32
905.85	1080.18
906.16	1080.81
906.47	1077.37
906.77	1076.58
907.08	1074.35
907.38	1071.12
907.69	1070.44
908.00	1069.58
908.30	1067.94
908.61	1072.29
908.91	1073.84
909.22	1072.67
909.52	1077.02
909.83	1079.46
910.14	1075.31
910.44	1076.11
910.75	1076.30
911.05	1074.96
911.36	1073.39
911.66	1076.58
911.97	1072.29
912.27	1069.53
912.58	1068.52
912.88	1066.44
913.19	1068.48
913.49	1071.15
913.80	1075.62
914.10	1077.35
914.41	1077.42
914.71	1071.68
915.01	1071.66
915.32	1070.35
915.62	1070.16
915.93	1072.62
916.23	1076.04
916.54	1074.56
916.84	1073.77
917.15	1071.71
917.45	1070.58
917.75	1070.63
918.06	1071.87
918.36	1069.84
918.67	1072.01
918.97	1072.67
919.27	1072.43
919.58	1074.59
919.88	1076.90
920.18	1075.38
920.49	1073.91
920.79	1072.85
921.10	1071.12
921.40	1073.56
921.70	1074.75
922.01	1077.16
922.31	1078.36
922.61	1078.14
922.92	1076.90
923.22	1077.40
923.52	1076.44
923.82	1074.47
924.13	1075.15
924.43	1077.84
924.73	1077.93
925.04	1078.26
925.34	1080.23
925.64	1078.80
925.94	1075.43
926.25	1076.15
926.55	1073.44
926.85	1073.58
927.15	1076.74
927.46	1077.16
927.76	1073.37
928.06	1074.75
928.36	1073.93
928.67	1072.43
928.97	1070.82
929.27	1071.52
929.57	1069.37
929.87	1066.18
930.18	1064.22
930.48	1064.55
930.78	1065.51
931.08	1067.87
931.38	1071.15
931.69	1071.73
931.99	1069.44
932.29	1071.43
932.59	1069.95
932.89	1071.59
933.19	1071.54
933.49	1072.64
933.80	1071.87
934.10	1073.60
934.40	1070.77
934.70	1069.86
935.00	1070.65
935.30	1070.12
935.60	1066.25
935.90	1065.74
936.20	1068.17
936.50	1071.26
936.81	1069.93
937.11	1072.22
937.41	1073.09
937.71	1074.05
938.01	1075.41
938.31	1077.77
938.61	1078.54
938.91	1080.30
939.21	1081.68
939.51	1078.89
939.81	1077.44
940.11	1077.23
940.41	1077.35
940.71	1076.79
941.01	1078.38
941.31	1077.54
941.61	1079.55
941.91	1079.01
942.21	1076.25
942.51	1074.21
942.81	1078.17
943.11	1075.20
943.41	1075.27
943.71	1073.98
944.01	1075.57
944.31	1075.59
944.61	1078.38
944.90	1076.51
945.20	1076.74
945.50	1073.93
945.80	1070.75
946.10	1070.44
946.40	1068.38
946.70	1072.20
947.00	1071.05
947.30	1072.22
947.60	1071.43
947.89	1074.03
948.19	1071.78
948.49	1075.10
948.79	1076.18
949.09	1075.59
949.39	1073.65
949.69	1072.95
949.98	1071.87
950.28	1070.09
950.58	1071.01
950.88	1073.44
951.18	1076.34
951.48	1078.21
951.77	1076.74
952.07	1076.62
952.37	1077.14
952.67	1075.57
952.97	1076.60
953.26	1078.12
953.56	1078.66
953.86	1079.81
954.16	1078.82
954.45	1075.69
954.75	1074.94
955.05	1078.00
955.35	1077.21
955.64	1078.10
955.94	1075.66
956.24	1075.08
956.54	1071.68
956.83	1068.88
957.13	1069.70
957.43	1073.30
957.72	1073.74
958.02	1072.90
958.32	1074.38
958.61	1074.47
958.91	1073.46
959.21	1075.50
959.50	1078.52
959.80	1078.26
960.10	1075.85
960.39	1077.14
960.69	1074.05
960.99	1067.47
961.28	1067.21
961.58	1067.14
961.87	1065.60
962.17	1069.13
962.47	1072.27
962.76	1073.91
963.06	1076.32
963.36	1076.69
963.65	1076.79
963.95	1078.03
964.24	1077.33
964.54	1075.80
964.83	1074.68
965.13	1074.47
965.42	1073.11
965.72	1071.17
966.02	1072.06
966.31	1071.59
966.61	1069.06
966.90	1067.05
967.20	1068.06
967.49	1068.08
967.79	1070.12
968.08	1070.87
968.38	1070.96
968.67	1072.74
968.97	1071.57
969.26	1071.19
969.56	1070.05
969.85	1075.41
970.15	1074.75
970.44	1073.49
970.74	1072.62
971.03	1074.42
971.32	1075.83
971.62	1078.38
971.91	1081.70
972.21	1082.66
972.50	1081.51
972.80	1077.21
973.09	1073.14
973.38	1071.75
973.68	1070.68
973.97	1073.28
974.27	1074.80
974.56	1075.31
974.85	1075.27
975.15	1072.76
975.44	1070.70
975.73	1071.33
976.03	1069.93
976.32	1071.73
976.61	1074.75
976.91	1075.27
977.20	1075.20
977.49	1079.13
977.79	1079.08
978.08	1079.20
978.37	1081.44
978.67	1080.56
978.96	1077.47
979.25	1075.48
979.55	1072.97
979.84	1068.38
980.13	1065.83
980.42	1066.86
980.72	1067.57
981.01	1071.05
981.30	1074.49
981.59	1075.27
981.89	1075.90
982.18	1074.07
982.47	1071.75
982.76	1073.81
983.06	1072.85
983.35	1072.08
983.64	1072.36
983.93	1072.50
984.22	1069.72
984.52	1072.43
984.81	1071.36
985.10	1071.22
985.39	1072.11
985.68	1069.53
985.97	1068.67
986.27	1069.30
986.56	1072.76
986.85	1075.31
987.14	1076.48
987.43	1075.48
987.72	1075.83
988.01	1072.90
988.31	1069.79
988.60	1071.43
988.89	1072.71
989.18	1072.36
989.47	1071.38
989.76	1074.07
990.05	1071.50
990.34	1069.44
990.63	1072.69
990.92	1076.25
991.21	1076.23
991.51	1079.24
991.80	1078.17
992.09	1076.32
992.38	1075.99
992.67	1074.96
992.96	1071.03
993.25	1073.56
993.54	1072.41
993.83	1073.56
994.12	1073.00
994.41	1075.36
994.70	1077.47
994.99	1077.65
995.28	1074.03
995.57	1075.94
995.86	1077.77
996.15	1075.92
996.44	1077.11
996.73	1078.47
997.02	1077.47
997.31	1076.01
997.59	1074.07
997.88	1071.68
998.17	1073.91
998.46	1071.38
998.75	1075.03
999.04	1081.09
999.33	1083.13
999.62	1079.46
999.91	1081.02
1000.20	1075.55
1000.49	1074.70
1000.77	1074.38
1001.06	1074.96
1001.35	1074.96
1001.64	1076.62
1001.93	1071.80
1002.22	1074.10
1002.51	1075.97
1002.79	1077.09
1003.08	1077.96
1003.37	1079.99
1003.66	1077.14
1003.95	1075.01
1004.23	1072.69
1004.52	1072.95
1004.81	1071.17
1005.10	1072.32
1005.39	1072.01
1005.67	1074.24
1005.96	1071.38
1006.25	1069.27
1006.54	1068.10
1006.83	1068.24
1007.11	1065.58
1007.40	1068.57
1007.69	1072.22
1007.97	1074.35
1008.26	1077.04
1008.55	1078.99
1008.84	1078.96
1009.12	1078.94
1009.41	1077.77
1009.70	1077.44
1009.98	1076.88
1010.27	1073.49
1010.56	1073.56
1010.85	1068.59
1011.13	1067.80
1011.42	1068.41
1011.71	1070.51
1011.99	1070.00
1012.28	1073.72
1012.56	1076.25
1012.85	1076.72
1013.14	1073.77
1013.42	1071.75
1013.71	1075.05
1014.00	1072.15
1014.28	1073.21
1014.57	1076.15
1014.85	1077.82
1015.14	1075.27
1015.43	1075.92
1015.71	1073.23
1016.00	1074.07
1016.28	1072.48
1016.57	1072.27
1016.85	1074.38
1017.14	1074.35
1017.43	1072.55
1017.71	1072.34
1018.00	1073.04
1018.28	1070.89
1018.57	1073.91
1018.85	1074.45
1019.14	1075.78
1019.42	1075.27
1019.71	1074.17
1019.99	1070.54
1020.28	1072.60
1020.56	1071.87
1020.85	1074.38
1021.13	1071.17
1021.42	1071.29
1021.70	1070.19
1021.99	1073.11
1022.27	1071.82
1022.55	1080.86
1022.84	1078.64
>>>>>End Processed Spectral Data<<<<<
