SpectraSuite Data File
++++++++++++++++++++++++++++++++++++
Date: Mon Aug 26 10:22:16 PDT 2019
User: corrico
Dark Spectrum Present: No
Reference Spectrum Present: No
Number of Sampled Component Spectra: 1
Spectrometers: USB2+H06089
Integration Time (usec): 2000 (USB2+H06089)
Spectra Averaged: 20 (USB2+H06089)
Boxcar Smoothing: 2 (USB2+H06089)
Correct for Electrical Dark: No (USB2+H06089)
Strobe/Lamp Enabled: No (USB2+H06089)
Correct for Detector Non-linearity: No (USB2+H06089)
Correct for Stray Light: No (USB2+H06089)
Number of Pixels in Processed Spectrum: 2048
>>>>>Begin Processed Spectral Data<<<<<
339.70	1031.83
340.07	1031.83
340.45	996.65
340.82	973.62
341.19	947.71
341.57	924.21
341.94	914.75
342.31	906.47
342.69	902.56
343.06	903.31
343.43	899.94
343.81	899.56
344.18	902.96
344.55	903.66
344.93	906.23
345.30	911.69
345.67	915.85
346.04	923.08
346.42	930.36
346.79	940.52
347.16	952.04
347.54	962.71
347.91	973.76
348.28	989.41
348.65	997.72
349.03	1005.59
349.40	1013.24
349.77	1020.47
350.14	1025.97
350.52	1031.78
350.89	1035.22
351.26	1041.00
351.63	1046.85
352.01	1049.85
352.38	1054.48
352.75	1058.81
353.12	1062.60
353.50	1066.91
353.87	1072.18
354.24	1075.57
354.61	1078.10
354.98	1082.22
355.36	1083.32
355.73	1082.10
356.10	1081.70
356.47	1081.47
356.84	1083.20
357.22	1080.04
357.59	1082.64
357.96	1084.44
358.33	1086.15
358.70	1081.73
359.08	1085.35
359.45	1083.50
359.82	1081.61
360.19	1079.69
360.56	1080.37
360.94	1076.55
361.31	1078.68
361.68	1079.46
362.05	1080.67
362.42	1079.76
362.79	1080.91
363.16	1073.74
363.54	1071.80
363.91	1071.22
364.28	1071.45
364.65	1071.71
365.02	1073.93
365.39	1072.69
365.76	1073.51
366.14	1071.78
366.51	1071.38
366.88	1072.01
367.25	1074.89
367.62	1074.77
367.99	1074.26
368.36	1072.20
368.73	1072.25
369.10	1070.16
369.48	1072.48
369.85	1074.07
370.22	1075.36
370.59	1075.59
370.96	1075.17
371.33	1074.63
371.70	1073.98
372.07	1075.48
372.44	1075.22
372.81	1079.48
373.18	1078.28
373.55	1077.33
373.93	1076.60
374.30	1077.30
374.67	1075.66
375.04	1074.17
375.41	1075.87
375.78	1077.49
376.15	1077.54
376.52	1076.58
376.89	1077.18
377.26	1076.13
377.63	1074.24
378.00	1072.97
378.37	1073.21
378.74	1075.41
379.11	1073.09
379.48	1075.27
379.85	1077.91
380.22	1081.30
380.59	1076.60
380.96	1079.43
381.33	1079.31
381.70	1078.24
382.07	1076.18
382.44	1077.65
382.81	1080.70
383.18	1080.56
383.55	1082.45
383.92	1082.10
384.29	1085.61
384.66	1084.16
385.03	1081.82
385.40	1080.25
385.77	1080.32
386.14	1076.06
386.51	1075.36
386.88	1079.31
387.25	1078.00
387.62	1075.69
387.99	1079.36
388.36	1080.95
388.73	1080.84
389.10	1085.24
389.46	1087.76
389.83	1086.43
390.20	1084.44
390.57	1082.01
390.94	1082.12
391.31	1083.57
391.68	1081.98
392.05	1082.85
392.42	1086.01
392.79	1085.82
393.16	1086.41
393.53	1089.85
393.89	1091.60
394.26	1089.31
394.63	1087.76
395.00	1086.71
395.37	1084.89
395.74	1083.74
396.11	1084.51
396.48	1085.77
396.84	1085.66
397.21	1088.63
397.58	1088.68
397.95	1089.57
398.32	1088.07
398.69	1088.65
399.06	1086.73
399.42	1087.02
399.79	1085.89
400.16	1086.27
400.53	1087.48
400.90	1089.50
401.27	1089.24
401.64	1088.93
402.00	1090.50
402.37	1090.85
402.74	1089.75
403.11	1090.97
403.48	1092.19
403.84	1089.14
404.21	1085.82
404.58	1087.51
404.95	1089.87
405.32	1090.17
405.68	1092.26
406.05	1090.83
406.42	1088.93
406.79	1086.08
407.16	1087.55
407.52	1089.12
407.89	1092.56
408.26	1096.99
408.63	1099.05
408.99	1097.50
409.36	1097.38
409.73	1097.27
410.10	1095.53
410.47	1095.44
410.83	1095.67
411.20	1096.61
411.57	1095.96
411.94	1094.41
412.30	1092.14
412.67	1092.91
413.04	1093.31
413.40	1094.60
413.77	1095.11
414.14	1100.10
414.51	1101.03
414.87	1101.25
415.24	1103.63
415.61	1106.42
415.97	1108.08
416.34	1107.45
416.71	1104.03
417.08	1102.65
417.44	1102.67
417.81	1099.63
418.18	1100.78
418.54	1101.97
418.91	1103.70
419.28	1101.20
419.64	1101.92
420.01	1103.52
420.38	1110.23
420.74	1110.05
421.11	1112.81
421.48	1115.38
421.84	1116.32
422.21	1114.14
422.58	1115.90
422.94	1118.45
423.31	1122.94
423.68	1129.75
424.04	1133.52
424.41	1137.57
424.77	1142.13
425.14	1143.19
425.51	1143.28
425.87	1147.35
426.24	1147.63
426.61	1151.82
426.97	1157.89
427.34	1161.56
427.70	1167.51
428.07	1177.01
428.44	1181.10
428.80	1186.93
429.17	1195.31
429.53	1203.83
429.90	1213.26
430.27	1224.15
430.63	1235.15
431.00	1246.38
431.36	1260.07
431.73	1273.09
432.09	1289.03
432.46	1299.96
432.83	1314.59
433.19	1328.18
433.56	1343.65
433.92	1358.40
434.29	1380.68
434.65	1403.36
435.02	1427.52
435.38	1457.62
435.75	1485.44
436.11	1517.09
436.48	1550.93
436.84	1582.06
437.21	1612.91
437.57	1647.81
437.94	1687.64
438.30	1724.04
438.67	1771.48
439.03	1819.72
439.40	1875.96
439.76	1924.76
440.13	1979.72
440.49	2045.37
440.86	2109.15
441.22	2177.77
441.59	2249.40
441.95	2333.84
442.32	2409.02
442.68	2502.10
443.05	2593.55
443.41	2687.80
443.78	2781.61
444.14	2886.75
444.51	2988.75
444.87	3122.27
445.24	3264.93
445.60	3420.93
445.96	3569.90
446.33	3742.73
446.69	3896.69
447.06	4068.67
447.42	4239.81
447.79	4430.31
448.15	4636.27
448.51	4855.70
448.88	5106.32
449.24	5350.16
449.61	5617.85
449.97	5889.49
450.33	6170.35
450.70	6425.00
451.06	6735.80
451.43	7036.91
451.79	7386.89
452.15	7782.33
452.52	8228.86
452.88	8682.92
453.24	9202.05
453.61	9771.39
453.97	10319.66
454.34	10842.20
454.70	11472.28
455.06	12091.35
455.43	12681.21
455.79	13241.93
456.15	13918.65
456.52	14529.41
456.88	15259.47
457.24	15963.72
457.61	16792.22
457.97	17562.96
458.33	18344.58
458.70	19096.88
459.06	19836.44
459.42	20653.75
459.79	21396.80
460.15	22254.84
460.51	23077.49
460.88	23969.82
461.24	24720.27
461.60	25632.73
461.96	26480.68
462.33	27300.13
462.69	28103.94
463.05	28966.40
463.42	29737.96
463.78	30391.83
464.14	30957.61
464.50	31531.04
464.87	31989.48
465.23	32289.00
465.59	32635.42
465.95	32943.88
466.32	33181.38
466.68	33399.77
467.04	33545.92
467.40	33687.73
467.77	33831.16
468.13	33836.77
468.49	33760.40
468.85	33709.38
469.22	33551.88
469.58	33207.66
469.94	32955.33
470.30	32653.45
470.66	32223.77
471.03	31634.56
471.39	31267.52
471.75	30674.50
472.11	30083.47
472.47	29773.09
472.84	29487.71
473.20	29026.04
473.56	28761.79
473.92	28368.14
474.28	27853.73
474.65	27404.79
475.01	26948.58
475.37	26405.78
475.73	25977.86
476.09	25489.30
476.45	24988.82
476.81	24512.03
477.18	23973.78
477.54	23524.89
477.90	23154.64
478.26	22698.56
478.62	22344.44
478.98	22069.33
479.34	21748.77
479.71	21342.17
480.07	21010.57
480.43	20642.31
480.79	20255.02
481.15	19898.06
481.51	19583.94
481.87	19340.48
482.23	19050.44
482.59	18791.25
482.96	18522.06
483.32	18229.75
483.68	17865.29
484.04	17550.39
484.40	17199.47
484.76	16835.12
485.12	16484.81
485.48	16176.57
485.84	15816.71
486.20	15469.47
486.56	15118.39
486.92	14817.28
487.28	14473.87
487.64	14142.83
488.00	13832.59
488.37	13521.25
488.73	13170.66
489.09	12825.08
489.45	12521.05
489.81	12215.61
490.17	11932.85
490.53	11667.45
490.89	11377.04
491.25	11079.93
491.61	10774.38
491.97	10460.65
492.33	10141.40
492.69	9858.85
493.05	9573.91
493.41	9297.36
493.77	9034.00
494.13	8779.54
494.49	8526.27
494.85	8282.73
495.21	8055.56
495.57	7838.15
495.93	7630.26
496.29	7437.80
496.64	7262.71
497.00	7074.67
497.36	6886.49
497.72	6701.00
498.08	6524.20
498.44	6344.07
498.80	6176.42
499.16	6016.91
499.52	5863.58
499.88	5727.08
500.24	5603.45
500.60	5480.25
500.96	5354.42
501.32	5240.69
501.68	5118.07
502.03	4998.45
502.39	4882.43
502.75	4765.38
503.11	4642.71
503.47	4525.80
503.83	4397.84
504.19	4278.71
504.55	4169.52
504.91	4078.41
505.26	3986.87
505.62	3913.54
505.98	3830.99
506.34	3743.03
506.70	3654.44
507.06	3570.96
507.42	3480.28
507.78	3406.42
508.13	3336.13
508.49	3258.82
508.85	3187.51
509.21	3119.75
509.57	3051.31
509.93	2989.07
510.28	2924.59
510.64	2862.15
511.00	2797.13
511.36	2737.49
511.72	2677.13
512.07	2630.72
512.43	2582.64
512.79	2534.57
513.15	2492.25
513.51	2446.07
513.86	2398.65
514.22	2356.31
514.58	2316.64
514.94	2272.40
515.30	2237.34
515.65	2202.96
516.01	2170.47
516.37	2143.51
516.73	2118.09
517.08	2091.62
517.44	2061.17
517.80	2031.56
518.16	2002.84
518.51	1976.96
518.87	1949.57
519.23	1921.65
519.59	1897.89
519.94	1872.97
520.30	1845.77
520.66	1825.62
521.01	1808.34
521.37	1783.04
521.73	1763.45
522.09	1741.10
522.44	1717.77
522.80	1693.19
523.16	1674.09
523.51	1651.67
523.87	1635.75
524.23	1619.65
524.58	1605.58
524.94	1593.20
525.30	1575.58
525.65	1560.36
526.01	1542.16
526.37	1525.73
526.72	1509.76
527.08	1501.92
527.44	1488.81
527.79	1477.02
528.15	1469.81
528.51	1456.14
528.86	1442.07
529.22	1431.78
529.58	1418.95
529.93	1406.71
530.29	1396.90
530.65	1388.24
531.00	1374.11
531.36	1368.44
531.71	1357.21
532.07	1351.38
532.43	1341.45
532.78	1339.25
533.14	1334.39
533.49	1328.77
533.85	1320.41
534.21	1317.91
534.56	1308.59
534.92	1300.96
535.27	1294.67
535.63	1288.30
535.98	1279.83
536.34	1275.38
536.69	1267.66
537.05	1263.47
537.41	1259.33
537.76	1256.66
538.12	1251.27
538.47	1246.03
538.83	1237.09
539.18	1234.02
539.54	1224.17
539.89	1219.61
540.25	1213.59
540.60	1212.89
540.96	1212.35
541.31	1211.93
541.67	1209.73
542.02	1209.40
542.38	1205.82
542.73	1197.04
543.09	1195.78
543.44	1192.22
543.80	1187.80
544.15	1184.29
544.51	1183.70
544.86	1177.99
545.22	1174.22
545.57	1171.48
545.93	1174.69
546.28	1171.72
546.64	1173.36
546.99	1172.23
547.35	1170.76
547.70	1165.07
548.05	1162.75
548.41	1156.29
548.76	1154.12
549.12	1152.71
549.47	1150.44
549.83	1148.97
550.18	1148.24
550.53	1145.74
550.89	1145.18
551.24	1141.81
551.60	1141.55
551.95	1139.58
552.30	1139.09
552.66	1138.18
553.01	1137.06
553.37	1134.18
553.72	1135.89
554.07	1136.10
554.43	1132.61
554.78	1130.78
555.13	1126.87
555.49	1124.46
555.84	1121.26
556.19	1118.92
556.55	1117.40
556.90	1121.54
557.26	1119.45
557.61	1117.93
557.96	1117.91
558.32	1118.85
558.67	1117.44
559.02	1116.20
559.37	1118.64
559.73	1117.42
560.08	1115.59
560.43	1116.27
560.79	1116.76
561.14	1114.77
561.49	1115.62
561.85	1114.47
562.20	1108.48
562.55	1107.00
562.90	1103.89
563.26	1106.44
563.61	1109.13
563.96	1108.13
564.32	1109.06
564.67	1108.10
565.02	1105.11
565.37	1104.76
565.73	1107.35
566.08	1105.11
566.43	1107.00
566.78	1108.24
567.14	1104.43
567.49	1103.94
567.84	1104.15
568.19	1103.42
568.54	1100.54
568.90	1098.58
569.25	1097.59
569.60	1096.61
569.95	1095.79
570.31	1093.38
570.66	1095.67
571.01	1094.36
571.36	1095.82
571.71	1096.35
572.06	1099.79
572.42	1100.71
572.77	1099.61
573.12	1096.52
573.47	1094.88
573.82	1094.53
574.18	1092.07
574.53	1095.11
574.88	1096.19
575.23	1097.97
575.58	1097.20
575.93	1096.03
576.28	1096.12
576.64	1096.07
576.99	1095.44
577.34	1093.90
577.69	1093.50
578.04	1088.23
578.39	1090.97
578.74	1090.22
579.09	1091.06
579.44	1092.28
579.80	1093.99
580.15	1091.86
580.50	1092.12
580.85	1090.22
581.20	1093.78
581.55	1093.38
581.90	1090.85
582.25	1086.62
582.60	1084.51
582.95	1079.95
583.30	1084.09
583.65	1083.81
584.00	1086.57
584.35	1086.73
584.71	1087.32
585.06	1081.63
585.41	1080.13
585.76	1083.04
586.11	1084.07
586.46	1084.56
586.81	1089.00
587.16	1092.82
587.51	1092.82
587.86	1094.81
588.21	1097.10
588.56	1095.02
588.91	1093.33
589.26	1090.27
589.61	1087.16
589.96	1082.17
590.31	1082.85
590.66	1081.16
591.01	1081.30
591.36	1081.75
591.71	1084.98
592.06	1085.42
592.41	1088.86
592.76	1088.72
593.10	1091.30
593.45	1091.86
593.80	1090.99
594.15	1092.28
594.50	1092.56
594.85	1090.15
595.20	1086.94
595.55	1087.11
595.90	1088.49
596.25	1088.82
596.60	1090.08
596.95	1091.63
597.30	1092.02
597.64	1099.37
597.99	1098.09
598.34	1098.95
598.69	1097.78
599.04	1097.85
599.39	1084.42
599.74	1082.36
600.09	1081.33
600.44	1081.33
600.78	1082.47
601.13	1086.38
601.48	1088.14
601.83	1088.16
602.18	1090.81
602.53	1088.07
602.88	1086.34
603.22	1089.50
603.57	1088.72
603.92	1087.97
604.27	1089.89
604.62	1087.93
604.97	1083.32
605.31	1082.87
605.66	1084.09
606.01	1078.14
606.36	1078.38
606.71	1079.31
607.05	1078.85
607.40	1075.22
607.75	1078.52
608.10	1080.23
608.44	1083.39
608.79	1088.40
609.14	1088.33
609.49	1092.05
609.84	1089.66
610.18	1090.03
610.53	1087.27
610.88	1087.90
611.23	1088.09
611.57	1091.11
611.92	1087.46
612.27	1086.31
612.62	1084.70
612.96	1081.61
613.31	1081.56
613.66	1082.69
614.00	1081.21
614.35	1080.48
614.70	1081.23
615.05	1078.21
615.39	1077.51
615.74	1076.41
616.09	1082.31
616.43	1081.33
616.78	1086.48
617.13	1088.93
617.47	1092.80
617.82	1091.32
618.17	1092.98
618.51	1087.13
618.86	1084.30
619.21	1083.39
619.55	1080.79
619.90	1077.91
620.25	1079.08
620.59	1081.91
620.94	1081.91
621.29	1080.25
621.63	1083.36
621.98	1087.11
622.32	1082.78
622.67	1083.57
623.02	1091.02
623.36	1089.92
623.71	1087.37
624.05	1091.51
624.40	1088.21
624.75	1083.36
625.09	1083.76
625.44	1083.74
625.78	1079.10
626.13	1081.37
626.48	1082.99
626.82	1084.04
627.17	1084.72
627.51	1084.77
627.86	1086.06
628.20	1081.44
628.55	1080.70
628.89	1079.88
629.24	1082.94
629.58	1081.42
629.93	1086.55
630.28	1086.76
630.62	1087.02
630.97	1086.06
631.31	1084.04
631.66	1084.30
632.00	1080.51
632.35	1078.50
632.69	1077.61
633.04	1078.82
633.38	1077.51
633.73	1083.48
634.07	1085.59
634.42	1086.20
634.76	1086.62
635.11	1086.69
635.45	1082.52
635.79	1083.11
636.14	1082.90
636.48	1083.01
636.83	1080.88
637.17	1078.89
637.52	1077.68
637.86	1077.49
638.21	1077.28
638.55	1077.63
638.89	1079.43
639.24	1078.40
639.58	1079.43
639.93	1076.95
640.27	1078.03
640.61	1079.01
640.96	1076.34
641.30	1075.43
641.65	1079.06
641.99	1078.50
642.33	1077.51
642.68	1081.56
643.02	1083.64
643.37	1082.47
643.71	1080.13
644.05	1079.22
644.40	1080.06
644.74	1080.04
645.08	1083.41
645.43	1088.44
645.77	1088.04
646.11	1084.63
646.46	1083.13
646.80	1078.00
647.14	1075.87
647.49	1078.54
647.83	1080.06
648.17	1078.80
648.52	1081.61
648.86	1080.32
649.20	1081.05
649.55	1084.53
649.89	1085.70
650.23	1085.56
650.57	1086.73
650.92	1084.11
651.26	1082.38
651.60	1084.35
651.95	1086.03
652.29	1084.89
652.63	1086.06
652.97	1085.00
653.32	1080.63
653.66	1078.07
654.00	1077.58
654.34	1078.19
654.69	1076.39
655.03	1080.53
655.37	1080.93
655.71	1082.69
656.05	1084.11
656.40	1085.12
656.74	1083.39
657.08	1081.98
657.42	1080.20
657.76	1078.45
658.11	1080.88
658.45	1082.36
658.79	1085.47
659.13	1087.13
659.47	1086.87
659.82	1085.77
660.16	1085.49
660.50	1086.80
660.84	1084.21
661.18	1083.20
661.52	1082.10
661.87	1082.15
662.21	1076.86
662.55	1077.00
662.89	1077.40
663.23	1075.43
663.57	1073.67
663.91	1076.32
664.25	1078.89
664.60	1079.71
664.94	1080.72
665.28	1080.65
665.62	1080.13
665.96	1077.56
666.30	1077.35
666.64	1080.72
666.98	1083.79
667.32	1086.45
667.66	1090.69
668.01	1093.87
668.35	1089.45
668.69	1085.68
669.03	1083.06
669.37	1080.04
669.71	1075.99
670.05	1078.45
670.39	1080.37
670.73	1079.64
671.07	1080.18
671.41	1078.68
671.75	1077.00
672.09	1077.96
672.43	1079.64
672.77	1078.43
673.11	1079.64
673.45	1079.71
673.79	1079.62
674.13	1078.78
674.47	1078.45
674.81	1078.45
675.15	1079.43
675.49	1075.73
675.83	1075.15
676.17	1075.01
676.51	1075.64
676.85	1078.03
677.19	1081.47
677.53	1082.99
677.87	1084.67
678.21	1085.89
678.55	1082.83
678.89	1081.82
679.23	1077.16
679.57	1076.20
679.90	1073.58
680.24	1074.42
680.58	1073.25
680.92	1076.67
681.26	1081.09
681.60	1082.90
681.94	1084.25
682.28	1084.98
682.62	1086.31
682.96	1084.63
683.29	1085.47
683.63	1082.71
683.97	1081.42
684.31	1079.62
684.65	1078.10
684.99	1079.20
685.33	1081.35
685.67	1082.40
686.00	1083.67
686.34	1083.53
686.68	1079.95
687.02	1080.65
687.36	1079.85
687.70	1076.95
688.03	1075.66
688.37	1079.36
688.71	1081.21
689.05	1082.94
689.39	1083.34
689.72	1085.96
690.06	1081.94
690.40	1080.27
690.74	1079.85
691.08	1082.38
691.41	1079.06
691.75	1080.70
692.09	1077.63
692.43	1078.03
692.76	1076.11
693.10	1077.28
693.44	1074.94
693.78	1076.32
694.11	1076.81
694.45	1079.69
694.79	1079.53
695.13	1082.43
695.46	1082.12
695.80	1083.67
696.14	1079.27
696.48	1081.91
696.81	1082.61
697.15	1085.14
697.49	1086.64
697.82	1088.77
698.16	1087.58
698.50	1084.93
698.83	1082.85
699.17	1078.82
699.51	1079.10
699.84	1077.77
700.18	1079.10
700.52	1079.08
700.85	1078.87
701.19	1078.07
701.53	1078.96
701.86	1078.94
702.20	1079.83
702.54	1078.28
702.87	1079.53
703.21	1078.96
703.55	1082.19
703.88	1080.70
704.22	1082.54
704.55	1082.29
704.89	1083.48
705.23	1081.61
705.56	1084.18
705.90	1078.73
706.23	1077.49
706.57	1077.54
706.91	1075.52
707.24	1075.55
707.58	1082.10
707.91	1082.03
708.25	1083.15
708.58	1085.10
708.92	1083.64
709.26	1083.11
709.59	1082.31
709.93	1077.40
710.26	1077.00
710.60	1079.57
710.93	1078.24
711.27	1080.41
711.60	1080.18
711.94	1077.18
712.27	1072.90
712.61	1071.43
712.94	1067.66
713.28	1072.92
713.61	1074.07
713.95	1074.96
714.28	1075.31
714.62	1075.66
714.95	1073.74
715.29	1073.25
715.62	1073.28
715.96	1078.07
716.29	1082.80
716.63	1083.74
716.96	1085.42
717.29	1085.80
717.63	1079.90
717.96	1081.02
718.30	1081.09
718.63	1081.02
718.97	1080.18
719.30	1085.31
719.63	1082.69
719.97	1081.42
720.30	1081.98
720.64	1082.59
720.97	1078.89
721.30	1078.61
721.64	1078.47
721.97	1077.61
722.31	1076.51
722.64	1078.92
722.97	1082.19
723.31	1081.30
723.64	1083.71
723.97	1083.20
724.31	1084.70
724.64	1081.21
724.98	1083.69
725.31	1083.39
725.64	1087.97
725.98	1085.28
726.31	1086.48
726.64	1082.50
726.97	1078.19
727.31	1077.70
727.64	1078.68
727.97	1076.08
728.31	1077.37
728.64	1081.12
728.97	1077.63
729.31	1075.50
729.64	1075.87
729.97	1074.89
730.30	1069.32
730.64	1072.48
730.97	1074.82
731.30	1075.80
731.63	1073.72
731.97	1076.81
732.30	1076.01
732.63	1073.67
732.96	1071.12
733.30	1077.89
733.63	1078.52
733.96	1080.81
734.29	1084.16
734.63	1088.14
734.96	1086.06
735.29	1084.49
735.62	1082.15
735.95	1080.25
736.29	1080.88
736.62	1075.80
736.95	1077.00
737.28	1078.82
737.61	1081.09
737.94	1079.53
738.28	1084.04
738.61	1082.52
738.94	1080.70
739.27	1079.69
739.60	1078.82
739.93	1078.99
740.27	1083.15
740.60	1082.61
740.93	1082.33
741.26	1085.40
741.59	1084.91
741.92	1079.99
742.25	1079.57
742.58	1078.19
742.91	1075.55
743.25	1077.16
743.58	1079.46
743.91	1079.88
744.24	1079.34
744.57	1079.60
744.90	1078.12
745.23	1079.31
745.56	1080.51
745.89	1080.48
746.22	1080.93
746.55	1081.58
746.88	1078.40
747.21	1079.62
747.54	1079.38
747.87	1077.07
748.20	1075.52
748.53	1077.18
748.87	1076.25
749.20	1078.07
749.53	1081.23
749.86	1084.46
750.19	1084.74
750.52	1082.05
750.85	1081.70
751.18	1080.84
751.51	1081.07
751.84	1082.47
752.16	1082.71
752.49	1081.91
752.82	1080.98
753.15	1079.27
753.48	1076.18
753.81	1075.97
754.14	1074.49
754.47	1076.51
754.80	1075.41
755.13	1080.91
755.46	1078.54
755.79	1080.67
756.12	1081.80
756.45	1080.95
756.78	1080.37
757.11	1082.47
757.43	1080.63
757.76	1078.59
758.09	1079.64
758.42	1074.40
758.75	1075.52
759.08	1074.98
759.41	1077.04
759.74	1076.69
760.07	1076.86
760.39	1075.08
760.72	1075.20
761.05	1069.55
761.38	1067.40
761.71	1070.35
762.04	1068.43
762.36	1067.57
762.69	1068.95
763.02	1070.54
763.35	1071.61
763.68	1077.04
764.01	1081.47
764.33	1082.66
764.66	1082.52
764.99	1079.78
765.32	1077.47
765.65	1076.15
765.97	1072.71
766.30	1072.83
766.63	1073.77
766.96	1073.77
767.28	1070.89
767.61	1074.42
767.94	1073.42
768.27	1071.15
768.59	1071.52
768.92	1073.84
769.25	1074.19
769.58	1077.68
769.90	1079.48
770.23	1076.04
770.56	1074.24
770.89	1074.42
771.21	1071.57
771.54	1072.01
771.87	1070.02
772.19	1072.22
772.52	1069.55
772.85	1070.14
773.17	1072.06
773.50	1077.54
773.83	1077.44
774.15	1078.64
774.48	1081.77
774.81	1079.34
775.13	1079.81
775.46	1079.62
775.79	1078.96
776.11	1078.57
776.44	1080.51
776.77	1080.84
777.09	1082.83
777.42	1082.57
777.74	1080.63
778.07	1083.48
778.40	1083.50
778.72	1081.42
779.05	1084.44
779.37	1082.40
779.70	1078.99
780.03	1078.26
780.35	1077.07
780.68	1075.94
781.00	1078.57
781.33	1078.99
781.65	1076.44
781.98	1077.91
782.31	1076.34
782.63	1077.07
782.96	1076.27
783.28	1080.37
783.61	1081.68
783.93	1082.85
784.26	1085.26
784.58	1086.15
784.91	1083.71
785.23	1084.21
785.56	1083.64
785.88	1082.78
786.21	1081.75
786.53	1083.01
786.86	1077.77
787.18	1079.20
787.51	1078.82
787.83	1075.92
788.16	1072.74
788.48	1076.65
788.81	1076.93
789.13	1072.55
789.46	1071.71
789.78	1074.33
790.10	1071.97
790.43	1072.41
790.75	1074.05
791.08	1076.55
791.40	1075.52
791.73	1076.18
792.05	1074.84
792.37	1070.94
792.70	1071.61
793.02	1073.49
793.35	1076.83
793.67	1078.64
793.99	1083.13
794.32	1085.26
794.64	1086.52
794.96	1085.61
795.29	1084.02
795.61	1084.46
795.93	1080.04
796.26	1079.95
796.58	1080.88
796.91	1080.09
797.23	1078.31
797.55	1079.78
797.87	1078.12
798.20	1076.18
798.52	1077.30
798.84	1079.81
799.17	1081.63
799.49	1081.66
799.81	1079.92
800.14	1076.83
800.46	1074.70
800.78	1072.95
801.10	1072.34
801.43	1073.02
801.75	1074.73
802.07	1076.81
802.40	1077.77
802.72	1079.81
803.04	1080.34
803.36	1083.01
803.69	1080.39
804.01	1080.25
804.33	1080.09
804.65	1078.59
804.97	1077.61
805.30	1076.25
805.62	1074.03
805.94	1074.12
806.26	1075.29
806.58	1072.25
806.91	1071.82
807.23	1076.15
807.55	1076.53
807.87	1074.80
808.19	1077.70
808.52	1079.03
808.84	1074.80
809.16	1072.43
809.48	1074.19
809.80	1073.14
810.12	1078.71
810.44	1078.10
810.77	1079.69
811.09	1079.62
811.41	1080.58
811.73	1075.76
812.05	1073.02
812.37	1071.61
812.69	1072.74
813.01	1072.32
813.33	1073.37
813.66	1078.19
813.98	1077.07
814.30	1078.66
814.62	1077.84
814.94	1077.44
815.26	1076.25
815.58	1079.50
815.90	1081.49
816.22	1083.20
816.54	1085.17
816.86	1087.97
817.18	1083.60
817.50	1079.53
817.82	1077.91
818.14	1076.67
818.46	1074.28
818.78	1075.99
819.10	1075.15
819.42	1074.73
819.74	1072.50
820.06	1073.77
820.38	1073.46
820.70	1072.20
821.02	1073.79
821.34	1075.55
821.66	1074.19
821.98	1077.07
822.30	1076.37
822.62	1076.25
822.94	1076.81
823.26	1075.64
823.58	1073.86
823.90	1078.17
824.22	1076.62
824.54	1076.55
824.86	1077.42
825.18	1077.11
825.50	1075.48
825.81	1076.27
826.13	1072.88
826.45	1076.58
826.77	1076.53
827.09	1075.97
827.41	1075.78
827.73	1079.29
828.05	1078.61
828.36	1078.73
828.68	1078.24
829.00	1078.87
829.32	1080.13
829.64	1078.14
829.96	1076.51
830.28	1076.69
830.59	1074.10
830.91	1067.52
831.23	1067.71
831.55	1070.30
831.87	1073.07
832.19	1074.87
832.50	1081.28
832.82	1083.11
833.14	1082.59
833.46	1078.92
833.78	1079.27
834.09	1080.09
834.41	1079.71
834.73	1077.14
835.05	1080.32
835.36	1079.78
835.68	1077.14
836.00	1077.56
836.32	1079.15
836.63	1078.66
836.95	1077.02
837.27	1079.08
837.59	1076.81
837.90	1077.75
838.22	1076.25
838.54	1078.64
838.85	1073.35
839.17	1075.05
839.49	1076.55
839.80	1077.79
840.12	1079.20
840.44	1085.05
840.76	1082.61
841.07	1080.70
841.39	1081.84
841.71	1080.41
842.02	1077.40
842.34	1078.75
842.65	1082.33
842.97	1078.28
843.29	1080.23
843.60	1081.16
843.92	1082.08
844.24	1076.95
844.55	1077.07
844.87	1073.00
845.18	1072.60
845.50	1070.89
845.82	1072.15
846.13	1074.35
846.45	1075.52
846.76	1074.80
847.08	1075.31
847.40	1075.78
847.71	1078.71
848.03	1077.84
848.34	1079.90
848.66	1080.58
848.97	1081.77
849.29	1079.81
849.60	1082.17
849.92	1079.85
850.24	1079.31
850.55	1078.26
850.87	1077.04
851.18	1074.66
851.50	1077.61
851.81	1078.71
852.13	1078.38
852.44	1080.88
852.76	1082.50
853.07	1080.91
853.39	1079.60
853.70	1079.95
854.01	1077.07
854.33	1075.85
854.64	1077.75
854.96	1075.41
855.27	1072.88
855.59	1072.15
855.90	1072.46
856.22	1072.11
856.53	1074.56
856.84	1078.40
857.16	1078.26
857.47	1077.49
857.79	1075.73
858.10	1073.14
858.41	1069.84
858.73	1070.26
859.04	1072.88
859.36	1069.32
859.67	1069.72
859.98	1072.50
860.30	1075.31
860.61	1076.69
860.92	1078.19
861.24	1081.68
861.55	1079.55
861.87	1077.21
862.18	1074.00
862.49	1076.53
862.81	1076.69
863.12	1075.55
863.43	1074.63
863.74	1073.72
864.06	1070.49
864.37	1066.61
864.68	1067.75
865.00	1067.28
865.31	1070.26
865.62	1071.94
865.94	1073.02
866.25	1073.84
866.56	1074.63
866.87	1072.11
867.19	1071.12
867.50	1074.49
867.81	1076.60
868.12	1078.59
868.44	1079.85
868.75	1081.56
869.06	1079.99
869.37	1078.92
869.68	1079.34
870.00	1079.55
870.31	1078.92
870.62	1076.67
870.93	1072.39
871.24	1071.08
871.56	1069.95
871.87	1068.59
872.18	1068.71
872.49	1071.03
872.80	1071.22
873.12	1072.18
873.43	1072.64
873.74	1074.89
874.05	1078.71
874.36	1077.49
874.67	1075.59
874.98	1077.25
875.29	1077.04
875.61	1070.68
875.92	1071.01
876.23	1074.98
876.54	1073.98
876.85	1075.71
877.16	1078.94
877.47	1079.97
877.78	1079.76
878.09	1079.43
878.40	1078.40
878.72	1079.55
879.03	1077.40
879.34	1075.69
879.65	1076.37
879.96	1076.18
880.27	1078.57
880.58	1081.05
880.89	1081.75
881.20	1082.78
881.51	1084.67
881.82	1081.02
882.13	1079.29
882.44	1081.75
882.75	1081.84
883.06	1080.32
883.37	1081.05
883.68	1079.92
883.99	1077.33
884.30	1079.03
884.61	1078.26
884.92	1077.54
885.23	1079.71
885.54	1078.50
885.85	1074.26
886.16	1074.33
886.47	1076.39
886.78	1075.01
887.08	1074.00
887.39	1074.05
887.70	1073.28
888.01	1070.51
888.32	1070.42
888.63	1072.34
888.94	1074.98
889.25	1077.49
889.56	1078.96
889.87	1079.34
890.17	1076.62
890.48	1076.30
890.79	1074.94
891.10	1075.17
891.41	1072.90
891.72	1074.61
892.03	1073.79
892.34	1074.80
892.64	1076.32
892.95	1079.69
893.26	1082.47
893.57	1081.23
893.88	1077.04
894.18	1074.03
894.49	1073.30
894.80	1071.97
895.11	1072.46
895.42	1077.61
895.72	1077.44
896.03	1077.02
896.34	1078.87
896.65	1079.10
896.96	1072.90
897.26	1076.18
897.57	1075.87
897.88	1074.70
898.19	1073.16
898.49	1076.86
898.80	1075.10
899.11	1075.05
899.41	1072.57
899.72	1074.10
900.03	1073.42
900.34	1073.98
900.64	1077.54
900.95	1080.16
901.26	1082.12
901.56	1085.31
901.87	1083.60
902.18	1082.71
902.48	1082.10
902.79	1083.27
903.10	1081.84
903.40	1084.98
903.71	1082.59
904.02	1085.61
904.32	1083.11
904.63	1082.38
904.94	1080.27
905.24	1080.23
905.55	1078.00
905.85	1076.83
906.16	1072.88
906.47	1070.65
906.77	1071.26
907.08	1068.99
907.38	1070.07
907.69	1075.62
908.00	1079.85
908.30	1080.95
908.61	1082.47
908.91	1083.22
909.22	1081.89
909.52	1079.60
909.83	1079.20
910.14	1078.54
910.44	1079.85
910.75	1080.63
911.05	1078.28
911.36	1078.64
911.66	1079.67
911.97	1077.61
912.27	1079.20
912.58	1082.08
912.88	1081.30
913.19	1083.53
913.49	1083.11
913.80	1078.26
914.10	1077.89
914.41	1075.34
914.71	1073.67
915.01	1072.85
915.32	1076.97
915.62	1075.55
915.93	1077.61
916.23	1077.11
916.54	1077.96
916.84	1074.05
917.15	1075.10
917.45	1075.45
917.75	1076.27
918.06	1077.86
918.36	1077.56
918.67	1077.40
918.97	1075.62
919.27	1073.09
919.58	1072.18
919.88	1075.31
920.18	1075.17
920.49	1076.25
920.79	1073.93
921.10	1076.39
921.40	1077.65
921.70	1077.42
922.01	1076.60
922.31	1079.17
922.61	1075.87
922.92	1071.12
923.22	1070.96
923.52	1073.65
923.82	1071.38
924.13	1074.38
924.43	1079.53
924.73	1079.64
925.04	1078.52
925.34	1079.01
925.64	1079.76
925.94	1076.30
926.25	1074.87
926.55	1074.19
926.85	1075.43
927.15	1075.08
927.46	1076.15
927.76	1079.43
928.06	1080.25
928.36	1080.32
928.67	1077.49
928.97	1078.26
929.27	1074.35
929.57	1075.08
929.87	1076.74
930.18	1075.76
930.48	1075.27
930.78	1077.09
931.08	1073.28
931.38	1070.54
931.69	1071.68
931.99	1070.19
932.29	1071.43
932.59	1077.18
932.89	1081.07
933.19	1079.81
933.49	1080.79
933.80	1080.67
934.10	1078.68
934.40	1072.29
934.70	1075.73
935.00	1075.97
935.30	1076.01
935.60	1075.76
935.90	1079.78
936.20	1076.01
936.50	1075.29
936.81	1077.23
937.11	1077.75
937.41	1076.51
937.71	1080.81
938.01	1081.28
938.31	1078.00
938.61	1077.21
938.91	1081.37
939.21	1079.01
939.51	1077.47
939.81	1078.64
940.11	1079.08
940.41	1075.71
940.71	1075.73
941.01	1076.97
941.31	1077.07
941.61	1078.26
941.91	1077.56
942.21	1073.91
942.51	1075.76
942.81	1073.21
943.11	1069.77
943.41	1069.32
943.71	1072.97
944.01	1072.34
944.31	1074.56
944.61	1077.35
944.90	1082.17
945.20	1082.08
945.50	1079.97
945.80	1078.54
946.10	1077.72
946.40	1071.10
946.70	1071.03
947.00	1070.12
947.30	1069.88
947.60	1070.47
947.89	1074.96
948.19	1076.90
948.49	1075.73
948.79	1078.45
949.09	1078.68
949.39	1079.90
949.69	1077.98
949.98	1080.27
950.28	1077.82
950.58	1077.63
950.88	1073.56
951.18	1071.71
951.48	1072.88
951.77	1073.28
952.07	1071.26
952.37	1072.76
952.67	1072.43
952.97	1073.44
953.26	1073.88
953.56	1074.49
953.86	1074.42
954.16	1074.52
954.45	1071.61
954.75	1071.57
955.05	1070.16
955.35	1073.28
955.64	1077.61
955.94	1079.13
956.24	1079.17
956.54	1080.48
956.83	1080.04
957.13	1076.76
957.43	1076.60
957.72	1078.28
958.02	1075.36
958.32	1074.75
958.61	1073.11
958.91	1072.36
959.21	1072.08
959.50	1076.18
959.80	1074.33
960.10	1079.01
960.39	1079.55
960.69	1081.61
960.99	1081.49
961.28	1080.11
961.58	1077.89
961.87	1078.66
962.17	1074.52
962.47	1072.76
962.76	1074.66
963.06	1074.14
963.36	1075.17
963.65	1075.10
963.95	1076.53
964.24	1075.01
964.54	1075.62
964.83	1072.50
965.13	1071.08
965.42	1072.08
965.72	1070.47
966.02	1072.97
966.31	1074.70
966.61	1075.64
966.90	1074.21
967.20	1076.08
967.49	1072.43
967.79	1075.31
968.08	1078.61
968.38	1079.38
968.67	1079.99
968.97	1079.48
969.26	1078.05
969.56	1078.24
969.85	1079.13
970.15	1079.53
970.44	1084.23
970.74	1082.17
971.03	1078.52
971.32	1075.36
971.62	1074.68
971.91	1072.20
972.21	1071.90
972.50	1073.02
972.80	1076.08
973.09	1074.56
973.38	1073.02
973.68	1073.09
973.97	1072.22
974.27	1071.66
974.56	1073.14
974.85	1075.76
975.15	1075.87
975.44	1076.18
975.73	1075.76
976.03	1077.49
976.32	1077.09
976.61	1075.94
976.91	1078.89
977.20	1082.52
977.49	1082.36
977.79	1082.38
978.08	1085.28
978.37	1084.35
978.67	1080.56
978.96	1078.26
979.25	1078.57
979.55	1080.11
979.84	1079.43
980.13	1080.41
980.42	1081.87
980.72	1077.89
981.01	1076.06
981.30	1075.90
981.59	1074.42
981.89	1076.83
982.18	1078.61
982.47	1078.64
982.76	1079.27
983.06	1080.65
983.35	1078.19
983.64	1078.36
983.93	1078.45
984.22	1073.91
984.52	1074.75
984.81	1074.75
985.10	1074.89
985.39	1076.13
985.68	1080.51
985.97	1076.48
986.27	1075.80
986.56	1076.93
986.85	1073.49
987.14	1073.35
987.43	1077.11
987.72	1078.38
988.01	1078.52
988.31	1076.32
988.60	1074.73
988.89	1073.58
989.18	1072.13
989.47	1074.05
989.76	1078.57
990.05	1078.36
990.34	1077.56
990.63	1077.33
990.92	1077.14
991.21	1079.76
991.51	1081.80
991.80	1081.42
992.09	1081.37
992.38	1083.36
992.67	1080.70
992.96	1082.85
993.25	1083.88
993.54	1084.70
993.83	1079.17
994.12	1077.28
994.41	1075.41
994.70	1075.27
994.99	1075.59
995.28	1075.55
995.57	1074.82
995.86	1072.69
996.15	1073.56
996.44	1071.47
996.73	1072.18
997.02	1073.21
997.31	1074.82
997.59	1071.68
997.88	1073.28
998.17	1072.57
998.46	1071.73
998.75	1071.45
999.04	1072.53
999.33	1075.48
999.62	1075.69
999.91	1078.89
1000.20	1079.24
1000.49	1080.11
1000.77	1075.48
1001.06	1075.03
1001.35	1074.38
1001.64	1074.89
1001.93	1075.05
1002.22	1074.80
1002.51	1075.41
1002.79	1074.61
1003.08	1073.67
1003.37	1074.42
1003.66	1076.74
1003.95	1075.48
1004.23	1074.42
1004.52	1075.78
1004.81	1076.83
1005.10	1077.16
1005.39	1078.68
1005.67	1077.89
1005.96	1076.72
1006.25	1074.59
1006.54	1076.15
1006.83	1075.41
1007.11	1077.37
1007.40	1079.55
1007.69	1081.44
1007.97	1078.64
1008.26	1076.69
1008.55	1072.90
1008.84	1072.55
1009.12	1072.29
1009.41	1073.02
1009.70	1076.44
1009.98	1077.77
1010.27	1078.68
1010.56	1077.23
1010.85	1077.35
1011.13	1077.91
1011.42	1079.78
1011.71	1077.82
1011.99	1076.34
1012.28	1076.74
1012.56	1075.48
1012.85	1073.93
1013.14	1071.45
1013.42	1071.12
1013.71	1072.53
1014.00	1073.84
1014.28	1074.82
1014.57	1076.65
1014.85	1079.22
1015.14	1074.96
1015.43	1072.15
1015.71	1072.13
1016.00	1074.31
1016.28	1073.49
1016.57	1075.83
1016.85	1079.01
1017.14	1078.47
1017.43	1076.39
1017.71	1076.30
1018.00	1078.31
1018.28	1075.55
1018.57	1075.29
1018.85	1075.45
1019.14	1076.95
1019.42	1077.68
1019.71	1079.88
1019.99	1083.36
1020.28	1084.86
1020.56	1083.74
1020.85	1085.12
1021.13	1084.30
1021.42	1081.68
1021.70	1078.80
1021.99	1079.88
1022.27	1076.95
1022.55	1082.85
1022.84	1080.63
>>>>>End Processed Spectral Data<<<<<
