SpectraSuite Data File
++++++++++++++++++++++++++++++++++++
Date: Mon Aug 26 10:22:34 PDT 2019
User: corrico
Dark Spectrum Present: No
Reference Spectrum Present: No
Number of Sampled Component Spectra: 1
Spectrometers: USB2+H06089
Integration Time (usec): 2000 (USB2+H06089)
Spectra Averaged: 20 (USB2+H06089)
Boxcar Smoothing: 2 (USB2+H06089)
Correct for Electrical Dark: No (USB2+H06089)
Strobe/Lamp Enabled: No (USB2+H06089)
Correct for Detector Non-linearity: No (USB2+H06089)
Correct for Stray Light: No (USB2+H06089)
Number of Pixels in Processed Spectrum: 2048
>>>>>Begin Processed Spectral Data<<<<<
339.70	1029.84
340.07	1029.84
340.45	995.06
340.82	973.64
341.19	947.87
341.57	920.44
341.94	912.72
342.31	903.99
342.69	898.60
343.06	898.13
343.43	897.17
343.81	896.24
344.18	895.65
344.55	897.81
344.93	903.91
345.30	913.93
345.67	922.12
346.04	933.03
346.42	940.38
346.79	948.62
347.16	955.38
347.54	964.28
347.91	971.77
348.28	982.14
348.65	990.73
349.03	999.03
349.40	1006.83
349.77	1018.93
350.14	1028.01
350.52	1034.66
350.89	1041.61
351.26	1047.18
351.63	1049.40
352.01	1054.41
352.38	1057.34
352.75	1059.47
353.12	1066.51
353.50	1069.48
353.87	1072.08
354.24	1078.78
354.61	1083.22
354.98	1084.16
355.36	1087.37
355.73	1088.49
356.10	1088.61
356.47	1087.51
356.84	1085.87
357.22	1084.42
357.59	1084.04
357.96	1081.02
358.33	1083.48
358.70	1082.66
359.08	1081.47
359.45	1080.32
359.82	1080.46
360.19	1078.33
360.56	1075.50
360.94	1073.65
361.31	1073.32
361.68	1070.14
362.05	1071.61
362.42	1075.08
362.79	1080.98
363.16	1083.15
363.54	1085.42
363.91	1083.27
364.28	1083.32
364.65	1078.10
365.02	1075.45
365.39	1075.76
365.76	1077.37
366.14	1075.85
366.51	1077.63
366.88	1078.80
367.25	1079.88
367.62	1079.24
367.99	1080.06
368.36	1078.78
368.73	1080.48
369.10	1077.65
369.48	1076.39
369.85	1073.67
370.22	1078.43
370.59	1072.32
370.96	1073.30
371.33	1075.29
371.70	1076.60
372.07	1069.86
372.44	1072.48
372.81	1074.84
373.18	1071.08
373.55	1072.71
373.93	1072.20
374.30	1070.94
374.67	1068.34
375.04	1069.67
375.41	1069.95
375.78	1072.62
376.15	1074.31
376.52	1074.98
376.89	1076.97
377.26	1076.37
377.63	1079.15
378.00	1080.56
378.37	1080.93
378.74	1082.01
379.11	1081.91
379.48	1081.91
379.85	1083.34
380.22	1086.38
380.59	1084.04
380.96	1085.31
381.33	1082.57
381.70	1081.09
382.07	1079.46
382.44	1082.26
382.81	1080.25
383.18	1082.26
383.55	1080.65
383.92	1080.16
384.29	1080.32
384.66	1082.17
385.03	1079.48
385.40	1080.70
385.77	1078.66
386.14	1077.77
386.51	1077.28
386.88	1080.16
387.25	1081.23
387.62	1083.01
387.99	1081.96
388.36	1080.58
388.73	1081.51
389.10	1079.48
389.46	1081.63
389.83	1083.08
390.20	1084.81
390.57	1080.77
390.94	1082.29
391.31	1077.72
391.68	1075.57
392.05	1077.11
392.42	1079.57
392.79	1079.15
393.16	1081.82
393.53	1085.40
393.89	1086.36
394.26	1085.49
394.63	1085.89
395.00	1084.32
395.37	1080.98
395.74	1076.37
396.11	1078.07
396.48	1080.32
396.84	1085.59
397.21	1087.74
397.58	1090.60
397.95	1094.60
398.32	1093.97
398.69	1089.29
399.06	1088.37
399.42	1087.23
399.79	1087.02
400.16	1088.54
400.53	1091.79
400.90	1092.40
401.27	1097.41
401.64	1095.58
402.00	1094.08
402.37	1094.34
402.74	1093.45
403.11	1090.46
403.48	1088.02
403.84	1089.22
404.21	1085.54
404.58	1085.45
404.95	1084.30
405.32	1086.31
405.68	1087.39
406.05	1089.80
406.42	1091.11
406.79	1094.46
407.16	1096.14
407.52	1091.88
407.89	1093.19
408.26	1094.18
408.63	1092.19
408.99	1090.41
409.36	1093.87
409.73	1092.80
410.10	1092.16
410.47	1093.45
410.83	1091.49
411.20	1090.62
411.57	1091.98
411.94	1092.91
412.30	1093.45
412.67	1095.75
413.04	1099.37
413.40	1101.27
413.77	1103.21
414.14	1099.91
414.51	1101.43
414.87	1099.49
415.24	1098.18
415.61	1096.89
415.97	1100.92
416.34	1099.75
416.71	1103.09
417.08	1104.38
417.44	1103.26
417.81	1105.51
418.18	1105.27
418.54	1104.92
418.91	1106.46
419.28	1110.05
419.64	1111.36
420.01	1112.53
420.38	1113.98
420.74	1111.66
421.11	1113.70
421.48	1113.35
421.84	1118.40
422.21	1120.25
422.58	1124.04
422.94	1127.44
423.31	1132.23
423.68	1134.95
424.04	1135.23
424.41	1141.81
424.77	1144.80
425.14	1144.90
425.51	1147.80
425.87	1153.35
426.24	1155.19
426.61	1158.61
426.97	1164.30
427.34	1169.33
427.70	1174.36
428.07	1177.36
428.44	1186.89
428.80	1195.22
429.17	1201.37
429.53	1210.55
429.90	1224.40
430.27	1229.39
430.63	1236.93
431.00	1248.75
431.36	1260.52
431.73	1268.38
432.09	1285.05
432.46	1300.40
432.83	1317.67
433.19	1333.36
433.56	1358.07
433.92	1376.31
434.29	1396.86
434.65	1414.06
435.02	1439.99
435.38	1460.92
435.75	1490.13
436.11	1519.31
436.48	1554.14
436.84	1585.76
437.21	1624.99
437.57	1661.94
437.94	1702.53
438.30	1749.78
438.67	1795.89
439.03	1842.63
439.40	1894.55
439.76	1949.01
440.13	2004.55
440.49	2070.44
440.86	2138.01
441.22	2211.38
441.59	2290.52
441.95	2378.87
442.32	2464.37
442.68	2555.05
443.05	2643.80
443.41	2743.37
443.78	2844.52
444.14	2957.29
444.51	3074.20
444.87	3224.44
445.24	3360.45
445.60	3509.19
445.96	3657.18
446.33	3822.09
446.69	3974.88
447.06	4156.79
447.42	4336.50
447.79	4529.80
448.15	4755.73
448.51	4985.67
448.88	5245.94
449.24	5491.51
449.61	5771.39
449.97	6039.49
450.33	6328.43
450.70	6591.11
451.06	6913.94
451.43	7216.67
451.79	7589.96
452.15	7982.77
452.52	8440.14
452.88	8919.69
453.24	9462.72
453.61	10046.21
453.97	10624.11
454.34	11159.44
454.70	11797.24
455.06	12439.13
455.43	13055.30
455.79	13641.95
456.15	14375.03
456.52	15041.87
456.88	15802.01
457.24	16530.85
457.61	17397.18
457.97	18159.40
458.33	18931.96
458.70	19694.95
459.06	20466.86
459.42	21306.29
459.79	22076.59
460.15	22984.04
460.51	23871.62
460.88	24799.73
461.24	25592.56
461.60	26571.40
461.96	27452.12
462.33	28283.20
462.69	29075.56
463.05	29914.27
463.42	30615.87
463.78	31265.79
464.14	31810.92
464.50	32400.27
464.87	32887.08
465.23	33237.06
465.59	33565.11
465.95	33867.74
466.32	34140.83
466.68	34376.06
467.04	34520.16
467.40	34674.38
467.77	34862.47
468.13	34831.64
468.49	34710.12
468.85	34623.29
469.22	34447.14
469.58	34066.99
469.94	33789.78
470.30	33474.79
470.66	33060.21
471.03	32435.35
471.39	32039.34
471.75	31383.14
472.11	30769.74
472.47	30394.66
472.84	30084.12
473.20	29574.38
473.56	29319.38
473.92	28904.16
474.28	28400.55
474.65	27927.53
475.01	27463.82
475.37	26880.63
475.73	26426.57
476.09	25894.19
476.45	25369.11
476.81	24834.70
477.18	24307.17
477.54	23843.25
477.90	23495.37
478.26	23073.19
478.62	22760.38
478.98	22488.01
479.34	22190.62
479.71	21768.76
480.07	21423.63
480.43	21057.52
480.79	20662.90
481.15	20305.60
481.51	20007.23
481.87	19756.88
482.23	19478.29
482.59	19233.45
482.96	18940.11
483.32	18633.47
483.68	18260.13
484.04	17916.96
484.40	17545.43
484.76	17186.18
485.12	16835.22
485.48	16519.90
485.84	16164.86
486.20	15808.07
486.56	15440.28
486.92	15123.72
487.28	14770.37
487.64	14417.37
488.00	14094.07
488.37	13766.84
488.73	13406.96
489.09	13047.27
489.45	12737.41
489.81	12411.25
490.17	12108.36
490.53	11817.72
490.89	11522.08
491.25	11210.72
491.61	10906.33
491.97	10591.67
492.33	10265.64
492.69	9968.97
493.05	9668.00
493.41	9389.01
493.77	9124.58
494.13	8887.20
494.49	8642.52
494.85	8412.80
495.21	8182.89
495.57	7968.87
495.93	7744.81
496.29	7542.26
496.64	7356.05
497.00	7168.69
497.36	6970.79
497.72	6786.31
498.08	6614.33
498.44	6431.58
498.80	6250.31
499.16	6087.48
499.52	5934.55
499.88	5788.19
500.24	5660.82
500.60	5548.33
500.96	5429.86
501.32	5317.02
501.68	5205.00
502.03	5077.65
502.39	4951.22
502.75	4821.39
503.11	4692.66
503.47	4564.77
503.83	4439.62
504.19	4318.15
504.55	4210.60
504.91	4115.60
505.26	4022.77
505.62	3946.96
505.98	3859.26
506.34	3768.89
506.70	3666.12
507.06	3580.48
507.42	3496.95
507.78	3424.37
508.13	3349.99
508.49	3287.31
508.85	3216.97
509.21	3149.17
509.57	3076.96
509.93	3015.36
510.28	2944.46
510.64	2882.88
511.00	2819.13
511.36	2761.88
511.72	2703.13
512.07	2655.01
512.43	2601.39
512.79	2548.49
513.15	2503.13
513.51	2456.46
513.86	2411.06
514.22	2370.73
514.58	2333.49
514.94	2292.58
515.30	2259.09
515.65	2221.31
516.01	2188.92
516.37	2150.72
516.73	2120.22
517.08	2090.24
517.44	2064.24
517.80	2035.89
518.16	2013.63
518.51	1988.96
518.87	1963.71
519.23	1937.38
519.59	1912.31
519.94	1880.36
520.30	1856.54
520.66	1829.43
521.01	1808.84
521.37	1785.10
521.73	1768.77
522.09	1747.87
522.44	1731.88
522.80	1713.13
523.16	1693.21
523.51	1674.04
523.87	1656.65
524.23	1634.21
524.58	1611.01
524.94	1593.53
525.30	1575.46
525.65	1558.94
526.01	1543.28
526.37	1531.51
526.72	1519.50
527.08	1509.06
527.44	1496.07
527.79	1483.78
528.15	1469.53
528.51	1454.71
528.86	1442.73
529.22	1428.22
529.58	1419.86
529.93	1408.02
530.29	1399.59
530.65	1390.25
531.00	1382.18
531.36	1369.21
531.71	1361.54
532.07	1351.05
532.43	1344.47
532.78	1338.41
533.14	1331.60
533.49	1325.75
533.85	1322.00
534.21	1311.66
534.56	1300.68
534.92	1295.35
535.27	1286.85
535.63	1277.86
535.98	1270.26
536.34	1267.56
536.69	1260.47
537.05	1255.98
537.41	1253.24
537.76	1251.72
538.12	1247.15
538.47	1244.28
538.83	1240.41
539.18	1236.27
539.54	1230.51
539.89	1228.20
540.25	1224.31
540.60	1219.42
540.96	1213.66
541.31	1212.12
541.67	1203.25
542.02	1198.80
542.38	1194.02
542.73	1188.99
543.09	1183.26
543.44	1181.43
543.80	1178.34
544.15	1182.37
544.51	1183.80
544.86	1183.75
545.22	1184.15
545.57	1181.85
545.93	1174.88
546.28	1171.91
546.64	1171.23
546.99	1169.59
547.35	1168.04
547.70	1164.88
548.05	1161.84
548.41	1155.27
548.76	1151.29
549.12	1151.19
549.47	1148.97
549.83	1148.13
550.18	1147.31
550.53	1146.72
550.89	1142.81
551.24	1143.38
551.60	1143.94
551.95	1142.09
552.30	1138.58
552.66	1139.37
553.01	1138.79
553.37	1132.59
553.72	1133.26
554.07	1133.80
554.43	1134.72
554.78	1133.17
555.13	1134.34
555.49	1132.30
555.84	1130.60
556.19	1127.65
556.55	1126.43
556.90	1125.47
557.26	1121.75
557.61	1121.21
557.96	1121.02
558.32	1119.27
558.67	1118.78
559.02	1119.53
559.37	1121.54
559.73	1118.54
560.08	1117.75
560.43	1114.94
560.79	1117.14
561.14	1114.10
561.49	1114.31
561.85	1113.98
562.20	1115.71
562.55	1113.63
562.90	1109.39
563.26	1105.69
563.61	1102.67
563.96	1102.18
564.32	1101.20
564.67	1105.65
565.02	1107.49
565.37	1108.22
565.73	1102.74
566.08	1100.47
566.43	1099.09
566.78	1099.44
567.14	1098.55
567.49	1103.42
567.84	1104.66
568.19	1106.11
568.54	1107.00
568.90	1109.93
569.25	1104.83
569.60	1103.63
569.95	1097.99
570.31	1097.69
570.66	1098.76
571.01	1102.58
571.36	1101.20
571.71	1103.70
572.06	1102.42
572.42	1099.09
572.77	1098.58
573.12	1100.05
573.47	1099.70
573.82	1096.26
574.18	1095.49
574.53	1093.33
574.88	1094.01
575.23	1093.03
575.58	1095.07
575.93	1097.10
576.28	1098.20
576.64	1095.91
576.99	1094.01
577.34	1094.06
577.69	1091.32
578.04	1092.35
578.39	1094.11
578.74	1096.56
579.09	1092.23
579.44	1090.41
579.80	1088.93
580.15	1089.59
580.50	1089.38
580.85	1089.52
581.20	1090.64
581.55	1090.34
581.90	1089.24
582.25	1089.45
582.60	1091.53
582.95	1093.73
583.30	1093.24
583.65	1091.53
584.00	1089.89
584.35	1089.05
584.71	1087.62
585.06	1089.38
585.41	1088.75
585.76	1087.83
586.11	1088.14
586.46	1087.02
586.81	1086.27
587.16	1087.81
587.51	1087.95
587.86	1089.10
588.21	1089.96
588.56	1085.89
588.91	1084.56
589.26	1087.04
589.61	1084.32
589.96	1087.23
590.31	1091.49
590.66	1090.55
591.01	1088.93
591.36	1090.50
591.71	1084.65
592.06	1084.28
592.41	1086.17
592.76	1085.61
593.10	1085.05
593.45	1084.16
593.80	1082.17
594.15	1081.84
594.50	1081.47
594.85	1083.29
595.20	1087.18
595.55	1089.64
595.90	1091.65
596.25	1092.47
596.60	1092.40
596.95	1090.99
597.30	1087.16
597.64	1097.50
597.99	1098.48
598.34	1095.67
598.69	1096.87
599.04	1098.16
599.39	1084.60
599.74	1081.28
600.09	1083.25
600.44	1083.11
600.78	1084.21
601.13	1086.20
601.48	1088.98
601.83	1090.48
602.18	1088.42
602.53	1087.95
602.88	1086.41
603.22	1085.87
603.57	1082.61
603.92	1082.24
604.27	1084.35
604.62	1090.15
604.97	1090.13
605.31	1091.72
605.66	1095.70
606.01	1091.20
606.36	1085.07
606.71	1086.97
607.05	1088.51
607.40	1084.44
607.75	1086.87
608.10	1088.58
608.44	1087.25
608.79	1085.47
609.14	1090.83
609.49	1089.61
609.84	1089.57
610.18	1091.04
610.53	1093.33
610.88	1090.24
611.23	1093.38
611.57	1093.38
611.92	1091.65
612.27	1090.20
612.62	1090.97
612.96	1086.50
613.31	1089.10
613.66	1088.26
614.00	1089.05
614.35	1086.48
614.70	1090.24
615.05	1088.19
615.39	1088.84
615.74	1083.79
616.09	1089.59
616.43	1086.38
616.78	1083.79
617.13	1080.37
617.47	1081.54
617.82	1076.23
618.17	1080.25
618.51	1083.62
618.86	1089.50
619.21	1091.72
619.55	1089.26
619.90	1087.60
620.25	1085.80
620.59	1081.98
620.94	1082.50
621.29	1083.81
621.63	1083.08
621.98	1084.37
622.32	1084.81
622.67	1083.62
623.02	1083.71
623.36	1081.54
623.71	1080.30
624.05	1082.94
624.40	1083.15
624.75	1083.57
625.09	1084.89
625.44	1087.32
625.78	1084.14
626.13	1083.04
626.48	1083.57
626.82	1086.08
627.17	1083.95
627.51	1083.79
627.86	1084.98
628.20	1088.37
628.55	1088.51
628.89	1090.03
629.24	1088.54
629.58	1087.90
629.93	1086.69
630.28	1085.47
630.62	1079.83
630.97	1081.09
631.31	1083.27
631.66	1079.83
632.00	1080.13
632.35	1082.45
632.69	1084.74
633.04	1084.00
633.38	1084.89
633.73	1082.26
634.07	1080.91
634.42	1075.97
634.76	1078.75
635.11	1080.51
635.45	1082.50
635.79	1086.31
636.14	1090.41
636.48	1085.59
636.83	1084.77
637.17	1085.03
637.52	1082.43
637.86	1083.04
638.21	1085.56
638.55	1083.34
638.89	1081.40
639.24	1082.69
639.58	1079.95
639.93	1075.87
640.27	1077.25
640.61	1080.13
640.96	1078.75
641.30	1081.28
641.65	1084.30
641.99	1082.29
642.33	1081.23
642.68	1081.21
643.02	1079.88
643.37	1078.07
643.71	1078.89
644.05	1077.93
644.40	1078.43
644.74	1077.86
645.08	1080.16
645.43	1080.58
645.77	1082.59
646.11	1081.00
646.46	1082.33
646.80	1079.90
647.14	1083.01
647.49	1084.16
647.83	1088.70
648.17	1088.42
648.52	1090.41
648.86	1089.00
649.20	1085.47
649.55	1083.25
649.89	1083.20
650.23	1084.37
650.57	1081.82
650.92	1083.06
651.26	1082.90
651.60	1081.56
651.95	1078.66
652.29	1078.33
652.63	1078.43
652.97	1075.80
653.32	1075.24
653.66	1077.89
654.00	1082.38
654.34	1082.94
654.69	1083.27
655.03	1084.56
655.37	1085.70
655.71	1085.38
656.05	1084.67
656.40	1083.83
656.74	1081.68
657.08	1078.52
657.42	1076.18
657.76	1074.40
658.11	1079.34
658.45	1081.00
658.79	1080.56
659.13	1080.81
659.47	1083.76
659.82	1078.89
660.16	1078.52
660.50	1079.31
660.84	1082.45
661.18	1082.05
661.52	1083.27
661.87	1084.84
662.21	1083.39
662.55	1081.54
662.89	1080.13
663.23	1078.82
663.57	1078.07
663.91	1077.65
664.25	1075.66
664.60	1075.73
664.94	1076.55
665.28	1077.93
665.62	1082.43
665.96	1082.80
666.30	1079.85
666.64	1079.20
666.98	1077.91
667.32	1074.77
667.66	1077.18
668.01	1082.03
668.35	1086.17
668.69	1088.65
669.03	1092.61
669.37	1089.14
669.71	1086.69
670.05	1085.49
670.39	1083.06
670.73	1080.79
671.07	1083.62
671.41	1083.27
671.75	1084.65
672.09	1085.28
672.43	1086.34
672.77	1083.76
673.11	1083.25
673.45	1078.78
673.79	1077.70
674.13	1077.23
674.47	1077.72
674.81	1080.86
675.15	1084.18
675.49	1083.22
675.83	1085.12
676.17	1086.10
676.51	1084.04
676.85	1084.37
677.19	1084.00
677.53	1078.73
677.87	1079.90
678.21	1078.71
678.55	1077.58
678.89	1079.67
679.23	1080.86
679.57	1077.79
679.90	1078.73
680.24	1076.08
680.58	1073.77
680.92	1074.49
681.26	1076.20
681.60	1077.49
681.94	1079.69
682.28	1078.80
682.62	1077.49
682.96	1078.50
683.29	1078.28
683.63	1077.11
683.97	1080.20
684.31	1080.60
684.65	1079.03
684.99	1077.49
685.33	1080.51
685.67	1079.97
686.00	1079.95
686.34	1080.81
686.68	1081.54
687.02	1078.36
687.36	1077.77
687.70	1077.75
688.03	1074.59
688.37	1072.62
688.71	1074.40
689.05	1076.30
689.39	1077.02
689.72	1078.82
690.06	1079.76
690.40	1082.83
690.74	1082.38
691.08	1082.29
691.41	1082.59
691.75	1082.99
692.09	1079.67
692.43	1079.10
692.76	1078.87
693.10	1081.33
693.44	1081.09
693.78	1079.53
694.11	1080.86
694.45	1079.08
694.79	1076.58
695.13	1077.11
695.46	1079.76
695.80	1077.98
696.14	1076.23
696.48	1074.73
696.81	1072.39
697.15	1071.03
697.49	1071.47
697.82	1076.53
698.16	1076.41
698.50	1078.38
698.83	1075.76
699.17	1077.84
699.51	1076.72
699.84	1077.21
700.18	1079.38
700.52	1079.36
700.85	1073.98
701.19	1074.47
701.53	1076.60
701.86	1074.49
702.20	1079.38
702.54	1080.27
702.87	1079.10
703.21	1078.00
703.55	1077.63
703.88	1076.27
704.22	1077.18
704.55	1080.04
704.89	1078.68
705.23	1080.11
705.56	1080.74
705.90	1082.73
706.23	1079.06
706.57	1081.66
706.91	1079.17
707.24	1078.96
707.58	1076.60
707.91	1079.10
708.25	1079.10
708.58	1079.31
708.92	1078.99
709.26	1081.26
709.59	1080.91
709.93	1084.11
710.26	1082.19
710.60	1081.84
710.93	1082.87
711.27	1083.06
711.60	1078.73
711.94	1086.15
712.27	1086.78
712.61	1082.99
712.94	1084.70
713.28	1086.06
713.61	1080.93
713.95	1080.30
714.28	1082.03
714.62	1081.63
714.95	1082.90
715.29	1085.07
715.62	1086.66
715.96	1084.56
716.29	1083.04
716.63	1079.46
716.96	1077.98
717.29	1076.27
717.63	1077.65
717.96	1071.40
718.30	1073.56
718.63	1071.85
718.97	1072.22
719.30	1071.71
719.63	1073.77
719.97	1075.50
720.30	1078.66
720.64	1081.26
720.97	1083.93
721.30	1086.73
721.64	1082.61
721.97	1081.73
722.31	1080.98
722.64	1082.50
722.97	1082.17
723.31	1084.04
723.64	1085.56
723.97	1084.65
724.31	1082.17
724.64	1086.31
724.98	1085.94
725.31	1083.32
725.64	1081.68
725.98	1079.99
726.31	1076.72
726.64	1076.62
726.97	1078.50
727.31	1080.06
727.64	1081.73
727.97	1083.67
728.31	1081.02
728.64	1080.39
728.97	1079.06
729.31	1078.36
729.64	1075.15
729.97	1078.78
730.30	1079.90
730.64	1079.13
730.97	1078.07
731.30	1078.54
731.63	1079.69
731.97	1074.82
732.30	1074.84
732.63	1072.60
732.96	1072.20
733.30	1068.69
733.63	1071.90
733.96	1071.01
734.29	1075.64
734.63	1077.72
734.96	1077.96
735.29	1077.96
735.62	1080.27
735.95	1079.55
736.29	1079.71
736.62	1082.76
736.95	1083.20
737.28	1080.93
737.61	1077.54
737.94	1076.76
738.28	1074.61
738.61	1075.13
738.94	1076.55
739.27	1080.58
739.60	1078.21
739.93	1077.79
740.27	1076.13
740.60	1073.70
740.93	1075.08
741.26	1077.51
741.59	1078.17
741.92	1077.30
742.25	1080.06
742.58	1076.15
742.91	1076.46
743.25	1074.77
743.58	1076.62
743.91	1078.12
744.24	1080.84
744.57	1078.66
744.90	1081.49
745.23	1081.00
745.56	1078.24
745.89	1074.05
746.22	1078.10
746.55	1078.36
746.88	1080.95
747.21	1081.82
747.54	1084.51
747.87	1080.09
748.20	1079.41
748.53	1077.56
748.87	1077.96
749.20	1076.88
749.53	1077.77
749.86	1078.75
750.19	1077.91
750.52	1077.61
750.85	1078.54
751.18	1082.57
751.51	1082.73
751.84	1083.43
752.16	1082.52
752.49	1082.03
752.82	1080.09
753.15	1079.08
753.48	1082.12
753.81	1084.53
754.14	1084.39
754.47	1081.70
754.80	1080.88
755.13	1076.97
755.46	1074.66
755.79	1075.66
756.12	1077.61
756.45	1080.41
756.78	1079.92
757.11	1079.01
757.43	1080.41
757.76	1081.49
758.09	1079.34
758.42	1080.34
758.75	1080.58
759.08	1076.62
759.41	1075.34
759.74	1073.63
760.07	1076.01
760.39	1080.81
760.72	1083.08
761.05	1078.87
761.38	1081.44
761.71	1080.60
762.04	1077.35
762.36	1080.63
762.69	1084.93
763.02	1083.25
763.35	1079.83
763.68	1079.74
764.01	1076.15
764.33	1074.52
764.66	1074.14
764.99	1078.85
765.32	1077.77
765.65	1079.13
765.97	1081.40
766.30	1080.39
766.63	1079.03
766.96	1080.63
767.28	1081.02
767.61	1078.21
767.94	1083.39
768.27	1080.95
768.59	1080.16
768.92	1078.99
769.25	1081.44
769.58	1079.06
769.90	1078.99
770.23	1077.35
770.56	1077.07
770.89	1077.40
771.21	1076.30
771.54	1074.68
771.87	1074.89
772.19	1072.55
772.52	1070.02
772.85	1068.48
773.17	1071.57
773.50	1071.90
773.83	1074.56
774.15	1078.19
774.48	1079.48
774.81	1080.13
775.13	1082.71
775.46	1083.53
775.79	1083.67
776.11	1085.87
776.44	1083.90
776.77	1084.21
777.09	1083.48
777.42	1080.25
777.74	1077.33
778.07	1077.68
778.40	1077.79
778.72	1077.09
779.05	1078.17
779.37	1082.61
779.70	1081.05
780.03	1079.64
780.35	1079.03
780.68	1079.67
781.00	1075.71
781.33	1074.68
781.65	1073.95
781.98	1076.37
782.31	1076.86
782.63	1076.11
782.96	1078.14
783.28	1079.81
783.61	1078.21
783.93	1076.60
784.26	1075.62
784.58	1074.82
784.91	1073.95
785.23	1074.10
785.56	1076.41
785.88	1080.77
786.21	1079.41
786.53	1079.99
786.86	1079.08
787.18	1076.48
787.51	1073.63
787.83	1077.42
788.16	1076.95
788.48	1077.07
788.81	1077.35
789.13	1078.19
789.46	1075.78
789.78	1074.70
790.10	1074.38
790.43	1077.18
790.75	1078.47
791.08	1080.60
791.40	1081.80
791.73	1082.59
792.05	1078.52
792.37	1076.83
792.70	1078.68
793.02	1079.08
793.35	1078.05
793.67	1079.34
793.99	1079.36
794.32	1077.98
794.64	1075.31
794.96	1076.93
795.29	1078.45
795.61	1078.33
795.93	1076.65
796.26	1077.75
796.58	1080.81
796.91	1079.38
797.23	1079.15
797.55	1080.20
797.87	1077.58
798.20	1074.49
798.52	1076.23
798.84	1078.94
799.17	1078.31
799.49	1079.43
799.81	1080.06
800.14	1079.06
800.46	1079.13
800.78	1078.89
801.10	1080.44
801.43	1077.23
801.75	1079.27
802.07	1077.25
802.40	1078.78
802.72	1080.51
803.04	1084.84
803.36	1084.11
803.69	1082.54
804.01	1081.40
804.33	1080.44
804.65	1077.18
804.97	1075.52
805.30	1073.98
805.62	1075.92
805.94	1072.43
806.26	1068.55
806.58	1069.11
806.91	1073.30
807.23	1072.20
807.55	1075.05
807.87	1082.26
808.19	1078.92
808.52	1079.29
808.84	1078.24
809.16	1079.92
809.48	1076.90
809.80	1081.33
810.12	1081.82
810.44	1082.85
810.77	1079.62
811.09	1080.88
811.41	1081.70
811.73	1081.12
812.05	1078.33
812.37	1080.44
812.69	1080.39
813.01	1076.79
813.33	1076.23
813.66	1078.59
813.98	1080.91
814.30	1078.64
814.62	1083.15
814.94	1085.31
815.26	1086.85
815.58	1083.64
815.90	1085.45
816.22	1081.16
816.54	1079.78
816.86	1079.29
817.18	1080.79
817.50	1082.05
817.82	1082.38
818.14	1081.12
818.46	1079.76
818.78	1077.91
819.10	1076.76
819.42	1078.64
819.74	1079.03
820.06	1080.56
820.38	1082.12
820.70	1083.64
821.02	1083.97
821.34	1081.98
821.66	1078.61
821.98	1078.43
822.30	1076.27
822.62	1074.31
822.94	1078.45
823.26	1081.21
823.58	1080.88
823.90	1082.33
824.22	1081.07
824.54	1078.89
824.86	1076.55
825.18	1075.99
825.50	1073.14
825.81	1076.32
826.13	1073.67
826.45	1074.07
826.77	1074.28
827.09	1077.86
827.41	1075.62
827.73	1078.21
828.05	1081.16
828.36	1081.66
828.68	1077.72
829.00	1075.71
829.32	1071.90
829.64	1069.93
829.96	1070.56
830.28	1075.38
830.59	1076.15
830.91	1079.55
831.23	1078.85
831.55	1079.29
831.87	1078.80
832.19	1077.84
832.50	1078.21
832.82	1076.48
833.14	1076.97
833.46	1076.67
833.78	1078.89
834.09	1079.62
834.41	1084.58
834.73	1085.42
835.05	1085.52
835.36	1084.51
835.68	1081.70
836.00	1077.14
836.32	1074.77
836.63	1070.51
836.95	1072.06
837.27	1074.68
837.59	1076.46
837.90	1077.42
838.22	1082.26
838.54	1081.58
838.85	1079.43
839.17	1082.31
839.49	1080.56
839.80	1075.64
840.12	1074.07
840.44	1075.59
840.76	1072.62
841.07	1075.57
841.39	1078.50
841.71	1079.17
842.02	1076.55
842.34	1076.04
842.65	1073.16
842.97	1074.89
843.29	1078.47
843.60	1077.75
843.92	1078.45
844.24	1077.79
844.55	1075.03
844.87	1072.85
845.18	1075.31
845.50	1076.69
845.82	1079.41
846.13	1081.23
846.45	1080.11
846.76	1077.40
847.08	1078.31
847.40	1079.69
847.71	1078.52
848.03	1080.58
848.34	1081.66
848.66	1079.85
848.97	1077.11
849.29	1079.34
849.60	1077.49
849.92	1078.57
850.24	1077.51
850.55	1078.87
850.87	1075.48
851.18	1077.23
851.50	1076.90
851.81	1078.87
852.13	1078.57
852.44	1077.70
852.76	1078.59
853.07	1080.46
853.39	1081.84
853.70	1078.45
854.01	1079.90
854.33	1079.60
854.64	1077.93
854.96	1076.90
855.27	1076.79
855.59	1078.03
855.90	1075.41
856.22	1078.61
856.53	1080.86
856.84	1083.79
857.16	1086.45
857.47	1089.73
857.79	1086.38
858.10	1082.33
858.41	1082.85
858.73	1077.96
859.04	1075.64
859.36	1075.55
859.67	1075.05
859.98	1074.84
860.30	1079.10
860.61	1080.84
860.92	1079.62
861.24	1081.61
861.55	1079.55
861.87	1080.02
862.18	1080.98
862.49	1084.30
862.81	1082.61
863.12	1084.74
863.43	1078.99
863.74	1077.42
864.06	1077.89
864.37	1079.13
864.68	1079.48
865.00	1081.09
865.31	1080.02
865.62	1078.03
865.94	1079.31
866.25	1078.31
866.56	1078.89
866.87	1079.90
867.19	1082.99
867.50	1080.67
867.81	1082.36
868.12	1085.07
868.44	1084.81
868.75	1081.09
869.06	1080.77
869.37	1077.02
869.68	1076.86
870.00	1075.50
870.31	1076.13
870.62	1076.65
870.93	1075.48
871.24	1075.48
871.56	1075.38
871.87	1076.23
872.18	1074.45
872.49	1075.66
872.80	1073.07
873.12	1073.72
873.43	1070.68
873.74	1072.46
874.05	1073.70
874.36	1075.85
874.67	1076.32
874.98	1077.98
875.29	1077.56
875.61	1075.13
875.92	1074.96
876.23	1072.60
876.54	1072.48
876.85	1073.04
877.16	1075.36
877.47	1074.03
877.78	1075.85
878.09	1075.87
878.40	1077.40
878.72	1079.95
879.03	1080.11
879.34	1079.83
879.65	1081.91
879.96	1080.70
880.27	1077.21
880.58	1076.67
880.89	1076.76
881.20	1074.80
881.51	1075.59
881.82	1074.05
882.13	1075.64
882.44	1075.80
882.75	1078.00
883.06	1078.52
883.37	1080.27
883.68	1078.21
883.99	1076.62
884.30	1076.76
884.61	1075.52
884.92	1076.90
885.23	1077.49
885.54	1077.00
885.85	1074.63
886.16	1073.93
886.47	1075.80
886.78	1074.75
887.08	1077.63
887.39	1077.54
887.70	1075.71
888.01	1074.07
888.32	1074.73
888.63	1076.46
888.94	1076.76
889.25	1082.66
889.56	1083.01
889.87	1086.08
890.17	1086.31
890.48	1085.94
890.79	1078.94
891.10	1079.38
891.41	1075.05
891.72	1070.51
892.03	1068.90
892.34	1075.20
892.64	1074.38
892.95	1077.47
893.26	1081.54
893.57	1085.24
893.88	1081.73
894.18	1080.02
894.49	1077.86
894.80	1076.37
895.11	1075.36
895.42	1074.59
895.72	1075.69
896.03	1076.41
896.34	1076.48
896.65	1076.81
896.96	1077.91
897.26	1076.34
897.57	1079.29
897.88	1078.96
898.19	1077.37
898.49	1078.75
898.80	1081.02
899.11	1077.16
899.41	1075.64
899.72	1075.80
900.03	1075.69
900.34	1072.25
900.64	1074.10
900.95	1078.14
901.26	1079.90
901.56	1079.71
901.87	1082.43
902.18	1083.93
902.48	1080.91
902.79	1078.80
903.10	1077.40
903.40	1077.79
903.71	1076.67
904.02	1078.17
904.32	1079.85
904.63	1081.35
904.94	1082.87
905.24	1082.45
905.55	1080.04
905.85	1080.88
906.16	1079.64
906.47	1077.79
906.77	1076.79
907.08	1078.21
907.38	1076.95
907.69	1077.63
908.00	1077.37
908.30	1077.09
908.61	1076.32
908.91	1076.76
909.22	1076.15
909.52	1075.43
909.83	1077.18
910.14	1079.17
910.44	1078.00
910.75	1076.72
911.05	1074.56
911.36	1076.67
911.66	1075.78
911.97	1078.26
912.27	1077.44
912.58	1080.34
912.88	1075.62
913.19	1073.42
913.49	1071.82
913.80	1076.46
914.10	1075.52
914.41	1078.38
914.71	1080.04
915.01	1082.22
915.32	1079.57
915.62	1082.01
915.93	1080.93
916.23	1081.84
916.54	1078.99
916.84	1079.13
917.15	1077.47
917.45	1077.68
917.75	1075.59
918.06	1079.10
918.36	1077.30
918.67	1075.50
918.97	1077.70
919.27	1080.11
919.58	1077.44
919.88	1077.58
920.18	1079.46
920.49	1076.18
920.79	1074.91
921.10	1076.01
921.40	1077.49
921.70	1077.72
922.01	1075.99
922.31	1075.73
922.61	1075.69
922.92	1077.07
923.22	1074.66
923.52	1078.71
923.82	1077.14
924.13	1076.18
924.43	1073.28
924.73	1078.03
925.04	1077.21
925.34	1081.02
925.64	1080.63
925.94	1081.19
926.25	1078.89
926.55	1079.69
926.85	1077.93
927.15	1079.57
927.46	1080.72
927.76	1078.61
928.06	1074.70
928.36	1074.49
928.67	1071.38
928.97	1071.57
929.27	1071.85
929.57	1075.27
929.87	1074.80
930.18	1074.45
930.48	1073.42
930.78	1074.19
931.08	1070.75
931.38	1071.24
931.69	1074.33
931.99	1076.51
932.29	1079.24
932.59	1081.80
932.89	1081.80
933.19	1082.19
933.49	1084.23
933.80	1082.50
934.10	1081.33
934.40	1079.53
934.70	1079.67
935.00	1074.84
935.30	1073.60
935.60	1075.57
935.90	1078.10
936.20	1076.95
936.50	1078.71
936.81	1079.41
937.11	1076.58
937.41	1075.62
937.71	1077.23
938.01	1078.26
938.31	1076.53
938.61	1079.55
938.91	1080.32
939.21	1079.20
939.51	1077.79
939.81	1080.16
940.11	1076.39
940.41	1078.47
940.71	1078.96
941.01	1078.19
941.31	1078.99
941.61	1082.33
941.91	1082.17
942.21	1082.29
942.51	1082.78
942.81	1080.95
943.11	1081.73
943.41	1079.38
943.71	1077.86
944.01	1077.89
944.31	1078.28
944.61	1077.18
944.90	1076.58
945.20	1079.01
945.50	1078.94
945.80	1079.95
946.10	1079.46
946.40	1077.98
946.70	1074.68
947.00	1075.62
947.30	1076.11
947.60	1075.57
947.89	1076.81
948.19	1076.08
948.49	1073.91
948.79	1072.76
949.09	1072.64
949.39	1073.72
949.69	1076.88
949.98	1077.70
950.28	1074.82
950.58	1075.57
950.88	1075.92
951.18	1075.41
951.48	1075.94
951.77	1078.64
952.07	1077.82
952.37	1079.76
952.67	1076.37
952.97	1077.56
953.26	1078.10
953.56	1079.90
953.86	1076.95
954.16	1078.45
954.45	1075.52
954.75	1072.97
955.05	1072.01
955.35	1073.18
955.64	1078.19
955.94	1081.07
956.24	1084.23
956.54	1086.27
956.83	1087.69
957.13	1082.69
957.43	1082.97
957.72	1080.04
958.02	1075.71
958.32	1075.27
958.61	1077.35
958.91	1077.61
959.21	1079.71
959.50	1077.63
959.80	1075.03
960.10	1074.31
960.39	1073.65
960.69	1076.55
960.99	1084.30
961.28	1086.10
961.58	1083.97
961.87	1082.92
962.17	1080.34
962.47	1077.65
962.76	1078.19
963.06	1080.84
963.36	1081.02
963.65	1080.44
963.95	1080.20
964.24	1076.23
964.54	1072.92
964.83	1071.90
965.13	1071.19
965.42	1070.49
965.72	1072.90
966.02	1076.34
966.31	1076.67
966.61	1078.64
966.90	1079.46
967.20	1081.77
967.49	1079.22
967.79	1079.71
968.08	1078.78
968.38	1078.99
968.67	1075.94
968.97	1079.24
969.26	1078.82
969.56	1080.56
969.85	1080.65
970.15	1079.67
970.44	1078.03
970.74	1079.78
971.03	1077.28
971.32	1076.18
971.62	1076.95
971.91	1074.84
972.21	1075.34
972.50	1076.20
972.80	1076.60
973.09	1078.40
973.38	1079.01
973.68	1081.02
973.97	1079.81
974.27	1075.55
974.56	1072.81
974.85	1072.95
975.15	1068.59
975.44	1070.23
975.73	1076.60
976.03	1078.68
976.32	1081.23
976.61	1083.74
976.91	1081.96
977.20	1078.78
977.49	1076.97
977.79	1076.01
978.08	1075.17
978.37	1075.85
978.67	1078.33
978.96	1080.84
979.25	1082.12
979.55	1084.44
979.84	1086.99
980.13	1086.59
980.42	1088.56
980.72	1084.81
981.01	1077.49
981.30	1074.40
981.59	1072.57
981.89	1068.59
982.18	1069.74
982.47	1074.49
982.76	1076.25
983.06	1079.06
983.35	1080.16
983.64	1081.54
983.93	1077.44
984.22	1075.62
984.52	1071.68
984.81	1074.19
985.10	1073.72
985.39	1078.52
985.68	1076.67
985.97	1080.16
986.27	1079.57
986.56	1077.18
986.85	1075.57
987.14	1077.93
987.43	1078.03
987.72	1075.45
988.01	1077.16
988.31	1077.77
988.60	1078.89
988.89	1075.55
989.18	1076.39
989.47	1074.75
989.76	1072.18
990.05	1070.49
990.34	1069.27
990.63	1069.39
990.92	1071.33
991.21	1074.49
991.51	1075.87
991.80	1079.46
992.09	1079.78
992.38	1079.13
992.67	1079.08
992.96	1078.89
993.25	1078.57
993.54	1074.56
993.83	1074.26
994.12	1073.91
994.41	1072.81
994.70	1073.60
994.99	1075.83
995.28	1076.58
995.57	1079.62
995.86	1078.80
996.15	1074.96
996.44	1074.26
996.73	1073.58
997.02	1073.39
997.31	1076.41
997.59	1078.19
997.88	1075.94
998.17	1078.26
998.46	1074.80
998.75	1073.30
999.04	1074.14
999.33	1078.21
999.62	1077.89
999.91	1079.92
1000.20	1081.51
1000.49	1080.77
1000.77	1079.83
1001.06	1077.54
1001.35	1074.73
1001.64	1074.31
1001.93	1074.91
1002.22	1075.83
1002.51	1078.33
1002.79	1079.81
1003.08	1078.38
1003.37	1079.88
1003.66	1081.14
1003.95	1081.47
1004.23	1078.54
1004.52	1081.37
1004.81	1082.26
1005.10	1082.01
1005.39	1080.65
1005.67	1087.02
1005.96	1085.47
1006.25	1080.74
1006.54	1078.73
1006.83	1078.71
1007.11	1075.24
1007.40	1076.65
1007.69	1079.57
1007.97	1079.38
1008.26	1079.24
1008.55	1078.57
1008.84	1076.25
1009.12	1073.21
1009.41	1071.61
1009.70	1071.75
1009.98	1071.75
1010.27	1073.07
1010.56	1075.92
1010.85	1079.69
1011.13	1080.32
1011.42	1079.64
1011.71	1079.43
1011.99	1079.34
1012.28	1075.83
1012.56	1075.55
1012.85	1074.87
1013.14	1073.14
1013.42	1071.57
1013.71	1075.50
1014.00	1075.43
1014.28	1076.86
1014.57	1078.50
1014.85	1077.16
1015.14	1073.93
1015.43	1074.77
1015.71	1075.69
1016.00	1074.33
1016.28	1076.65
1016.57	1078.94
1016.85	1078.33
1017.14	1077.35
1017.43	1076.95
1017.71	1078.78
1018.00	1080.41
1018.28	1081.56
1018.57	1082.50
1018.85	1083.76
1019.14	1081.21
1019.42	1077.09
1019.71	1075.97
1019.99	1074.68
1020.28	1073.84
1020.56	1075.08
1020.85	1077.86
1021.13	1080.39
1021.42	1080.93
1021.70	1081.09
1021.99	1081.21
1022.27	1078.47
1022.55	1079.81
1022.84	1067.75
>>>>>End Processed Spectral Data<<<<<
