SpectraSuite Data File
++++++++++++++++++++++++++++++++++++
Date: Mon Aug 26 10:21:54 PDT 2019
User: corrico
Dark Spectrum Present: No
Reference Spectrum Present: No
Number of Sampled Component Spectra: 1
Spectrometers: USB2+H06089
Integration Time (usec): 2000 (USB2+H06089)
Spectra Averaged: 20 (USB2+H06089)
Boxcar Smoothing: 2 (USB2+H06089)
Correct for Electrical Dark: No (USB2+H06089)
Strobe/Lamp Enabled: No (USB2+H06089)
Correct for Detector Non-linearity: No (USB2+H06089)
Correct for Stray Light: No (USB2+H06089)
Number of Pixels in Processed Spectrum: 2048
>>>>>Begin Processed Spectral Data<<<<<
339.70	1030.30
340.07	1030.30
340.45	992.90
340.82	972.35
341.19	947.71
341.57	920.74
341.94	910.87
342.31	905.53
342.69	897.03
343.06	893.90
343.43	894.37
343.81	895.47
344.18	898.84
344.55	903.75
344.93	910.80
345.30	913.49
345.67	923.27
346.04	927.95
346.42	935.37
346.79	940.92
347.16	950.19
347.54	956.20
347.91	964.84
348.28	975.16
348.65	985.30
349.03	997.30
349.40	1004.42
349.77	1014.22
350.14	1018.72
350.52	1027.38
350.89	1033.42
351.26	1040.70
351.63	1043.20
352.01	1048.51
352.38	1048.93
352.75	1051.35
353.12	1055.14
353.50	1062.18
353.87	1067.14
354.24	1071.03
354.61	1073.95
354.98	1075.57
355.36	1072.92
355.73	1073.32
356.10	1075.80
356.47	1076.23
356.84	1077.11
357.22	1078.54
357.59	1078.89
357.96	1077.35
358.33	1078.17
358.70	1076.53
359.08	1076.65
359.45	1077.65
359.82	1078.89
360.19	1076.51
360.56	1077.33
360.94	1080.13
361.31	1080.79
361.68	1077.35
362.05	1078.26
362.42	1077.35
362.79	1073.63
363.16	1071.47
363.54	1071.57
363.91	1068.90
364.28	1070.54
364.65	1067.66
365.02	1064.80
365.39	1067.21
365.76	1071.45
366.14	1068.34
366.51	1066.75
366.88	1067.64
367.25	1065.95
367.62	1064.83
367.99	1066.86
368.36	1071.82
368.73	1073.63
369.10	1072.88
369.48	1067.68
369.85	1067.14
370.22	1065.81
370.59	1064.73
370.96	1069.58
371.33	1074.35
371.70	1073.00
372.07	1073.56
372.44	1076.08
372.81	1071.33
373.18	1070.33
373.55	1069.04
373.93	1064.48
374.30	1061.46
374.67	1063.70
375.04	1064.62
375.41	1062.93
375.78	1067.92
376.15	1066.96
376.52	1065.48
376.89	1061.99
377.26	1064.05
377.63	1064.48
378.00	1069.37
378.37	1068.76
378.74	1074.82
379.11	1075.64
379.48	1072.55
379.85	1069.81
380.22	1069.72
380.59	1063.75
380.96	1060.66
381.33	1063.07
381.70	1061.71
382.07	1065.74
382.44	1072.11
382.81	1075.01
383.18	1071.54
383.55	1073.21
383.92	1071.03
384.29	1068.64
384.66	1068.48
385.03	1070.56
385.40	1071.57
385.77	1074.31
386.14	1073.51
386.51	1074.07
386.88	1073.46
387.25	1070.51
387.62	1067.94
387.99	1067.89
388.36	1069.93
388.73	1071.80
389.10	1075.08
389.46	1074.52
389.83	1076.90
390.20	1076.27
390.57	1073.84
390.94	1071.19
391.31	1072.04
391.68	1073.18
392.05	1074.21
392.42	1076.41
392.79	1076.90
393.16	1075.71
393.53	1072.95
393.89	1071.08
394.26	1072.48
394.63	1074.19
395.00	1073.44
395.37	1071.10
395.74	1073.16
396.11	1071.54
396.48	1072.62
396.84	1072.67
397.21	1075.08
397.58	1072.57
397.95	1074.17
398.32	1069.44
398.69	1072.27
399.06	1071.33
399.42	1071.90
399.79	1071.71
400.16	1073.58
400.53	1074.82
400.90	1077.07
401.27	1078.52
401.64	1076.79
402.00	1079.83
402.37	1077.42
402.74	1072.34
403.11	1070.30
403.48	1068.48
403.84	1066.02
404.21	1065.69
404.58	1070.75
404.95	1071.38
405.32	1077.18
405.68	1075.36
406.05	1071.54
406.42	1071.92
406.79	1073.98
407.16	1072.64
407.52	1074.77
407.89	1079.55
408.26	1080.67
408.63	1077.86
408.99	1078.85
409.36	1077.70
409.73	1078.33
410.10	1074.84
410.47	1074.96
410.83	1073.46
411.20	1077.86
411.57	1076.20
411.94	1075.99
412.30	1077.33
412.67	1078.24
413.04	1075.71
413.40	1076.60
413.77	1077.00
414.14	1079.15
414.51	1077.37
414.87	1079.08
415.24	1080.30
415.61	1078.43
415.97	1076.86
416.34	1078.87
416.71	1078.45
417.08	1077.86
417.44	1081.09
417.81	1082.38
418.18	1081.12
418.54	1079.83
418.91	1078.45
419.28	1079.06
419.64	1079.92
420.01	1078.47
420.38	1080.30
420.74	1082.76
421.11	1085.61
421.48	1085.42
421.84	1088.00
422.21	1088.14
422.58	1086.55
422.94	1083.48
423.31	1081.80
423.68	1081.30
424.04	1081.05
424.41	1083.79
424.77	1086.69
425.14	1089.92
425.51	1092.87
425.87	1093.83
426.24	1091.98
426.61	1091.56
426.97	1090.99
427.34	1092.00
427.70	1093.57
428.07	1097.45
428.44	1100.54
428.80	1101.60
429.17	1104.17
429.53	1105.32
429.90	1105.95
430.27	1105.08
430.63	1107.56
431.00	1108.78
431.36	1111.59
431.73	1111.80
432.09	1112.36
432.46	1117.07
432.83	1119.60
433.19	1125.91
433.56	1134.39
433.92	1141.92
434.29	1145.25
434.65	1152.76
435.02	1156.79
435.38	1162.54
435.75	1170.55
436.11	1179.21
436.48	1183.98
436.84	1191.66
437.21	1196.72
437.57	1203.69
437.94	1210.67
438.30	1217.36
438.67	1225.76
439.03	1236.93
439.40	1247.97
439.76	1258.79
440.13	1271.05
440.49	1283.97
440.86	1297.69
441.22	1314.44
441.59	1329.38
441.95	1348.48
442.32	1361.42
442.68	1376.70
443.05	1393.81
443.41	1414.78
443.78	1433.72
444.14	1459.00
444.51	1482.45
444.87	1508.33
445.24	1534.74
445.60	1567.20
445.96	1596.78
446.33	1633.06
446.69	1661.62
447.06	1694.50
447.42	1730.71
447.79	1769.19
448.15	1814.24
448.51	1863.77
448.88	1916.17
449.24	1962.68
449.61	2021.33
449.97	2079.10
450.33	2136.46
450.70	2190.60
451.06	2254.68
451.43	2314.27
451.79	2384.91
452.15	2454.73
452.52	2534.82
452.88	2621.26
453.24	2714.44
453.61	2810.84
453.97	2918.74
454.34	3022.08
454.70	3130.09
455.06	3248.36
455.43	3361.55
455.79	3466.92
456.15	3601.01
456.52	3728.43
456.88	3869.44
457.24	4004.33
457.61	4175.54
457.97	4321.85
458.33	4486.69
458.70	4658.20
459.06	4826.89
459.42	4997.84
459.79	5170.13
460.15	5354.23
460.51	5512.80
460.88	5689.05
461.24	5843.87
461.60	6011.34
461.96	6150.04
462.33	6295.32
462.69	6444.43
463.05	6615.24
463.42	6778.12
463.78	6936.18
464.14	7077.97
464.50	7214.28
464.87	7296.32
465.23	7347.43
465.59	7423.88
465.95	7481.48
466.32	7530.67
466.68	7609.25
467.04	7672.79
467.40	7716.02
467.77	7762.08
468.13	7770.34
468.49	7760.65
468.85	7757.49
469.22	7733.83
469.58	7689.48
469.94	7674.76
470.30	7633.47
470.66	7576.57
471.03	7496.74
471.39	7436.61
471.75	7311.90
472.11	7187.25
472.47	7087.73
472.84	6980.37
473.20	6843.70
473.56	6774.52
473.92	6691.85
474.28	6612.97
474.65	6545.52
475.01	6497.40
475.37	6408.32
475.73	6330.33
476.09	6244.10
476.45	6150.60
476.81	6056.25
477.18	5961.91
477.54	5880.27
477.90	5789.85
478.26	5703.28
478.62	5619.51
478.98	5543.93
479.34	5477.09
479.71	5409.84
480.07	5351.52
480.43	5300.31
480.79	5245.37
481.15	5181.48
481.51	5127.29
481.87	5074.73
482.23	5006.64
482.59	4949.41
482.96	4885.82
483.32	4825.51
483.68	4759.34
484.04	4704.71
484.40	4636.88
484.76	4580.94
485.12	4507.66
485.48	4444.07
485.84	4375.51
486.20	4304.15
486.56	4229.79
486.92	4169.29
487.28	4095.82
487.64	4015.47
488.00	3950.17
488.37	3885.66
488.73	3812.03
489.09	3741.07
489.45	3680.16
489.81	3614.98
490.17	3551.79
490.53	3494.47
490.89	3436.40
491.25	3378.10
491.61	3317.78
491.97	3246.86
492.33	3177.84
492.69	3114.41
493.05	3047.33
493.41	2985.19
493.77	2929.23
494.13	2872.21
494.49	2815.34
494.85	2766.02
495.21	2719.70
495.57	2675.05
495.93	2634.81
496.29	2589.64
496.64	2550.27
497.00	2501.63
497.36	2456.95
497.72	2414.78
498.08	2381.14
498.44	2339.20
498.80	2300.79
499.16	2267.65
499.52	2234.23
499.88	2203.87
500.24	2170.38
500.60	2147.02
500.96	2115.12
501.32	2084.08
501.68	2048.55
502.03	2020.16
502.39	1987.11
502.75	1956.52
503.11	1930.01
503.47	1910.25
503.83	1889.87
504.19	1871.68
504.55	1849.98
504.91	1826.32
505.26	1802.54
505.62	1778.60
505.98	1756.78
506.34	1735.44
506.70	1715.19
507.06	1693.03
507.42	1673.76
507.78	1651.27
508.13	1635.33
508.49	1615.86
508.85	1596.69
509.21	1581.31
509.57	1566.05
509.93	1550.28
510.28	1534.06
510.64	1518.84
511.00	1503.37
511.36	1487.15
511.72	1469.15
512.07	1459.72
512.43	1449.19
512.79	1432.15
513.15	1421.08
513.51	1413.17
513.86	1397.58
514.22	1384.19
514.58	1377.34
514.94	1370.15
515.30	1359.78
515.65	1353.95
516.01	1350.72
516.37	1344.17
516.73	1335.21
517.08	1328.28
517.44	1319.64
517.80	1313.04
518.16	1302.41
518.51	1293.03
518.87	1287.53
519.23	1280.34
519.59	1269.62
519.94	1265.79
520.30	1261.99
520.66	1252.26
521.01	1250.57
521.37	1242.99
521.73	1238.26
522.09	1230.00
522.44	1230.12
522.80	1223.44
523.16	1223.09
523.51	1216.84
523.87	1217.57
524.23	1210.57
524.58	1208.18
524.94	1201.61
525.30	1199.43
525.65	1192.13
526.01	1189.53
526.37	1181.29
526.72	1180.75
527.08	1176.31
527.44	1175.25
527.79	1172.77
528.15	1171.46
528.51	1169.31
528.86	1169.89
529.22	1166.62
529.58	1160.93
529.93	1159.17
530.29	1155.50
530.65	1149.18
531.00	1149.55
531.36	1150.05
531.71	1149.44
532.07	1146.11
532.43	1145.53
532.78	1140.43
533.14	1137.03
533.49	1132.21
533.85	1132.77
534.21	1129.82
534.56	1129.68
534.92	1130.43
535.27	1128.23
535.63	1126.17
535.98	1125.19
536.34	1124.79
536.69	1121.87
537.05	1123.69
537.41	1122.29
537.76	1123.36
538.12	1122.05
538.47	1119.29
538.83	1116.76
539.18	1114.14
539.54	1111.15
539.89	1106.65
540.25	1107.00
540.60	1107.19
540.96	1108.71
541.31	1108.71
541.67	1110.98
542.02	1113.11
542.38	1113.28
542.73	1110.30
543.09	1106.82
543.44	1103.31
543.80	1099.09
544.15	1095.07
544.51	1093.76
544.86	1094.69
545.22	1093.64
545.57	1093.50
545.93	1096.89
546.28	1097.69
546.64	1095.79
546.99	1097.90
547.35	1097.24
547.70	1093.97
548.05	1094.08
548.41	1095.32
548.76	1094.29
549.12	1094.67
549.47	1096.07
549.83	1094.41
550.18	1095.70
550.53	1097.31
550.89	1094.74
551.24	1092.52
551.60	1093.15
551.95	1091.63
552.30	1090.97
552.66	1092.66
553.01	1096.73
553.37	1094.57
553.72	1093.85
554.07	1091.04
554.43	1090.06
554.78	1084.30
555.13	1090.64
555.49	1093.12
555.84	1091.81
556.19	1092.12
556.55	1094.74
556.90	1089.87
557.26	1086.08
557.61	1086.90
557.96	1087.51
558.32	1087.11
558.67	1085.42
559.02	1086.36
559.37	1087.48
559.73	1087.06
560.08	1086.71
560.43	1088.21
560.79	1087.48
561.14	1087.09
561.49	1086.48
561.85	1087.79
562.20	1088.26
562.55	1087.93
562.90	1087.81
563.26	1088.56
563.61	1084.42
563.96	1084.91
564.32	1084.44
564.67	1087.67
565.02	1086.76
565.37	1087.65
565.73	1086.03
566.08	1086.24
566.43	1082.10
566.78	1080.65
567.14	1082.80
567.49	1080.74
567.84	1081.07
568.19	1084.30
568.54	1084.53
568.90	1080.53
569.25	1080.25
569.60	1078.85
569.95	1073.72
570.31	1073.88
570.66	1075.97
571.01	1075.50
571.36	1077.70
571.71	1079.15
572.06	1078.96
572.42	1080.27
572.77	1081.84
573.12	1079.01
573.47	1078.00
573.82	1078.47
574.18	1076.39
574.53	1076.01
574.88	1075.78
575.23	1074.70
575.58	1074.96
575.93	1075.80
576.28	1077.23
576.64	1077.82
576.99	1079.85
577.34	1078.47
577.69	1077.02
578.04	1075.71
578.39	1077.30
578.74	1078.21
579.09	1080.04
579.44	1082.99
579.80	1081.84
580.15	1078.57
580.50	1075.34
580.85	1075.31
581.20	1073.42
581.55	1075.99
581.90	1078.59
582.25	1082.26
582.60	1082.33
582.95	1081.96
583.30	1078.87
583.65	1077.00
584.00	1078.87
584.35	1078.03
584.71	1079.83
585.06	1078.50
585.41	1078.68
585.76	1074.59
586.11	1072.62
586.46	1071.01
586.81	1074.07
587.16	1075.41
587.51	1075.69
587.86	1078.33
588.21	1078.10
588.56	1078.80
588.91	1079.27
589.26	1080.58
589.61	1078.75
589.96	1078.31
590.31	1077.35
590.66	1075.59
591.01	1073.56
591.36	1075.27
591.71	1075.38
592.06	1076.06
592.41	1075.69
592.76	1076.04
593.10	1077.98
593.45	1074.77
593.80	1077.44
594.15	1078.61
594.50	1082.69
594.85	1079.41
595.20	1082.19
595.55	1076.25
595.90	1076.60
596.25	1072.88
596.60	1074.75
596.95	1077.07
597.30	1080.84
597.64	1092.52
597.99	1093.08
598.34	1091.27
598.69	1092.66
599.04	1091.04
599.39	1076.86
599.74	1075.62
600.09	1077.84
600.44	1073.28
600.78	1070.94
601.13	1073.46
601.48	1072.32
601.83	1071.33
602.18	1075.97
602.53	1077.51
602.88	1076.04
603.22	1077.91
603.57	1074.84
603.92	1071.40
604.27	1071.08
604.62	1070.42
604.97	1071.73
605.31	1073.60
605.66	1074.94
606.01	1076.27
606.36	1077.25
606.71	1077.00
607.05	1079.38
607.40	1079.85
607.75	1079.13
608.10	1081.33
608.44	1077.25
608.79	1075.38
609.14	1077.91
609.49	1081.21
609.84	1078.99
610.18	1082.17
610.53	1083.25
610.88	1081.21
611.23	1079.36
611.57	1079.90
611.92	1080.84
612.27	1079.99
612.62	1081.26
612.96	1078.54
613.31	1077.63
613.66	1076.32
614.00	1075.66
614.35	1073.14
614.70	1074.28
615.05	1078.99
615.39	1081.33
615.74	1080.23
616.09	1079.71
616.43	1080.13
616.78	1074.94
617.13	1075.13
617.47	1077.35
617.82	1079.08
618.17	1079.88
618.51	1082.15
618.86	1079.06
619.21	1076.65
619.55	1076.32
619.90	1074.73
620.25	1077.30
620.59	1077.35
620.94	1076.67
621.29	1073.25
621.63	1074.38
621.98	1070.44
622.32	1073.07
622.67	1075.38
623.02	1078.96
623.36	1078.68
623.71	1076.44
624.05	1077.33
624.40	1075.55
624.75	1075.17
625.09	1077.96
625.44	1079.85
625.78	1079.41
626.13	1081.63
626.48	1078.99
626.82	1076.48
627.17	1078.75
627.51	1076.67
627.86	1075.90
628.20	1078.14
628.55	1079.15
628.89	1078.73
629.24	1080.81
629.58	1080.16
629.93	1076.72
630.28	1075.99
630.62	1073.98
630.97	1068.45
631.31	1067.54
631.66	1067.59
632.00	1066.96
632.35	1068.99
632.69	1069.88
633.04	1072.69
633.38	1077.07
633.73	1076.90
634.07	1078.14
634.42	1079.41
634.76	1078.21
635.11	1077.21
635.45	1078.85
635.79	1076.58
636.14	1078.00
636.48	1075.71
636.83	1071.24
637.17	1069.39
637.52	1068.59
637.86	1068.67
638.21	1067.75
638.55	1070.07
638.89	1071.38
639.24	1067.82
639.58	1070.16
639.93	1075.94
640.27	1078.59
640.61	1077.21
640.96	1079.62
641.30	1074.84
641.65	1069.58
641.99	1068.62
642.33	1071.54
642.68	1073.79
643.02	1074.31
643.37	1074.28
643.71	1072.43
644.05	1070.75
644.40	1070.28
644.74	1073.21
645.08	1075.83
645.43	1072.81
645.77	1072.34
646.11	1072.78
646.46	1074.77
646.80	1072.27
647.14	1077.00
647.49	1077.42
647.83	1078.94
648.17	1079.46
648.52	1082.17
648.86	1083.06
649.20	1082.08
649.55	1080.93
649.89	1077.72
650.23	1077.75
650.57	1078.38
650.92	1077.72
651.26	1077.09
651.60	1073.49
651.95	1074.59
652.29	1073.02
652.63	1075.94
652.97	1077.40
653.32	1079.53
653.66	1078.66
654.00	1079.20
654.34	1077.82
654.69	1075.36
655.03	1078.19
655.37	1078.21
655.71	1080.37
656.05	1080.39
656.40	1082.40
656.74	1080.95
657.08	1080.77
657.42	1075.73
657.76	1075.94
658.11	1072.18
658.45	1069.70
658.79	1065.90
659.13	1066.79
659.47	1063.94
659.82	1061.69
660.16	1060.17
660.50	1061.74
660.84	1061.27
661.18	1064.31
661.52	1069.88
661.87	1077.33
662.21	1077.58
662.55	1080.65
662.89	1076.81
663.23	1075.99
663.57	1073.04
663.91	1076.11
664.25	1073.88
664.60	1077.40
664.94	1079.22
665.28	1078.43
665.62	1076.65
665.96	1079.67
666.30	1081.66
666.64	1082.71
666.98	1083.64
667.32	1083.79
667.66	1081.63
668.01	1081.14
668.35	1081.19
668.69	1079.60
669.03	1078.87
669.37	1080.98
669.71	1078.66
670.05	1073.86
670.39	1075.94
670.73	1077.00
671.07	1079.36
671.41	1080.25
671.75	1082.87
672.09	1081.21
672.43	1080.11
672.77	1077.14
673.11	1077.44
673.45	1077.42
673.79	1077.21
674.13	1078.00
674.47	1075.62
674.81	1076.01
675.15	1074.94
675.49	1074.87
675.83	1075.87
676.17	1078.17
676.51	1076.46
676.85	1077.58
677.19	1080.06
677.53	1079.38
677.87	1078.45
678.21	1081.77
678.55	1084.23
678.89	1083.60
679.23	1081.09
679.57	1078.85
679.90	1076.53
680.24	1074.38
680.58	1071.61
680.92	1075.48
681.26	1076.11
681.60	1075.97
681.94	1075.20
682.28	1079.76
682.62	1076.39
682.96	1077.14
683.29	1075.24
683.63	1074.26
683.97	1071.05
684.31	1072.39
684.65	1075.38
684.99	1074.10
685.33	1074.77
685.67	1075.85
686.00	1079.29
686.34	1073.88
686.68	1075.73
687.02	1075.15
687.36	1074.89
687.70	1072.01
688.03	1074.54
688.37	1076.86
688.71	1076.93
689.05	1077.79
689.39	1077.47
689.72	1077.98
690.06	1076.97
690.40	1075.36
690.74	1074.73
691.08	1075.73
691.41	1074.40
691.75	1074.03
692.09	1075.92
692.43	1075.55
692.76	1074.47
693.10	1075.20
693.44	1076.93
693.78	1076.65
694.11	1076.18
694.45	1075.20
694.79	1074.75
695.13	1072.53
695.46	1075.66
695.80	1076.65
696.14	1077.04
696.48	1078.07
696.81	1078.17
697.15	1073.07
697.49	1072.71
697.82	1070.63
698.16	1072.69
698.50	1072.83
698.83	1077.33
699.17	1078.17
699.51	1082.29
699.84	1082.50
700.18	1081.30
700.52	1076.67
700.85	1073.60
701.19	1070.63
701.53	1066.18
701.86	1066.70
702.20	1070.94
702.54	1072.13
702.87	1074.40
703.21	1077.47
703.55	1080.81
703.88	1077.11
704.22	1075.59
704.55	1072.01
704.89	1072.41
705.23	1066.11
705.56	1066.91
705.90	1067.64
706.23	1067.82
706.57	1068.34
706.91	1070.30
707.24	1070.44
707.58	1070.05
707.91	1075.85
708.25	1073.32
708.58	1072.85
708.92	1075.34
709.26	1076.83
709.59	1074.00
709.93	1074.28
710.26	1078.52
710.60	1078.50
710.93	1080.09
711.27	1080.79
711.60	1081.21
711.94	1078.05
712.27	1077.00
712.61	1076.41
712.94	1075.15
713.28	1075.99
713.61	1076.48
713.95	1078.31
714.28	1072.90
714.62	1071.05
714.95	1068.48
715.29	1069.60
715.62	1068.99
715.96	1074.77
716.29	1076.27
716.63	1077.93
716.96	1075.94
717.29	1076.44
717.63	1073.51
717.96	1073.91
718.30	1075.76
718.63	1076.67
718.97	1074.63
719.30	1076.65
719.63	1078.99
719.97	1076.65
720.30	1077.70
720.64	1079.15
720.97	1079.57
721.30	1076.95
721.64	1076.90
721.97	1078.38
722.31	1079.20
722.64	1076.11
722.97	1076.72
723.31	1074.63
723.64	1071.85
723.97	1069.98
724.31	1070.61
724.64	1070.37
724.98	1073.67
725.31	1075.73
725.64	1076.37
725.98	1075.24
726.31	1075.62
726.64	1076.48
726.97	1076.51
727.31	1075.10
727.64	1075.45
727.97	1075.90
728.31	1075.66
728.64	1073.44
728.97	1072.50
729.31	1077.65
729.64	1077.40
729.97	1077.91
730.30	1079.88
730.64	1082.17
730.97	1077.30
731.30	1076.83
731.63	1078.12
731.97	1078.57
732.30	1078.73
732.63	1076.97
732.96	1077.23
733.30	1072.18
733.63	1070.91
733.96	1071.40
734.29	1075.41
734.63	1074.89
734.96	1077.18
735.29	1077.11
735.62	1078.26
735.95	1076.27
736.29	1078.45
736.62	1078.14
736.95	1077.09
737.28	1073.84
737.61	1073.95
737.94	1070.84
738.28	1069.39
738.61	1070.44
738.94	1072.64
739.27	1073.09
739.60	1073.60
739.93	1074.56
740.27	1078.19
740.60	1079.20
740.93	1081.23
741.26	1081.98
741.59	1082.85
741.92	1076.55
742.25	1074.98
742.58	1077.09
742.91	1077.25
743.25	1077.79
743.58	1080.84
743.91	1080.04
744.24	1077.11
744.57	1076.04
744.90	1075.29
745.23	1075.05
745.56	1074.56
745.89	1070.40
746.22	1071.19
746.55	1071.01
746.88	1071.85
747.21	1074.07
747.54	1077.16
747.87	1075.01
748.20	1073.46
748.53	1073.44
748.87	1071.40
749.20	1073.39
749.53	1073.49
749.86	1072.11
750.19	1070.77
750.52	1071.26
750.85	1070.68
751.18	1070.68
751.51	1072.64
751.84	1074.10
752.16	1075.55
752.49	1075.62
752.82	1077.75
753.15	1078.96
753.48	1079.34
753.81	1075.69
754.14	1077.86
754.47	1075.57
754.80	1075.45
755.13	1074.77
755.46	1077.30
755.79	1074.89
756.12	1080.25
756.45	1081.19
756.78	1079.97
757.11	1079.57
757.43	1081.16
757.76	1077.91
758.09	1075.71
758.42	1079.31
758.75	1078.85
759.08	1077.61
759.41	1077.18
759.74	1077.00
760.07	1072.46
760.39	1072.08
760.72	1072.36
761.05	1072.08
761.38	1073.39
761.71	1075.05
762.04	1075.24
762.36	1076.67
762.69	1077.21
763.02	1078.14
763.35	1079.81
763.68	1078.24
764.01	1074.70
764.33	1074.56
764.66	1070.84
764.99	1067.68
765.32	1071.08
765.65	1070.80
765.97	1069.58
766.30	1071.94
766.63	1072.11
766.96	1073.14
767.28	1074.70
767.61	1078.17
767.94	1077.70
768.27	1080.18
768.59	1076.72
768.92	1076.08
769.25	1075.15
769.58	1077.21
769.90	1076.27
770.23	1075.01
770.56	1075.57
770.89	1076.23
771.21	1074.89
771.54	1076.88
771.87	1078.14
772.19	1077.33
772.52	1077.49
772.85	1076.39
773.17	1072.18
773.50	1073.88
773.83	1073.77
774.15	1069.48
774.48	1068.41
774.81	1070.05
775.13	1069.16
775.46	1069.09
775.79	1072.25
776.11	1074.73
776.44	1074.24
776.77	1074.45
777.09	1078.10
777.42	1077.25
777.74	1076.20
778.07	1077.47
778.40	1079.76
778.72	1076.20
779.05	1075.52
779.37	1074.47
779.70	1074.05
780.03	1070.37
780.35	1073.25
780.68	1073.30
781.00	1074.14
781.33	1075.45
781.65	1075.03
781.98	1073.46
782.31	1075.83
782.63	1077.77
782.96	1078.66
783.28	1080.02
783.61	1078.89
783.93	1076.97
784.26	1074.70
784.58	1071.36
784.91	1072.36
785.23	1071.19
785.56	1071.54
785.88	1073.00
786.21	1075.71
786.53	1073.53
786.86	1078.07
787.18	1078.45
787.51	1076.60
787.83	1070.75
788.16	1069.74
788.48	1066.93
788.81	1064.34
789.13	1065.97
789.46	1069.95
789.78	1072.83
790.10	1073.58
790.43	1072.76
790.75	1076.83
791.08	1078.85
791.40	1076.86
791.73	1076.41
792.05	1081.82
792.37	1077.93
792.70	1075.08
793.02	1078.52
793.35	1077.51
793.67	1074.31
793.99	1075.15
794.32	1076.74
794.64	1074.35
794.96	1074.49
795.29	1075.36
795.61	1078.17
795.93	1076.39
796.26	1075.34
796.58	1074.63
796.91	1076.46
797.23	1072.39
797.55	1074.38
797.87	1075.52
798.20	1078.75
798.52	1077.25
798.84	1079.46
799.17	1079.76
799.49	1079.29
799.81	1077.77
800.14	1080.02
800.46	1078.57
800.78	1078.85
801.10	1080.77
801.43	1081.68
801.75	1079.36
802.07	1078.87
802.40	1076.44
802.72	1076.60
803.04	1078.85
803.36	1081.19
803.69	1082.87
804.01	1083.71
804.33	1083.04
804.65	1079.46
804.97	1077.98
805.30	1077.37
805.62	1078.45
805.94	1079.50
806.26	1081.58
806.58	1080.65
806.91	1080.09
807.23	1078.54
807.55	1075.62
807.87	1074.77
808.19	1074.59
808.52	1075.29
808.84	1074.96
809.16	1078.52
809.48	1080.30
809.80	1076.83
810.12	1073.56
810.44	1071.29
810.77	1066.68
811.09	1062.04
811.41	1065.32
811.73	1067.00
812.05	1069.86
812.37	1070.98
812.69	1073.67
813.01	1070.49
813.33	1070.00
813.66	1070.77
813.98	1072.18
814.30	1069.39
814.62	1072.11
814.94	1073.53
815.26	1072.88
815.58	1070.80
815.90	1070.94
816.22	1072.29
816.54	1071.68
816.86	1070.21
817.18	1074.17
817.50	1074.07
817.82	1074.54
818.14	1075.27
818.46	1076.32
818.78	1073.02
819.10	1076.69
819.42	1073.93
819.74	1073.18
820.06	1071.38
820.38	1071.90
820.70	1069.72
821.02	1070.84
821.34	1069.93
821.66	1069.41
821.98	1071.45
822.30	1071.47
822.62	1071.10
822.94	1072.43
823.26	1075.59
823.58	1072.50
823.90	1069.81
824.22	1070.40
824.54	1067.87
824.86	1066.39
825.18	1067.57
825.50	1070.40
825.81	1071.61
826.13	1073.14
826.45	1073.25
826.77	1072.90
827.09	1072.53
827.41	1070.09
827.73	1068.15
828.05	1070.94
828.36	1073.30
828.68	1075.69
829.00	1076.60
829.32	1079.03
829.64	1078.05
829.96	1077.58
830.28	1076.04
830.59	1071.15
830.91	1068.85
831.23	1070.02
831.55	1068.48
831.87	1069.86
832.19	1072.57
832.50	1077.68
832.82	1077.68
833.14	1080.91
833.46	1080.79
833.78	1087.44
834.09	1086.22
834.41	1082.71
834.73	1079.24
835.05	1078.68
835.36	1075.57
835.68	1072.88
836.00	1074.91
836.32	1074.66
836.63	1072.64
836.95	1072.67
837.27	1073.49
837.59	1072.36
837.90	1074.63
838.22	1071.99
838.54	1070.70
838.85	1071.26
839.17	1074.75
839.49	1072.46
839.80	1076.95
840.12	1077.54
840.44	1077.23
840.76	1073.95
841.07	1073.91
841.39	1073.04
841.71	1070.98
842.02	1072.27
842.34	1070.49
842.65	1070.87
842.97	1070.49
843.29	1072.50
843.60	1073.11
843.92	1075.94
844.24	1076.48
844.55	1074.26
844.87	1074.17
845.18	1073.39
845.50	1071.15
845.82	1071.80
846.13	1077.49
846.45	1074.70
846.76	1075.41
847.08	1075.17
847.40	1077.33
847.71	1072.27
848.03	1073.67
848.34	1070.65
848.66	1072.34
848.97	1070.33
849.29	1072.55
849.60	1072.97
849.92	1072.08
850.24	1074.84
850.55	1075.52
850.87	1075.17
851.18	1073.28
851.50	1077.04
851.81	1075.59
852.13	1075.45
852.44	1076.65
852.76	1079.81
853.07	1079.62
853.39	1077.09
853.70	1074.47
854.01	1073.42
854.33	1071.10
854.64	1070.68
854.96	1069.46
855.27	1071.19
855.59	1071.52
855.90	1074.42
856.22	1073.44
856.53	1077.63
856.84	1079.43
857.16	1080.09
857.47	1080.74
857.79	1082.64
858.10	1082.43
858.41	1080.30
858.73	1075.90
859.04	1075.97
859.36	1072.29
859.67	1067.82
859.98	1067.82
860.30	1071.33
860.61	1070.54
860.92	1074.49
861.24	1079.10
861.55	1081.35
861.87	1081.14
862.18	1081.16
862.49	1076.72
862.81	1075.48
863.12	1072.60
863.43	1068.76
863.74	1066.35
864.06	1070.89
864.37	1070.65
864.68	1069.62
865.00	1075.05
865.31	1078.40
865.62	1076.34
865.94	1076.34
866.25	1075.71
866.56	1072.15
866.87	1070.72
867.19	1071.08
867.50	1071.64
867.81	1075.45
868.12	1076.93
868.44	1078.82
868.75	1079.64
869.06	1079.57
869.37	1079.67
869.68	1081.73
870.00	1080.91
870.31	1081.12
870.62	1079.06
870.93	1075.34
871.24	1074.28
871.56	1072.62
871.87	1070.35
872.18	1074.03
872.49	1075.24
872.80	1075.62
873.12	1078.21
873.43	1080.34
873.74	1077.79
874.05	1078.43
874.36	1077.30
874.67	1073.46
874.98	1070.77
875.29	1070.49
875.61	1071.94
875.92	1072.06
876.23	1072.88
876.54	1076.41
876.85	1078.12
877.16	1076.86
877.47	1075.55
877.78	1074.68
878.09	1072.50
878.40	1071.50
878.72	1070.56
879.03	1074.52
879.34	1078.66
879.65	1076.95
879.96	1076.69
880.27	1077.89
880.58	1077.75
880.89	1074.52
881.20	1076.44
881.51	1076.58
881.82	1075.80
882.13	1071.54
882.44	1070.00
882.75	1070.23
883.06	1072.69
883.37	1073.74
883.68	1076.08
883.99	1075.03
884.30	1074.66
884.61	1073.42
884.92	1071.99
885.23	1070.12
885.54	1072.69
885.85	1074.96
886.16	1078.00
886.47	1079.55
886.78	1080.79
887.08	1083.90
887.39	1080.72
887.70	1077.04
888.01	1076.27
888.32	1072.55
888.63	1068.67
888.94	1068.31
889.25	1069.58
889.56	1068.36
889.87	1071.82
890.17	1075.13
890.48	1075.97
890.79	1074.05
891.10	1074.52
891.41	1074.24
891.72	1073.28
892.03	1074.89
892.34	1077.09
892.64	1079.57
892.95	1078.68
893.26	1079.76
893.57	1081.63
893.88	1079.46
894.18	1077.79
894.49	1082.99
894.80	1078.78
895.11	1073.70
895.42	1071.80
895.72	1069.41
896.03	1068.85
896.34	1071.99
896.65	1075.20
896.96	1079.13
897.26	1080.23
897.57	1075.85
897.88	1077.49
898.19	1076.55
898.49	1074.59
898.80	1075.94
899.11	1077.00
899.41	1071.64
899.72	1072.50
900.03	1073.63
900.34	1072.53
900.64	1072.46
900.95	1075.69
901.26	1073.63
901.56	1071.94
901.87	1073.98
902.18	1073.35
902.48	1071.05
902.79	1073.30
903.10	1072.71
903.40	1073.56
903.71	1074.75
904.02	1075.55
904.32	1073.37
904.63	1074.05
904.94	1074.31
905.24	1075.01
905.55	1077.33
905.85	1076.27
906.16	1077.56
906.47	1076.67
906.77	1077.28
907.08	1072.83
907.38	1071.99
907.69	1072.71
908.00	1075.62
908.30	1074.63
908.61	1078.59
908.91	1081.28
909.22	1077.98
909.52	1072.29
909.83	1070.00
910.14	1071.22
910.44	1069.86
910.75	1072.76
911.05	1073.88
911.36	1074.70
911.66	1072.55
911.97	1075.31
912.27	1075.15
912.58	1074.42
912.88	1075.57
913.19	1077.44
913.49	1077.30
913.80	1077.61
914.10	1079.81
914.41	1080.79
914.71	1079.27
915.01	1079.22
915.32	1077.56
915.62	1077.51
915.93	1078.31
916.23	1077.51
916.54	1076.72
916.84	1074.42
917.15	1074.75
917.45	1072.90
917.75	1072.95
918.06	1071.03
918.36	1073.25
918.67	1071.64
918.97	1072.29
919.27	1073.00
919.58	1075.27
919.88	1073.09
920.18	1071.97
920.49	1070.05
920.79	1071.64
921.10	1071.19
921.40	1075.10
921.70	1077.63
922.01	1076.37
922.31	1073.86
922.61	1075.22
922.92	1072.01
923.22	1074.26
923.52	1077.40
923.82	1076.81
924.13	1073.65
924.43	1075.17
924.73	1071.87
925.04	1069.58
925.34	1074.89
925.64	1079.17
925.94	1079.64
926.25	1081.23
926.55	1085.19
926.85	1080.81
927.15	1076.04
927.46	1075.59
927.76	1076.62
928.06	1073.84
928.36	1075.52
928.67	1077.98
928.97	1077.40
929.27	1077.14
929.57	1077.35
929.87	1075.62
930.18	1072.88
930.48	1073.14
930.78	1070.23
931.08	1069.41
931.38	1067.54
931.69	1068.95
931.99	1068.74
932.29	1070.42
932.59	1070.37
932.89	1072.04
933.19	1070.35
933.49	1072.97
933.80	1068.78
934.10	1073.14
934.40	1075.87
934.70	1080.11
935.00	1076.83
935.30	1081.49
935.60	1077.51
935.90	1077.02
936.20	1075.41
936.50	1075.15
936.81	1074.70
937.11	1075.80
937.41	1071.59
937.71	1071.99
938.01	1073.25
938.31	1072.69
938.61	1072.76
938.91	1075.22
939.21	1074.24
939.51	1076.06
939.81	1073.93
940.11	1073.53
940.41	1073.23
940.71	1073.11
941.01	1071.64
941.31	1075.48
941.61	1077.40
941.91	1080.02
942.21	1084.18
942.51	1085.61
942.81	1085.45
943.11	1083.55
943.41	1083.11
943.71	1079.46
944.01	1077.75
944.31	1073.93
944.61	1073.14
944.90	1072.64
945.20	1072.01
945.50	1073.39
945.80	1072.32
946.10	1071.36
946.40	1072.90
946.70	1074.73
947.00	1073.65
947.30	1074.73
947.60	1076.67
947.89	1073.18
948.19	1072.04
948.49	1073.21
948.79	1074.10
949.09	1070.63
949.39	1072.22
949.69	1071.38
949.98	1070.98
950.28	1072.04
950.58	1075.73
950.88	1077.40
951.18	1079.29
951.48	1080.13
951.77	1081.02
952.07	1080.65
952.37	1075.76
952.67	1071.78
952.97	1070.19
953.26	1070.35
953.56	1069.60
953.86	1072.55
954.16	1075.20
954.45	1074.70
954.75	1074.80
955.05	1077.16
955.35	1078.24
955.64	1079.38
955.94	1081.35
956.24	1081.05
956.54	1078.57
956.83	1073.21
957.13	1072.08
957.43	1070.80
957.72	1068.34
958.02	1070.02
958.32	1076.04
958.61	1077.30
958.91	1077.49
959.21	1077.54
959.50	1080.16
959.80	1081.49
960.10	1079.88
960.39	1080.23
960.69	1080.84
960.99	1078.75
961.28	1076.39
961.58	1078.47
961.87	1079.46
962.17	1082.52
962.47	1078.05
962.76	1076.60
963.06	1074.91
963.36	1072.88
963.65	1071.59
963.95	1072.62
964.24	1076.37
964.54	1073.09
964.83	1072.95
965.13	1071.61
965.42	1073.60
965.72	1066.91
966.02	1069.32
966.31	1070.94
966.61	1073.16
966.90	1070.80
967.20	1074.14
967.49	1075.99
967.79	1076.11
968.08	1075.94
968.38	1077.58
968.67	1079.48
968.97	1080.37
969.26	1080.65
969.56	1077.04
969.85	1078.17
970.15	1078.07
970.44	1075.52
970.74	1074.68
971.03	1077.93
971.32	1077.75
971.62	1075.73
971.91	1076.23
972.21	1077.18
972.50	1075.15
972.80	1072.50
973.09	1072.39
973.38	1071.08
973.68	1067.40
973.97	1067.00
974.27	1068.55
974.56	1069.58
974.85	1070.51
975.15	1070.33
975.44	1068.92
975.73	1070.87
976.03	1072.22
976.32	1074.28
976.61	1077.51
976.91	1081.54
977.20	1080.86
977.49	1078.38
977.79	1077.98
978.08	1079.13
978.37	1076.44
978.67	1073.86
978.96	1075.05
979.25	1074.26
979.55	1069.74
979.84	1068.90
980.13	1069.55
980.42	1069.81
980.72	1071.01
981.01	1072.22
981.30	1073.72
981.59	1075.24
981.89	1074.10
982.18	1073.74
982.47	1076.44
982.76	1075.10
983.06	1078.40
983.35	1075.92
983.64	1075.85
983.93	1074.87
984.22	1074.26
984.52	1070.02
984.81	1072.01
985.10	1074.77
985.39	1075.38
985.68	1079.92
985.97	1080.84
986.27	1081.09
986.56	1076.55
986.85	1073.60
987.14	1071.45
987.43	1073.00
987.72	1074.56
988.01	1072.62
988.31	1074.38
988.60	1076.41
988.89	1074.91
989.18	1074.70
989.47	1079.57
989.76	1081.56
990.05	1079.22
990.34	1078.36
990.63	1076.48
990.92	1074.28
991.21	1072.32
991.51	1074.75
991.80	1074.35
992.09	1074.80
992.38	1076.93
992.67	1076.04
992.96	1074.07
993.25	1073.39
993.54	1074.94
993.83	1070.33
994.12	1070.42
994.41	1067.92
994.70	1068.48
994.99	1070.44
995.28	1073.42
995.57	1074.38
995.86	1078.12
996.15	1078.96
996.44	1073.88
996.73	1072.29
997.02	1070.30
997.31	1067.03
997.59	1068.27
997.88	1070.42
998.17	1073.46
998.46	1073.98
998.75	1076.76
999.04	1077.47
999.33	1076.74
999.62	1076.08
999.91	1079.10
1000.20	1078.71
1000.49	1079.03
1000.77	1080.20
1001.06	1078.78
1001.35	1076.30
1001.64	1075.36
1001.93	1072.78
1002.22	1071.92
1002.51	1072.53
1002.79	1074.35
1003.08	1074.24
1003.37	1071.03
1003.66	1071.59
1003.95	1072.32
1004.23	1072.27
1004.52	1074.00
1004.81	1076.88
1005.10	1077.30
1005.39	1078.52
1005.67	1079.83
1005.96	1080.32
1006.25	1080.25
1006.54	1078.21
1006.83	1077.18
1007.11	1074.98
1007.40	1076.15
1007.69	1076.83
1007.97	1078.73
1008.26	1078.75
1008.55	1078.26
1008.84	1073.77
1009.12	1074.91
1009.41	1076.23
1009.70	1075.17
1009.98	1075.87
1010.27	1076.06
1010.56	1073.72
1010.85	1070.61
1011.13	1070.58
1011.42	1068.45
1011.71	1068.22
1011.99	1070.14
1012.28	1070.58
1012.56	1072.53
1012.85	1074.05
1013.14	1074.94
1013.42	1073.77
1013.71	1077.30
1014.00	1075.55
1014.28	1077.68
1014.57	1078.26
1014.85	1079.50
1015.14	1075.10
1015.43	1074.42
1015.71	1071.68
1016.00	1072.04
1016.28	1074.12
1016.57	1075.01
1016.85	1075.83
1017.14	1077.44
1017.43	1079.60
1017.71	1079.95
1018.00	1080.16
1018.28	1080.63
1018.57	1083.83
1018.85	1081.47
1019.14	1079.43
1019.42	1079.10
1019.71	1077.86
1019.99	1077.11
1020.28	1080.63
1020.56	1079.27
1020.85	1079.55
1021.13	1078.10
1021.42	1073.07
1021.70	1072.18
1021.99	1075.24
1022.27	1074.28
1022.55	1088.12
1022.84	1067.64
>>>>>End Processed Spectral Data<<<<<
