SpectraSuite Data File
++++++++++++++++++++++++++++++++++++
Date: Mon Aug 26 10:21:50 PDT 2019
User: corrico
Dark Spectrum Present: No
Reference Spectrum Present: No
Number of Sampled Component Spectra: 1
Spectrometers: USB2+H06089
Integration Time (usec): 2000 (USB2+H06089)
Spectra Averaged: 20 (USB2+H06089)
Boxcar Smoothing: 2 (USB2+H06089)
Correct for Electrical Dark: No (USB2+H06089)
Strobe/Lamp Enabled: No (USB2+H06089)
Correct for Detector Non-linearity: No (USB2+H06089)
Correct for Stray Light: No (USB2+H06089)
Number of Pixels in Processed Spectrum: 2048
>>>>>Begin Processed Spectral Data<<<<<
339.70	1011.70
340.07	1011.70
340.45	983.07
340.82	965.05
341.19	943.87
341.57	924.61
341.94	918.03
342.31	908.39
342.69	903.49
343.06	901.55
343.43	898.74
343.81	896.03
344.18	896.85
344.55	898.58
344.93	902.98
345.30	906.89
345.67	912.90
346.04	921.68
346.42	930.55
346.79	937.81
347.16	949.25
347.54	958.66
347.91	968.37
348.28	977.20
348.65	989.86
349.03	995.50
349.40	1006.24
349.77	1016.35
350.14	1024.83
350.52	1028.17
350.89	1038.24
351.26	1040.46
351.63	1046.83
352.01	1052.23
352.38	1056.35
352.75	1059.79
353.12	1065.39
353.50	1067.40
353.87	1069.23
354.24	1073.63
354.61	1073.39
354.98	1073.81
355.36	1074.14
355.73	1074.61
356.10	1078.50
356.47	1081.73
356.84	1086.10
357.22	1087.93
357.59	1088.58
357.96	1085.56
358.33	1084.56
358.70	1079.10
359.08	1078.24
359.45	1078.68
359.82	1080.46
360.19	1078.12
360.56	1081.70
360.94	1081.75
361.31	1079.78
361.68	1074.26
362.05	1072.39
362.42	1066.49
362.79	1063.89
363.16	1062.42
363.54	1066.89
363.91	1067.24
364.28	1070.54
364.65	1070.56
365.02	1070.51
365.39	1064.99
365.76	1062.60
366.14	1062.56
366.51	1061.60
366.88	1062.18
367.25	1062.23
367.62	1064.97
367.99	1062.18
368.36	1062.49
368.73	1061.48
369.10	1060.38
369.48	1059.89
369.85	1061.69
370.22	1059.44
370.59	1060.87
370.96	1064.17
371.33	1063.59
371.70	1063.56
372.07	1065.95
372.44	1069.55
372.81	1067.24
373.18	1068.71
373.55	1069.44
373.93	1069.60
374.30	1065.46
374.67	1067.61
375.04	1068.88
375.41	1068.03
375.78	1071.24
376.15	1072.85
376.52	1073.09
376.89	1072.41
377.26	1072.81
377.63	1068.64
378.00	1069.04
378.37	1067.85
378.74	1067.96
379.11	1068.55
379.48	1071.38
379.85	1069.34
380.22	1070.89
380.59	1071.33
380.96	1070.63
381.33	1066.47
381.70	1069.37
382.07	1068.55
382.44	1068.48
382.81	1072.55
383.18	1075.73
383.55	1075.24
383.92	1077.70
384.29	1076.55
384.66	1072.60
385.03	1073.25
385.40	1073.02
385.77	1074.87
386.14	1077.23
386.51	1079.67
386.88	1081.16
387.25	1080.58
387.62	1077.00
387.99	1075.55
388.36	1074.89
388.73	1072.78
389.10	1073.74
389.46	1076.34
389.83	1077.02
390.20	1077.04
390.57	1079.36
390.94	1076.90
391.31	1074.17
391.68	1075.45
392.05	1076.25
392.42	1079.29
392.79	1080.58
393.16	1082.78
393.53	1080.95
393.89	1078.24
394.26	1076.01
394.63	1075.69
395.00	1072.67
395.37	1072.29
395.74	1075.92
396.11	1072.11
396.48	1073.14
396.84	1077.77
397.21	1078.10
397.58	1078.40
397.95	1079.88
398.32	1082.12
398.69	1081.77
399.06	1084.37
399.42	1083.41
399.79	1083.48
400.16	1082.01
400.53	1079.97
400.90	1076.97
401.27	1074.61
401.64	1074.89
402.00	1074.33
402.37	1075.41
402.74	1076.88
403.11	1077.89
403.48	1078.31
403.84	1082.83
404.21	1082.12
404.58	1081.66
404.95	1081.09
405.32	1082.24
405.68	1078.33
406.05	1082.03
406.42	1085.73
406.79	1088.51
407.16	1088.84
407.52	1092.61
407.89	1090.36
408.26	1089.64
408.63	1092.54
408.99	1091.65
409.36	1085.75
409.73	1085.24
410.10	1083.79
410.47	1078.54
410.83	1079.64
411.20	1082.15
411.57	1081.61
411.94	1082.31
412.30	1084.18
412.67	1080.23
413.04	1079.92
413.40	1082.83
413.77	1083.01
414.14	1082.78
414.51	1086.99
414.87	1086.62
415.24	1085.49
415.61	1081.96
415.97	1081.42
416.34	1081.56
416.71	1083.04
417.08	1084.23
417.44	1085.94
417.81	1085.94
418.18	1085.63
418.54	1086.34
418.91	1084.79
419.28	1087.72
419.64	1091.70
420.01	1090.78
420.38	1090.57
420.74	1092.70
421.11	1094.74
421.48	1094.62
421.84	1093.05
422.21	1090.69
422.58	1092.98
422.94	1091.49
423.31	1091.20
423.68	1096.21
424.04	1104.94
424.41	1103.35
424.77	1105.83
425.14	1104.80
425.51	1105.67
425.87	1102.63
426.24	1106.65
426.61	1107.89
426.97	1115.22
427.34	1120.30
427.70	1125.59
428.07	1125.59
428.44	1129.99
428.80	1131.74
429.17	1132.23
429.53	1133.47
429.90	1140.82
430.27	1142.84
430.63	1147.00
431.00	1152.81
431.36	1159.20
431.73	1158.03
432.09	1163.57
432.46	1169.66
432.83	1175.58
433.19	1180.52
433.56	1192.01
433.92	1199.45
434.29	1205.28
434.65	1216.31
435.02	1224.94
435.38	1233.11
435.75	1242.54
436.11	1256.54
436.48	1266.25
436.84	1282.92
437.21	1299.54
437.57	1317.18
437.94	1333.01
438.30	1352.62
438.67	1367.55
439.03	1385.83
439.40	1406.62
439.76	1431.85
440.13	1453.82
440.49	1481.33
440.86	1507.45
441.22	1538.93
441.59	1567.13
441.95	1601.11
442.32	1634.75
442.68	1673.83
443.05	1711.80
443.41	1753.69
443.78	1795.68
444.14	1846.38
444.51	1891.69
444.87	1945.50
445.24	1998.07
445.60	2058.34
445.96	2114.11
446.33	2182.32
446.69	2246.91
447.06	2325.74
447.42	2401.27
447.79	2479.61
448.15	2561.72
448.51	2650.19
448.88	2748.16
449.24	2845.53
449.61	2959.00
449.97	3074.88
450.33	3196.26
450.70	3305.02
451.06	3438.62
451.43	3570.37
451.79	3728.68
452.15	3890.88
452.52	4072.44
452.88	4259.07
453.24	4459.26
453.61	4676.44
453.97	4892.47
454.34	5101.03
454.70	5342.18
455.06	5587.84
455.43	5823.44
455.79	6061.17
456.15	6344.14
456.52	6616.48
456.88	6935.69
457.24	7255.15
457.61	7602.90
457.97	7930.53
458.33	8265.91
458.70	8605.71
459.06	8933.50
459.42	9330.03
459.79	9694.38
460.15	10099.95
460.51	10455.83
460.88	10865.66
461.24	11186.64
461.60	11573.69
461.96	11923.06
462.33	12273.00
462.69	12563.15
463.05	12921.75
463.42	13255.55
463.78	13567.95
464.14	13866.34
464.50	14183.69
464.87	14399.35
465.23	14579.50
465.59	14774.07
465.95	14933.27
466.32	15069.98
466.68	15192.39
467.04	15236.84
467.40	15241.31
467.77	15268.30
468.13	15244.28
468.49	15249.64
468.85	15250.21
469.22	15231.13
469.58	15129.76
469.94	15054.04
470.30	14900.32
470.66	14750.52
471.03	14520.31
471.39	14374.03
471.75	14139.81
472.11	13929.89
472.47	13773.75
472.84	13647.55
473.20	13424.38
473.56	13279.05
473.92	13065.53
474.28	12821.55
474.65	12595.57
475.01	12405.35
475.37	12168.14
475.73	11957.49
476.09	11732.24
476.45	11500.78
476.81	11267.25
477.18	11050.84
477.54	10871.39
477.90	10725.62
478.26	10560.80
478.62	10419.46
478.98	10285.37
479.34	10159.96
479.71	10005.72
480.07	9869.13
480.43	9742.20
480.79	9621.22
481.15	9514.54
481.51	9403.29
481.87	9284.74
482.23	9138.22
482.59	8988.78
482.96	8812.02
483.32	8659.87
483.68	8523.44
484.04	8396.09
484.40	8264.15
484.76	8153.30
485.12	8024.71
485.48	7903.54
485.84	7766.93
486.20	7609.76
486.56	7433.17
486.92	7284.47
487.28	7115.67
487.64	6956.84
488.00	6820.39
488.37	6702.17
488.73	6559.12
489.09	6400.43
489.45	6255.78
489.81	6108.14
490.17	5958.47
490.53	5825.73
490.89	5699.72
491.25	5584.82
491.61	5464.73
491.97	5346.49
492.33	5215.49
492.69	5098.69
493.05	4958.78
493.41	4835.01
493.77	4719.83
494.13	4617.53
494.49	4512.83
494.85	4414.51
495.21	4311.81
495.57	4207.58
495.93	4099.12
496.29	3993.66
496.64	3899.10
497.00	3820.60
497.36	3741.35
497.72	3669.02
498.08	3602.41
498.44	3538.77
498.80	3471.74
499.16	3404.71
499.52	3328.12
499.88	3259.27
500.24	3196.19
500.60	3126.07
500.96	3065.73
501.32	3011.52
501.68	2956.31
502.03	2898.05
502.39	2841.11
502.75	2782.34
503.11	2729.74
503.47	2678.91
503.83	2623.01
504.19	2575.57
504.55	2525.98
504.91	2480.57
505.26	2444.27
505.62	2413.49
505.98	2373.91
506.34	2332.53
506.70	2292.60
507.06	2251.74
507.42	2207.15
507.78	2164.62
508.13	2132.74
508.49	2091.85
508.85	2056.49
509.21	2025.43
509.57	1999.45
509.93	1970.12
510.28	1947.58
510.64	1919.89
511.00	1893.61
511.36	1863.49
511.72	1835.52
512.07	1804.55
512.43	1774.15
512.79	1747.91
513.15	1725.89
513.51	1704.38
513.86	1682.94
514.22	1665.27
514.58	1648.86
514.94	1632.48
515.30	1614.41
515.65	1599.19
516.01	1590.75
516.37	1572.61
516.73	1557.11
517.08	1546.42
517.44	1533.54
517.80	1514.96
518.16	1501.92
518.51	1490.50
518.87	1474.26
519.23	1464.10
519.59	1453.29
519.94	1443.85
520.30	1431.68
520.66	1419.35
521.01	1407.79
521.37	1397.35
521.73	1386.98
522.09	1379.61
522.44	1374.39
522.80	1365.40
523.16	1356.76
523.51	1347.70
523.87	1336.98
524.23	1325.61
524.58	1316.22
524.94	1308.59
525.30	1300.47
525.65	1294.55
526.01	1289.99
526.37	1283.92
526.72	1278.94
527.08	1274.70
527.44	1269.11
527.79	1260.64
528.15	1255.11
528.51	1248.18
528.86	1243.95
529.22	1237.11
529.58	1233.60
529.93	1228.87
530.29	1221.48
530.65	1213.76
531.00	1209.57
531.36	1208.70
531.71	1206.64
532.07	1206.10
532.43	1206.22
532.78	1199.71
533.14	1192.81
533.49	1189.81
533.85	1186.00
534.21	1176.47
534.56	1180.12
534.92	1179.04
535.27	1175.21
535.63	1170.92
535.98	1172.07
536.34	1166.08
536.69	1161.37
537.05	1156.04
537.41	1153.72
537.76	1150.07
538.12	1145.41
538.47	1143.84
538.83	1143.70
539.18	1141.99
539.54	1140.29
539.89	1140.36
540.25	1140.12
540.60	1137.31
540.96	1135.02
541.31	1138.02
541.67	1135.67
542.02	1134.11
542.38	1133.43
542.73	1136.56
543.09	1134.62
543.44	1136.24
543.80	1132.94
544.15	1133.57
544.51	1128.35
544.86	1123.39
545.22	1123.48
545.57	1124.84
545.93	1123.18
546.28	1120.72
546.64	1118.24
546.99	1113.51
547.35	1108.85
547.70	1103.73
548.05	1103.87
548.41	1104.03
548.76	1104.26
549.12	1106.35
549.47	1107.33
549.83	1107.75
550.18	1108.62
550.53	1108.15
550.89	1106.63
551.24	1107.64
551.60	1108.59
551.95	1107.10
552.30	1104.50
552.66	1103.82
553.01	1103.07
553.37	1099.28
553.72	1099.35
554.07	1101.08
554.43	1101.57
554.78	1100.99
555.13	1103.45
555.49	1103.80
555.84	1105.22
556.19	1103.28
556.55	1099.40
556.90	1094.93
557.26	1091.63
557.61	1087.27
557.96	1088.02
558.32	1090.69
558.67	1093.17
559.02	1096.28
559.37	1096.78
559.73	1095.00
560.08	1093.33
560.43	1094.46
560.79	1092.00
561.14	1093.29
561.49	1093.01
561.85	1093.62
562.20	1091.53
562.55	1091.13
562.90	1089.54
563.26	1090.36
563.61	1088.26
563.96	1086.76
564.32	1089.19
564.67	1089.61
565.02	1087.06
565.37	1088.56
565.73	1089.05
566.08	1088.65
566.43	1087.18
566.78	1090.15
567.14	1091.77
567.49	1091.95
567.84	1091.16
568.19	1089.66
568.54	1088.23
568.90	1087.09
569.25	1087.13
569.60	1082.24
569.95	1082.73
570.31	1083.50
570.66	1082.61
571.01	1083.01
571.36	1084.63
571.71	1086.10
572.06	1086.29
572.42	1085.42
572.77	1082.52
573.12	1082.85
573.47	1082.38
573.82	1079.88
574.18	1083.81
574.53	1083.64
574.88	1085.00
575.23	1083.79
575.58	1083.60
575.93	1080.09
576.28	1080.53
576.64	1081.40
576.99	1080.34
577.34	1079.48
577.69	1080.44
578.04	1081.47
578.39	1078.78
578.74	1080.34
579.09	1083.88
579.44	1086.73
579.80	1087.67
580.15	1089.73
580.50	1091.13
580.85	1087.04
581.20	1083.18
581.55	1085.26
581.90	1085.45
582.25	1084.74
582.60	1087.32
582.95	1084.93
583.30	1078.57
583.65	1077.51
584.00	1077.11
584.35	1077.70
584.71	1079.29
585.06	1082.57
585.41	1081.33
585.76	1080.53
586.11	1077.33
586.46	1077.58
586.81	1077.49
587.16	1080.02
587.51	1081.02
587.86	1084.53
588.21	1083.79
588.56	1082.29
588.91	1081.00
589.26	1079.97
589.61	1077.82
589.96	1080.44
590.31	1081.68
590.66	1080.65
591.01	1084.58
591.36	1083.39
591.71	1082.40
592.06	1082.15
592.41	1081.80
592.76	1077.82
593.10	1078.31
593.45	1077.61
593.80	1076.69
594.15	1079.69
594.50	1076.76
594.85	1079.53
595.20	1079.90
595.55	1078.17
595.90	1075.17
596.25	1077.91
596.60	1075.62
596.95	1076.20
597.30	1083.36
597.64	1093.47
597.99	1095.93
598.34	1093.80
598.69	1093.22
599.04	1086.85
599.39	1079.20
599.74	1074.96
600.09	1077.49
600.44	1076.53
600.78	1078.47
601.13	1078.19
601.48	1080.58
601.83	1079.92
602.18	1082.54
602.53	1080.02
602.88	1080.02
603.22	1079.74
603.57	1078.36
603.92	1076.34
604.27	1077.47
604.62	1075.66
604.97	1074.05
605.31	1077.42
605.66	1077.18
606.01	1080.86
606.36	1081.02
606.71	1085.31
607.05	1081.73
607.40	1083.11
607.75	1082.90
608.10	1084.42
608.44	1081.82
608.79	1082.52
609.14	1085.14
609.49	1082.22
609.84	1082.45
610.18	1081.80
610.53	1082.47
610.88	1078.40
611.23	1079.55
611.57	1080.48
611.92	1080.70
612.27	1080.34
612.62	1081.26
612.96	1079.34
613.31	1077.68
613.66	1075.80
614.00	1077.02
614.35	1073.44
614.70	1075.87
615.05	1074.07
615.39	1078.64
615.74	1077.56
616.09	1080.06
616.43	1081.63
616.78	1082.85
617.13	1081.70
617.47	1082.90
617.82	1085.38
618.17	1082.76
618.51	1081.84
618.86	1078.80
619.21	1077.86
619.55	1076.65
619.90	1076.67
620.25	1076.18
620.59	1075.85
620.94	1076.76
621.29	1073.58
621.63	1074.98
621.98	1075.90
622.32	1078.94
622.67	1076.69
623.02	1078.31
623.36	1078.92
623.71	1077.61
624.05	1076.11
624.40	1079.27
624.75	1077.11
625.09	1074.82
625.44	1077.09
625.78	1075.05
626.13	1071.90
626.48	1072.43
626.82	1070.89
627.17	1068.15
627.51	1070.68
627.86	1075.34
628.20	1077.09
628.55	1078.50
628.89	1081.35
629.24	1079.34
629.58	1077.54
629.93	1079.27
630.28	1081.82
630.62	1080.04
630.97	1082.08
631.31	1081.84
631.66	1081.98
632.00	1081.89
632.35	1081.19
632.69	1081.75
633.04	1080.86
633.38	1078.80
633.73	1075.66
634.07	1077.18
634.42	1075.78
634.76	1075.08
635.11	1076.34
635.45	1078.68
635.79	1077.16
636.14	1079.29
636.48	1079.38
636.83	1080.04
637.17	1079.06
637.52	1078.50
637.86	1079.50
638.21	1078.71
638.55	1077.89
638.89	1077.25
639.24	1080.25
639.58	1075.94
639.93	1073.51
640.27	1071.33
640.61	1071.05
640.96	1070.19
641.30	1072.60
641.65	1073.63
641.99	1077.56
642.33	1079.55
642.68	1081.80
643.02	1083.13
643.37	1084.60
643.71	1085.99
644.05	1083.86
644.40	1079.36
644.74	1076.67
645.08	1077.98
645.43	1071.92
645.77	1068.76
646.11	1072.69
646.46	1076.30
646.80	1076.20
647.14	1079.43
647.49	1084.00
647.83	1083.32
648.17	1081.12
648.52	1083.41
648.86	1082.26
649.20	1082.22
649.55	1079.48
649.89	1079.48
650.23	1078.61
650.57	1075.64
650.92	1074.84
651.26	1075.17
651.60	1074.24
651.95	1070.33
652.29	1073.60
652.63	1073.07
652.97	1074.19
653.32	1072.95
653.66	1077.18
654.00	1076.97
654.34	1079.62
654.69	1079.83
655.03	1084.35
655.37	1083.20
655.71	1080.79
656.05	1079.46
656.40	1079.13
656.74	1077.72
657.08	1077.02
657.42	1082.80
657.76	1081.26
658.11	1082.15
658.45	1080.53
658.79	1082.01
659.13	1079.22
659.47	1077.00
659.82	1076.11
660.16	1081.05
660.50	1077.98
660.84	1076.76
661.18	1080.30
661.52	1077.89
661.87	1073.95
662.21	1077.02
662.55	1079.69
662.89	1076.79
663.23	1079.01
663.57	1079.50
663.91	1076.27
664.25	1076.37
664.60	1075.13
664.94	1073.44
665.28	1071.10
665.62	1073.51
665.96	1069.30
666.30	1073.09
666.64	1072.29
666.98	1073.88
667.32	1077.72
667.66	1080.95
668.01	1079.57
668.35	1083.95
668.69	1085.21
669.03	1080.32
669.37	1079.17
669.71	1079.46
670.05	1078.12
670.39	1074.73
670.73	1073.49
671.07	1073.98
671.41	1074.24
671.75	1073.16
672.09	1074.42
672.43	1077.96
672.77	1077.96
673.11	1078.28
673.45	1078.78
673.79	1075.62
674.13	1072.15
674.47	1072.60
674.81	1073.35
675.15	1073.56
675.49	1077.56
675.83	1080.63
676.17	1081.33
676.51	1082.94
676.85	1082.01
677.19	1081.66
677.53	1077.47
677.87	1076.34
678.21	1075.52
678.55	1077.44
678.89	1074.63
679.23	1076.44
679.57	1074.91
679.90	1077.96
680.24	1076.18
680.58	1079.22
680.92	1081.16
681.26	1082.15
681.60	1075.41
681.94	1072.97
682.28	1069.34
682.62	1070.14
682.96	1072.92
683.29	1076.97
683.63	1082.15
683.97	1084.14
684.31	1082.90
684.65	1079.43
684.99	1077.61
685.33	1076.48
685.67	1076.37
686.00	1076.39
686.34	1076.95
686.68	1076.04
687.02	1073.95
687.36	1074.94
687.70	1073.53
688.03	1072.92
688.37	1072.32
688.71	1074.56
689.05	1075.64
689.39	1074.14
689.72	1073.42
690.06	1075.05
690.40	1073.67
690.74	1070.58
691.08	1074.05
691.41	1077.11
691.75	1078.31
692.09	1078.59
692.43	1080.60
692.76	1079.76
693.10	1077.96
693.44	1077.40
693.78	1077.28
694.11	1078.99
694.45	1079.10
694.79	1081.40
695.13	1078.82
695.46	1078.66
695.80	1079.22
696.14	1078.78
696.48	1076.37
696.81	1078.96
697.15	1080.46
697.49	1078.87
697.82	1075.62
698.16	1078.31
698.50	1076.60
698.83	1078.43
699.17	1080.46
699.51	1084.91
699.84	1082.64
700.18	1083.88
700.52	1080.48
700.85	1073.88
701.19	1071.12
701.53	1073.04
701.86	1072.55
702.20	1074.87
702.54	1076.88
702.87	1076.90
703.21	1075.43
703.55	1074.70
703.88	1072.78
704.22	1072.43
704.55	1076.37
704.89	1074.66
705.23	1076.08
705.56	1080.60
705.90	1085.70
706.23	1081.49
706.57	1082.36
706.91	1082.12
707.24	1079.50
707.58	1077.54
707.91	1077.49
708.25	1077.04
708.58	1077.49
708.92	1076.15
709.26	1076.81
709.59	1078.75
709.93	1078.82
710.26	1079.13
710.60	1078.68
710.93	1079.83
711.27	1082.50
711.60	1080.88
711.94	1080.02
712.27	1078.85
712.61	1076.74
712.94	1072.81
713.28	1072.67
713.61	1070.14
713.95	1069.41
714.28	1070.82
714.62	1067.99
714.95	1068.88
715.29	1073.09
715.62	1074.84
715.96	1072.69
716.29	1078.54
716.63	1076.30
716.96	1073.09
717.29	1075.57
717.63	1075.57
717.96	1072.25
718.30	1074.77
718.63	1077.16
718.97	1073.81
719.30	1074.45
719.63	1075.22
719.97	1074.03
720.30	1071.99
720.64	1074.21
720.97	1071.66
721.30	1071.92
721.64	1074.42
721.97	1075.87
722.31	1073.53
722.64	1074.28
722.97	1076.74
723.31	1075.85
723.64	1078.14
723.97	1077.14
724.31	1078.71
724.64	1077.84
724.98	1079.24
725.31	1077.11
725.64	1078.00
725.98	1077.37
726.31	1076.34
726.64	1075.85
726.97	1078.59
727.31	1080.18
727.64	1078.36
727.97	1076.65
728.31	1076.55
728.64	1071.78
728.97	1071.59
729.31	1072.11
729.64	1073.32
729.97	1074.61
730.30	1076.30
730.64	1077.23
730.97	1080.34
731.30	1082.97
731.63	1082.29
731.97	1083.46
732.30	1080.91
732.63	1076.13
732.96	1075.62
733.30	1073.09
733.63	1070.87
733.96	1072.08
734.29	1076.62
734.63	1075.13
734.96	1077.28
735.29	1077.44
735.62	1076.13
735.95	1076.95
736.29	1078.14
736.62	1076.15
736.95	1074.33
737.28	1073.60
737.61	1072.06
737.94	1070.96
738.28	1074.03
738.61	1077.82
738.94	1076.95
739.27	1075.08
739.60	1074.77
739.93	1075.20
740.27	1075.92
740.60	1078.78
740.93	1082.38
741.26	1085.73
741.59	1085.24
741.92	1083.11
742.25	1081.44
742.58	1079.99
742.91	1076.30
743.25	1073.98
743.58	1074.33
743.91	1074.82
744.24	1074.00
744.57	1075.05
744.90	1073.74
745.23	1073.88
745.56	1076.58
745.89	1076.39
746.22	1076.83
746.55	1078.38
746.88	1078.92
747.21	1076.32
747.54	1077.00
747.87	1075.41
748.20	1075.55
748.53	1076.01
748.87	1078.82
749.20	1075.92
749.53	1075.55
749.86	1076.72
750.19	1075.87
750.52	1075.87
750.85	1078.61
751.18	1078.78
751.51	1076.97
751.84	1077.00
752.16	1077.11
752.49	1074.96
752.82	1074.10
753.15	1074.03
753.48	1074.17
753.81	1073.23
754.14	1078.03
754.47	1078.61
754.80	1079.03
755.13	1074.75
755.46	1074.40
755.79	1070.65
756.12	1069.58
756.45	1071.05
756.78	1076.23
757.11	1074.59
757.43	1075.27
757.76	1076.01
758.09	1076.20
758.42	1070.80
758.75	1073.35
759.08	1073.04
759.41	1072.81
759.74	1069.93
760.07	1074.66
760.39	1074.80
760.72	1072.81
761.05	1075.15
761.38	1077.33
761.71	1077.16
762.04	1075.85
762.36	1079.22
762.69	1078.03
763.02	1078.82
763.35	1078.21
763.68	1078.31
764.01	1077.75
764.33	1077.00
764.66	1076.30
764.99	1076.53
765.32	1077.58
765.65	1078.61
765.97	1076.53
766.30	1074.07
766.63	1073.81
766.96	1074.54
767.28	1072.81
767.61	1075.52
767.94	1074.87
768.27	1075.90
768.59	1073.16
768.92	1072.83
769.25	1075.57
769.58	1077.96
769.90	1076.69
770.23	1077.35
770.56	1078.54
770.89	1073.07
771.21	1072.34
771.54	1070.30
771.87	1071.59
772.19	1071.24
772.52	1074.84
772.85	1077.37
773.17	1076.81
773.50	1078.31
773.83	1077.91
774.15	1078.80
774.48	1077.11
774.81	1078.33
775.13	1074.47
775.46	1072.01
775.79	1069.98
776.11	1070.68
776.44	1073.35
776.77	1073.77
777.09	1078.64
777.42	1077.82
777.74	1076.72
778.07	1073.63
778.40	1075.01
778.72	1070.12
779.05	1071.66
779.37	1072.34
779.70	1073.37
780.03	1072.55
780.35	1074.42
780.68	1073.07
781.00	1073.30
781.33	1073.39
781.65	1071.26
781.98	1071.80
782.31	1071.31
782.63	1073.51
782.96	1073.32
783.28	1073.60
783.61	1073.49
783.93	1076.18
784.26	1072.41
784.58	1071.97
784.91	1071.73
785.23	1071.52
785.56	1071.15
785.88	1071.80
786.21	1072.67
786.53	1075.83
786.86	1075.64
787.18	1074.35
787.51	1074.07
787.83	1070.47
788.16	1069.58
788.48	1071.78
788.81	1072.74
789.13	1071.61
789.46	1074.21
789.78	1073.65
790.10	1070.65
790.43	1071.40
790.75	1073.56
791.08	1072.64
791.40	1071.54
791.73	1070.56
792.05	1068.55
792.37	1066.37
792.70	1068.31
793.02	1072.25
793.35	1072.34
793.67	1071.94
793.99	1071.92
794.32	1074.14
794.64	1075.45
794.96	1076.08
795.29	1077.40
795.61	1080.65
795.93	1078.89
796.26	1076.04
796.58	1079.01
796.91	1079.29
797.23	1076.32
797.55	1072.64
797.87	1071.12
798.20	1070.40
798.52	1070.77
798.84	1074.05
799.17	1078.85
799.49	1078.89
799.81	1077.14
800.14	1075.69
800.46	1077.11
800.78	1075.22
801.10	1076.48
801.43	1077.91
801.75	1078.64
802.07	1079.46
802.40	1080.32
802.72	1080.67
803.04	1078.87
803.36	1079.78
803.69	1076.97
804.01	1075.94
804.33	1075.57
804.65	1077.47
804.97	1074.96
805.30	1074.82
805.62	1075.78
805.94	1075.83
806.26	1074.14
806.58	1076.81
806.91	1076.01
807.23	1074.94
807.55	1077.16
807.87	1080.74
808.19	1079.60
808.52	1082.47
808.84	1082.69
809.16	1079.38
809.48	1075.92
809.80	1074.80
810.12	1073.07
810.44	1075.08
810.77	1077.84
811.09	1078.40
811.41	1078.03
811.73	1077.58
812.05	1075.71
812.37	1074.12
812.69	1074.82
813.01	1072.74
813.33	1069.37
813.66	1069.46
813.98	1071.10
814.30	1069.46
814.62	1072.64
814.94	1074.70
815.26	1074.59
815.58	1071.03
815.90	1073.60
816.22	1075.31
816.54	1075.17
816.86	1076.58
817.18	1076.83
817.50	1079.27
817.82	1073.86
818.14	1079.46
818.46	1080.32
818.78	1080.20
819.10	1077.33
819.42	1082.73
819.74	1079.83
820.06	1077.91
820.38	1079.60
820.70	1078.21
821.02	1076.86
821.34	1074.96
821.66	1074.87
821.98	1070.42
822.30	1070.30
822.62	1072.53
822.94	1072.41
823.26	1074.17
823.58	1073.84
823.90	1073.04
824.22	1069.74
824.54	1070.68
824.86	1066.82
825.18	1070.80
825.50	1070.49
825.81	1071.78
826.13	1070.00
826.45	1073.04
826.77	1073.58
827.09	1077.77
827.41	1075.76
827.73	1076.32
828.05	1077.79
828.36	1076.86
828.68	1074.73
829.00	1076.60
829.32	1076.04
829.64	1074.94
829.96	1074.10
830.28	1071.78
830.59	1072.53
830.91	1072.11
831.23	1071.29
831.55	1073.07
831.87	1074.05
832.19	1075.24
832.50	1075.69
832.82	1075.34
833.14	1072.62
833.46	1073.74
833.78	1070.05
834.09	1070.33
834.41	1069.18
834.73	1071.17
835.05	1071.24
835.36	1070.26
835.68	1070.82
836.00	1073.67
836.32	1074.82
836.63	1074.89
836.95	1077.49
837.27	1074.75
837.59	1073.39
837.90	1072.43
838.22	1072.46
838.54	1072.62
838.85	1075.36
839.17	1077.28
839.49	1078.31
839.80	1079.03
840.12	1076.81
840.44	1076.32
840.76	1074.14
841.07	1072.97
841.39	1075.48
841.71	1075.52
842.02	1075.90
842.34	1074.03
842.65	1076.30
842.97	1072.22
843.29	1073.86
843.60	1074.40
843.92	1076.20
844.24	1072.74
844.55	1072.76
844.87	1070.12
845.18	1068.15
845.50	1066.82
845.82	1065.51
846.13	1063.56
846.45	1065.20
846.76	1067.17
847.08	1068.71
847.40	1071.59
847.71	1076.74
848.03	1076.44
848.34	1076.20
848.66	1076.30
848.97	1077.44
849.29	1077.11
849.60	1079.78
849.92	1079.36
850.24	1080.37
850.55	1080.25
850.87	1080.46
851.18	1077.61
851.50	1076.79
851.81	1074.87
852.13	1074.45
852.44	1075.20
852.76	1078.19
853.07	1077.58
853.39	1077.84
853.70	1073.56
854.01	1072.34
854.33	1070.47
854.64	1070.30
854.96	1073.58
855.27	1077.84
855.59	1076.11
855.90	1074.77
856.22	1073.56
856.53	1072.88
856.84	1070.89
857.16	1070.35
857.47	1068.76
857.79	1070.89
858.10	1068.20
858.41	1070.14
858.73	1070.77
859.04	1073.60
859.36	1073.32
859.67	1073.00
859.98	1072.97
860.30	1073.18
860.61	1075.57
860.92	1077.68
861.24	1079.95
861.55	1076.90
861.87	1074.82
862.18	1076.18
862.49	1076.51
862.81	1078.38
863.12	1082.36
863.43	1085.59
863.74	1083.64
864.06	1080.30
864.37	1076.60
864.68	1073.81
865.00	1072.13
865.31	1067.14
865.62	1066.77
865.94	1065.15
866.25	1064.38
866.56	1063.05
866.87	1068.55
867.19	1069.37
867.50	1069.79
867.81	1073.86
868.12	1075.57
868.44	1073.14
868.75	1077.89
869.06	1078.82
869.37	1075.97
869.68	1074.03
870.00	1074.73
870.31	1071.33
870.62	1073.81
870.93	1077.25
871.24	1078.36
871.56	1078.99
871.87	1078.85
872.18	1078.75
872.49	1075.64
872.80	1076.55
873.12	1077.30
873.43	1078.36
873.74	1076.13
874.05	1077.14
874.36	1077.54
874.67	1073.74
874.98	1071.97
875.29	1072.11
875.61	1070.19
875.92	1068.74
876.23	1067.73
876.54	1070.09
876.85	1068.69
877.16	1073.30
877.47	1071.59
877.78	1075.43
878.09	1074.80
878.40	1077.47
878.72	1075.66
879.03	1078.10
879.34	1077.02
879.65	1076.72
879.96	1074.61
880.27	1070.56
880.58	1071.66
880.89	1072.34
881.20	1069.58
881.51	1071.61
881.82	1074.61
882.13	1076.37
882.44	1077.40
882.75	1080.32
883.06	1078.99
883.37	1077.49
883.68	1072.62
883.99	1070.70
884.30	1071.12
884.61	1070.63
884.92	1070.84
885.23	1071.19
885.54	1071.68
885.85	1071.08
886.16	1068.01
886.47	1069.44
886.78	1069.55
887.08	1071.26
887.39	1072.50
887.70	1076.25
888.01	1077.04
888.32	1081.73
888.63	1078.43
888.94	1079.06
889.25	1076.86
889.56	1073.70
889.87	1070.49
890.17	1075.41
890.48	1071.17
890.79	1074.24
891.10	1075.27
891.41	1074.70
891.72	1073.16
892.03	1073.95
892.34	1074.14
892.64	1072.15
892.95	1071.68
893.26	1070.68
893.57	1072.76
893.88	1073.09
894.18	1077.91
894.49	1079.31
894.80	1078.68
895.11	1078.14
895.42	1077.02
895.72	1075.48
896.03	1077.28
896.34	1078.54
896.65	1078.36
896.96	1078.38
897.26	1075.92
897.57	1074.77
897.88	1071.68
898.19	1072.71
898.49	1071.52
898.80	1072.81
899.11	1069.60
899.41	1069.51
899.72	1068.24
900.03	1068.31
900.34	1067.26
900.64	1068.24
900.95	1068.78
901.26	1068.38
901.56	1071.24
901.87	1071.82
902.18	1075.10
902.48	1078.47
902.79	1078.75
903.10	1077.61
903.40	1077.56
903.71	1075.13
904.02	1075.76
904.32	1077.47
904.63	1075.10
904.94	1074.31
905.24	1077.09
905.55	1076.79
905.85	1073.84
906.16	1073.84
906.47	1075.69
906.77	1072.85
907.08	1070.05
907.38	1072.78
907.69	1073.28
908.00	1072.43
908.30	1071.57
908.61	1073.56
908.91	1071.36
909.22	1072.50
909.52	1072.74
909.83	1071.24
910.14	1069.32
910.44	1068.74
910.75	1069.53
911.05	1069.39
911.36	1071.99
911.66	1076.32
911.97	1077.09
912.27	1075.92
912.58	1074.89
912.88	1075.17
913.19	1071.66
913.49	1070.56
913.80	1069.51
914.10	1071.26
914.41	1071.73
914.71	1071.10
915.01	1071.03
915.32	1073.35
915.62	1074.94
915.93	1074.89
916.23	1074.96
916.54	1077.28
916.84	1075.80
917.15	1075.80
917.45	1075.20
917.75	1076.39
918.06	1077.14
918.36	1077.93
918.67	1077.47
918.97	1078.45
919.27	1075.24
919.58	1075.43
919.88	1075.90
920.18	1075.50
920.49	1072.57
920.79	1073.91
921.10	1073.09
921.40	1072.13
921.70	1071.33
922.01	1071.68
922.31	1073.25
922.61	1075.01
922.92	1075.90
923.22	1077.72
923.52	1078.05
923.82	1079.69
924.13	1077.16
924.43	1076.67
924.73	1075.24
925.04	1078.31
925.34	1077.42
925.64	1076.79
925.94	1077.70
926.25	1079.34
926.55	1076.23
926.85	1074.35
927.15	1075.27
927.46	1075.69
927.76	1072.06
928.06	1073.28
928.36	1073.35
928.67	1075.24
928.97	1076.20
929.27	1077.09
929.57	1077.30
929.87	1074.70
930.18	1073.98
930.48	1068.71
930.78	1066.61
931.08	1064.94
931.38	1066.54
931.69	1065.83
931.99	1068.08
932.29	1070.61
932.59	1071.97
932.89	1074.38
933.19	1073.77
933.49	1074.10
933.80	1073.28
934.10	1072.50
934.40	1073.65
934.70	1075.45
935.00	1078.05
935.30	1080.23
935.60	1079.71
935.90	1077.70
936.20	1074.94
936.50	1072.67
936.81	1070.44
937.11	1071.71
937.41	1069.95
937.71	1071.17
938.01	1070.54
938.31	1069.44
938.61	1071.24
938.91	1073.58
939.21	1073.14
939.51	1074.68
939.81	1074.82
940.11	1070.30
940.41	1068.76
940.71	1066.58
941.01	1064.59
941.31	1067.78
941.61	1072.97
941.91	1073.37
942.21	1075.90
942.51	1078.03
942.81	1077.21
943.11	1075.03
943.41	1079.31
943.71	1078.82
944.01	1077.65
944.31	1078.00
944.61	1079.46
944.90	1075.29
945.20	1072.36
945.50	1074.35
945.80	1072.88
946.10	1071.64
946.40	1071.68
946.70	1075.57
947.00	1073.18
947.30	1073.35
947.60	1072.25
947.89	1072.32
948.19	1071.54
948.49	1070.09
948.79	1070.35
949.09	1071.36
949.39	1072.69
949.69	1075.43
949.98	1078.82
950.28	1080.11
950.58	1079.55
950.88	1076.39
951.18	1072.29
951.48	1067.96
951.77	1068.57
952.07	1070.42
952.37	1072.97
952.67	1075.83
952.97	1079.78
953.26	1078.33
953.56	1076.46
953.86	1077.56
954.16	1075.83
954.45	1077.09
954.75	1077.40
955.05	1079.31
955.35	1078.87
955.64	1077.35
955.94	1074.17
956.24	1077.33
956.54	1076.27
956.83	1074.31
957.13	1079.71
957.43	1081.73
957.72	1078.28
958.02	1075.78
958.32	1076.46
958.61	1070.82
958.91	1069.34
959.21	1070.14
959.50	1074.45
959.80	1073.67
960.10	1076.58
960.39	1076.39
960.69	1074.63
960.99	1072.41
961.28	1074.14
961.58	1074.28
961.87	1076.39
962.17	1078.47
962.47	1080.02
962.76	1081.14
963.06	1078.36
963.36	1077.00
963.65	1076.76
963.95	1076.32
964.24	1076.27
964.54	1078.87
964.83	1077.86
965.13	1078.40
965.42	1079.01
965.72	1078.24
966.02	1078.03
966.31	1079.22
966.61	1076.55
966.90	1076.15
967.20	1075.50
967.49	1071.43
967.79	1071.08
968.08	1073.00
968.38	1073.09
968.67	1073.65
968.97	1077.42
969.26	1078.21
969.56	1077.49
969.85	1077.28
970.15	1075.76
970.44	1076.08
970.74	1074.52
971.03	1073.67
971.32	1070.82
971.62	1071.71
971.91	1069.27
972.21	1071.36
972.50	1074.00
972.80	1077.04
973.09	1075.66
973.38	1078.64
973.68	1076.60
973.97	1075.15
974.27	1075.92
974.56	1076.93
974.85	1077.00
975.15	1076.76
975.44	1076.51
975.73	1075.52
976.03	1074.28
976.32	1075.10
976.61	1077.58
976.91	1078.14
977.20	1075.83
977.49	1075.97
977.79	1071.57
978.08	1069.32
978.37	1068.52
978.67	1069.30
978.96	1069.53
979.25	1071.82
979.55	1071.08
979.84	1069.25
980.13	1069.93
980.42	1070.05
980.72	1071.57
981.01	1073.07
981.30	1075.92
981.59	1076.06
981.89	1078.57
982.18	1079.10
982.47	1080.46
982.76	1080.46
983.06	1081.66
983.35	1080.11
983.64	1078.12
983.93	1076.90
984.22	1075.90
984.52	1072.22
984.81	1071.90
985.10	1071.87
985.39	1072.06
985.68	1073.09
985.97	1075.66
986.27	1077.23
986.56	1075.41
986.85	1076.93
987.14	1075.62
987.43	1073.04
987.72	1070.00
988.01	1070.98
988.31	1067.19
988.60	1066.91
988.89	1067.54
989.18	1070.56
989.47	1068.67
989.76	1070.12
990.05	1070.42
990.34	1069.13
990.63	1065.79
990.92	1067.52
991.21	1067.38
991.51	1066.61
991.80	1069.20
992.09	1070.91
992.38	1072.67
992.67	1072.18
992.96	1075.38
993.25	1074.54
993.54	1072.48
993.83	1071.80
994.12	1073.07
994.41	1068.76
994.70	1070.94
994.99	1071.82
995.28	1071.94
995.57	1070.02
995.86	1071.43
996.15	1069.72
996.44	1071.57
996.73	1071.71
997.02	1074.59
997.31	1074.10
997.59	1075.45
997.88	1075.78
998.17	1075.83
998.46	1075.80
998.75	1077.25
999.04	1077.93
999.33	1074.66
999.62	1078.19
999.91	1077.09
1000.20	1075.05
1000.49	1071.99
1000.77	1076.67
1001.06	1073.44
1001.35	1074.54
1001.64	1075.22
1001.93	1077.42
1002.22	1074.59
1002.51	1073.14
1002.79	1071.97
1003.08	1073.53
1003.37	1071.26
1003.66	1072.71
1003.95	1073.72
1004.23	1075.31
1004.52	1074.94
1004.81	1075.48
1005.10	1075.87
1005.39	1073.70
1005.67	1072.08
1005.96	1071.22
1006.25	1070.40
1006.54	1070.35
1006.83	1072.34
1007.11	1073.09
1007.40	1072.53
1007.69	1076.46
1007.97	1073.58
1008.26	1073.14
1008.55	1073.60
1008.84	1079.36
1009.12	1075.92
1009.41	1077.07
1009.70	1076.15
1009.98	1075.38
1010.27	1072.88
1010.56	1074.80
1010.85	1076.13
1011.13	1077.79
1011.42	1076.44
1011.71	1075.22
1011.99	1073.37
1012.28	1073.74
1012.56	1071.40
1012.85	1073.46
1013.14	1071.29
1013.42	1069.70
1013.71	1068.59
1014.00	1070.02
1014.28	1068.57
1014.57	1070.84
1014.85	1073.91
1015.14	1073.14
1015.43	1071.82
1015.71	1070.02
1016.00	1068.99
1016.28	1068.45
1016.57	1069.04
1016.85	1069.44
1017.14	1072.15
1017.43	1072.32
1017.71	1071.19
1018.00	1072.74
1018.28	1074.26
1018.57	1071.71
1018.85	1071.36
1019.14	1074.24
1019.42	1073.18
1019.71	1074.40
1019.99	1080.02
1020.28	1079.95
1020.56	1079.13
1020.85	1079.50
1021.13	1076.90
1021.42	1072.34
1021.70	1071.08
1021.99	1069.84
1022.27	1069.18
1022.55	1071.50
1022.84	1074.42
>>>>>End Processed Spectral Data<<<<<
