SpectraSuite Data File
++++++++++++++++++++++++++++++++++++
Date: Mon Aug 26 10:22:13 PDT 2019
User: corrico
Dark Spectrum Present: No
Reference Spectrum Present: No
Number of Sampled Component Spectra: 1
Spectrometers: USB2+H06089
Integration Time (usec): 2000 (USB2+H06089)
Spectra Averaged: 20 (USB2+H06089)
Boxcar Smoothing: 2 (USB2+H06089)
Correct for Electrical Dark: No (USB2+H06089)
Strobe/Lamp Enabled: No (USB2+H06089)
Correct for Detector Non-linearity: No (USB2+H06089)
Correct for Stray Light: No (USB2+H06089)
Number of Pixels in Processed Spectrum: 2048
>>>>>Begin Processed Spectral Data<<<<<
339.70	1024.69
340.07	1024.69
340.45	991.68
340.82	970.71
341.19	947.71
341.57	924.30
341.94	915.17
342.31	908.34
342.69	902.04
343.06	901.15
343.43	903.05
343.81	903.75
344.18	904.06
344.55	906.35
344.93	909.18
345.30	916.98
345.67	926.20
346.04	933.92
346.42	944.69
346.79	952.29
347.16	954.56
347.54	957.68
347.91	967.23
348.28	978.13
348.65	989.98
349.03	999.83
349.40	1012.02
349.77	1019.87
350.14	1026.07
350.52	1031.71
350.89	1037.00
351.26	1041.70
351.63	1047.86
352.01	1055.61
352.38	1059.05
352.75	1065.76
353.12	1071.66
353.50	1073.11
353.87	1073.56
354.24	1076.34
354.61	1077.63
354.98	1078.96
355.36	1082.17
355.73	1081.82
356.10	1087.60
356.47	1091.02
356.84	1091.53
357.22	1092.28
357.59	1092.28
357.96	1088.02
358.33	1086.78
358.70	1090.55
359.08	1092.16
359.45	1092.40
359.82	1092.52
360.19	1092.02
360.56	1087.53
360.94	1083.43
361.31	1081.47
361.68	1083.97
362.05	1081.19
362.42	1078.66
362.79	1076.67
363.16	1079.43
363.54	1075.85
363.91	1076.97
364.28	1077.98
364.65	1080.37
365.02	1077.61
365.39	1075.57
365.76	1071.90
366.14	1072.90
366.51	1071.85
366.88	1072.78
367.25	1072.88
367.62	1074.56
367.99	1073.91
368.36	1074.21
368.73	1077.79
369.10	1075.97
369.48	1076.32
369.85	1076.04
370.22	1073.42
370.59	1070.19
370.96	1072.46
371.33	1070.68
371.70	1073.09
372.07	1079.06
372.44	1078.68
372.81	1081.58
373.18	1082.52
373.55	1080.06
373.93	1078.59
374.30	1080.56
374.67	1079.22
375.04	1078.87
375.41	1083.01
375.78	1085.38
376.15	1083.32
376.52	1082.99
376.89	1085.35
377.26	1081.40
377.63	1078.03
378.00	1077.42
378.37	1077.68
378.74	1079.13
379.11	1078.45
379.48	1077.00
379.85	1081.96
380.22	1083.93
380.59	1080.98
380.96	1082.01
381.33	1083.97
381.70	1081.09
382.07	1078.07
382.44	1078.43
382.81	1079.03
383.18	1082.17
383.55	1082.31
383.92	1084.23
384.29	1085.80
384.66	1085.26
385.03	1081.68
385.40	1081.05
385.77	1080.51
386.14	1080.04
386.51	1083.39
386.88	1083.71
387.25	1083.64
387.62	1083.62
387.99	1083.69
388.36	1082.36
388.73	1083.53
389.10	1086.01
389.46	1084.58
389.83	1087.20
390.20	1089.85
390.57	1088.19
390.94	1086.08
391.31	1089.71
391.68	1089.26
392.05	1085.61
392.42	1087.81
392.79	1088.37
393.16	1084.98
393.53	1083.13
393.89	1082.97
394.26	1083.01
394.63	1085.33
395.00	1089.17
395.37	1090.69
395.74	1090.62
396.11	1089.59
396.48	1089.36
396.84	1090.24
397.21	1089.26
397.58	1092.84
397.95	1091.70
398.32	1090.20
398.69	1090.41
399.06	1092.05
399.42	1091.95
399.79	1095.37
400.16	1096.82
400.53	1094.15
400.90	1097.48
401.27	1095.70
401.64	1094.50
402.00	1095.00
402.37	1094.27
402.74	1089.66
403.11	1090.71
403.48	1092.49
403.84	1090.74
404.21	1089.85
404.58	1091.42
404.95	1091.27
405.32	1089.45
405.68	1093.99
406.05	1097.92
406.42	1096.82
406.79	1097.01
407.16	1097.41
407.52	1092.94
407.89	1090.62
408.26	1095.46
408.63	1097.15
408.99	1097.13
409.36	1100.89
409.73	1103.66
410.10	1099.30
410.47	1098.46
410.83	1098.60
411.20	1095.84
411.57	1096.96
411.94	1099.02
412.30	1098.27
412.67	1102.11
413.04	1105.93
413.40	1105.44
413.77	1106.98
414.14	1106.23
414.51	1106.56
414.87	1104.38
415.24	1105.93
415.61	1105.81
415.97	1106.56
416.34	1104.38
416.71	1103.73
417.08	1104.33
417.44	1102.98
417.81	1106.70
418.18	1108.95
418.54	1110.91
418.91	1111.05
419.28	1114.05
419.64	1115.62
420.01	1114.49
420.38	1117.49
420.74	1119.62
421.11	1120.27
421.48	1121.40
421.84	1126.36
422.21	1130.99
422.58	1133.94
422.94	1137.17
423.31	1138.60
423.68	1141.34
424.04	1143.00
424.41	1144.69
424.77	1149.23
425.14	1156.37
425.51	1160.74
425.87	1164.88
426.24	1170.85
426.61	1175.86
426.97	1181.41
427.34	1186.07
427.70	1192.74
428.07	1199.10
428.44	1207.93
428.80	1212.84
429.17	1222.49
429.53	1235.01
429.90	1247.67
430.27	1260.03
430.63	1274.47
431.00	1288.51
431.36	1301.71
431.73	1315.78
432.09	1330.45
432.46	1346.18
432.83	1366.15
433.19	1383.05
433.56	1406.33
433.92	1428.41
434.29	1452.00
434.65	1477.81
435.02	1510.16
435.38	1541.52
435.75	1573.85
436.11	1613.50
436.48	1654.62
436.84	1698.34
437.21	1739.32
437.57	1789.06
437.94	1837.32
438.30	1892.42
438.67	1947.35
439.03	2011.25
439.40	2077.48
439.76	2152.45
440.13	2225.24
440.49	2301.36
440.86	2371.31
441.22	2460.39
441.59	2547.46
441.95	2648.62
442.32	2754.18
442.68	2879.58
443.05	2993.29
443.41	3119.11
443.78	3244.45
444.14	3385.94
444.51	3516.02
444.87	3680.26
445.24	3845.22
445.60	4018.11
445.96	4193.26
446.33	4409.87
446.69	4607.48
447.06	4819.28
447.42	5042.17
447.79	5277.93
448.15	5535.32
448.51	5806.00
448.88	6121.67
449.24	6414.87
449.61	6767.07
449.97	7112.51
450.33	7482.13
450.70	7828.93
451.06	8247.21
451.43	8626.54
451.79	9086.69
452.15	9578.38
452.52	10110.18
452.88	10664.65
453.24	11298.23
453.61	11987.26
453.97	12674.31
454.34	13359.64
454.70	14159.23
455.06	14942.00
455.43	15676.53
455.79	16341.92
456.15	17146.86
456.52	17869.80
456.88	18764.15
457.24	19648.68
457.61	20776.09
457.97	21823.55
458.33	22927.14
458.70	23984.43
459.06	24975.93
459.42	25965.06
459.79	26847.14
460.15	27857.50
460.51	28804.74
460.88	29890.72
461.24	30846.60
461.60	31993.74
461.96	33044.53
462.33	34050.37
462.69	35046.36
463.05	36121.96
463.42	37083.71
463.78	37954.85
464.14	38692.36
464.50	39411.74
464.87	39961.91
465.23	40331.41
465.59	40753.55
465.95	41117.57
466.32	41378.28
466.68	41597.62
467.04	41716.28
467.40	41712.35
467.77	41799.95
468.13	41729.72
468.49	41600.66
468.85	41526.16
469.22	41395.91
469.58	41126.98
469.94	40971.97
470.30	40718.02
470.66	40318.70
471.03	39812.40
471.39	39452.82
471.75	38702.02
472.11	38001.62
472.47	37510.95
472.84	37017.96
473.20	36324.34
473.56	35962.28
473.92	35399.74
474.28	34801.29
474.65	34153.26
475.01	33478.53
475.37	32657.71
475.73	31998.59
476.09	31315.55
476.45	30686.69
476.81	30164.45
477.18	29640.80
477.54	29181.66
477.90	28751.68
478.26	28208.07
478.62	27676.41
478.98	27231.99
479.34	26787.71
479.71	26224.63
480.07	25794.88
480.43	25372.58
480.79	24895.01
481.15	24451.34
481.51	24110.98
481.87	23790.63
482.23	23428.72
482.59	23116.91
482.96	22803.32
483.32	22467.36
483.68	22081.39
484.04	21728.32
484.40	21323.10
484.76	20873.41
485.12	20432.50
485.48	20003.25
485.84	19519.30
486.20	19097.46
486.56	18691.00
486.92	18345.54
487.28	17965.34
487.64	17582.76
488.00	17214.20
488.37	16838.54
488.73	16394.84
489.09	15957.05
489.45	15555.11
489.81	15122.25
490.17	14698.70
490.53	14306.43
490.89	13909.57
491.25	13501.90
491.61	13111.35
491.97	12723.01
492.33	12317.44
492.69	11956.11
493.05	11605.24
493.41	11276.47
493.77	10946.24
494.13	10650.91
494.49	10350.76
494.85	10076.47
495.21	9801.88
495.57	9553.95
495.93	9304.40
496.29	9064.22
496.64	8842.82
497.00	8610.41
497.36	8362.10
497.72	8124.37
498.08	7914.12
498.44	7699.50
498.80	7489.27
499.16	7293.69
499.52	7099.90
499.88	6915.30
500.24	6735.85
500.60	6574.92
500.96	6415.83
501.32	6258.19
501.68	6086.61
502.03	5911.40
502.39	5751.19
502.75	5595.92
503.11	5446.22
503.47	5312.50
503.83	5193.37
504.19	5059.68
504.55	4930.95
504.91	4816.21
505.26	4699.05
505.62	4579.70
505.98	4471.43
506.34	4358.71
506.70	4237.28
507.06	4129.55
507.42	4022.37
507.78	3925.94
508.13	3841.38
508.49	3763.98
508.85	3685.24
509.21	3614.44
509.57	3533.46
509.93	3448.76
510.28	3364.89
510.64	3286.44
511.00	3202.11
511.36	3134.30
511.72	3069.31
512.07	3010.82
512.43	2945.03
512.79	2888.43
513.15	2823.11
513.51	2762.67
513.86	2702.22
514.22	2653.49
514.58	2601.58
514.94	2557.43
515.30	2517.60
515.65	2476.45
516.01	2436.57
516.37	2398.89
516.73	2362.37
517.08	2321.74
517.44	2282.05
517.80	2238.37
518.16	2200.03
518.51	2158.61
518.87	2125.56
519.23	2096.91
519.59	2070.53
519.94	2042.73
520.30	2016.51
520.66	1986.81
521.01	1955.89
521.37	1927.81
521.73	1901.92
522.09	1875.71
522.44	1855.67
522.80	1832.97
523.16	1809.75
523.51	1783.86
523.87	1766.54
524.23	1741.97
524.58	1724.62
524.94	1704.47
525.30	1688.35
525.65	1670.18
526.01	1653.87
526.37	1637.09
526.72	1620.10
527.08	1604.25
527.44	1585.55
527.79	1569.87
528.15	1550.75
528.51	1535.58
528.86	1520.58
529.22	1504.50
529.58	1492.40
529.93	1481.84
530.29	1469.48
530.65	1457.76
531.00	1445.82
531.36	1432.20
531.71	1419.58
532.07	1411.46
532.43	1398.17
532.78	1386.63
533.14	1375.23
533.49	1367.29
533.85	1358.00
534.21	1355.31
534.56	1350.11
534.92	1347.24
535.27	1339.04
535.63	1333.59
535.98	1325.21
536.34	1319.83
536.69	1311.89
537.05	1303.65
537.41	1293.12
537.76	1287.22
538.12	1281.49
538.47	1273.25
538.83	1270.40
539.18	1265.79
539.54	1259.65
539.89	1254.18
540.25	1252.72
540.60	1246.87
540.96	1243.69
541.31	1236.18
541.67	1231.38
542.02	1226.58
542.38	1225.20
542.73	1222.23
543.09	1222.37
543.44	1216.07
543.80	1210.64
544.15	1205.14
544.51	1202.89
544.86	1199.38
545.22	1202.36
545.57	1200.72
545.93	1197.49
546.28	1194.07
546.64	1191.08
546.99	1187.03
547.35	1182.30
547.70	1183.77
548.05	1180.43
548.41	1175.70
548.76	1173.19
549.12	1174.57
549.47	1169.45
549.83	1169.43
550.18	1168.63
550.53	1163.55
550.89	1159.15
551.24	1159.45
551.60	1158.05
551.95	1158.59
552.30	1157.79
552.66	1159.03
553.01	1152.53
553.37	1148.41
553.72	1143.09
554.07	1143.49
554.43	1141.22
554.78	1142.18
555.13	1141.55
555.49	1140.96
555.84	1140.36
556.19	1140.71
556.55	1139.82
556.90	1139.89
557.26	1137.62
557.61	1133.26
557.96	1131.39
558.32	1130.31
558.67	1126.41
559.02	1126.62
559.37	1126.36
559.73	1121.54
560.08	1118.00
560.43	1118.71
560.79	1116.48
561.14	1117.82
561.49	1117.18
561.85	1121.16
562.20	1120.37
562.55	1122.64
562.90	1118.47
563.26	1119.45
563.61	1117.61
563.96	1118.68
564.32	1116.48
564.67	1117.44
565.02	1115.17
565.37	1113.21
565.73	1112.08
566.08	1113.39
566.43	1115.17
566.78	1115.99
567.14	1115.24
567.49	1112.39
567.84	1110.28
568.19	1102.79
568.54	1101.97
568.90	1103.05
569.25	1103.45
569.60	1103.42
569.95	1107.49
570.31	1107.96
570.66	1103.33
571.01	1101.39
571.36	1101.48
571.71	1101.74
572.06	1100.15
572.42	1103.68
572.77	1104.55
573.12	1103.82
573.47	1100.33
573.82	1095.91
574.18	1095.14
574.53	1094.34
574.88	1092.47
575.23	1094.43
575.58	1096.66
575.93	1096.63
576.28	1097.34
576.64	1098.55
576.99	1097.97
577.34	1101.69
577.69	1103.84
578.04	1101.22
578.39	1100.22
578.74	1098.90
579.09	1097.01
579.44	1095.07
579.80	1097.17
580.15	1096.96
580.50	1098.13
580.85	1092.23
581.20	1091.49
581.55	1088.16
581.90	1088.16
582.25	1088.23
582.60	1091.53
582.95	1091.58
583.30	1094.79
583.65	1093.08
584.00	1094.41
584.35	1095.96
584.71	1094.81
585.06	1095.70
585.41	1097.57
585.76	1096.78
586.11	1095.51
586.46	1097.15
586.81	1096.31
587.16	1095.82
587.51	1094.39
587.86	1094.13
588.21	1093.17
588.56	1094.29
588.91	1094.13
589.26	1096.10
589.61	1094.67
589.96	1094.11
590.31	1088.72
590.66	1089.59
591.01	1088.54
591.36	1088.58
591.71	1085.10
592.06	1086.94
592.41	1086.64
592.76	1087.18
593.10	1088.26
593.45	1088.86
593.80	1086.15
594.15	1081.80
594.50	1079.08
594.85	1082.76
595.20	1083.64
595.55	1085.17
595.90	1088.61
596.25	1088.16
596.60	1084.44
596.95	1086.36
597.30	1087.83
597.64	1097.15
597.99	1101.43
598.34	1101.53
598.69	1104.31
599.04	1102.93
599.39	1095.02
599.74	1091.67
600.09	1092.05
600.44	1090.10
600.78	1089.24
601.13	1087.76
601.48	1087.72
601.83	1087.09
602.18	1085.17
602.53	1086.55
602.88	1086.57
603.22	1085.80
603.57	1088.82
603.92	1088.33
604.27	1090.03
604.62	1092.02
604.97	1094.06
605.31	1092.77
605.66	1094.79
606.01	1090.48
606.36	1088.12
606.71	1086.87
607.05	1086.78
607.40	1082.45
607.75	1087.37
608.10	1085.63
608.44	1086.20
608.79	1085.91
609.14	1090.50
609.49	1087.74
609.84	1089.50
610.18	1089.66
610.53	1089.03
610.88	1086.45
611.23	1087.51
611.57	1090.88
611.92	1087.76
612.27	1089.64
612.62	1092.75
612.96	1093.12
613.31	1090.85
613.66	1094.65
614.00	1091.72
614.35	1088.84
614.70	1084.93
615.05	1083.57
615.39	1083.62
615.74	1083.57
616.09	1081.94
616.43	1080.65
616.78	1079.60
617.13	1076.95
617.47	1079.29
617.82	1080.65
618.17	1082.87
618.51	1082.99
618.86	1084.98
619.21	1081.73
619.55	1079.55
619.90	1084.81
620.25	1085.59
620.59	1084.98
620.94	1086.17
621.29	1088.98
621.63	1085.61
621.98	1086.76
622.32	1085.56
622.67	1086.85
623.02	1085.68
623.36	1083.36
623.71	1082.59
624.05	1084.02
624.40	1084.60
624.75	1085.49
625.09	1089.03
625.44	1089.59
625.78	1085.70
626.13	1084.23
626.48	1083.83
626.82	1083.15
627.17	1085.47
627.51	1088.02
627.86	1091.56
628.20	1091.60
628.55	1089.45
628.89	1085.82
629.24	1085.63
629.58	1083.36
629.93	1085.05
630.28	1085.89
630.62	1087.06
630.97	1087.55
631.31	1088.63
631.66	1088.02
632.00	1089.57
632.35	1087.86
632.69	1087.16
633.04	1082.85
633.38	1079.71
633.73	1079.36
634.07	1082.03
634.42	1081.68
634.76	1085.42
635.11	1089.43
635.45	1090.57
635.79	1088.37
636.14	1088.37
636.48	1084.74
636.83	1082.15
637.17	1080.53
637.52	1078.07
637.86	1078.73
638.21	1080.51
638.55	1080.09
638.89	1076.55
639.24	1078.71
639.58	1079.69
639.93	1077.49
640.27	1076.39
640.61	1080.46
640.96	1080.86
641.30	1081.96
641.65	1082.19
641.99	1084.84
642.33	1084.98
642.68	1082.87
643.02	1080.25
643.37	1082.59
643.71	1080.91
644.05	1079.69
644.40	1081.00
644.74	1082.78
645.08	1081.44
645.43	1081.12
645.77	1081.00
646.11	1082.57
646.46	1079.81
646.80	1079.13
647.14	1081.94
647.49	1082.38
647.83	1082.26
648.17	1081.21
648.52	1081.09
648.86	1077.47
649.20	1074.82
649.55	1072.18
649.89	1076.53
650.23	1076.11
650.57	1077.23
650.92	1081.54
651.26	1082.83
651.60	1079.34
651.95	1078.96
652.29	1081.09
652.63	1076.79
652.97	1078.96
653.32	1079.38
653.66	1079.29
654.00	1078.28
654.34	1082.33
654.69	1083.97
655.03	1084.91
655.37	1089.87
655.71	1088.49
656.05	1088.77
656.40	1086.99
656.74	1086.20
657.08	1083.86
657.42	1083.04
657.76	1078.28
658.11	1077.56
658.45	1078.99
658.79	1077.49
659.13	1079.27
659.47	1082.10
659.82	1082.15
660.16	1081.09
660.50	1080.63
660.84	1081.47
661.18	1079.31
661.52	1078.40
661.87	1081.30
662.21	1084.42
662.55	1084.23
662.89	1088.21
663.23	1086.24
663.57	1085.84
663.91	1081.98
664.25	1084.09
664.60	1081.89
664.94	1081.98
665.28	1083.48
665.62	1084.23
665.96	1082.33
666.30	1081.30
666.64	1082.29
666.98	1077.72
667.32	1078.07
667.66	1076.88
668.01	1076.11
668.35	1081.44
668.69	1082.05
669.03	1083.22
669.37	1083.83
669.71	1084.00
670.05	1081.54
670.39	1082.64
670.73	1081.77
671.07	1083.04
671.41	1083.20
671.75	1082.59
672.09	1081.82
672.43	1080.95
672.77	1078.38
673.11	1079.53
673.45	1078.14
673.79	1079.64
674.13	1083.20
674.47	1082.87
674.81	1082.43
675.15	1082.38
675.49	1080.81
675.83	1078.00
676.17	1080.25
676.51	1080.72
676.85	1079.13
677.19	1078.80
677.53	1079.55
677.87	1080.34
678.21	1083.69
678.55	1083.39
678.89	1083.29
679.23	1085.19
679.57	1083.39
679.90	1083.69
680.24	1083.57
680.58	1080.95
680.92	1078.71
681.26	1076.88
681.60	1073.42
681.94	1075.92
682.28	1080.93
682.62	1081.51
682.96	1082.33
683.29	1082.59
683.63	1080.25
683.97	1077.11
684.31	1075.15
684.65	1078.10
684.99	1077.14
685.33	1081.82
685.67	1085.52
686.00	1088.00
686.34	1089.05
686.68	1089.66
687.02	1086.03
687.36	1085.42
687.70	1086.29
688.03	1082.85
688.37	1086.57
688.71	1088.63
689.05	1088.07
689.39	1086.50
689.72	1088.40
690.06	1083.60
690.40	1083.64
690.74	1085.00
691.08	1085.28
691.41	1083.50
691.75	1085.40
692.09	1084.11
692.43	1081.21
692.76	1081.00
693.10	1084.16
693.44	1084.30
693.78	1081.75
694.11	1082.22
694.45	1082.33
694.79	1081.37
695.13	1079.55
695.46	1078.54
695.80	1077.63
696.14	1075.80
696.48	1072.46
696.81	1073.21
697.15	1076.65
697.49	1074.56
697.82	1074.63
698.16	1074.26
698.50	1076.83
698.83	1074.56
699.17	1078.54
699.51	1079.08
699.84	1081.23
700.18	1078.45
700.52	1080.81
700.85	1078.75
701.19	1082.47
701.53	1083.13
701.86	1084.32
702.20	1083.20
702.54	1082.69
702.87	1080.30
703.21	1080.04
703.55	1078.87
703.88	1079.08
704.22	1082.59
704.55	1078.96
704.89	1076.90
705.23	1079.22
705.56	1081.00
705.90	1082.24
706.23	1084.74
706.57	1083.57
706.91	1084.28
707.24	1082.80
707.58	1080.67
707.91	1081.23
708.25	1084.86
708.58	1082.12
708.92	1084.49
709.26	1084.56
709.59	1088.00
709.93	1087.27
710.26	1087.20
710.60	1083.81
710.93	1081.77
711.27	1079.62
711.60	1080.81
711.94	1081.19
712.27	1083.04
712.61	1086.41
712.94	1087.55
713.28	1086.31
713.61	1089.00
713.95	1090.01
714.28	1088.28
714.62	1086.36
714.95	1085.75
715.29	1085.68
715.62	1085.45
715.96	1084.44
716.29	1081.82
716.63	1083.60
716.96	1082.29
717.29	1082.31
717.63	1083.97
717.96	1086.92
718.30	1087.74
718.63	1086.13
718.97	1086.64
719.30	1083.95
719.63	1081.26
719.97	1078.82
720.30	1078.94
720.64	1074.66
720.97	1075.24
721.30	1077.86
721.64	1077.37
721.97	1077.54
722.31	1079.15
722.64	1081.70
722.97	1079.57
723.31	1079.50
723.64	1077.54
723.97	1076.81
724.31	1075.17
724.64	1078.12
724.98	1077.56
725.31	1082.33
725.64	1082.08
725.98	1083.60
726.31	1081.58
726.64	1081.98
726.97	1079.97
727.31	1082.83
727.64	1081.30
727.97	1084.25
728.31	1085.54
728.64	1083.69
728.97	1082.80
729.31	1080.95
729.64	1076.53
729.97	1073.21
730.30	1073.79
730.64	1073.74
730.97	1076.15
731.30	1073.91
731.63	1073.49
731.97	1074.38
732.30	1076.39
732.63	1075.62
732.96	1080.51
733.30	1082.03
733.63	1081.80
733.96	1080.20
734.29	1079.64
734.63	1078.59
734.96	1081.66
735.29	1082.38
735.62	1083.01
735.95	1083.22
736.29	1083.76
736.62	1081.19
736.95	1080.06
737.28	1078.61
737.61	1076.30
737.94	1074.24
738.28	1071.78
738.61	1070.02
738.94	1070.65
739.27	1072.78
739.60	1074.26
739.93	1078.28
740.27	1082.47
740.60	1082.12
740.93	1081.40
741.26	1079.97
741.59	1080.46
741.92	1077.56
742.25	1079.03
742.58	1078.47
742.91	1077.84
743.25	1074.56
743.58	1076.60
743.91	1074.03
744.24	1075.22
744.57	1077.63
744.90	1078.31
745.23	1076.30
745.56	1079.55
745.89	1081.40
746.22	1080.02
746.55	1084.02
746.88	1086.27
747.21	1082.92
747.54	1080.84
747.87	1082.85
748.20	1082.61
748.53	1081.96
748.87	1087.06
749.20	1090.03
749.53	1086.45
749.86	1085.87
750.19	1085.12
750.52	1080.13
750.85	1078.36
751.18	1084.04
751.51	1082.57
751.84	1087.32
752.16	1091.60
752.49	1089.12
752.82	1087.72
753.15	1088.33
753.48	1082.05
753.81	1077.86
754.14	1078.68
754.47	1077.65
754.80	1077.25
755.13	1078.92
755.46	1081.54
755.79	1083.67
756.12	1082.36
756.45	1080.16
756.78	1080.58
757.11	1080.06
757.43	1076.11
757.76	1078.21
758.09	1079.48
758.42	1077.86
758.75	1077.14
759.08	1082.52
759.41	1079.46
759.74	1081.66
760.07	1082.26
760.39	1082.85
760.72	1078.96
761.05	1079.03
761.38	1077.30
761.71	1080.02
762.04	1080.20
762.36	1084.49
762.69	1086.13
763.02	1085.17
763.35	1081.47
763.68	1080.48
764.01	1079.01
764.33	1076.34
764.66	1079.38
764.99	1080.09
765.32	1078.43
765.65	1079.83
765.97	1081.94
766.30	1079.85
766.63	1080.72
766.96	1083.62
767.28	1082.80
767.61	1081.30
767.94	1077.68
768.27	1077.58
768.59	1075.87
768.92	1074.52
769.25	1074.17
769.58	1078.64
769.90	1078.00
770.23	1079.50
770.56	1076.46
770.89	1076.46
771.21	1076.76
771.54	1074.47
771.87	1073.44
772.19	1078.73
772.52	1079.64
772.85	1079.67
773.17	1081.98
773.50	1082.92
773.83	1081.00
774.15	1083.48
774.48	1081.61
774.81	1082.40
775.13	1080.53
775.46	1082.12
775.79	1084.02
776.11	1086.52
776.44	1083.86
776.77	1082.85
777.09	1078.82
777.42	1073.46
777.74	1070.19
778.07	1071.05
778.40	1074.56
778.72	1073.58
779.05	1074.42
779.37	1076.60
779.70	1077.84
780.03	1076.93
780.35	1078.80
780.68	1080.23
781.00	1077.82
781.33	1078.52
781.65	1077.58
781.98	1078.71
782.31	1080.32
782.63	1082.03
782.96	1079.85
783.28	1080.06
783.61	1077.23
783.93	1075.01
784.26	1076.83
784.58	1077.09
784.91	1074.31
785.23	1078.82
785.56	1079.71
785.88	1078.64
786.21	1080.06
786.53	1082.73
786.86	1080.34
787.18	1079.64
787.51	1076.95
787.83	1075.97
788.16	1076.51
788.48	1076.93
788.81	1077.21
789.13	1077.49
789.46	1077.61
789.78	1075.38
790.10	1074.42
790.43	1074.38
790.75	1074.80
791.08	1073.65
791.40	1075.34
791.73	1077.75
792.05	1078.54
792.37	1078.38
792.70	1077.09
793.02	1078.05
793.35	1075.10
793.67	1074.21
793.99	1076.18
794.32	1078.80
794.64	1076.25
794.96	1077.21
795.29	1076.60
795.61	1078.19
795.93	1077.72
796.26	1080.20
796.58	1078.45
796.91	1079.67
797.23	1077.40
797.55	1074.80
797.87	1073.09
798.20	1075.27
798.52	1074.17
798.84	1071.99
799.17	1071.59
799.49	1067.73
799.81	1064.24
800.14	1066.39
800.46	1070.09
800.78	1076.20
801.10	1081.28
801.43	1083.62
801.75	1080.53
802.07	1077.11
802.40	1073.21
802.72	1072.90
803.04	1072.29
803.36	1074.75
803.69	1075.71
804.01	1076.44
804.33	1075.03
804.65	1078.00
804.97	1078.28
805.30	1079.01
805.62	1079.38
805.94	1081.05
806.26	1079.08
806.58	1075.34
806.91	1074.63
807.23	1075.73
807.55	1071.71
807.87	1071.92
808.19	1073.37
808.52	1074.80
808.84	1074.94
809.16	1078.59
809.48	1076.86
809.80	1079.46
810.12	1078.68
810.44	1078.85
810.77	1077.18
811.09	1083.13
811.41	1083.46
811.73	1085.70
812.05	1084.14
812.37	1086.94
812.69	1083.79
813.01	1079.71
813.33	1079.03
813.66	1078.43
813.98	1074.68
814.30	1073.21
814.62	1077.58
814.94	1074.70
815.26	1075.57
815.58	1076.79
815.90	1077.61
816.22	1075.24
816.54	1076.20
816.86	1077.70
817.18	1078.33
817.50	1075.31
817.82	1077.61
818.14	1079.60
818.46	1079.55
818.78	1078.28
819.10	1083.20
819.42	1082.31
819.74	1082.01
820.06	1081.87
820.38	1082.29
820.70	1082.08
821.02	1078.68
821.34	1076.83
821.66	1076.30
821.98	1079.46
822.30	1075.90
822.62	1082.64
822.94	1084.44
823.26	1082.59
823.58	1083.67
823.90	1084.00
824.22	1081.21
824.54	1080.32
824.86	1081.07
825.18	1077.96
825.50	1083.88
825.81	1084.58
826.13	1082.80
826.45	1082.54
826.77	1083.95
827.09	1077.86
827.41	1078.64
827.73	1080.93
828.05	1079.85
828.36	1076.51
828.68	1080.20
829.00	1075.41
829.32	1071.78
829.64	1074.84
829.96	1076.08
830.28	1074.28
830.59	1075.99
830.91	1081.23
831.23	1079.41
831.55	1079.36
831.87	1079.81
832.19	1079.31
832.50	1080.13
832.82	1077.86
833.14	1079.34
833.46	1079.60
833.78	1080.13
834.09	1077.11
834.41	1081.94
834.73	1080.16
835.05	1079.50
835.36	1078.66
835.68	1078.28
836.00	1080.23
836.32	1080.74
836.63	1079.64
836.95	1081.66
837.27	1083.83
837.59	1081.30
837.90	1080.39
838.22	1081.58
838.54	1082.69
838.85	1080.46
839.17	1077.89
839.49	1079.64
839.80	1079.60
840.12	1076.83
840.44	1076.74
840.76	1076.93
841.07	1077.04
841.39	1076.86
841.71	1075.83
842.02	1077.04
842.34	1077.40
842.65	1077.37
842.97	1076.08
843.29	1079.81
843.60	1079.03
843.92	1081.70
844.24	1082.24
844.55	1082.33
844.87	1079.50
845.18	1078.50
845.50	1077.75
845.82	1080.65
846.13	1080.65
846.45	1079.99
846.76	1079.50
847.08	1078.85
847.40	1076.25
847.71	1078.71
848.03	1079.85
848.34	1081.40
848.66	1081.58
848.97	1081.23
849.29	1078.75
849.60	1077.86
849.92	1077.44
850.24	1074.73
850.55	1074.49
850.87	1076.72
851.18	1076.37
851.50	1076.20
851.81	1077.93
852.13	1075.13
852.44	1073.72
852.76	1076.62
853.07	1077.07
853.39	1080.13
853.70	1083.39
854.01	1084.60
854.33	1082.01
854.64	1081.44
854.96	1077.54
855.27	1074.14
855.59	1073.53
855.90	1076.32
856.22	1075.73
856.53	1075.15
856.84	1076.25
857.16	1077.04
857.47	1074.82
857.79	1074.12
858.10	1076.62
858.41	1076.51
858.73	1074.12
859.04	1076.34
859.36	1079.83
859.67	1076.58
859.98	1078.96
860.30	1082.71
860.61	1081.37
860.92	1080.20
861.24	1085.31
861.55	1084.77
861.87	1079.83
862.18	1081.33
862.49	1080.20
862.81	1075.15
863.12	1074.38
863.43	1076.30
863.74	1072.27
864.06	1072.34
864.37	1071.80
864.68	1074.24
865.00	1075.34
865.31	1076.76
865.62	1076.48
865.94	1078.36
866.25	1075.45
866.56	1076.20
866.87	1074.47
867.19	1075.36
867.50	1077.40
867.81	1076.25
868.12	1073.70
868.44	1075.92
868.75	1075.99
869.06	1073.35
869.37	1073.81
869.68	1073.79
870.00	1072.67
870.31	1074.35
870.62	1075.62
870.93	1077.91
871.24	1075.99
871.56	1077.21
871.87	1075.20
872.18	1077.58
872.49	1079.95
872.80	1081.09
873.12	1082.01
873.43	1080.65
873.74	1078.85
874.05	1076.34
874.36	1079.43
874.67	1079.01
874.98	1081.96
875.29	1080.63
875.61	1080.34
875.92	1076.74
876.23	1074.91
876.54	1071.90
876.85	1072.41
877.16	1069.13
877.47	1068.52
877.78	1073.49
878.09	1078.75
878.40	1080.20
878.72	1080.74
879.03	1081.42
879.34	1076.83
879.65	1071.57
879.96	1072.67
880.27	1075.83
880.58	1077.30
880.89	1077.30
881.20	1081.42
881.51	1080.91
881.82	1081.70
882.13	1082.90
882.44	1086.94
882.75	1082.78
883.06	1082.52
883.37	1081.47
883.68	1080.91
883.99	1078.59
884.30	1079.78
884.61	1079.38
884.92	1079.60
885.23	1080.72
885.54	1081.00
885.85	1079.69
886.16	1078.80
886.47	1081.68
886.78	1080.81
887.08	1081.44
887.39	1081.37
887.70	1079.71
888.01	1073.91
888.32	1071.43
888.63	1067.61
888.94	1068.48
889.25	1070.30
889.56	1071.08
889.87	1077.49
890.17	1080.63
890.48	1084.81
890.79	1084.46
891.10	1084.00
891.41	1078.12
891.72	1082.29
892.03	1076.30
892.34	1079.03
892.64	1080.98
892.95	1082.38
893.26	1075.43
893.57	1078.33
893.88	1075.24
894.18	1073.04
894.49	1073.07
894.80	1074.70
895.11	1073.46
895.42	1073.35
895.72	1077.23
896.03	1076.41
896.34	1080.51
896.65	1082.05
896.96	1084.70
897.26	1080.81
897.57	1081.37
897.88	1075.55
898.19	1075.24
898.49	1074.38
898.80	1074.47
899.11	1073.91
899.41	1074.40
899.72	1076.04
900.03	1075.34
900.34	1074.49
900.64	1074.26
900.95	1080.95
901.26	1079.64
901.56	1079.67
901.87	1080.63
902.18	1081.75
902.48	1076.41
902.79	1077.65
903.10	1077.63
903.40	1079.83
903.71	1079.64
904.02	1077.00
904.32	1077.79
904.63	1077.75
904.94	1075.78
905.24	1078.00
905.55	1079.71
905.85	1074.47
906.16	1074.80
906.47	1076.46
906.77	1073.37
907.08	1072.71
907.38	1077.63
907.69	1078.85
908.00	1077.75
908.30	1078.80
908.61	1076.60
908.91	1074.00
909.22	1069.55
909.52	1070.87
909.83	1072.46
910.14	1078.10
910.44	1080.34
910.75	1082.87
911.05	1082.38
911.36	1081.96
911.66	1080.88
911.97	1080.72
912.27	1079.95
912.58	1080.84
912.88	1080.58
913.19	1080.34
913.49	1079.41
913.80	1079.38
914.10	1078.33
914.41	1078.40
914.71	1076.74
915.01	1075.48
915.32	1076.81
915.62	1079.99
915.93	1079.85
916.23	1080.70
916.54	1080.98
916.84	1084.04
917.15	1082.24
917.45	1082.01
917.75	1084.67
918.06	1083.20
918.36	1078.96
918.67	1077.09
918.97	1078.71
919.27	1075.59
919.58	1078.14
919.88	1078.92
920.18	1077.16
920.49	1076.53
920.79	1076.27
921.10	1073.53
921.40	1072.78
921.70	1072.64
922.01	1073.35
922.31	1072.43
922.61	1072.76
922.92	1075.20
923.22	1079.83
923.52	1081.84
923.82	1084.96
924.13	1089.66
924.43	1089.22
924.73	1087.72
925.04	1082.94
925.34	1084.11
925.64	1085.12
925.94	1081.21
926.25	1081.77
926.55	1081.63
926.85	1077.89
927.15	1074.96
927.46	1078.14
927.76	1076.18
928.06	1077.07
928.36	1079.15
928.67	1075.55
928.97	1075.97
929.27	1075.41
929.57	1076.23
929.87	1074.52
930.18	1075.59
930.48	1073.86
930.78	1075.17
931.08	1074.49
931.38	1076.60
931.69	1079.27
931.99	1077.35
932.29	1077.35
932.59	1076.48
932.89	1077.70
933.19	1076.67
933.49	1078.64
933.80	1076.48
934.10	1076.41
934.40	1076.48
934.70	1077.40
935.00	1079.97
935.30	1082.71
935.60	1082.76
935.90	1080.67
936.20	1081.12
936.50	1081.37
936.81	1082.26
937.11	1082.31
937.41	1081.87
937.71	1080.13
938.01	1078.24
938.31	1075.73
938.61	1074.63
938.91	1073.21
939.21	1070.54
939.51	1068.57
939.81	1069.91
940.11	1068.29
940.41	1070.44
940.71	1071.99
941.01	1075.87
941.31	1077.86
941.61	1081.77
941.91	1082.24
942.21	1084.67
942.51	1080.65
942.81	1079.10
943.11	1080.16
943.41	1078.14
943.71	1077.21
944.01	1081.58
944.31	1080.91
944.61	1078.31
944.90	1082.08
945.20	1082.47
945.50	1081.07
945.80	1079.83
946.10	1082.61
946.40	1079.31
946.70	1078.75
947.00	1075.92
947.30	1078.59
947.60	1076.62
947.89	1078.07
948.19	1074.91
948.49	1076.46
948.79	1076.88
949.09	1077.02
949.39	1076.41
949.69	1081.63
949.98	1085.49
950.28	1085.40
950.58	1086.36
950.88	1086.66
951.18	1084.21
951.48	1081.87
951.77	1083.13
952.07	1082.08
952.37	1081.40
952.67	1082.71
952.97	1080.32
953.26	1075.92
953.56	1077.21
953.86	1077.70
954.16	1074.14
954.45	1074.77
954.75	1074.61
955.05	1075.10
955.35	1076.32
955.64	1078.75
955.94	1080.93
956.24	1083.08
956.54	1080.86
956.83	1079.95
957.13	1080.27
957.43	1076.95
957.72	1076.25
958.02	1074.52
958.32	1073.95
958.61	1074.28
958.91	1075.83
959.21	1075.78
959.50	1080.88
959.80	1081.16
960.10	1078.19
960.39	1078.66
960.69	1077.86
960.99	1076.08
961.28	1075.85
961.58	1079.76
961.87	1082.29
962.17	1085.10
962.47	1083.90
962.76	1084.63
963.06	1082.17
963.36	1080.27
963.65	1077.16
963.95	1075.29
964.24	1076.44
964.54	1075.90
964.83	1075.15
965.13	1078.36
965.42	1080.46
965.72	1078.59
966.02	1080.65
966.31	1079.10
966.61	1080.51
966.90	1079.83
967.20	1079.43
967.49	1078.19
967.79	1080.51
968.08	1078.94
968.38	1077.91
968.67	1078.17
968.97	1078.17
969.26	1077.58
969.56	1075.62
969.85	1075.36
970.15	1073.93
970.44	1075.62
970.74	1075.43
971.03	1077.86
971.32	1079.95
971.62	1078.64
971.91	1076.83
972.21	1078.14
972.50	1078.52
972.80	1078.33
973.09	1082.83
973.38	1084.63
973.68	1081.87
973.97	1077.54
974.27	1079.83
974.56	1075.71
974.85	1075.90
975.15	1076.88
975.44	1078.07
975.73	1074.14
976.03	1075.22
976.32	1075.78
976.61	1077.56
976.91	1079.64
977.20	1080.09
977.49	1082.50
977.79	1077.14
978.08	1076.25
978.37	1077.16
978.67	1076.72
978.96	1073.65
979.25	1075.31
979.55	1073.86
979.84	1069.86
980.13	1068.92
980.42	1072.08
980.72	1074.03
981.01	1076.39
981.30	1083.06
981.59	1087.69
981.89	1086.31
982.18	1088.70
982.47	1087.41
982.76	1083.27
983.06	1081.05
983.35	1083.08
983.64	1077.47
983.93	1076.65
984.22	1073.21
984.52	1073.16
984.81	1071.71
985.10	1077.58
985.39	1078.00
985.68	1079.03
985.97	1079.43
986.27	1076.86
986.56	1074.17
986.85	1075.52
987.14	1079.62
987.43	1079.60
987.72	1083.20
988.01	1084.16
988.31	1086.24
988.60	1084.37
988.89	1083.13
989.18	1082.26
989.47	1081.56
989.76	1077.28
990.05	1073.67
990.34	1074.47
990.63	1072.55
990.92	1072.57
991.21	1076.30
991.51	1079.92
991.80	1080.41
992.09	1082.26
992.38	1081.09
992.67	1079.46
992.96	1077.18
993.25	1074.45
993.54	1070.47
993.83	1071.87
994.12	1069.48
994.41	1071.94
994.70	1072.83
994.99	1076.81
995.28	1076.46
995.57	1077.04
995.86	1073.28
996.15	1074.82
996.44	1072.97
996.73	1071.64
997.02	1073.67
997.31	1077.47
997.59	1077.96
997.88	1079.74
998.17	1081.73
998.46	1080.34
998.75	1075.80
999.04	1078.03
999.33	1074.96
999.62	1074.21
999.91	1076.58
1000.20	1079.15
1000.49	1075.99
1000.77	1078.36
1001.06	1078.36
1001.35	1075.01
1001.64	1076.27
1001.93	1075.48
1002.22	1075.55
1002.51	1076.76
1002.79	1077.40
1003.08	1078.92
1003.37	1081.05
1003.66	1081.84
1003.95	1078.40
1004.23	1081.14
1004.52	1081.23
1004.81	1081.33
1005.10	1078.87
1005.39	1079.20
1005.67	1075.83
1005.96	1074.19
1006.25	1073.42
1006.54	1077.79
1006.83	1079.01
1007.11	1080.72
1007.40	1079.41
1007.69	1078.59
1007.97	1077.07
1008.26	1079.90
1008.55	1080.06
1008.84	1081.07
1009.12	1081.30
1009.41	1083.71
1009.70	1081.02
1009.98	1081.40
1010.27	1082.19
1010.56	1080.18
1010.85	1076.13
1011.13	1075.10
1011.42	1068.76
1011.71	1067.80
1011.99	1071.24
1012.28	1072.64
1012.56	1071.99
1012.85	1079.85
1013.14	1080.20
1013.42	1079.85
1013.71	1079.62
1014.00	1078.07
1014.28	1075.52
1014.57	1074.82
1014.85	1073.04
1015.14	1074.38
1015.43	1076.53
1015.71	1074.19
1016.00	1073.86
1016.28	1075.24
1016.57	1074.10
1016.85	1075.17
1017.14	1075.45
1017.43	1076.79
1017.71	1077.25
1018.00	1075.36
1018.28	1074.89
1018.57	1079.03
1018.85	1078.61
1019.14	1080.13
1019.42	1082.12
1019.71	1080.51
1019.99	1077.54
1020.28	1076.23
1020.56	1071.80
1020.85	1071.54
1021.13	1076.95
1021.42	1075.59
1021.70	1076.34
1021.99	1080.37
1022.27	1083.15
1022.55	1086.24
1022.84	1095.02
>>>>>End Processed Spectral Data<<<<<
