SpectraSuite Data File
++++++++++++++++++++++++++++++++++++
Date: Mon Aug 26 10:22:22 PDT 2019
User: corrico
Dark Spectrum Present: No
Reference Spectrum Present: No
Number of Sampled Component Spectra: 1
Spectrometers: USB2+H06089
Integration Time (usec): 2000 (USB2+H06089)
Spectra Averaged: 20 (USB2+H06089)
Boxcar Smoothing: 2 (USB2+H06089)
Correct for Electrical Dark: No (USB2+H06089)
Strobe/Lamp Enabled: No (USB2+H06089)
Correct for Detector Non-linearity: No (USB2+H06089)
Correct for Stray Light: No (USB2+H06089)
Number of Pixels in Processed Spectrum: 2048
>>>>>Begin Processed Spectral Data<<<<<
339.70	1047.74
340.07	1047.74
340.45	1005.92
340.82	979.91
341.19	952.13
341.57	921.91
341.94	910.37
342.31	902.32
342.69	896.00
343.06	894.37
343.43	894.11
343.81	896.94
344.18	897.71
344.55	904.57
344.93	908.78
345.30	918.68
345.67	922.31
346.04	931.37
346.42	938.88
346.79	945.32
347.16	950.28
347.54	961.82
347.91	972.02
348.28	980.29
348.65	992.57
349.03	1002.17
349.40	1009.05
349.77	1017.29
350.14	1026.18
350.52	1030.84
350.89	1038.82
351.26	1046.01
351.63	1049.87
352.01	1055.65
352.38	1061.88
352.75	1062.30
353.12	1065.37
353.50	1064.76
353.87	1067.82
354.24	1070.77
354.61	1075.83
354.98	1078.54
355.36	1086.85
355.73	1085.28
356.10	1083.81
356.47	1082.45
356.84	1085.28
357.22	1083.71
357.59	1087.16
357.96	1087.46
358.33	1089.73
358.70	1085.91
359.08	1085.31
359.45	1082.29
359.82	1083.20
360.19	1080.88
360.56	1082.99
360.94	1082.19
361.31	1081.33
361.68	1081.05
362.05	1079.36
362.42	1080.09
362.79	1077.91
363.16	1078.14
363.54	1078.28
363.91	1078.00
364.28	1074.87
364.65	1073.60
365.02	1072.01
365.39	1070.87
365.76	1072.53
366.14	1075.78
366.51	1079.20
366.88	1079.60
367.25	1076.55
367.62	1074.75
367.99	1072.04
368.36	1068.64
368.73	1068.99
369.10	1070.63
369.48	1071.17
369.85	1075.08
370.22	1078.19
370.59	1077.21
370.96	1078.47
371.33	1080.88
371.70	1079.48
372.07	1079.48
372.44	1081.19
372.81	1081.98
373.18	1079.38
373.55	1075.94
373.93	1074.56
374.30	1072.95
374.67	1073.46
375.04	1075.03
375.41	1077.98
375.78	1078.45
376.15	1080.88
376.52	1075.90
376.89	1075.80
377.26	1072.85
377.63	1073.30
378.00	1073.84
378.37	1078.26
378.74	1077.96
379.11	1081.05
379.48	1079.17
379.85	1075.13
380.22	1075.20
380.59	1074.63
380.96	1071.26
381.33	1073.70
381.70	1077.68
382.07	1077.35
382.44	1078.17
382.81	1080.37
383.18	1081.09
383.55	1079.81
383.92	1080.65
384.29	1081.33
384.66	1084.42
385.03	1085.63
385.40	1088.23
385.77	1089.12
386.14	1090.15
386.51	1088.68
386.88	1085.45
387.25	1081.51
387.62	1079.27
387.99	1076.95
388.36	1074.00
388.73	1075.20
389.10	1077.28
389.46	1077.44
389.83	1079.78
390.20	1084.30
390.57	1085.52
390.94	1083.81
391.31	1083.69
391.68	1081.87
392.05	1079.74
392.42	1078.05
392.79	1079.31
393.16	1081.75
393.53	1082.92
393.89	1082.78
394.26	1084.67
394.63	1087.58
395.00	1085.89
395.37	1086.22
395.74	1087.48
396.11	1090.13
396.48	1088.35
396.84	1090.78
397.21	1090.92
397.58	1088.42
397.95	1086.64
398.32	1087.60
398.69	1084.86
399.06	1085.33
399.42	1087.86
399.79	1089.36
400.16	1088.96
400.53	1092.28
400.90	1093.64
401.27	1091.60
401.64	1091.77
402.00	1090.48
402.37	1086.52
402.74	1082.78
403.11	1082.87
403.48	1082.66
403.84	1083.97
404.21	1086.48
404.58	1089.24
404.95	1090.95
405.32	1085.68
405.68	1085.05
406.05	1085.68
406.42	1086.52
406.79	1084.89
407.16	1089.31
407.52	1090.03
407.89	1091.13
408.26	1090.97
408.63	1096.21
408.99	1096.70
409.36	1096.52
409.73	1095.51
410.10	1097.31
410.47	1095.25
410.83	1092.91
411.20	1094.29
411.57	1094.04
411.94	1091.34
412.30	1089.89
412.67	1094.88
413.04	1095.09
413.40	1091.77
413.77	1094.95
414.14	1094.76
414.51	1095.51
414.87	1096.07
415.24	1104.26
415.61	1104.29
415.97	1108.62
416.34	1104.83
416.71	1107.33
417.08	1109.74
417.44	1108.06
417.81	1106.09
418.18	1111.73
418.54	1111.89
418.91	1109.18
419.28	1112.69
419.64	1112.83
420.01	1110.70
420.38	1111.80
420.74	1111.01
421.11	1114.40
421.48	1116.11
421.84	1117.14
422.21	1117.04
422.58	1120.77
422.94	1121.51
423.31	1126.52
423.68	1127.76
424.04	1132.42
424.41	1137.92
424.77	1140.75
425.14	1143.84
425.51	1148.88
425.87	1152.76
426.24	1152.67
426.61	1157.00
426.97	1161.61
427.34	1168.00
427.70	1172.80
428.07	1180.12
428.44	1185.95
428.80	1193.13
429.17	1200.86
429.53	1211.20
429.90	1222.18
430.27	1231.10
430.63	1243.43
431.00	1255.67
431.36	1265.32
431.73	1274.54
432.09	1289.05
432.46	1302.65
432.83	1318.05
433.19	1333.50
433.56	1353.46
433.92	1371.41
434.29	1390.44
434.65	1411.39
435.02	1437.95
435.38	1465.20
435.75	1494.39
436.11	1525.73
436.48	1556.88
436.84	1589.62
437.21	1619.18
437.57	1657.40
437.94	1695.91
438.30	1741.59
438.67	1789.69
439.03	1842.24
439.40	1894.13
439.76	1947.98
440.13	2005.70
440.49	2066.22
440.86	2131.01
441.22	2201.58
441.59	2275.80
441.95	2352.00
442.32	2438.18
442.68	2531.57
443.05	2629.92
443.41	2733.23
443.78	2832.12
444.14	2935.20
444.51	3043.98
444.87	3179.88
445.24	3317.05
445.60	3475.32
445.96	3631.62
446.33	3806.06
446.69	3964.05
447.06	4139.35
447.42	4320.23
447.79	4508.43
448.15	4724.44
448.51	4952.20
448.88	5213.96
449.24	5457.05
449.61	5736.54
449.97	6014.33
450.33	6293.07
450.70	6550.18
451.06	6867.79
451.43	7174.05
451.79	7529.55
452.15	7937.13
452.52	8381.46
452.88	8849.61
453.24	9373.96
453.61	9945.31
453.97	10498.22
454.34	11044.92
454.70	11682.55
455.06	12315.08
455.43	12934.99
455.79	13524.95
456.15	14237.39
456.52	14893.11
456.88	15667.64
457.24	16385.41
457.61	17230.60
457.97	17996.59
458.33	18764.78
458.70	19518.64
459.06	20271.73
459.42	21103.07
459.79	21868.40
460.15	22756.30
460.51	23610.69
460.88	24535.65
461.24	25315.61
461.60	26251.75
461.96	27103.97
462.33	27939.09
462.69	28736.77
463.05	29598.16
463.42	30324.78
463.78	30991.74
464.14	31514.87
464.50	32062.67
464.87	32523.43
465.23	32884.81
465.59	33228.19
465.95	33567.64
466.32	33845.90
466.68	34065.91
467.04	34179.71
467.40	34317.15
467.77	34443.58
468.13	34435.74
468.49	34368.08
468.85	34327.65
469.22	34181.91
469.58	33866.52
469.94	33614.98
470.30	33290.91
470.66	32865.90
471.03	32285.37
471.39	31895.09
471.75	31277.66
472.11	30693.72
472.47	30351.39
472.84	30040.92
473.20	29575.45
473.56	29307.56
473.92	28888.27
474.28	28371.01
474.65	27872.46
475.01	27389.25
475.37	26812.71
475.73	26360.80
476.09	25843.12
476.45	25334.15
476.81	24828.19
477.18	24306.11
477.54	23865.69
477.90	23506.14
478.26	23081.43
478.62	22733.88
478.98	22436.31
479.34	22103.34
479.71	21703.04
480.07	21377.14
480.43	21021.54
480.79	20656.07
481.15	20298.30
481.51	19970.57
481.87	19700.27
482.23	19392.18
482.59	19125.64
482.96	18850.35
483.32	18555.53
483.68	18173.14
484.04	17854.59
484.40	17505.22
484.76	17151.45
485.12	16795.17
485.48	16486.59
485.84	16133.52
486.20	15778.63
486.56	15405.50
486.92	15092.29
487.28	14753.03
487.64	14415.08
488.00	14091.73
488.37	13782.29
488.73	13443.64
489.09	13096.12
489.45	12781.45
489.81	12468.22
490.17	12171.75
490.53	11882.50
490.89	11585.02
491.25	11292.64
491.61	10984.49
491.97	10664.21
492.33	10337.51
492.69	10037.81
493.05	9727.22
493.41	9443.17
493.77	9171.88
494.13	8922.12
494.49	8670.07
494.85	8421.69
495.21	8195.46
495.57	7978.61
495.93	7765.22
496.29	7563.58
496.64	7395.44
497.00	7202.37
497.36	7008.43
497.72	6814.70
498.08	6629.99
498.44	6436.08
498.80	6260.77
499.16	6094.99
499.52	5955.00
499.88	5829.01
500.24	5706.90
500.60	5584.45
500.96	5476.71
501.32	5348.26
501.68	5221.52
502.03	5096.89
502.39	4975.07
502.75	4828.41
503.11	4706.14
503.47	4592.62
503.83	4473.00
504.19	4352.04
504.55	4253.06
504.91	4153.58
505.26	4053.90
505.62	3965.71
505.98	3879.55
506.34	3781.65
506.70	3691.66
507.06	3602.93
507.42	3519.72
507.78	3442.25
508.13	3375.85
508.49	3298.35
508.85	3230.48
509.21	3156.49
509.57	3084.26
509.93	3016.53
510.28	2956.59
510.64	2891.08
511.00	2833.05
511.36	2773.11
511.72	2716.87
512.07	2663.97
512.43	2613.72
512.79	2562.25
513.15	2517.08
513.51	2470.18
513.86	2422.24
514.22	2382.34
514.58	2342.97
514.94	2306.20
515.30	2267.75
515.65	2231.96
516.01	2194.39
516.37	2164.95
516.73	2136.21
517.08	2105.78
517.44	2074.91
517.80	2040.29
518.16	2012.74
518.51	1980.68
518.87	1954.60
519.23	1929.07
519.59	1908.38
519.94	1878.26
520.30	1856.47
520.66	1830.74
521.01	1807.99
521.37	1784.92
521.73	1764.86
522.09	1743.77
522.44	1726.52
522.80	1705.57
523.16	1690.83
523.51	1669.78
523.87	1647.48
524.23	1629.11
524.58	1612.61
524.94	1589.22
525.30	1571.95
525.65	1560.95
526.01	1547.05
526.37	1533.75
526.72	1523.67
527.08	1512.06
527.44	1495.46
527.79	1484.58
528.15	1473.34
528.51	1459.39
528.86	1443.43
529.22	1432.10
529.58	1415.02
529.93	1401.82
530.29	1389.51
530.65	1384.66
531.00	1374.32
531.36	1366.69
531.71	1358.77
532.07	1355.31
532.43	1349.20
532.78	1346.60
533.14	1337.97
533.49	1331.09
533.85	1320.88
534.21	1310.00
534.56	1296.80
534.92	1293.52
535.27	1284.72
535.63	1282.15
535.98	1278.63
536.34	1278.80
536.69	1273.81
537.05	1268.92
537.41	1262.02
537.76	1257.01
538.12	1247.93
538.47	1243.92
538.83	1240.98
539.18	1234.59
539.54	1228.76
539.89	1226.65
540.25	1220.73
540.60	1217.06
540.96	1213.15
541.31	1209.28
541.67	1206.97
542.02	1204.09
542.38	1198.47
542.73	1198.31
543.09	1198.05
543.44	1192.71
543.80	1190.58
544.15	1187.66
544.51	1187.73
544.86	1184.78
545.22	1185.15
545.57	1178.51
545.93	1177.99
546.28	1173.12
546.64	1170.81
546.99	1167.44
547.35	1168.82
547.70	1163.76
548.05	1160.74
548.41	1157.00
548.76	1156.62
549.12	1156.72
549.47	1157.79
549.83	1157.30
550.18	1156.22
550.53	1153.09
550.89	1150.37
551.24	1147.05
551.60	1145.55
551.95	1139.40
552.30	1140.71
552.66	1135.60
553.01	1133.52
553.37	1131.98
553.72	1134.46
554.07	1131.39
554.43	1131.20
554.78	1129.38
555.13	1129.36
555.49	1129.17
555.84	1126.43
556.19	1126.03
556.55	1129.92
556.90	1129.19
557.26	1126.17
557.61	1125.75
557.96	1126.52
558.32	1124.91
558.67	1120.65
559.02	1119.08
559.37	1118.54
559.73	1114.68
560.08	1111.19
560.43	1112.32
560.79	1113.46
561.14	1110.09
561.49	1110.75
561.85	1110.05
562.20	1109.53
562.55	1108.81
562.90	1110.61
563.26	1107.89
563.61	1109.20
563.96	1108.41
564.32	1107.38
564.67	1108.74
565.02	1107.54
565.37	1110.23
565.73	1107.12
566.08	1107.05
566.43	1103.82
566.78	1103.12
567.14	1098.79
567.49	1099.23
567.84	1099.23
568.19	1100.54
568.54	1102.65
568.90	1103.96
569.25	1104.92
569.60	1102.93
569.95	1100.08
570.31	1100.47
570.66	1099.07
571.01	1097.01
571.36	1098.60
571.71	1102.02
572.06	1100.10
572.42	1096.92
572.77	1102.58
573.12	1101.85
573.47	1095.86
573.82	1096.28
574.18	1096.87
574.53	1091.37
574.88	1089.92
575.23	1090.29
575.58	1089.92
575.93	1092.91
576.28	1093.43
576.64	1092.98
576.99	1096.78
577.34	1099.28
577.69	1099.54
578.04	1099.58
578.39	1102.72
578.74	1100.80
579.09	1100.80
579.44	1096.28
579.80	1095.75
580.15	1092.30
580.50	1091.95
580.85	1086.36
581.20	1086.01
581.55	1087.09
581.90	1087.39
582.25	1089.47
582.60	1090.20
582.95	1094.15
583.30	1095.11
583.65	1093.83
584.00	1091.04
584.35	1093.43
584.71	1090.64
585.06	1088.70
585.41	1091.58
585.76	1093.12
586.11	1091.44
586.46	1090.60
586.81	1090.83
587.16	1089.61
587.51	1085.94
587.86	1091.44
588.21	1095.21
588.56	1090.78
588.91	1093.10
589.26	1097.85
589.61	1094.46
589.96	1094.46
590.31	1099.58
590.66	1097.66
591.01	1093.12
591.36	1091.27
591.71	1090.22
592.06	1086.87
592.41	1086.83
592.76	1088.65
593.10	1089.73
593.45	1089.31
593.80	1092.73
594.15	1092.68
594.50	1094.29
594.85	1092.59
595.20	1090.92
595.55	1089.85
595.90	1086.64
596.25	1085.94
596.60	1087.62
596.95	1086.45
597.30	1085.54
597.64	1097.97
597.99	1095.49
598.34	1096.59
598.69	1098.30
599.04	1098.32
599.39	1087.34
599.74	1088.26
600.09	1084.35
600.44	1085.77
600.78	1084.63
601.13	1085.38
601.48	1087.23
601.83	1090.57
602.18	1087.27
602.53	1090.62
602.88	1090.57
603.22	1086.59
603.57	1085.89
603.92	1085.66
604.27	1083.76
604.62	1083.81
604.97	1086.08
605.31	1086.08
605.66	1085.07
606.01	1086.76
606.36	1084.30
606.71	1082.10
607.05	1081.91
607.40	1081.87
607.75	1076.74
608.10	1078.82
608.44	1080.53
608.79	1080.70
609.14	1081.77
609.49	1083.95
609.84	1085.80
610.18	1085.87
610.53	1084.65
610.88	1087.04
611.23	1089.89
611.57	1084.93
611.92	1084.25
612.27	1085.26
612.62	1083.50
612.96	1078.21
613.31	1082.29
613.66	1082.87
614.00	1080.30
614.35	1081.35
614.70	1082.59
615.05	1080.23
615.39	1081.23
615.74	1082.08
616.09	1080.39
616.43	1082.05
616.78	1080.86
617.13	1079.88
617.47	1081.47
617.82	1085.33
618.17	1084.65
618.51	1090.36
618.86	1090.95
619.21	1092.28
619.55	1089.54
619.90	1087.20
620.25	1082.43
620.59	1080.77
620.94	1077.75
621.29	1079.50
621.63	1081.14
621.98	1080.98
622.32	1081.82
622.67	1081.94
623.02	1079.99
623.36	1082.03
623.71	1084.51
624.05	1084.79
624.40	1085.56
624.75	1086.20
625.09	1084.11
625.44	1085.21
625.78	1085.40
626.13	1087.86
626.48	1086.94
626.82	1087.86
627.17	1086.17
627.51	1084.23
627.86	1080.44
628.20	1082.90
628.55	1084.32
628.89	1083.97
629.24	1087.41
629.58	1090.15
629.93	1084.81
630.28	1082.36
630.62	1078.38
630.97	1076.72
631.31	1075.08
631.66	1078.57
632.00	1077.61
632.35	1079.48
632.69	1081.77
633.04	1081.28
633.38	1080.02
633.73	1079.31
634.07	1081.94
634.42	1080.91
634.76	1083.71
635.11	1084.00
635.45	1085.87
635.79	1085.26
636.14	1083.86
636.48	1081.02
636.83	1081.40
637.17	1081.26
637.52	1082.19
637.86	1082.71
638.21	1081.70
638.55	1081.37
638.89	1079.97
639.24	1077.91
639.58	1077.54
639.93	1081.21
640.27	1080.16
640.61	1082.97
640.96	1085.38
641.30	1083.25
641.65	1079.24
641.99	1082.19
642.33	1080.58
642.68	1079.15
643.02	1081.40
643.37	1081.49
643.71	1079.78
644.05	1078.66
644.40	1079.20
644.74	1079.92
645.08	1081.51
645.43	1081.14
645.77	1083.01
646.11	1079.22
646.46	1076.90
646.80	1076.23
647.14	1077.84
647.49	1079.10
647.83	1083.90
648.17	1085.73
648.52	1087.04
648.86	1087.55
649.20	1087.11
649.55	1085.87
649.89	1087.69
650.23	1083.29
650.57	1082.99
650.92	1078.87
651.26	1078.54
651.60	1074.33
651.95	1078.07
652.29	1078.40
652.63	1081.35
652.97	1082.71
653.32	1083.46
653.66	1083.46
654.00	1080.11
654.34	1079.83
654.69	1079.15
655.03	1080.27
655.37	1079.46
655.71	1080.95
656.05	1082.69
656.40	1084.39
656.74	1085.80
657.08	1087.30
657.42	1084.11
657.76	1082.45
658.11	1082.12
658.45	1083.62
658.79	1083.57
659.13	1086.52
659.47	1088.28
659.82	1087.09
660.16	1086.45
660.50	1085.38
660.84	1085.19
661.18	1086.66
661.52	1085.14
661.87	1083.57
662.21	1082.87
662.55	1081.94
662.89	1082.01
663.23	1084.04
663.57	1084.72
663.91	1086.85
664.25	1089.29
664.60	1086.73
664.94	1082.01
665.28	1080.04
665.62	1077.40
665.96	1075.62
666.30	1073.91
666.64	1076.18
666.98	1076.62
667.32	1076.83
667.66	1078.21
668.01	1079.31
668.35	1081.70
668.69	1080.48
669.03	1081.56
669.37	1078.66
669.71	1076.53
670.05	1078.07
670.39	1079.60
670.73	1081.12
671.07	1081.23
671.41	1083.86
671.75	1080.95
672.09	1081.47
672.43	1079.15
672.77	1079.74
673.11	1080.02
673.45	1080.11
673.79	1079.31
674.13	1081.82
674.47	1082.59
674.81	1081.35
675.15	1081.02
675.49	1081.28
675.83	1081.51
676.17	1082.10
676.51	1085.52
676.85	1081.16
677.19	1083.08
677.53	1082.40
677.87	1083.08
678.21	1083.04
678.55	1087.48
678.89	1086.31
679.23	1085.31
679.57	1084.14
679.90	1080.23
680.24	1081.21
680.58	1079.62
680.92	1079.50
681.26	1079.53
681.60	1078.92
681.94	1077.54
682.28	1076.76
682.62	1077.63
682.96	1078.07
683.29	1078.36
683.63	1078.24
683.97	1080.27
684.31	1080.32
684.65	1080.30
684.99	1082.31
685.33	1080.23
685.67	1076.62
686.00	1073.23
686.34	1071.85
686.68	1071.64
687.02	1073.21
687.36	1074.07
687.70	1075.05
688.03	1077.28
688.37	1076.15
688.71	1077.56
689.05	1081.28
689.39	1084.14
689.72	1082.92
690.06	1084.44
690.40	1083.93
690.74	1080.84
691.08	1079.08
691.41	1081.70
691.75	1077.89
692.09	1080.11
692.43	1082.36
692.76	1082.45
693.10	1079.71
693.44	1083.79
693.78	1079.43
694.11	1077.14
694.45	1074.84
694.79	1075.78
695.13	1076.11
695.46	1078.89
695.80	1079.06
696.14	1080.48
696.48	1082.90
696.81	1080.88
697.15	1079.85
697.49	1078.75
697.82	1080.13
698.16	1077.00
698.50	1077.86
698.83	1078.59
699.17	1078.12
699.51	1078.87
699.84	1079.27
700.18	1079.43
700.52	1080.32
700.85	1082.92
701.19	1083.11
701.53	1083.11
701.86	1086.01
702.20	1084.77
702.54	1083.86
702.87	1083.90
703.21	1084.02
703.55	1079.34
703.88	1078.82
704.22	1081.09
704.55	1080.88
704.89	1083.22
705.23	1085.52
705.56	1084.56
705.90	1080.56
706.23	1080.60
706.57	1082.24
706.91	1082.01
707.24	1083.29
707.58	1087.16
707.91	1086.17
708.25	1081.63
708.58	1080.04
708.92	1078.40
709.26	1078.68
709.59	1076.53
709.93	1077.02
710.26	1077.56
710.60	1079.46
710.93	1077.16
711.27	1082.45
711.60	1084.00
711.94	1085.17
712.27	1085.99
712.61	1086.64
712.94	1085.28
713.28	1081.87
713.61	1081.23
713.95	1078.68
714.28	1080.23
714.62	1076.46
714.95	1078.89
715.29	1078.24
715.62	1075.87
715.96	1072.25
716.29	1074.68
716.63	1074.28
716.96	1075.48
717.29	1079.06
717.63	1081.49
717.96	1078.80
718.30	1079.08
718.63	1077.65
718.97	1077.70
719.30	1076.69
719.63	1080.86
719.97	1079.71
720.30	1082.47
720.64	1080.88
720.97	1082.24
721.30	1077.35
721.64	1077.18
721.97	1076.20
722.31	1077.86
722.64	1077.11
722.97	1078.61
723.31	1082.94
723.64	1083.46
723.97	1082.12
724.31	1081.63
724.64	1083.11
724.98	1078.10
725.31	1076.46
725.64	1076.25
725.98	1078.21
726.31	1076.93
726.64	1077.16
726.97	1076.55
727.31	1079.22
727.64	1075.71
727.97	1076.44
728.31	1079.15
728.64	1076.13
728.97	1074.89
729.31	1078.71
729.64	1079.29
729.97	1077.58
730.30	1082.29
730.64	1082.61
730.97	1079.03
731.30	1079.53
731.63	1078.43
731.97	1076.95
732.30	1074.03
732.63	1073.18
732.96	1072.83
733.30	1074.73
733.63	1077.70
733.96	1081.98
734.29	1083.76
734.63	1081.54
734.96	1081.77
735.29	1079.27
735.62	1079.57
735.95	1082.38
736.29	1085.82
736.62	1084.65
736.95	1085.07
737.28	1083.67
737.61	1082.97
737.94	1082.64
738.28	1081.05
738.61	1080.65
738.94	1079.38
739.27	1078.03
739.60	1077.11
739.93	1077.72
740.27	1078.89
740.60	1079.17
740.93	1078.85
741.26	1078.40
741.59	1079.41
741.92	1077.07
742.25	1078.00
742.58	1077.56
742.91	1076.97
743.25	1078.73
743.58	1080.41
743.91	1080.98
744.24	1083.88
744.57	1084.81
744.90	1082.78
745.23	1083.01
745.56	1081.68
745.89	1079.43
746.22	1079.48
746.55	1078.61
746.88	1075.83
747.21	1071.78
747.54	1071.92
747.87	1071.87
748.20	1070.56
748.53	1073.51
748.87	1078.94
749.20	1077.65
749.53	1076.93
749.86	1079.36
750.19	1078.61
750.52	1075.50
750.85	1075.85
751.18	1077.93
751.51	1076.93
751.84	1075.59
752.16	1076.27
752.49	1078.36
752.82	1073.53
753.15	1074.56
753.48	1075.38
753.81	1076.81
754.14	1076.81
754.47	1078.05
754.80	1080.16
755.13	1079.83
755.46	1081.77
755.79	1078.40
756.12	1083.76
756.45	1083.74
756.78	1082.94
757.11	1081.70
757.43	1084.42
757.76	1080.09
758.09	1077.70
758.42	1080.02
758.75	1077.33
759.08	1077.25
759.41	1078.61
759.74	1077.40
760.07	1077.42
760.39	1080.02
760.72	1079.64
761.05	1080.88
761.38	1085.07
761.71	1086.50
762.04	1082.50
762.36	1080.60
762.69	1077.18
763.02	1071.26
763.35	1070.42
763.68	1073.58
764.01	1075.10
764.33	1077.04
764.66	1080.37
764.99	1081.44
765.32	1079.67
765.65	1080.51
765.97	1078.57
766.30	1080.13
766.63	1075.52
766.96	1078.00
767.28	1078.21
767.61	1079.62
767.94	1081.96
768.27	1080.09
768.59	1076.58
768.92	1074.75
769.25	1074.66
769.58	1069.53
769.90	1073.42
770.23	1074.03
770.56	1074.40
770.89	1076.53
771.21	1079.06
771.54	1082.15
771.87	1085.17
772.19	1083.36
772.52	1082.64
772.85	1081.51
773.17	1076.90
773.50	1075.01
773.83	1076.39
774.15	1076.67
774.48	1074.56
774.81	1076.81
775.13	1076.53
775.46	1075.52
775.79	1074.75
776.11	1075.57
776.44	1075.55
776.77	1074.00
777.09	1076.83
777.42	1074.87
777.74	1074.24
778.07	1073.65
778.40	1077.33
778.72	1073.91
779.05	1076.69
779.37	1076.95
779.70	1076.81
780.03	1077.37
780.35	1080.65
780.68	1081.16
781.00	1083.20
781.33	1079.92
781.65	1076.39
781.98	1075.20
782.31	1074.61
782.63	1074.66
782.96	1075.50
783.28	1077.93
783.61	1077.51
783.93	1074.91
784.26	1074.80
784.58	1076.23
784.91	1078.40
785.23	1077.84
785.56	1079.41
785.88	1076.41
786.21	1076.32
786.53	1073.60
786.86	1072.64
787.18	1072.50
787.51	1073.56
787.83	1075.71
788.16	1074.10
788.48	1076.60
788.81	1076.95
789.13	1078.50
789.46	1079.64
789.78	1081.73
790.10	1082.29
790.43	1084.65
790.75	1084.56
791.08	1083.41
791.40	1083.88
791.73	1082.78
792.05	1079.83
792.37	1079.74
792.70	1075.94
793.02	1076.81
793.35	1073.88
793.67	1073.77
793.99	1074.77
794.32	1076.39
794.64	1073.56
794.96	1077.49
795.29	1079.83
795.61	1077.33
795.93	1078.07
796.26	1077.18
796.58	1076.69
796.91	1073.21
797.23	1074.40
797.55	1076.69
797.87	1078.10
798.20	1076.18
798.52	1076.67
798.84	1075.80
799.17	1073.14
799.49	1075.50
799.81	1076.41
800.14	1077.91
800.46	1080.77
800.78	1084.49
801.10	1081.75
801.43	1081.51
801.75	1083.69
802.07	1080.63
802.40	1078.07
802.72	1076.46
803.04	1076.97
803.36	1075.03
803.69	1079.08
804.01	1080.53
804.33	1085.84
804.65	1082.71
804.97	1083.60
805.30	1080.91
805.62	1077.65
805.94	1072.57
806.26	1074.77
806.58	1072.08
806.91	1072.32
807.23	1072.95
807.55	1074.96
807.87	1075.45
808.19	1076.13
808.52	1078.40
808.84	1077.65
809.16	1077.35
809.48	1079.03
809.80	1079.38
810.12	1078.28
810.44	1079.60
810.77	1081.58
811.09	1082.64
811.41	1083.34
811.73	1082.12
812.05	1079.60
812.37	1073.04
812.69	1068.43
813.01	1063.02
813.33	1063.19
813.66	1066.49
813.98	1071.05
814.30	1076.90
814.62	1080.06
814.94	1079.85
815.26	1079.95
815.58	1082.17
815.90	1075.69
816.22	1074.70
816.54	1074.87
816.86	1074.07
817.18	1073.72
817.50	1077.58
817.82	1081.98
818.14	1082.64
818.46	1080.11
818.78	1078.57
819.10	1084.67
819.42	1080.16
819.74	1076.65
820.06	1079.41
820.38	1076.83
820.70	1068.76
821.02	1071.73
821.34	1076.53
821.66	1076.34
821.98	1079.43
822.30	1080.56
822.62	1079.15
822.94	1075.52
823.26	1074.12
823.58	1071.12
823.90	1071.87
824.22	1072.32
824.54	1073.58
824.86	1074.82
825.18	1079.38
825.50	1078.61
825.81	1078.87
826.13	1076.60
826.45	1075.69
826.77	1074.45
827.09	1073.14
827.41	1073.77
827.73	1076.58
828.05	1076.11
828.36	1072.95
828.68	1072.57
829.00	1071.68
829.32	1072.90
829.64	1073.63
829.96	1076.13
830.28	1079.55
830.59	1080.11
830.91	1078.36
831.23	1075.20
831.55	1071.33
831.87	1070.77
832.19	1071.92
832.50	1070.63
832.82	1076.39
833.14	1080.91
833.46	1081.49
833.78	1080.25
834.09	1083.22
834.41	1079.10
834.73	1076.13
835.05	1074.49
835.36	1074.87
835.68	1074.84
836.00	1076.86
836.32	1081.51
836.63	1081.89
836.95	1080.70
837.27	1080.95
837.59	1081.70
837.90	1076.60
838.22	1078.71
838.54	1079.27
838.85	1078.33
839.17	1078.87
839.49	1084.84
839.80	1081.61
840.12	1083.81
840.44	1083.08
840.76	1078.28
841.07	1074.14
841.39	1078.45
841.71	1078.61
842.02	1077.21
842.34	1078.75
842.65	1080.88
842.97	1078.33
843.29	1077.54
843.60	1080.72
843.92	1079.34
844.24	1077.49
844.55	1078.96
844.87	1077.02
845.18	1073.88
845.50	1073.86
845.82	1072.85
846.13	1069.30
846.45	1067.89
846.76	1071.36
847.08	1073.35
847.40	1072.57
847.71	1074.84
848.03	1076.88
848.34	1074.70
848.66	1074.98
848.97	1076.46
849.29	1075.48
849.60	1076.55
849.92	1077.70
850.24	1080.04
850.55	1081.28
850.87	1081.19
851.18	1079.17
851.50	1073.46
851.81	1071.33
852.13	1068.17
852.44	1067.45
852.76	1066.39
853.07	1072.88
853.39	1073.77
853.70	1075.55
854.01	1076.97
854.33	1076.86
854.64	1074.82
854.96	1074.96
855.27	1076.23
855.59	1076.81
855.90	1079.97
856.22	1080.41
856.53	1080.51
856.84	1079.01
857.16	1075.34
857.47	1076.30
857.79	1075.87
858.10	1073.93
858.41	1075.80
858.73	1076.86
859.04	1075.17
859.36	1076.76
859.67	1078.45
859.98	1076.48
860.30	1077.33
860.61	1077.04
860.92	1077.11
861.24	1079.90
861.55	1080.39
861.87	1081.05
862.18	1081.73
862.49	1080.56
862.81	1076.95
863.12	1079.29
863.43	1079.78
863.74	1080.41
864.06	1079.71
864.37	1081.66
864.68	1079.55
865.00	1074.94
865.31	1073.53
865.62	1077.16
865.94	1074.94
866.25	1076.76
866.56	1081.05
866.87	1081.70
867.19	1077.84
867.50	1077.23
867.81	1077.82
868.12	1079.10
868.44	1078.52
868.75	1079.48
869.06	1083.08
869.37	1082.05
869.68	1075.76
870.00	1077.44
870.31	1078.96
870.62	1078.21
870.93	1077.96
871.24	1083.20
871.56	1081.40
871.87	1080.09
872.18	1079.20
872.49	1076.69
872.80	1077.07
873.12	1080.32
873.43	1077.79
873.74	1076.46
874.05	1077.40
874.36	1079.24
874.67	1076.46
874.98	1078.33
875.29	1077.21
875.61	1079.08
875.92	1073.11
876.23	1070.77
876.54	1069.88
876.85	1073.91
877.16	1072.95
877.47	1077.93
877.78	1076.62
878.09	1076.11
878.40	1074.19
878.72	1073.72
879.03	1074.70
879.34	1077.96
879.65	1078.36
879.96	1077.86
880.27	1078.43
880.58	1074.96
880.89	1073.74
881.20	1074.19
881.51	1074.63
881.82	1076.65
882.13	1076.01
882.44	1078.21
882.75	1079.15
883.06	1082.64
883.37	1079.97
883.68	1083.57
883.99	1083.15
884.30	1083.64
884.61	1080.09
884.92	1079.24
885.23	1075.43
885.54	1073.93
885.85	1069.88
886.16	1072.39
886.47	1070.68
886.78	1072.18
887.08	1073.79
887.39	1077.84
887.70	1076.69
888.01	1079.53
888.32	1081.14
888.63	1082.12
888.94	1081.49
889.25	1079.38
889.56	1079.90
889.87	1076.48
890.17	1074.38
890.48	1076.72
890.79	1076.27
891.10	1076.06
891.41	1078.96
891.72	1079.78
892.03	1077.79
892.34	1079.46
892.64	1080.06
892.95	1079.24
893.26	1081.54
893.57	1082.83
893.88	1084.04
894.18	1081.61
894.49	1082.38
894.80	1081.19
895.11	1076.30
895.42	1074.10
895.72	1075.71
896.03	1073.98
896.34	1074.47
896.65	1078.31
896.96	1078.12
897.26	1078.89
897.57	1082.94
897.88	1079.78
898.19	1078.28
898.49	1078.96
898.80	1081.09
899.11	1077.82
899.41	1078.94
899.72	1082.24
900.03	1082.52
900.34	1079.57
900.64	1076.48
900.95	1073.49
901.26	1071.52
901.56	1070.61
901.87	1073.07
902.18	1075.69
902.48	1079.41
902.79	1078.82
903.10	1081.09
903.40	1078.61
903.71	1078.31
904.02	1079.71
904.32	1078.45
904.63	1077.65
904.94	1077.89
905.24	1078.43
905.55	1076.46
905.85	1078.45
906.16	1077.33
906.47	1079.78
906.77	1081.70
907.08	1083.25
907.38	1082.94
907.69	1083.20
908.00	1080.84
908.30	1077.79
908.61	1072.97
908.91	1072.90
909.22	1072.83
909.52	1073.32
909.83	1072.81
910.14	1074.26
910.44	1073.84
910.75	1071.43
911.05	1070.19
911.36	1070.09
911.66	1074.26
911.97	1074.38
912.27	1078.26
912.58	1077.35
912.88	1079.41
913.19	1077.75
913.49	1077.35
913.80	1070.63
914.10	1069.27
914.41	1068.88
914.71	1070.12
915.01	1071.31
915.32	1075.71
915.62	1075.27
915.93	1074.94
916.23	1071.03
916.54	1070.05
916.84	1070.70
917.15	1073.39
917.45	1072.74
917.75	1076.55
918.06	1077.04
918.36	1080.30
918.67	1080.46
918.97	1079.67
919.27	1077.35
919.58	1076.88
919.88	1072.95
920.18	1073.46
920.49	1075.41
920.79	1073.77
921.10	1073.84
921.40	1078.50
921.70	1076.58
922.01	1075.05
922.31	1076.62
922.61	1077.23
922.92	1074.66
923.22	1076.06
923.52	1076.25
923.82	1077.65
924.13	1074.89
924.43	1074.87
924.73	1076.34
925.04	1079.01
925.34	1074.84
925.64	1073.74
925.94	1073.00
926.25	1069.18
926.55	1067.40
926.85	1069.58
927.15	1073.98
927.46	1074.35
927.76	1076.55
928.06	1078.61
928.36	1079.74
928.67	1078.66
928.97	1075.08
929.27	1072.62
929.57	1072.85
929.87	1072.13
930.18	1071.05
930.48	1074.21
930.78	1078.66
931.08	1075.15
931.38	1075.15
931.69	1075.45
931.99	1077.91
932.29	1079.22
932.59	1081.09
932.89	1082.29
933.19	1079.81
933.49	1076.62
933.80	1075.17
934.10	1074.56
934.40	1076.60
934.70	1078.68
935.00	1080.16
935.30	1078.50
935.60	1079.27
935.90	1075.43
936.20	1074.80
936.50	1073.09
936.81	1073.00
937.11	1074.03
937.41	1074.38
937.71	1077.63
938.01	1077.18
938.31	1076.65
938.61	1077.70
938.91	1076.97
939.21	1076.79
939.51	1078.73
939.81	1079.83
940.11	1079.48
940.41	1080.25
940.71	1080.70
941.01	1083.32
941.31	1084.86
941.61	1085.33
941.91	1085.07
942.21	1081.21
942.51	1076.90
942.81	1075.94
943.11	1073.25
943.41	1072.25
943.71	1074.98
944.01	1075.34
944.31	1074.28
944.61	1075.27
944.90	1078.10
945.20	1076.32
945.50	1076.51
945.80	1076.62
946.10	1074.35
946.40	1074.45
946.70	1073.81
947.00	1074.14
947.30	1074.35
947.60	1076.93
947.89	1077.14
948.19	1078.07
948.49	1077.79
948.79	1082.31
949.09	1080.70
949.39	1080.77
949.69	1081.33
949.98	1082.69
950.28	1077.47
950.58	1078.38
950.88	1075.17
951.18	1074.82
951.48	1075.66
951.77	1076.32
952.07	1076.20
952.37	1080.20
952.67	1080.70
952.97	1077.44
953.26	1079.27
953.56	1077.40
953.86	1075.38
954.16	1076.41
954.45	1074.80
954.75	1074.89
955.05	1077.11
955.35	1077.91
955.64	1077.65
955.94	1083.67
956.24	1083.55
956.54	1081.51
956.83	1079.53
957.13	1079.48
957.43	1074.98
957.72	1073.35
958.02	1071.97
958.32	1073.00
958.61	1072.81
958.91	1075.50
959.21	1074.47
959.50	1076.97
959.80	1075.45
960.10	1073.67
960.39	1071.24
960.69	1071.15
960.99	1070.94
961.28	1072.55
961.58	1074.80
961.87	1074.19
962.17	1076.62
962.47	1078.45
962.76	1078.80
963.06	1079.43
963.36	1080.09
963.65	1076.37
963.95	1074.87
964.24	1076.76
964.54	1075.62
964.83	1078.99
965.13	1080.44
965.42	1081.63
965.72	1078.33
966.02	1076.34
966.31	1076.06
966.61	1076.88
966.90	1077.04
967.20	1080.60
967.49	1084.11
967.79	1083.81
968.08	1087.37
968.38	1085.49
968.67	1080.70
968.97	1076.41
969.26	1076.15
969.56	1073.18
969.85	1075.31
970.15	1077.35
970.44	1077.70
970.74	1075.52
971.03	1075.03
971.32	1073.49
971.62	1076.30
971.91	1076.23
972.21	1077.25
972.50	1078.47
972.80	1078.94
973.09	1075.05
973.38	1079.27
973.68	1078.85
973.97	1076.53
974.27	1076.76
974.56	1078.96
974.85	1076.41
975.15	1078.12
975.44	1077.68
975.73	1075.87
976.03	1076.13
976.32	1078.47
976.61	1079.29
976.91	1080.16
977.20	1079.55
977.49	1077.65
977.79	1070.47
978.08	1066.70
978.37	1066.54
978.67	1067.47
978.96	1069.32
979.25	1074.19
979.55	1075.31
979.84	1076.23
980.13	1076.83
980.42	1075.34
980.72	1073.72
981.01	1073.72
981.30	1072.48
981.59	1075.71
981.89	1077.11
982.18	1076.81
982.47	1077.11
982.76	1078.33
983.06	1077.47
983.35	1074.40
983.64	1076.23
983.93	1078.00
984.22	1079.97
984.52	1078.85
984.81	1079.53
985.10	1079.34
985.39	1075.08
985.68	1072.04
985.97	1071.40
986.27	1071.33
986.56	1070.05
986.85	1072.55
987.14	1073.16
987.43	1074.66
987.72	1076.27
988.01	1074.91
988.31	1075.55
988.60	1073.81
988.89	1070.84
989.18	1070.09
989.47	1074.68
989.76	1075.24
990.05	1078.85
990.34	1080.06
990.63	1079.15
990.92	1077.86
991.21	1077.04
991.51	1074.73
991.80	1075.71
992.09	1076.79
992.38	1075.90
992.67	1075.50
992.96	1074.75
993.25	1073.95
993.54	1077.07
993.83	1078.50
994.12	1075.45
994.41	1076.13
994.70	1078.17
994.99	1073.95
995.28	1076.58
995.57	1078.75
995.86	1081.68
996.15	1078.21
996.44	1078.17
996.73	1075.29
997.02	1074.54
997.31	1073.07
997.59	1072.22
997.88	1072.01
998.17	1073.74
998.46	1076.30
998.75	1076.20
999.04	1076.34
999.33	1077.56
999.62	1073.04
999.91	1068.29
1000.20	1068.34
1000.49	1069.65
1000.77	1071.10
1001.06	1071.01
1001.35	1073.28
1001.64	1070.84
1001.93	1070.49
1002.22	1070.23
1002.51	1069.48
1002.79	1070.23
1003.08	1073.86
1003.37	1075.55
1003.66	1077.47
1003.95	1081.16
1004.23	1083.64
1004.52	1084.09
1004.81	1085.68
1005.10	1080.51
1005.39	1082.59
1005.67	1081.75
1005.96	1078.47
1006.25	1077.28
1006.54	1078.68
1006.83	1078.00
1007.11	1077.77
1007.40	1079.95
1007.69	1081.94
1007.97	1082.64
1008.26	1081.47
1008.55	1080.86
1008.84	1076.27
1009.12	1073.04
1009.41	1074.14
1009.70	1072.90
1009.98	1072.29
1010.27	1077.56
1010.56	1078.31
1010.85	1078.47
1011.13	1079.76
1011.42	1079.01
1011.71	1075.29
1011.99	1076.53
1012.28	1076.83
1012.56	1072.71
1012.85	1075.03
1013.14	1076.69
1013.42	1073.42
1013.71	1073.23
1014.00	1073.65
1014.28	1076.08
1014.57	1073.98
1014.85	1076.06
1015.14	1074.17
1015.43	1079.69
1015.71	1079.08
1016.00	1083.13
1016.28	1081.35
1016.57	1083.29
1016.85	1082.10
1017.14	1077.91
1017.43	1077.37
1017.71	1078.92
1018.00	1077.56
1018.28	1075.99
1018.57	1077.42
1018.85	1078.40
1019.14	1075.78
1019.42	1076.53
1019.71	1077.28
1019.99	1076.30
1020.28	1076.11
1020.56	1079.10
1020.85	1078.00
1021.13	1075.62
1021.42	1076.34
1021.70	1076.86
1021.99	1077.70
1022.27	1078.96
1022.55	1084.84
1022.84	1078.64
>>>>>End Processed Spectral Data<<<<<
