SpectraSuite Data File
++++++++++++++++++++++++++++++++++++
Date: Mon Aug 26 10:22:04 PDT 2019
User: corrico
Dark Spectrum Present: No
Reference Spectrum Present: No
Number of Sampled Component Spectra: 1
Spectrometers: USB2+H06089
Integration Time (usec): 2000 (USB2+H06089)
Spectra Averaged: 20 (USB2+H06089)
Boxcar Smoothing: 2 (USB2+H06089)
Correct for Electrical Dark: No (USB2+H06089)
Strobe/Lamp Enabled: No (USB2+H06089)
Correct for Detector Non-linearity: No (USB2+H06089)
Correct for Stray Light: No (USB2+H06089)
Number of Pixels in Processed Spectrum: 2048
>>>>>Begin Processed Spectral Data<<<<<
339.70	1018.72
340.07	1018.72
340.45	987.33
340.82	966.71
341.19	942.04
341.57	919.20
341.94	909.27
342.31	900.64
342.69	895.07
343.06	894.76
343.43	892.87
343.81	893.22
344.18	897.20
344.55	901.74
344.93	907.40
345.30	917.65
345.67	927.06
346.04	931.60
346.42	941.50
346.79	951.24
347.16	955.38
347.54	960.65
347.91	972.68
348.28	982.98
348.65	990.73
349.03	1000.02
349.40	1010.97
349.77	1018.20
350.14	1023.63
350.52	1030.30
350.89	1037.89
351.26	1045.28
351.63	1050.20
352.01	1053.22
352.38	1058.58
352.75	1061.83
353.12	1066.47
353.50	1068.36
353.87	1071.99
354.24	1073.51
354.61	1077.14
354.98	1077.37
355.36	1081.91
355.73	1085.59
356.10	1086.17
356.47	1087.65
356.84	1087.11
357.22	1087.06
357.59	1085.00
357.96	1086.24
358.33	1087.30
358.70	1084.84
359.08	1082.22
359.45	1081.73
359.82	1079.50
360.19	1076.41
360.56	1076.51
360.94	1077.51
361.31	1080.91
361.68	1080.65
362.05	1079.60
362.42	1081.89
362.79	1082.17
363.16	1079.88
363.54	1081.73
363.91	1083.06
364.28	1081.70
364.65	1078.99
365.02	1074.82
365.39	1072.71
365.76	1070.80
366.14	1074.33
366.51	1077.33
366.88	1080.88
367.25	1079.95
367.62	1079.64
367.99	1076.58
368.36	1075.87
368.73	1073.14
369.10	1076.83
369.48	1077.04
369.85	1078.61
370.22	1078.33
370.59	1079.83
370.96	1074.00
371.33	1075.20
371.70	1075.50
372.07	1074.98
372.44	1075.27
372.81	1081.94
373.18	1079.78
373.55	1079.13
373.93	1080.34
374.30	1083.25
374.67	1081.66
375.04	1081.77
375.41	1078.66
375.78	1078.38
376.15	1076.18
376.52	1077.51
376.89	1076.81
377.26	1078.26
377.63	1078.59
378.00	1077.49
378.37	1076.06
378.74	1080.63
379.11	1085.59
379.48	1085.42
379.85	1089.26
380.22	1089.94
380.59	1088.58
380.96	1086.76
381.33	1087.34
381.70	1087.16
382.07	1089.33
382.44	1089.07
382.81	1088.40
383.18	1088.33
383.55	1084.42
383.92	1082.85
384.29	1085.07
384.66	1084.30
385.03	1085.12
385.40	1085.70
385.77	1082.64
386.14	1081.61
386.51	1080.72
386.88	1081.26
387.25	1084.74
387.62	1085.66
387.99	1085.99
388.36	1089.31
388.73	1089.78
389.10	1085.59
389.46	1088.84
389.83	1087.39
390.20	1083.50
390.57	1079.74
390.94	1078.99
391.31	1077.68
391.68	1080.67
392.05	1082.80
392.42	1086.22
392.79	1092.45
393.16	1091.72
393.53	1091.27
393.89	1091.25
394.26	1088.33
394.63	1086.71
395.00	1085.89
395.37	1083.18
395.74	1082.33
396.11	1085.33
396.48	1087.02
396.84	1088.42
397.21	1087.51
397.58	1090.06
397.95	1089.50
398.32	1086.83
398.69	1088.63
399.06	1091.37
399.42	1091.98
399.79	1093.57
400.16	1095.07
400.53	1090.76
400.90	1090.22
401.27	1089.17
401.64	1088.56
402.00	1090.62
402.37	1091.98
402.74	1097.27
403.11	1094.29
403.48	1092.07
403.84	1091.72
404.21	1091.02
404.58	1088.16
404.95	1092.05
405.32	1093.12
405.68	1093.10
406.05	1095.39
406.42	1093.69
406.79	1093.10
407.16	1097.10
407.52	1097.48
407.89	1100.15
408.26	1098.74
408.63	1100.75
408.99	1099.63
409.36	1099.75
409.73	1103.28
410.10	1107.49
410.47	1108.22
410.83	1105.58
411.20	1104.83
411.57	1102.30
411.94	1100.17
412.30	1097.62
412.67	1097.20
413.04	1099.84
413.40	1097.06
413.77	1098.18
414.14	1097.85
414.51	1099.79
414.87	1101.62
415.24	1107.19
415.61	1109.62
415.97	1112.11
416.34	1114.91
416.71	1114.12
417.08	1112.32
417.44	1113.44
417.81	1112.41
418.18	1112.22
418.54	1111.52
418.91	1113.67
419.28	1113.70
419.64	1119.22
420.01	1123.55
420.38	1125.94
420.74	1127.18
421.11	1127.04
421.48	1124.84
421.84	1123.36
422.21	1123.25
422.58	1125.26
422.94	1130.46
423.31	1136.10
423.68	1142.63
424.04	1147.33
424.41	1152.01
424.77	1155.83
425.14	1158.66
425.51	1163.83
425.87	1168.84
426.24	1171.37
426.61	1180.43
426.97	1188.43
427.34	1194.87
427.70	1203.46
428.07	1211.93
428.44	1215.65
428.80	1224.45
429.17	1233.53
429.53	1241.72
429.90	1253.31
430.27	1269.46
430.63	1281.47
431.00	1294.22
431.36	1309.81
431.73	1322.54
432.09	1336.42
432.46	1355.24
432.83	1373.61
433.19	1394.09
433.56	1421.85
433.92	1448.72
434.29	1471.80
434.65	1500.19
435.02	1528.32
435.38	1561.65
435.75	1590.86
436.11	1632.41
436.48	1673.58
436.84	1721.93
437.21	1765.79
437.57	1815.53
437.94	1866.55
438.30	1919.99
438.67	1973.80
439.03	2036.83
439.40	2105.03
439.76	2175.43
440.13	2250.66
440.49	2333.51
440.86	2409.25
441.22	2496.58
441.59	2588.70
441.95	2693.09
442.32	2796.05
442.68	2920.94
443.05	3042.06
443.41	3173.67
443.78	3305.23
444.14	3447.87
444.51	3591.53
444.87	3759.13
445.24	3928.59
445.60	4113.37
445.96	4300.13
446.33	4505.74
446.69	4706.63
447.06	4915.01
447.42	5133.59
447.79	5371.62
448.15	5653.59
448.51	5939.93
448.88	6280.73
449.24	6597.06
449.61	6956.31
449.97	7311.11
450.33	7696.08
450.70	8052.66
451.06	8497.36
451.43	8912.83
451.79	9374.27
452.15	9864.09
452.52	10395.77
452.88	10933.06
453.24	11563.37
453.61	12264.90
453.97	12968.51
454.34	13669.10
454.70	14505.87
455.06	15316.51
455.43	16085.17
455.79	16795.31
456.15	17632.52
456.52	18393.92
456.88	19316.56
457.24	20233.28
457.61	21349.29
457.97	22401.74
458.33	23472.55
458.70	24519.34
459.06	25500.32
459.42	26546.03
459.79	27488.33
460.15	28570.24
460.51	29580.21
460.88	30693.79
461.24	31658.02
461.60	32814.19
461.96	33902.82
462.33	34964.54
462.69	36046.03
463.05	37217.61
463.42	38259.15
463.78	39187.40
464.14	39945.85
464.50	40649.79
464.87	41125.83
465.23	41454.35
465.59	41832.30
465.95	42145.75
466.32	42419.35
466.68	42736.82
467.04	42952.25
467.40	43031.66
467.77	43193.74
468.13	43113.96
468.49	42915.55
468.85	42799.08
469.22	42672.72
469.58	42376.99
469.94	42216.27
470.30	42019.19
470.66	41643.33
471.03	41069.61
471.39	40677.81
471.75	39920.34
472.11	39121.12
472.47	38540.85
472.84	37971.66
473.20	37220.37
473.56	36836.54
473.92	36333.14
474.28	35758.85
474.65	35168.40
475.01	34521.24
475.37	33710.67
475.73	32992.71
476.09	32272.38
476.45	31592.36
476.81	31044.02
477.18	30480.75
477.54	30033.85
477.90	29584.84
478.26	29015.11
478.62	28477.06
478.98	28064.97
479.34	27599.90
479.71	27046.95
480.07	26636.49
480.43	26203.96
480.79	25704.37
481.15	25235.70
481.51	24833.76
481.87	24459.91
482.23	24069.93
482.59	23709.79
482.96	23353.70
483.32	23036.75
483.68	22642.55
484.04	22320.87
484.40	21928.60
484.76	21515.12
485.12	21074.96
485.48	20677.06
485.84	20167.46
486.20	19742.61
486.56	19298.40
486.92	18895.50
487.28	18459.55
487.64	18032.61
488.00	17612.88
488.37	17201.44
488.73	16733.92
489.09	16264.41
489.45	15831.69
489.81	15367.40
490.17	14943.50
490.53	14572.18
490.89	14170.42
491.25	13780.35
491.61	13391.38
491.97	12989.69
492.33	12583.68
492.69	12250.46
493.05	11923.91
493.41	11613.60
493.77	11295.89
494.13	10982.36
494.49	10667.51
494.85	10358.16
495.21	10059.08
495.57	9803.61
495.93	9520.13
496.29	9266.86
496.64	9037.16
497.00	8788.43
497.36	8511.40
497.72	8281.45
498.08	8052.66
498.44	7814.98
498.80	7605.34
499.16	7422.56
499.52	7226.94
499.88	7053.72
500.24	6894.07
500.60	6746.03
500.96	6591.79
501.32	6433.38
501.68	6253.56
502.03	6074.58
502.39	5898.36
502.75	5728.70
503.11	5582.20
503.47	5453.14
503.83	5323.85
504.19	5197.16
504.55	5073.93
504.91	4949.60
505.26	4823.70
505.62	4701.20
505.98	4581.62
506.34	4463.52
506.70	4342.77
507.06	4236.11
507.42	4135.98
507.78	4036.16
508.13	3946.59
508.49	3870.24
508.85	3786.14
509.21	3704.48
509.57	3623.50
509.93	3537.53
510.28	3443.26
510.64	3357.62
511.00	3276.02
511.36	3198.25
511.72	3124.15
512.07	3063.29
512.43	3004.45
512.79	2939.99
513.15	2882.84
513.51	2821.14
513.86	2759.16
514.22	2706.55
514.58	2659.93
514.94	2613.18
515.30	2576.39
515.65	2537.91
516.01	2494.19
516.37	2446.84
516.73	2406.47
517.08	2364.25
517.44	2320.01
517.80	2279.99
518.16	2247.22
518.51	2206.84
518.87	2171.22
519.23	2136.84
519.59	2108.57
519.94	2075.14
520.30	2048.39
520.66	2022.78
521.01	1998.63
521.37	1967.74
521.73	1938.97
522.09	1909.71
522.44	1880.46
522.80	1855.60
523.16	1832.38
523.51	1810.85
523.87	1790.11
524.23	1767.36
524.58	1747.40
524.94	1727.97
525.30	1706.46
525.65	1684.72
526.01	1667.70
526.37	1645.79
526.72	1626.53
527.08	1609.47
527.44	1596.03
527.79	1580.66
528.15	1563.99
528.51	1546.04
528.86	1534.34
529.22	1519.73
529.58	1503.72
529.93	1493.54
530.29	1480.83
530.65	1469.72
531.00	1457.59
531.36	1447.25
531.71	1437.84
532.07	1430.49
532.43	1416.19
532.78	1406.85
533.14	1398.07
533.49	1383.51
533.85	1372.56
534.21	1364.53
534.56	1353.53
534.92	1345.20
535.27	1341.90
535.63	1335.25
535.98	1328.56
536.34	1321.23
536.69	1314.91
537.05	1305.36
537.41	1295.07
537.76	1285.47
538.12	1278.61
538.47	1269.81
538.83	1266.44
539.18	1261.10
539.54	1257.76
539.89	1253.45
540.25	1250.78
540.60	1247.86
540.96	1244.91
541.31	1240.65
541.67	1243.08
542.02	1239.13
542.38	1232.10
542.73	1230.91
543.09	1228.24
543.44	1217.64
543.80	1211.93
544.15	1211.72
544.51	1208.75
544.86	1204.63
545.22	1208.49
545.57	1206.99
545.93	1201.40
546.28	1195.36
546.64	1192.20
546.99	1183.21
547.35	1179.91
547.70	1175.91
548.05	1175.63
548.41	1175.30
548.76	1173.80
549.12	1177.08
549.47	1173.61
549.83	1170.36
550.18	1166.43
550.53	1167.01
550.89	1162.50
551.24	1165.91
551.60	1165.28
551.95	1165.54
552.30	1161.37
552.66	1157.00
553.01	1148.97
553.37	1145.36
553.72	1142.88
554.07	1142.20
554.43	1143.14
554.78	1147.10
555.13	1147.59
555.49	1145.39
555.84	1143.80
556.19	1140.78
556.55	1136.82
556.90	1132.68
557.26	1130.85
557.61	1132.05
557.96	1134.48
558.32	1132.59
558.67	1131.37
559.02	1133.40
559.37	1132.56
559.73	1128.58
560.08	1129.87
560.43	1131.60
560.79	1127.79
561.14	1122.66
561.49	1119.67
561.85	1121.33
562.20	1120.20
562.55	1122.54
562.90	1125.12
563.26	1127.11
563.61	1124.70
563.96	1124.25
564.32	1120.02
564.67	1116.83
565.02	1115.78
565.37	1115.34
565.73	1115.31
566.08	1114.96
566.43	1115.50
566.78	1112.76
567.14	1112.74
567.49	1110.72
567.84	1109.84
568.19	1108.48
568.54	1104.80
568.90	1104.97
569.25	1106.35
569.60	1105.81
569.95	1105.34
570.31	1109.13
570.66	1107.35
571.01	1104.48
571.36	1102.77
571.71	1103.56
572.06	1105.29
572.42	1100.71
572.77	1100.57
573.12	1101.11
573.47	1099.09
573.82	1095.84
574.18	1096.94
574.53	1094.04
574.88	1095.25
575.23	1094.18
575.58	1095.14
575.93	1094.74
576.28	1094.88
576.64	1094.41
576.99	1097.22
577.34	1096.10
577.69	1097.24
578.04	1099.28
578.39	1096.96
578.74	1095.65
579.09	1096.40
579.44	1096.35
579.80	1093.69
580.15	1093.50
580.50	1089.73
580.85	1088.72
581.20	1086.55
581.55	1087.20
581.90	1087.67
582.25	1092.40
582.60	1092.87
582.95	1092.84
583.30	1095.49
583.65	1096.40
584.00	1094.76
584.35	1094.04
584.71	1095.49
585.06	1094.57
585.41	1093.90
585.76	1092.19
586.11	1091.88
586.46	1089.87
586.81	1088.44
587.16	1089.38
587.51	1090.95
587.86	1090.46
588.21	1093.29
588.56	1094.39
588.91	1092.61
589.26	1091.95
589.61	1091.56
589.96	1088.16
590.31	1089.99
590.66	1091.09
591.01	1091.04
591.36	1092.33
591.71	1095.02
592.06	1095.09
592.41	1094.76
592.76	1092.94
593.10	1091.37
593.45	1092.52
593.80	1092.05
594.15	1091.60
594.50	1092.30
594.85	1091.46
595.20	1092.12
595.55	1090.97
595.90	1091.51
596.25	1089.75
596.60	1093.05
596.95	1092.23
597.30	1091.02
597.64	1103.77
597.99	1110.63
598.34	1110.47
598.69	1104.90
599.04	1105.36
599.39	1091.65
599.74	1090.32
600.09	1090.67
600.44	1096.19
600.78	1093.17
601.13	1094.67
601.48	1091.95
601.83	1087.90
602.18	1086.92
602.53	1092.02
602.88	1089.82
603.22	1088.37
603.57	1090.29
603.92	1089.12
604.27	1084.16
604.62	1084.70
604.97	1087.39
605.31	1087.62
605.66	1086.64
606.01	1088.91
606.36	1086.85
606.71	1084.77
607.05	1082.76
607.40	1082.15
607.75	1082.73
608.10	1085.91
608.44	1087.39
608.79	1089.57
609.14	1088.02
609.49	1089.12
609.84	1089.33
610.18	1089.14
610.53	1087.46
610.88	1089.29
611.23	1088.70
611.57	1087.69
611.92	1088.44
612.27	1088.63
612.62	1090.92
612.96	1089.03
613.31	1089.78
613.66	1086.31
614.00	1084.81
614.35	1087.04
614.70	1084.60
615.05	1083.60
615.39	1084.77
615.74	1087.97
616.09	1086.59
616.43	1088.09
616.78	1087.51
617.13	1087.79
617.47	1087.34
617.82	1087.25
618.17	1086.48
618.51	1084.56
618.86	1085.96
619.21	1086.50
619.55	1085.21
619.90	1086.13
620.25	1087.23
620.59	1086.22
620.94	1085.54
621.29	1086.06
621.63	1088.49
621.98	1091.06
622.32	1089.17
622.67	1087.18
623.02	1086.50
623.36	1087.34
623.71	1084.53
624.05	1086.87
624.40	1089.38
624.75	1086.03
625.09	1086.08
625.44	1086.22
625.78	1084.72
626.13	1083.39
626.48	1087.81
626.82	1087.20
627.17	1088.07
627.51	1087.93
627.86	1083.90
628.20	1083.11
628.55	1081.35
628.89	1081.75
629.24	1081.47
629.58	1085.56
629.93	1083.27
630.28	1080.32
630.62	1080.41
630.97	1082.52
631.31	1081.35
631.66	1081.26
632.00	1082.78
632.35	1080.81
632.69	1080.18
633.04	1077.75
633.38	1077.00
633.73	1077.70
634.07	1076.25
634.42	1077.75
634.76	1080.70
635.11	1081.56
635.45	1080.09
635.79	1082.17
636.14	1078.47
636.48	1077.77
636.83	1077.79
637.17	1079.81
637.52	1078.31
637.86	1078.03
638.21	1078.12
638.55	1080.88
638.89	1079.10
639.24	1082.57
639.58	1086.59
639.93	1085.66
640.27	1084.09
640.61	1084.65
640.96	1084.56
641.30	1081.70
641.65	1084.70
641.99	1081.02
642.33	1082.33
642.68	1078.03
643.02	1079.15
643.37	1077.79
643.71	1081.54
644.05	1082.10
644.40	1086.80
644.74	1087.76
645.08	1087.58
645.43	1087.09
645.77	1085.38
646.11	1084.81
646.46	1080.41
646.80	1081.51
647.14	1082.92
647.49	1083.08
647.83	1082.08
648.17	1085.63
648.52	1085.94
648.86	1084.14
649.20	1087.27
649.55	1089.26
649.89	1084.98
650.23	1083.90
650.57	1085.10
650.92	1083.76
651.26	1083.53
651.60	1086.73
651.95	1089.38
652.29	1089.26
652.63	1087.79
652.97	1087.46
653.32	1086.64
653.66	1085.28
654.00	1082.92
654.34	1083.97
654.69	1083.60
655.03	1086.36
655.37	1086.64
655.71	1089.75
656.05	1090.15
656.40	1088.63
656.74	1085.47
657.08	1085.24
657.42	1084.89
657.76	1085.31
658.11	1085.87
658.45	1087.41
658.79	1086.83
659.13	1085.14
659.47	1083.41
659.82	1082.97
660.16	1082.22
660.50	1080.51
660.84	1080.11
661.18	1083.69
661.52	1086.01
661.87	1084.96
662.21	1086.66
662.55	1089.96
662.89	1086.29
663.23	1083.13
663.57	1083.81
663.91	1086.83
664.25	1086.06
664.60	1085.77
664.94	1085.96
665.28	1087.95
665.62	1085.05
665.96	1081.80
666.30	1082.26
666.64	1084.09
666.98	1082.92
667.32	1080.98
667.66	1082.66
668.01	1081.80
668.35	1079.95
668.69	1080.18
669.03	1078.10
669.37	1078.92
669.71	1080.93
670.05	1079.55
670.39	1078.92
670.73	1082.83
671.07	1083.15
671.41	1082.01
671.75	1084.91
672.09	1083.62
672.43	1086.10
672.77	1082.99
673.11	1081.12
673.45	1081.56
673.79	1081.68
674.13	1078.50
674.47	1079.64
674.81	1079.43
675.15	1079.60
675.49	1084.67
675.83	1084.25
676.17	1084.30
676.51	1086.10
676.85	1084.25
677.19	1082.40
677.53	1080.18
677.87	1076.53
678.21	1077.47
678.55	1078.33
678.89	1076.62
679.23	1076.06
679.57	1078.87
679.90	1079.34
680.24	1078.07
680.58	1078.94
680.92	1081.70
681.26	1083.55
681.60	1079.29
681.94	1080.60
682.28	1079.81
682.62	1076.93
682.96	1075.87
683.29	1079.90
683.63	1079.03
683.97	1075.73
684.31	1078.87
684.65	1079.01
684.99	1080.25
685.33	1080.93
685.67	1085.75
686.00	1085.17
686.34	1081.56
686.68	1081.33
687.02	1082.61
687.36	1079.88
687.70	1079.74
688.03	1081.21
688.37	1081.87
688.71	1081.68
689.05	1081.87
689.39	1081.44
689.72	1086.55
690.06	1083.22
690.40	1080.13
690.74	1080.41
691.08	1082.36
691.41	1081.47
691.75	1081.44
692.09	1082.40
692.43	1081.77
692.76	1079.01
693.10	1078.64
693.44	1081.49
693.78	1081.26
694.11	1083.39
694.45	1085.42
694.79	1085.63
695.13	1086.06
695.46	1087.93
695.80	1087.53
696.14	1088.56
696.48	1086.48
696.81	1086.20
697.15	1084.18
697.49	1086.15
697.82	1086.66
698.16	1087.62
698.50	1083.93
698.83	1084.93
699.17	1086.62
699.51	1088.04
699.84	1089.43
700.18	1092.66
700.52	1093.36
700.85	1086.90
701.19	1087.67
701.53	1086.64
701.86	1083.43
702.20	1082.50
702.54	1086.80
702.87	1082.12
703.21	1081.30
703.55	1082.22
703.88	1083.90
704.22	1081.12
704.55	1082.59
704.89	1082.17
705.23	1083.55
705.56	1083.76
705.90	1086.57
706.23	1086.20
706.57	1085.94
706.91	1083.46
707.24	1079.85
707.58	1076.69
707.91	1074.47
708.25	1073.81
708.58	1075.15
708.92	1074.21
709.26	1076.04
709.59	1076.62
709.93	1079.46
710.26	1082.10
710.60	1086.10
710.93	1088.72
711.27	1087.81
711.60	1084.16
711.94	1082.43
712.27	1080.67
712.61	1073.93
712.94	1075.69
713.28	1078.10
713.61	1077.93
713.95	1077.75
714.28	1078.89
714.62	1078.47
714.95	1082.36
715.29	1080.67
715.62	1081.61
715.96	1081.61
716.29	1083.18
716.63	1079.76
716.96	1081.19
717.29	1083.67
717.63	1084.91
717.96	1083.06
718.30	1082.73
718.63	1084.00
718.97	1080.44
719.30	1081.91
719.63	1082.57
719.97	1084.53
720.30	1082.22
720.64	1080.46
720.97	1082.83
721.30	1082.57
721.64	1081.14
721.97	1082.64
722.31	1086.62
722.64	1087.04
722.97	1088.72
723.31	1089.89
723.64	1089.89
723.97	1089.75
724.31	1084.37
724.64	1079.78
724.98	1076.01
725.31	1074.61
725.64	1072.04
725.98	1074.66
726.31	1075.87
726.64	1076.90
726.97	1077.28
727.31	1079.24
727.64	1079.34
727.97	1083.46
728.31	1084.35
728.64	1085.45
728.97	1086.45
729.31	1085.45
729.64	1082.69
729.97	1084.14
730.30	1085.35
730.64	1086.48
730.97	1084.32
731.30	1083.32
731.63	1080.02
731.97	1077.25
732.30	1075.01
732.63	1076.46
732.96	1079.97
733.30	1078.28
733.63	1078.45
733.96	1077.40
734.29	1078.92
734.63	1077.77
734.96	1082.05
735.29	1081.26
735.62	1083.01
735.95	1079.15
736.29	1079.27
736.62	1076.86
736.95	1078.82
737.28	1075.52
737.61	1079.22
737.94	1077.21
738.28	1075.66
738.61	1077.25
738.94	1080.93
739.27	1080.30
739.60	1082.61
739.93	1083.79
740.27	1080.88
740.60	1079.81
740.93	1079.43
741.26	1080.95
741.59	1083.27
741.92	1083.81
742.25	1082.99
742.58	1082.43
742.91	1079.20
743.25	1077.84
743.58	1078.10
743.91	1079.34
744.24	1076.65
744.57	1077.35
744.90	1079.60
745.23	1078.96
745.56	1078.43
745.89	1080.91
746.22	1080.86
746.55	1078.68
746.88	1081.37
747.21	1080.11
747.54	1083.06
747.87	1082.05
748.20	1081.58
748.53	1078.17
748.87	1080.02
749.20	1077.56
749.53	1078.59
749.86	1080.39
750.19	1083.55
750.52	1081.56
750.85	1083.60
751.18	1083.71
751.51	1082.57
751.84	1081.66
752.16	1084.02
752.49	1081.42
752.82	1081.42
753.15	1079.92
753.48	1079.53
753.81	1076.25
754.14	1076.60
754.47	1076.23
754.80	1076.86
755.13	1074.28
755.46	1074.73
755.79	1074.07
756.12	1071.64
756.45	1072.60
756.78	1073.86
757.11	1072.67
757.43	1071.73
757.76	1073.53
758.09	1074.35
758.42	1072.69
758.75	1076.58
759.08	1077.86
759.41	1078.96
759.74	1078.78
760.07	1081.54
760.39	1079.74
760.72	1080.13
761.05	1081.40
761.38	1079.17
761.71	1079.55
762.04	1079.57
762.36	1082.19
762.69	1081.07
763.02	1085.00
763.35	1085.28
763.68	1088.04
764.01	1086.66
764.33	1087.20
764.66	1084.58
764.99	1081.63
765.32	1078.73
765.65	1077.35
765.97	1074.19
766.30	1073.28
766.63	1074.66
766.96	1075.64
767.28	1074.10
767.61	1074.35
767.94	1077.72
768.27	1077.79
768.59	1078.75
768.92	1081.70
769.25	1086.34
769.58	1084.04
769.90	1082.99
770.23	1083.55
770.56	1079.38
770.89	1072.46
771.21	1071.17
771.54	1075.78
771.87	1072.15
772.19	1074.59
772.52	1079.27
772.85	1078.21
773.17	1073.77
773.50	1076.67
773.83	1078.89
774.15	1077.14
774.48	1080.39
774.81	1078.21
775.13	1076.18
775.46	1076.74
775.79	1077.93
776.11	1076.37
776.44	1078.19
776.77	1077.14
777.09	1076.11
777.42	1073.18
777.74	1075.52
778.07	1076.23
778.40	1074.82
778.72	1074.07
779.05	1074.66
779.37	1073.04
779.70	1075.01
780.03	1078.28
780.35	1078.24
780.68	1081.54
781.00	1081.75
781.33	1078.03
781.65	1078.50
781.98	1077.18
782.31	1076.44
782.63	1078.96
782.96	1084.32
783.28	1082.87
783.61	1082.40
783.93	1083.69
784.26	1080.23
784.58	1077.75
784.91	1079.95
785.23	1080.02
785.56	1077.16
785.88	1074.17
786.21	1072.67
786.53	1071.03
786.86	1073.04
787.18	1073.39
787.51	1075.55
787.83	1077.84
788.16	1079.64
788.48	1081.80
788.81	1082.47
789.13	1085.19
789.46	1083.53
789.78	1082.50
790.10	1077.98
790.43	1078.59
790.75	1078.12
791.08	1078.80
791.40	1076.58
791.73	1079.10
792.05	1079.88
792.37	1079.03
792.70	1074.82
793.02	1076.60
793.35	1075.78
793.67	1073.60
793.99	1075.01
794.32	1078.99
794.64	1078.52
794.96	1078.47
795.29	1079.27
795.61	1078.38
795.93	1076.58
796.26	1077.51
796.58	1080.44
796.91	1078.45
797.23	1076.37
797.55	1078.45
797.87	1080.60
798.20	1079.99
798.52	1083.01
798.84	1086.99
799.17	1087.23
799.49	1083.34
799.81	1079.81
800.14	1080.37
800.46	1078.03
800.78	1077.93
801.10	1077.30
801.43	1076.44
801.75	1075.24
802.07	1074.17
802.40	1071.54
802.72	1073.32
803.04	1077.35
803.36	1078.68
803.69	1081.49
804.01	1083.15
804.33	1083.29
804.65	1082.94
804.97	1082.29
805.30	1083.20
805.62	1082.64
805.94	1083.04
806.26	1083.48
806.58	1084.09
806.91	1081.40
807.23	1081.42
807.55	1079.15
807.87	1079.53
808.19	1078.68
808.52	1077.86
808.84	1080.11
809.16	1082.15
809.48	1077.51
809.80	1078.87
810.12	1078.99
810.44	1076.72
810.77	1075.34
811.09	1076.95
811.41	1075.20
811.73	1076.67
812.05	1077.79
812.37	1074.75
812.69	1074.28
813.01	1072.85
813.33	1073.42
813.66	1074.94
813.98	1080.88
814.30	1081.66
814.62	1083.13
814.94	1083.18
815.26	1083.13
815.58	1079.60
815.90	1081.14
816.22	1082.03
816.54	1079.57
816.86	1073.93
817.18	1074.00
817.50	1075.45
817.82	1075.36
818.14	1077.40
818.46	1081.37
818.78	1081.58
819.10	1079.50
819.42	1079.27
819.74	1076.67
820.06	1077.82
820.38	1081.49
820.70	1083.13
821.02	1081.05
821.34	1081.61
821.66	1078.96
821.98	1076.01
822.30	1072.01
822.62	1072.78
822.94	1073.30
823.26	1075.29
823.58	1077.51
823.90	1083.22
824.22	1080.32
824.54	1079.48
824.86	1082.05
825.18	1079.60
825.50	1076.69
825.81	1079.27
826.13	1080.70
826.45	1079.85
826.77	1080.20
827.09	1080.84
827.41	1081.68
827.73	1082.43
828.05	1083.83
828.36	1080.04
828.68	1078.19
829.00	1077.91
829.32	1073.16
829.64	1070.02
829.96	1074.89
830.28	1075.22
830.59	1073.30
830.91	1075.85
831.23	1076.15
831.55	1076.48
831.87	1077.91
832.19	1081.40
832.50	1082.59
832.82	1083.95
833.14	1082.94
833.46	1081.09
833.78	1080.04
834.09	1083.90
834.41	1081.14
834.73	1080.67
835.05	1080.51
835.36	1080.41
835.68	1076.30
836.00	1075.08
836.32	1075.94
836.63	1076.44
836.95	1075.69
837.27	1076.08
837.59	1077.28
837.90	1077.63
838.22	1077.75
838.54	1075.62
838.85	1077.23
839.17	1078.94
839.49	1078.07
839.80	1077.02
840.12	1081.63
840.44	1079.43
840.76	1079.22
841.07	1078.61
841.39	1081.19
841.71	1079.36
842.02	1079.03
842.34	1076.18
842.65	1077.68
842.97	1076.23
843.29	1075.99
843.60	1076.30
843.92	1078.24
844.24	1077.42
844.55	1078.71
844.87	1078.59
845.18	1078.38
845.50	1077.96
845.82	1079.81
846.13	1077.58
846.45	1078.99
846.76	1078.26
847.08	1078.12
847.40	1078.45
847.71	1080.72
848.03	1078.57
848.34	1078.52
848.66	1080.93
848.97	1075.50
849.29	1073.86
849.60	1078.33
849.92	1080.93
850.24	1077.16
850.55	1080.60
850.87	1080.98
851.18	1078.07
851.50	1078.52
851.81	1079.29
852.13	1078.24
852.44	1079.81
852.76	1077.56
853.07	1076.04
853.39	1076.15
853.70	1077.84
854.01	1076.93
854.33	1080.13
854.64	1080.39
854.96	1082.90
855.27	1083.34
855.59	1082.29
855.90	1079.03
856.22	1077.93
856.53	1075.27
856.84	1071.45
857.16	1072.15
857.47	1074.68
857.79	1074.91
858.10	1075.22
858.41	1078.40
858.73	1082.59
859.04	1082.69
859.36	1081.30
859.67	1081.66
859.98	1085.63
860.30	1082.36
860.61	1079.20
860.92	1077.23
861.24	1075.97
861.55	1072.01
861.87	1072.34
862.18	1075.20
862.49	1079.67
862.81	1084.07
863.12	1085.54
863.43	1086.15
863.74	1086.59
864.06	1086.66
864.37	1086.24
864.68	1085.19
865.00	1082.59
865.31	1081.80
865.62	1079.27
865.94	1076.46
866.25	1076.76
866.56	1076.27
866.87	1075.69
867.19	1079.50
867.50	1079.92
867.81	1079.85
868.12	1081.80
868.44	1081.70
868.75	1080.84
869.06	1081.58
869.37	1081.35
869.68	1079.34
870.00	1083.93
870.31	1080.44
870.62	1080.44
870.93	1079.24
871.24	1079.67
871.56	1074.38
871.87	1077.18
872.18	1075.55
872.49	1074.07
872.80	1072.41
873.12	1072.04
873.43	1071.99
873.74	1074.75
874.05	1077.79
874.36	1079.27
874.67	1078.80
874.98	1078.59
875.29	1077.14
875.61	1075.43
875.92	1076.72
876.23	1078.61
876.54	1081.21
876.85	1081.51
877.16	1084.25
877.47	1083.41
877.78	1085.80
878.09	1081.89
878.40	1083.32
878.72	1078.73
879.03	1080.27
879.34	1077.30
879.65	1078.89
879.96	1076.95
880.27	1077.30
880.58	1074.68
880.89	1074.28
881.20	1077.09
881.51	1079.95
881.82	1082.15
882.13	1084.86
882.44	1082.36
882.75	1079.24
883.06	1076.72
883.37	1076.13
883.68	1071.61
883.99	1075.66
884.30	1075.55
884.61	1075.76
884.92	1075.36
885.23	1080.20
885.54	1079.22
885.85	1077.93
886.16	1077.54
886.47	1078.57
886.78	1076.72
887.08	1078.94
887.39	1080.20
887.70	1080.37
888.01	1080.04
888.32	1080.44
888.63	1080.60
888.94	1081.66
889.25	1082.38
889.56	1081.23
889.87	1079.85
890.17	1079.03
890.48	1075.01
890.79	1073.39
891.10	1076.62
891.41	1076.83
891.72	1076.15
892.03	1078.33
892.34	1075.71
892.64	1073.51
892.95	1074.54
893.26	1074.42
893.57	1076.88
893.88	1078.50
894.18	1079.76
894.49	1081.23
894.80	1081.68
895.11	1080.46
895.42	1082.47
895.72	1082.61
896.03	1079.92
896.34	1078.24
896.65	1076.20
896.96	1076.69
897.26	1076.65
897.57	1076.86
897.88	1076.65
898.19	1079.31
898.49	1078.33
898.80	1078.38
899.11	1078.45
899.41	1077.21
899.72	1078.31
900.03	1077.40
900.34	1073.58
900.64	1073.60
900.95	1076.58
901.26	1072.60
901.56	1074.49
901.87	1076.30
902.18	1076.25
902.48	1073.49
902.79	1075.03
903.10	1073.39
903.40	1071.17
903.71	1070.75
904.02	1073.21
904.32	1069.32
904.63	1067.94
904.94	1072.64
905.24	1074.42
905.55	1075.29
905.85	1080.16
906.16	1082.59
906.47	1081.14
906.77	1079.43
907.08	1078.66
907.38	1076.69
907.69	1075.55
908.00	1074.49
908.30	1076.48
908.61	1078.92
908.91	1081.12
909.22	1081.77
909.52	1083.08
909.83	1083.11
910.14	1082.45
910.44	1082.15
910.75	1082.59
911.05	1083.27
911.36	1084.44
911.66	1083.13
911.97	1079.64
912.27	1074.80
912.58	1071.92
912.88	1070.12
913.19	1068.29
913.49	1073.58
913.80	1077.35
914.10	1079.20
914.41	1078.71
914.71	1077.68
915.01	1073.44
915.32	1071.57
915.62	1073.28
915.93	1073.98
916.23	1075.17
916.54	1076.20
916.84	1077.25
917.15	1076.65
917.45	1078.28
917.75	1081.33
918.06	1081.70
918.36	1082.57
918.67	1080.95
918.97	1079.22
919.27	1077.51
919.58	1080.98
919.88	1078.66
920.18	1078.31
920.49	1081.05
920.79	1083.29
921.10	1082.50
921.40	1085.33
921.70	1085.56
922.01	1081.80
922.31	1080.84
922.61	1077.96
922.92	1079.55
923.22	1079.78
923.52	1079.53
923.82	1079.90
924.13	1081.16
924.43	1079.22
924.73	1077.77
925.04	1075.71
925.34	1072.62
925.64	1069.84
925.94	1069.95
926.25	1071.26
926.55	1074.82
926.85	1076.39
927.15	1077.35
927.46	1075.78
927.76	1075.31
928.06	1077.21
928.36	1077.61
928.67	1080.25
928.97	1079.01
929.27	1078.26
929.57	1076.90
929.87	1077.21
930.18	1074.91
930.48	1077.11
930.78	1075.76
931.08	1075.69
931.38	1073.39
931.69	1075.69
931.99	1076.44
932.29	1078.00
932.59	1078.57
932.89	1081.14
933.19	1078.54
933.49	1075.94
933.80	1078.12
934.10	1079.10
934.40	1077.47
934.70	1079.62
935.00	1084.04
935.30	1083.06
935.60	1080.02
935.90	1081.21
936.20	1079.85
936.50	1079.76
936.81	1079.24
937.11	1081.28
937.41	1077.54
937.71	1078.00
938.01	1077.56
938.31	1078.36
938.61	1079.95
938.91	1081.87
939.21	1083.08
939.51	1083.36
939.81	1083.18
940.11	1078.47
940.41	1076.67
940.71	1077.79
941.01	1077.37
941.31	1076.41
941.61	1082.38
941.91	1084.37
942.21	1083.79
942.51	1085.38
942.81	1085.35
943.11	1078.87
943.41	1081.94
943.71	1080.93
944.01	1075.34
944.31	1077.18
944.61	1080.41
944.90	1080.41
945.20	1080.70
945.50	1087.74
945.80	1088.42
946.10	1086.66
946.40	1080.53
946.70	1078.10
947.00	1075.66
947.30	1076.79
947.60	1075.99
947.89	1079.92
948.19	1083.18
948.49	1081.37
948.79	1077.47
949.09	1076.72
949.39	1074.14
949.69	1074.19
949.98	1073.18
950.28	1073.14
950.58	1074.17
950.88	1072.76
951.18	1069.39
951.48	1072.53
951.77	1073.23
952.07	1073.70
952.37	1078.03
952.67	1080.79
952.97	1078.68
953.26	1078.45
953.56	1080.06
953.86	1083.60
954.16	1080.09
954.45	1077.91
954.75	1077.79
955.05	1076.18
955.35	1069.77
955.64	1072.97
955.94	1076.72
956.24	1076.86
956.54	1077.54
956.83	1078.00
957.13	1075.45
957.43	1073.84
957.72	1076.74
958.02	1077.82
958.32	1080.79
958.61	1085.00
958.91	1085.40
959.21	1082.19
959.50	1082.03
959.80	1082.90
960.10	1081.40
960.39	1082.22
960.69	1079.74
960.99	1078.43
961.28	1076.37
961.58	1076.67
961.87	1075.24
962.17	1078.31
962.47	1080.91
962.76	1080.02
963.06	1079.64
963.36	1081.58
963.65	1081.23
963.95	1078.71
964.24	1077.98
964.54	1077.86
964.83	1075.52
965.13	1076.55
965.42	1076.65
965.72	1077.47
966.02	1074.42
966.31	1077.30
966.61	1077.96
966.90	1077.07
967.20	1078.87
967.49	1080.79
967.79	1079.78
968.08	1076.32
968.38	1075.76
968.67	1075.97
968.97	1076.60
969.26	1078.50
969.56	1082.78
969.85	1084.28
970.15	1084.79
970.44	1084.81
970.74	1080.58
971.03	1077.04
971.32	1080.79
971.62	1079.78
971.91	1079.76
972.21	1080.51
972.50	1080.95
972.80	1080.93
973.09	1079.48
973.38	1078.85
973.68	1079.99
973.97	1083.08
974.27	1079.46
974.56	1080.72
974.85	1078.73
975.15	1078.03
975.44	1075.05
975.73	1078.68
976.03	1082.15
976.32	1081.98
976.61	1082.83
976.91	1082.87
977.20	1078.05
977.49	1077.37
977.79	1076.86
978.08	1075.69
978.37	1077.61
978.67	1077.37
978.96	1074.61
979.25	1078.17
979.55	1078.68
979.84	1077.63
980.13	1077.61
980.42	1076.90
980.72	1075.05
981.01	1078.07
981.30	1079.38
981.59	1081.42
981.89	1081.21
982.18	1081.07
982.47	1074.54
982.76	1073.04
983.06	1072.62
983.35	1071.01
983.64	1070.58
983.93	1075.41
984.22	1075.29
984.52	1075.05
984.81	1075.41
985.10	1075.92
985.39	1075.03
985.68	1075.05
985.97	1075.01
986.27	1077.14
986.56	1079.22
986.85	1079.31
987.14	1078.50
987.43	1080.70
987.72	1080.56
988.01	1080.86
988.31	1082.12
988.60	1084.89
988.89	1084.28
989.18	1082.40
989.47	1083.93
989.76	1083.71
990.05	1082.50
990.34	1080.63
990.63	1081.96
990.92	1078.99
991.21	1076.81
991.51	1074.82
991.80	1075.08
992.09	1074.63
992.38	1073.88
992.67	1074.84
992.96	1075.92
993.25	1076.86
993.54	1079.92
993.83	1077.75
994.12	1076.81
994.41	1076.08
994.70	1073.42
994.99	1072.53
995.28	1075.43
995.57	1073.16
995.86	1074.80
996.15	1078.36
996.44	1076.23
996.73	1072.85
997.02	1075.62
997.31	1075.45
997.59	1073.35
997.88	1074.89
998.17	1078.66
998.46	1079.24
998.75	1078.64
999.04	1079.08
999.33	1080.20
999.62	1081.26
999.91	1082.17
1000.20	1085.96
1000.49	1084.79
1000.77	1083.11
1001.06	1081.70
1001.35	1079.95
1001.64	1076.51
1001.93	1076.11
1002.22	1076.34
1002.51	1077.23
1002.79	1079.55
1003.08	1080.25
1003.37	1081.14
1003.66	1079.01
1003.95	1080.67
1004.23	1077.72
1004.52	1078.59
1004.81	1079.15
1005.10	1079.17
1005.39	1076.95
1005.67	1077.82
1005.96	1077.00
1006.25	1077.37
1006.54	1080.13
1006.83	1078.99
1007.11	1080.86
1007.40	1082.10
1007.69	1085.07
1007.97	1081.14
1008.26	1083.62
1008.55	1084.49
1008.84	1082.64
1009.12	1079.03
1009.41	1083.20
1009.70	1080.67
1009.98	1078.73
1010.27	1075.15
1010.56	1073.58
1010.85	1073.32
1011.13	1075.78
1011.42	1073.95
1011.71	1074.14
1011.99	1075.59
1012.28	1076.37
1012.56	1073.02
1012.85	1073.53
1013.14	1077.49
1013.42	1078.14
1013.71	1073.28
1014.00	1074.63
1014.28	1075.69
1014.57	1074.73
1014.85	1074.82
1015.14	1076.67
1015.43	1076.97
1015.71	1076.53
1016.00	1075.15
1016.28	1074.68
1016.57	1076.51
1016.85	1075.15
1017.14	1073.79
1017.43	1077.21
1017.71	1078.36
1018.00	1078.24
1018.28	1082.31
1018.57	1083.64
1018.85	1083.22
1019.14	1083.15
1019.42	1083.90
1019.71	1081.26
1019.99	1081.96
1020.28	1081.73
1020.56	1082.31
1020.85	1082.94
1021.13	1082.47
1021.42	1083.67
1021.70	1082.90
1021.99	1079.85
1022.27	1077.70
1022.55	1070.21
1022.84	1078.40
>>>>>End Processed Spectral Data<<<<<
