SpectraSuite Data File
++++++++++++++++++++++++++++++++++++
Date: Mon Aug 26 10:22:24 PDT 2019
User: corrico
Dark Spectrum Present: No
Reference Spectrum Present: No
Number of Sampled Component Spectra: 1
Spectrometers: USB2+H06089
Integration Time (usec): 2000 (USB2+H06089)
Spectra Averaged: 20 (USB2+H06089)
Boxcar Smoothing: 2 (USB2+H06089)
Correct for Electrical Dark: No (USB2+H06089)
Strobe/Lamp Enabled: No (USB2+H06089)
Correct for Detector Non-linearity: No (USB2+H06089)
Correct for Stray Light: No (USB2+H06089)
Number of Pixels in Processed Spectrum: 2048
>>>>>Begin Processed Spectral Data<<<<<
339.70	1041.54
340.07	1041.54
340.45	1001.33
340.82	978.18
341.19	951.94
341.57	923.55
341.94	912.48
342.31	905.04
342.69	898.67
343.06	895.86
343.43	896.52
343.81	897.88
344.18	901.55
344.55	906.70
344.93	914.00
345.30	921.49
345.67	927.51
346.04	936.33
346.42	943.73
346.79	952.69
347.16	960.60
347.54	970.08
347.91	977.88
348.28	988.43
348.65	995.43
349.03	1004.11
349.40	1014.25
349.77	1018.91
350.14	1027.19
350.52	1035.36
350.89	1042.24
351.26	1048.28
351.63	1055.56
352.01	1058.62
352.38	1061.53
352.75	1064.59
353.12	1068.20
353.50	1072.55
353.87	1073.65
354.24	1074.84
354.61	1075.76
354.98	1078.57
355.36	1080.39
355.73	1083.46
356.10	1084.67
356.47	1084.63
356.84	1084.74
357.22	1082.45
357.59	1082.80
357.96	1083.15
358.33	1085.96
358.70	1085.99
359.08	1087.58
359.45	1087.30
359.82	1088.21
360.19	1086.13
360.56	1081.42
360.94	1078.54
361.31	1073.16
361.68	1074.73
362.05	1073.39
362.42	1074.63
362.79	1074.66
363.16	1079.60
363.54	1078.10
363.91	1077.65
364.28	1078.26
364.65	1079.76
365.02	1079.53
365.39	1079.10
365.76	1079.03
366.14	1079.24
366.51	1078.45
366.88	1076.20
367.25	1073.32
367.62	1071.01
367.99	1071.90
368.36	1071.75
368.73	1071.15
369.10	1074.63
369.48	1076.93
369.85	1076.76
370.22	1074.38
370.59	1078.17
370.96	1075.43
371.33	1074.73
371.70	1073.32
372.07	1075.05
372.44	1073.67
372.81	1074.98
373.18	1079.22
373.55	1079.53
373.93	1082.08
374.30	1080.48
374.67	1080.72
375.04	1075.90
375.41	1076.79
375.78	1074.33
376.15	1076.72
376.52	1077.93
376.89	1080.32
377.26	1083.11
377.63	1086.38
378.00	1085.33
378.37	1083.36
378.74	1082.87
379.11	1078.21
379.48	1078.59
379.85	1079.95
380.22	1079.10
380.59	1079.01
380.96	1077.84
381.33	1075.78
381.70	1072.60
382.07	1072.69
382.44	1072.43
382.81	1073.67
383.18	1071.82
383.55	1074.21
383.92	1074.24
384.29	1072.39
384.66	1075.05
385.03	1078.24
385.40	1077.77
385.77	1079.10
386.14	1081.21
386.51	1081.42
386.88	1080.11
387.25	1079.53
387.62	1079.85
387.99	1080.41
388.36	1079.27
388.73	1079.50
389.10	1081.84
389.46	1084.25
389.83	1082.78
390.20	1082.40
390.57	1082.22
390.94	1082.73
391.31	1082.59
391.68	1084.84
392.05	1083.86
392.42	1085.63
392.79	1084.58
393.16	1079.57
393.53	1079.13
393.89	1083.57
394.26	1084.51
394.63	1083.67
395.00	1085.45
395.37	1087.37
395.74	1083.86
396.11	1081.21
396.48	1085.12
396.84	1088.98
397.21	1089.40
397.58	1094.22
397.95	1093.19
398.32	1092.12
398.69	1091.93
399.06	1094.48
399.42	1089.61
399.79	1092.00
400.16	1091.13
400.53	1091.58
400.90	1090.39
401.27	1093.40
401.64	1095.79
402.00	1098.25
402.37	1096.07
402.74	1094.65
403.11	1094.13
403.48	1092.00
403.84	1087.97
404.21	1084.11
404.58	1083.50
404.95	1081.82
405.32	1081.49
405.68	1083.46
406.05	1087.55
406.42	1085.75
406.79	1087.23
407.16	1089.33
407.52	1089.45
407.89	1086.55
408.26	1090.95
408.63	1091.39
408.99	1091.20
409.36	1088.77
409.73	1094.13
410.10	1092.07
410.47	1093.40
410.83	1096.59
411.20	1098.81
411.57	1095.51
411.94	1095.56
412.30	1093.59
412.67	1090.08
413.04	1091.67
413.40	1093.69
413.77	1095.37
414.14	1098.09
414.51	1098.95
414.87	1098.67
415.24	1097.15
415.61	1097.22
415.97	1097.64
416.34	1099.49
416.71	1099.96
417.08	1103.45
417.44	1108.27
417.81	1106.46
418.18	1106.72
418.54	1108.74
418.91	1110.23
419.28	1110.70
419.64	1114.80
420.01	1118.57
420.38	1118.28
420.74	1119.34
421.11	1117.86
421.48	1121.16
421.84	1120.51
422.21	1123.62
422.58	1128.79
422.94	1131.65
423.31	1131.58
423.68	1135.84
424.04	1140.40
424.41	1141.15
424.77	1143.00
425.14	1146.86
425.51	1149.32
425.87	1153.14
426.24	1158.75
426.61	1164.16
426.97	1170.48
427.34	1176.26
427.70	1180.12
428.07	1183.02
428.44	1190.84
428.80	1196.22
429.17	1202.50
429.53	1210.81
429.90	1221.83
430.27	1231.36
430.63	1240.95
431.00	1253.52
431.36	1264.26
431.73	1275.36
432.09	1288.82
432.46	1304.45
432.83	1317.93
433.19	1334.25
433.56	1351.89
433.92	1371.58
434.29	1389.83
434.65	1413.64
435.02	1437.39
435.38	1461.76
435.75	1486.45
436.11	1519.29
436.48	1546.04
436.84	1582.34
437.21	1617.64
437.57	1654.15
437.94	1694.13
438.30	1742.69
438.67	1784.73
439.03	1837.25
439.40	1892.11
439.76	1943.23
440.13	1997.62
440.49	2063.28
440.86	2122.87
441.22	2197.20
441.59	2273.85
441.95	2357.43
442.32	2441.74
442.68	2541.35
443.05	2630.90
443.41	2728.32
443.78	2826.85
444.14	2929.98
444.51	3038.74
444.87	3174.47
445.24	3316.56
445.60	3466.33
445.96	3625.35
446.33	3795.58
446.69	3955.55
447.06	4129.41
447.42	4310.89
447.79	4501.48
448.15	4722.05
448.51	4955.22
448.88	5212.96
449.24	5453.28
449.61	5730.15
449.97	5991.21
450.33	6275.80
450.70	6536.67
451.06	6866.17
451.43	7167.07
451.79	7529.48
452.15	7912.37
452.52	8352.67
452.88	8809.96
453.24	9332.51
453.61	9906.46
453.97	10468.94
454.34	11018.52
454.70	11657.62
455.06	12288.75
455.43	12912.17
455.79	13519.59
456.15	14226.31
456.52	14869.17
456.88	15627.24
457.24	16350.26
457.61	17182.53
457.97	17941.75
458.33	18703.06
458.70	19484.44
459.06	20228.03
459.42	21045.93
459.79	21836.78
460.15	22741.37
460.51	23578.39
460.88	24492.07
461.24	25270.93
461.60	26203.49
461.96	27067.13
462.33	27886.01
462.69	28658.46
463.05	29502.83
463.42	30218.91
463.78	30839.55
464.14	31375.23
464.50	31963.55
464.87	32432.17
465.23	32756.78
465.59	33135.01
465.95	33463.90
466.32	33734.45
466.68	33965.06
467.04	34121.85
467.40	34265.26
467.77	34412.41
468.13	34392.67
468.49	34310.40
468.85	34241.05
469.22	34061.02
469.58	33714.67
469.94	33460.86
470.30	33164.78
470.66	32750.88
471.03	32175.79
471.39	31805.21
471.75	31187.92
472.11	30575.42
472.47	30232.49
472.84	29924.85
473.20	29448.08
473.56	29213.51
473.92	28802.68
474.28	28295.32
474.65	27797.14
475.01	27318.69
475.37	26722.32
475.73	26262.64
476.09	25724.48
476.45	25209.47
476.81	24692.96
477.18	24157.14
477.54	23713.63
477.90	23354.31
478.26	22938.89
478.62	22608.94
478.98	22319.49
479.34	22001.97
479.71	21590.95
480.07	21264.89
480.43	20900.05
480.79	20526.05
481.15	20164.07
481.51	19848.98
481.87	19586.87
482.23	19301.74
482.59	19052.52
482.96	18771.61
483.32	18492.57
483.68	18113.99
484.04	17787.79
484.40	17424.24
484.76	17084.04
485.12	16718.49
485.48	16408.30
485.84	16060.55
486.20	15709.28
486.56	15343.64
486.92	15045.74
487.28	14703.36
487.64	14343.76
488.00	14022.27
488.37	13692.79
488.73	13344.85
489.09	13003.31
489.45	12695.84
489.81	12379.35
490.17	12088.21
490.53	11805.22
490.89	11508.37
491.25	11210.79
491.61	10907.11
491.97	10590.78
492.33	10258.80
492.69	9957.65
493.05	9665.43
493.41	9377.85
493.77	9109.36
494.13	8860.45
494.49	8615.18
494.85	8371.28
495.21	8152.81
495.57	7936.48
495.93	7721.38
496.29	7528.05
496.64	7353.35
497.00	7154.90
497.36	6965.81
497.72	6775.45
498.08	6575.66
498.44	6381.26
498.80	6213.58
499.16	6054.87
499.52	5913.57
499.88	5799.19
500.24	5692.02
500.60	5570.50
500.96	5458.83
501.32	5338.22
501.68	5212.30
502.03	5071.47
502.39	4942.79
502.75	4800.58
503.11	4675.88
503.47	4561.96
503.83	4448.31
504.19	4341.58
504.55	4241.59
504.91	4148.51
505.26	4052.68
505.62	3971.02
505.98	3879.70
506.34	3787.36
506.70	3693.81
507.06	3601.59
507.42	3513.19
507.78	3436.47
508.13	3359.65
508.49	3285.71
508.85	3213.20
509.21	3141.23
509.57	3071.20
509.93	3008.10
510.28	2938.71
510.64	2871.46
511.00	2806.14
511.36	2744.86
511.72	2687.05
512.07	2635.65
512.43	2591.44
512.79	2545.92
513.15	2498.87
513.51	2453.40
513.86	2405.60
514.22	2360.57
514.58	2319.54
514.94	2285.93
515.30	2251.62
515.65	2219.69
516.01	2184.63
516.37	2154.28
516.73	2121.93
517.08	2091.78
517.44	2060.63
517.80	2035.10
518.16	2007.48
518.51	1977.87
518.87	1946.74
519.23	1923.85
519.59	1896.40
519.94	1868.87
520.30	1849.16
520.66	1827.23
521.01	1802.73
521.37	1786.06
521.73	1764.48
522.09	1740.19
522.44	1722.89
522.80	1703.93
523.16	1679.55
523.51	1660.75
523.87	1640.76
524.23	1623.86
524.58	1610.76
524.94	1593.44
525.30	1578.64
525.65	1565.65
526.01	1545.46
526.37	1524.51
526.72	1511.96
527.08	1501.27
527.44	1491.30
527.79	1482.75
528.15	1473.72
528.51	1460.47
528.86	1444.88
529.22	1433.67
529.58	1421.95
529.93	1410.69
530.29	1403.13
530.65	1398.63
531.00	1383.19
531.36	1372.98
531.71	1364.04
532.07	1351.71
532.43	1340.12
532.78	1336.09
533.14	1329.80
533.49	1322.73
533.85	1321.79
534.21	1316.90
534.56	1308.69
534.92	1299.82
535.27	1291.18
535.63	1283.11
535.98	1277.16
536.34	1270.72
536.69	1265.04
537.05	1260.66
537.41	1254.71
537.76	1247.62
538.12	1245.80
538.47	1242.12
538.83	1241.37
539.18	1234.52
539.54	1230.37
539.89	1225.60
540.25	1221.43
540.60	1215.21
540.96	1213.40
541.31	1209.92
541.67	1207.62
542.02	1202.64
542.38	1198.19
542.73	1195.50
543.09	1193.06
543.44	1191.64
543.80	1192.90
544.15	1190.33
544.51	1187.17
544.86	1183.37
545.22	1177.71
545.57	1175.63
545.93	1171.46
546.28	1168.00
546.64	1168.09
546.99	1164.51
547.35	1160.20
547.70	1159.20
548.05	1158.47
548.41	1155.01
548.76	1153.11
549.12	1153.39
549.47	1153.06
549.83	1151.54
550.18	1149.34
550.53	1152.18
550.89	1149.46
551.24	1147.63
551.60	1143.91
551.95	1145.72
552.30	1142.42
552.66	1140.15
553.01	1138.44
553.37	1137.87
553.72	1135.72
554.07	1131.39
554.43	1129.78
554.78	1129.68
555.13	1127.20
555.49	1124.16
555.84	1123.46
556.19	1124.84
556.55	1124.88
556.90	1125.07
557.26	1125.56
557.61	1125.28
557.96	1123.76
558.32	1120.88
558.67	1121.65
559.02	1120.06
559.37	1120.98
559.73	1119.43
560.08	1120.27
560.43	1118.64
560.79	1117.30
561.14	1115.31
561.49	1113.02
561.85	1109.18
562.20	1109.20
562.55	1110.23
562.90	1108.34
563.26	1109.46
563.61	1111.03
563.96	1111.64
564.32	1111.12
564.67	1112.34
565.02	1110.00
565.37	1107.54
565.73	1105.29
566.08	1102.91
566.43	1101.90
566.78	1100.59
567.14	1100.87
567.49	1100.45
567.84	1100.57
568.19	1099.72
568.54	1105.20
568.90	1107.17
569.25	1106.65
569.60	1102.74
569.95	1103.84
570.31	1100.85
570.66	1099.30
571.01	1098.81
571.36	1101.46
571.71	1098.02
572.06	1097.24
572.42	1098.46
572.77	1098.65
573.12	1098.44
573.47	1098.88
573.82	1097.10
574.18	1092.02
574.53	1090.83
574.88	1089.78
575.23	1091.81
575.58	1090.29
575.93	1090.90
576.28	1090.13
576.64	1091.98
576.99	1091.34
577.34	1096.10
577.69	1097.76
578.04	1099.35
578.39	1098.34
578.74	1095.70
579.09	1093.69
579.44	1093.05
579.80	1091.04
580.15	1089.54
580.50	1092.05
580.85	1090.78
581.20	1090.71
581.55	1093.85
581.90	1098.62
582.25	1098.02
582.60	1095.37
582.95	1094.67
583.30	1093.85
583.65	1089.59
584.00	1087.60
584.35	1091.93
584.71	1092.42
585.06	1093.57
585.41	1093.05
585.76	1091.88
586.11	1091.81
586.46	1092.28
586.81	1088.65
587.16	1090.24
587.51	1093.45
587.86	1090.64
588.21	1089.24
588.56	1089.10
588.91	1091.56
589.26	1092.28
589.61	1092.49
589.96	1094.06
590.31	1096.38
590.66	1092.33
591.01	1091.20
591.36	1091.42
591.71	1091.95
592.06	1089.36
592.41	1090.71
592.76	1091.79
593.10	1090.99
593.45	1088.35
593.80	1089.59
594.15	1088.79
594.50	1084.00
594.85	1081.58
595.20	1081.94
595.55	1082.12
595.90	1082.03
596.25	1083.15
596.60	1086.20
596.95	1085.52
597.30	1087.34
597.64	1097.22
597.99	1099.98
598.34	1101.90
598.69	1102.49
599.04	1099.14
599.39	1088.35
599.74	1087.48
600.09	1084.89
600.44	1084.93
600.78	1086.62
601.13	1086.31
601.48	1081.61
601.83	1081.75
602.18	1080.72
602.53	1078.64
602.88	1078.38
603.22	1084.58
603.57	1082.24
603.92	1084.04
604.27	1084.93
604.62	1085.87
604.97	1084.25
605.31	1088.72
605.66	1091.39
606.01	1092.16
606.36	1090.62
606.71	1090.74
607.05	1085.75
607.40	1080.60
607.75	1078.33
608.10	1082.12
608.44	1081.14
608.79	1082.22
609.14	1087.69
609.49	1090.01
609.84	1085.56
610.18	1090.06
610.53	1091.77
610.88	1089.64
611.23	1086.27
611.57	1085.40
611.92	1080.37
612.27	1077.25
612.62	1075.15
612.96	1076.48
613.31	1078.82
613.66	1080.06
614.00	1083.50
614.35	1085.00
614.70	1084.81
615.05	1084.98
615.39	1084.89
615.74	1080.84
616.09	1083.06
616.43	1082.92
616.78	1082.87
617.13	1081.12
617.47	1083.95
617.82	1083.67
618.17	1085.70
618.51	1087.09
618.86	1086.55
619.21	1089.10
619.55	1084.09
619.90	1083.76
620.25	1079.81
620.59	1081.56
620.94	1081.12
621.29	1080.06
621.63	1080.27
621.98	1084.28
622.32	1082.40
622.67	1080.88
623.02	1082.97
623.36	1082.40
623.71	1079.74
624.05	1080.98
624.40	1078.82
624.75	1078.54
625.09	1080.37
625.44	1082.94
625.78	1082.64
626.13	1085.12
626.48	1084.30
626.82	1083.18
627.17	1079.78
627.51	1083.22
627.86	1080.32
628.20	1082.69
628.55	1082.15
628.89	1085.96
629.24	1085.31
629.58	1085.42
629.93	1086.71
630.28	1089.29
630.62	1087.16
630.97	1087.83
631.31	1089.71
631.66	1085.66
632.00	1083.15
632.35	1082.66
632.69	1079.15
633.04	1080.67
633.38	1083.08
633.73	1080.63
634.07	1079.78
634.42	1078.03
634.76	1079.31
635.11	1078.38
635.45	1080.18
635.79	1080.51
636.14	1083.48
636.48	1082.83
636.83	1087.11
637.17	1086.24
637.52	1085.73
637.86	1086.92
638.21	1083.62
638.55	1077.72
638.89	1081.61
639.24	1085.21
639.58	1084.70
639.93	1086.90
640.27	1089.22
640.61	1085.38
640.96	1082.50
641.30	1080.81
641.65	1079.34
641.99	1078.05
642.33	1079.06
642.68	1080.72
643.02	1083.20
643.37	1084.28
643.71	1087.55
644.05	1087.95
644.40	1086.38
644.74	1083.79
645.08	1082.31
645.43	1081.07
645.77	1081.16
646.11	1080.44
646.46	1082.90
646.80	1084.16
647.14	1084.86
647.49	1083.39
647.83	1087.16
648.17	1084.93
648.52	1086.31
648.86	1085.03
649.20	1085.21
649.55	1081.47
649.89	1082.40
650.23	1080.56
650.57	1078.28
650.92	1080.53
651.26	1083.06
651.60	1082.61
651.95	1082.76
652.29	1084.32
652.63	1082.69
652.97	1081.23
653.32	1082.71
653.66	1083.69
654.00	1084.72
654.34	1085.17
654.69	1086.24
655.03	1084.60
655.37	1082.01
655.71	1081.05
656.05	1081.73
656.40	1078.82
656.74	1078.54
657.08	1082.61
657.42	1082.61
657.76	1081.91
658.11	1083.34
658.45	1084.32
658.79	1080.91
659.13	1080.67
659.47	1080.51
659.82	1082.10
660.16	1080.86
660.50	1084.25
660.84	1084.63
661.18	1085.28
661.52	1085.19
661.87	1086.13
662.21	1085.26
662.55	1083.50
662.89	1079.85
663.23	1080.13
663.57	1077.65
663.91	1073.51
664.25	1075.17
664.60	1077.02
664.94	1076.23
665.28	1079.57
665.62	1082.80
665.96	1082.50
666.30	1083.32
666.64	1086.22
666.98	1083.36
667.32	1082.26
667.66	1080.37
668.01	1079.38
668.35	1075.97
668.69	1075.83
669.03	1074.47
669.37	1077.44
669.71	1078.50
670.05	1076.11
670.39	1078.94
670.73	1080.60
671.07	1080.74
671.41	1079.01
671.75	1083.04
672.09	1080.41
672.43	1081.09
672.77	1081.91
673.11	1085.77
673.45	1086.01
673.79	1086.90
674.13	1086.52
674.47	1084.86
674.81	1082.59
675.15	1082.66
675.49	1082.57
675.83	1082.69
676.17	1083.79
676.51	1079.38
676.85	1075.78
677.19	1075.43
677.53	1074.21
677.87	1074.59
678.21	1077.98
678.55	1081.70
678.89	1079.17
679.23	1079.99
679.57	1078.75
679.90	1078.52
680.24	1076.51
680.58	1080.37
680.92	1081.58
681.26	1080.67
681.60	1079.95
681.94	1080.95
682.28	1079.13
682.62	1077.91
682.96	1079.43
683.29	1082.19
683.63	1082.52
683.97	1084.37
684.31	1084.56
684.65	1085.14
684.99	1085.14
685.33	1087.34
685.67	1088.63
686.00	1090.55
686.34	1090.74
686.68	1090.60
687.02	1088.51
687.36	1087.62
687.70	1083.86
688.03	1083.97
688.37	1086.57
688.71	1084.49
689.05	1082.99
689.39	1084.25
689.72	1080.39
690.06	1074.10
690.40	1073.67
690.74	1072.06
691.08	1073.39
691.41	1075.38
691.75	1080.39
692.09	1084.28
692.43	1086.48
692.76	1081.56
693.10	1084.89
693.44	1081.58
693.78	1080.27
694.11	1081.73
694.45	1086.92
694.79	1084.93
695.13	1084.39
695.46	1081.42
695.80	1080.46
696.14	1078.12
696.48	1078.52
696.81	1078.75
697.15	1080.70
697.49	1079.27
697.82	1080.65
698.16	1080.91
698.50	1081.66
698.83	1079.83
699.17	1083.20
699.51	1080.86
699.84	1079.36
700.18	1079.67
700.52	1081.96
700.85	1081.84
701.19	1086.01
701.53	1080.56
701.86	1082.97
702.20	1082.03
702.54	1080.13
702.87	1075.66
703.21	1084.32
703.55	1082.26
703.88	1082.26
704.22	1080.41
704.55	1084.28
704.89	1082.43
705.23	1080.04
705.56	1078.05
705.90	1077.00
706.23	1074.84
706.57	1072.13
706.91	1076.30
707.24	1077.89
707.58	1077.18
707.91	1079.69
708.25	1080.27
708.58	1079.38
708.92	1081.66
709.26	1083.08
709.59	1081.91
709.93	1083.15
710.26	1081.87
710.60	1080.95
710.93	1079.97
711.27	1076.41
711.60	1074.19
711.94	1073.25
712.27	1071.90
712.61	1074.80
712.94	1077.82
713.28	1080.63
713.61	1084.07
713.95	1083.06
714.28	1084.96
714.62	1084.74
714.95	1084.21
715.29	1083.71
715.62	1085.80
715.96	1085.00
716.29	1083.67
716.63	1080.48
716.96	1078.85
717.29	1076.81
717.63	1075.69
717.96	1076.74
718.30	1077.23
718.63	1079.08
718.97	1080.30
719.30	1081.02
719.63	1080.98
719.97	1081.49
720.30	1079.17
720.64	1081.82
720.97	1079.74
721.30	1076.93
721.64	1078.24
721.97	1081.00
722.31	1076.25
722.64	1080.84
722.97	1084.23
723.31	1085.49
723.64	1083.64
723.97	1085.12
724.31	1082.85
724.64	1081.26
724.98	1078.78
725.31	1078.57
725.64	1079.36
725.98	1075.73
726.31	1074.03
726.64	1071.75
726.97	1069.41
727.31	1070.09
727.64	1072.18
727.97	1072.29
728.31	1074.31
728.64	1078.78
728.97	1079.88
729.31	1078.92
729.64	1084.30
729.97	1085.33
730.30	1083.79
730.64	1084.25
730.97	1084.39
731.30	1079.74
731.63	1078.12
731.97	1077.79
732.30	1076.01
732.63	1077.98
732.96	1078.05
733.30	1081.61
733.63	1080.60
733.96	1079.97
734.29	1076.25
734.63	1079.62
734.96	1076.60
735.29	1075.73
735.62	1076.97
735.95	1080.86
736.29	1078.54
736.62	1082.50
736.95	1084.11
737.28	1085.80
737.61	1083.53
737.94	1081.96
738.28	1081.84
738.61	1083.27
738.94	1079.97
739.27	1081.28
739.60	1082.29
739.93	1082.08
740.27	1080.09
740.60	1083.13
740.93	1082.71
741.26	1082.69
741.59	1082.33
741.92	1080.84
742.25	1076.83
742.58	1076.88
742.91	1080.91
743.25	1077.89
743.58	1077.37
743.91	1076.58
744.24	1075.55
744.57	1071.24
744.90	1073.07
745.23	1073.91
745.56	1078.24
745.89	1076.93
746.22	1081.63
746.55	1078.61
746.88	1079.01
747.21	1077.70
747.54	1081.05
747.87	1075.94
748.20	1077.58
748.53	1075.62
748.87	1073.23
749.20	1071.99
749.53	1072.08
749.86	1074.14
750.19	1078.87
750.52	1080.65
750.85	1083.53
751.18	1082.45
751.51	1082.85
751.84	1081.91
752.16	1079.78
752.49	1076.46
752.82	1080.95
753.15	1080.41
753.48	1080.27
753.81	1078.50
754.14	1077.02
754.47	1073.72
754.80	1070.19
755.13	1068.83
755.46	1070.68
755.79	1072.43
756.12	1075.73
756.45	1077.54
756.78	1077.96
757.11	1083.64
757.43	1083.93
757.76	1083.88
758.09	1083.11
758.42	1083.50
758.75	1079.69
759.08	1078.59
759.41	1078.45
759.74	1077.91
760.07	1078.96
760.39	1081.12
760.72	1084.14
761.05	1082.66
761.38	1085.87
761.71	1087.81
762.04	1086.29
762.36	1085.21
762.69	1086.80
763.02	1086.69
763.35	1084.79
763.68	1082.73
764.01	1081.63
764.33	1080.11
764.66	1077.72
764.99	1075.45
765.32	1076.97
765.65	1075.97
765.97	1072.55
766.30	1072.50
766.63	1074.05
766.96	1072.41
767.28	1074.87
767.61	1077.35
767.94	1080.53
768.27	1080.23
768.59	1080.58
768.92	1077.96
769.25	1078.36
769.58	1075.43
769.90	1074.49
770.23	1072.74
770.56	1074.66
770.89	1076.08
771.21	1073.91
771.54	1074.82
771.87	1076.74
772.19	1077.70
772.52	1074.70
772.85	1077.82
773.17	1078.68
773.50	1077.77
773.83	1078.68
774.15	1078.80
774.48	1080.23
774.81	1081.00
775.13	1082.03
775.46	1078.10
775.79	1081.77
776.11	1081.49
776.44	1079.46
776.77	1081.23
777.09	1081.61
777.42	1079.17
777.74	1079.08
778.07	1079.13
778.40	1078.24
778.72	1077.44
779.05	1076.74
779.37	1076.48
779.70	1076.55
780.03	1074.07
780.35	1074.00
780.68	1075.38
781.00	1076.67
781.33	1077.77
781.65	1079.31
781.98	1079.83
782.31	1080.58
782.63	1079.03
782.96	1078.73
783.28	1078.99
783.61	1080.04
783.93	1078.36
784.26	1075.87
784.58	1074.12
784.91	1075.66
785.23	1078.66
785.56	1079.27
785.88	1081.51
786.21	1081.07
786.53	1080.16
786.86	1079.29
787.18	1079.55
787.51	1081.02
787.83	1081.87
788.16	1080.16
788.48	1077.51
788.81	1073.86
789.13	1072.08
789.46	1071.61
789.78	1075.97
790.10	1079.29
790.43	1084.74
790.75	1084.21
791.08	1086.10
791.40	1083.27
791.73	1083.46
792.05	1083.62
792.37	1084.23
792.70	1082.94
793.02	1082.78
793.35	1081.40
793.67	1078.92
793.99	1077.56
794.32	1079.74
794.64	1079.88
794.96	1077.84
795.29	1079.10
795.61	1082.69
795.93	1081.70
796.26	1083.74
796.58	1087.46
796.91	1085.05
797.23	1080.70
797.55	1077.84
797.87	1075.92
798.20	1075.17
798.52	1077.14
798.84	1082.12
799.17	1080.48
799.49	1079.88
799.81	1075.48
800.14	1073.46
800.46	1070.21
800.78	1073.98
801.10	1073.91
801.43	1076.01
801.75	1079.81
802.07	1081.05
802.40	1082.19
802.72	1081.77
803.04	1081.84
803.36	1081.33
803.69	1081.42
804.01	1081.21
804.33	1082.03
804.65	1079.81
804.97	1082.31
805.30	1078.73
805.62	1078.38
805.94	1077.65
806.26	1079.67
806.58	1073.28
806.91	1074.35
807.23	1073.11
807.55	1071.66
807.87	1072.53
808.19	1076.39
808.52	1077.23
808.84	1078.31
809.16	1080.02
809.48	1077.35
809.80	1075.22
810.12	1075.52
810.44	1075.57
810.77	1075.80
811.09	1079.06
811.41	1078.31
811.73	1081.00
812.05	1080.58
812.37	1080.91
812.69	1080.09
813.01	1083.32
813.33	1083.22
813.66	1081.94
813.98	1080.86
814.30	1079.97
814.62	1077.37
814.94	1073.65
815.26	1075.59
815.58	1076.48
815.90	1078.19
816.22	1078.38
816.54	1079.85
816.86	1079.99
817.18	1080.34
817.50	1080.16
817.82	1080.74
818.14	1079.03
818.46	1078.14
818.78	1078.92
819.10	1078.33
819.42	1078.82
819.74	1078.78
820.06	1075.36
820.38	1075.50
820.70	1075.43
821.02	1074.21
821.34	1075.59
821.66	1079.01
821.98	1078.99
822.30	1079.01
822.62	1079.08
822.94	1076.44
823.26	1076.08
823.58	1075.66
823.90	1072.76
824.22	1075.55
824.54	1075.85
824.86	1073.91
825.18	1076.23
825.50	1081.40
825.81	1080.93
826.13	1081.91
826.45	1084.04
826.77	1081.12
827.09	1079.76
827.41	1079.15
827.73	1082.03
828.05	1080.72
828.36	1081.73
828.68	1078.59
829.00	1078.50
829.32	1076.46
829.64	1078.12
829.96	1078.89
830.28	1079.24
830.59	1077.18
830.91	1077.30
831.23	1077.56
831.55	1077.07
831.87	1076.20
832.19	1078.54
832.50	1077.23
832.82	1078.99
833.14	1080.37
833.46	1082.45
833.78	1082.80
834.09	1083.95
834.41	1079.81
834.73	1075.71
835.05	1076.13
835.36	1074.10
835.68	1074.70
836.00	1075.08
836.32	1076.30
836.63	1078.33
836.95	1078.10
837.27	1077.44
837.59	1080.13
837.90	1080.74
838.22	1077.21
838.54	1077.33
838.85	1075.71
839.17	1070.58
839.49	1072.06
839.80	1075.76
840.12	1077.86
840.44	1077.79
840.76	1079.62
841.07	1078.19
841.39	1077.98
841.71	1075.76
842.02	1077.30
842.34	1078.52
842.65	1076.62
842.97	1074.31
843.29	1074.89
843.60	1076.39
843.92	1075.85
844.24	1079.50
844.55	1081.00
844.87	1080.58
845.18	1080.18
845.50	1081.68
845.82	1077.63
846.13	1075.15
846.45	1074.42
846.76	1073.44
847.08	1072.36
847.40	1077.86
847.71	1078.45
848.03	1077.77
848.34	1077.11
848.66	1076.51
848.97	1072.29
849.29	1071.66
849.60	1075.36
849.92	1075.85
850.24	1081.00
850.55	1082.33
850.87	1083.74
851.18	1080.60
851.50	1079.76
851.81	1075.92
852.13	1076.83
852.44	1078.24
852.76	1079.97
853.07	1082.52
853.39	1079.88
853.70	1076.76
854.01	1075.08
854.33	1074.35
854.64	1073.18
854.96	1075.52
855.27	1078.50
855.59	1077.84
855.90	1079.34
856.22	1080.86
856.53	1078.64
856.84	1075.78
857.16	1074.40
857.47	1072.48
857.79	1069.06
858.10	1070.98
858.41	1070.44
858.73	1071.82
859.04	1071.43
859.36	1075.10
859.67	1074.80
859.98	1077.00
860.30	1076.60
860.61	1077.68
860.92	1077.70
861.24	1076.25
861.55	1073.25
861.87	1075.48
862.18	1076.30
862.49	1075.50
862.81	1075.94
863.12	1079.20
863.43	1077.16
863.74	1077.82
864.06	1078.19
864.37	1079.48
864.68	1079.55
865.00	1083.50
865.31	1083.27
865.62	1084.32
865.94	1083.93
866.25	1086.64
866.56	1085.52
866.87	1083.60
867.19	1082.85
867.50	1083.43
867.81	1080.18
868.12	1077.98
868.44	1081.23
868.75	1082.12
869.06	1082.66
869.37	1080.84
869.68	1080.70
870.00	1078.82
870.31	1079.27
870.62	1079.60
870.93	1081.96
871.24	1080.09
871.56	1078.99
871.87	1077.37
872.18	1075.97
872.49	1074.54
872.80	1076.11
873.12	1076.79
873.43	1075.29
873.74	1075.17
874.05	1074.12
874.36	1077.49
874.67	1075.87
874.98	1076.83
875.29	1080.16
875.61	1080.53
875.92	1079.15
876.23	1082.73
876.54	1083.41
876.85	1080.67
877.16	1081.77
877.47	1076.34
877.78	1075.22
878.09	1075.59
878.40	1077.33
878.72	1077.98
879.03	1081.94
879.34	1079.13
879.65	1078.28
879.96	1075.83
880.27	1074.89
880.58	1074.07
880.89	1074.66
881.20	1075.03
881.51	1075.76
881.82	1075.13
882.13	1076.58
882.44	1076.95
882.75	1075.78
883.06	1078.38
883.37	1080.93
883.68	1080.04
883.99	1078.05
884.30	1078.45
884.61	1077.51
884.92	1076.88
885.23	1075.92
885.54	1078.07
885.85	1077.91
886.16	1076.81
886.47	1077.79
886.78	1079.64
887.08	1082.38
887.39	1081.14
887.70	1081.82
888.01	1078.17
888.32	1077.47
888.63	1073.14
888.94	1075.71
889.25	1075.22
889.56	1075.05
889.87	1076.25
890.17	1080.41
890.48	1076.37
890.79	1075.13
891.10	1077.54
891.41	1076.93
891.72	1072.76
892.03	1075.15
892.34	1076.06
892.64	1076.55
892.95	1076.25
893.26	1080.60
893.57	1080.34
893.88	1082.59
894.18	1083.46
894.49	1084.04
894.80	1081.54
895.11	1081.33
895.42	1079.62
895.72	1078.24
896.03	1076.76
896.34	1075.94
896.65	1076.72
896.96	1076.67
897.26	1075.27
897.57	1075.94
897.88	1078.26
898.19	1077.82
898.49	1077.75
898.80	1079.31
899.11	1081.05
899.41	1080.63
899.72	1080.72
900.03	1078.47
900.34	1080.11
900.64	1075.83
900.95	1076.11
901.26	1075.87
901.56	1077.70
901.87	1073.53
902.18	1076.90
902.48	1077.42
902.79	1079.92
903.10	1075.99
903.40	1079.41
903.71	1078.89
904.02	1076.01
904.32	1075.50
904.63	1078.24
904.94	1075.36
905.24	1076.65
905.55	1075.85
905.85	1073.88
906.16	1072.18
906.47	1072.57
906.77	1072.01
907.08	1074.98
907.38	1073.58
907.69	1076.25
908.00	1075.29
908.30	1074.47
908.61	1073.67
908.91	1073.39
909.22	1071.73
909.52	1074.75
909.83	1076.06
910.14	1075.34
910.44	1079.95
910.75	1078.19
911.05	1077.89
911.36	1078.57
911.66	1081.51
911.97	1077.75
912.27	1082.99
912.58	1084.28
912.88	1081.51
913.19	1077.09
913.49	1077.42
913.80	1077.84
914.10	1076.44
914.41	1077.02
914.71	1076.41
915.01	1077.28
915.32	1074.10
915.62	1073.77
915.93	1076.41
916.23	1082.61
916.54	1082.43
916.84	1084.32
917.15	1083.39
917.45	1080.74
917.75	1078.47
918.06	1077.16
918.36	1076.58
918.67	1076.27
918.97	1077.35
919.27	1074.21
919.58	1073.35
919.88	1072.34
920.18	1074.10
920.49	1071.26
920.79	1072.22
921.10	1073.11
921.40	1075.15
921.70	1075.55
922.01	1076.37
922.31	1076.58
922.61	1078.00
922.92	1076.55
923.22	1078.59
923.52	1081.40
923.82	1082.52
924.13	1083.57
924.43	1083.32
924.73	1080.53
925.04	1077.56
925.34	1077.02
925.64	1075.57
925.94	1076.95
926.25	1078.12
926.55	1079.76
926.85	1077.58
927.15	1078.50
927.46	1076.62
927.76	1075.69
928.06	1073.93
928.36	1077.37
928.67	1079.22
928.97	1078.54
929.27	1077.84
929.57	1081.05
929.87	1080.65
930.18	1078.24
930.48	1080.34
930.78	1079.90
931.08	1078.24
931.38	1075.71
931.69	1075.17
931.99	1075.17
932.29	1077.44
932.59	1077.77
932.89	1077.56
933.19	1074.98
933.49	1075.92
933.80	1076.37
934.10	1076.13
934.40	1081.12
934.70	1086.01
935.00	1081.91
935.30	1078.24
935.60	1079.69
935.90	1079.76
936.20	1078.78
936.50	1082.19
936.81	1082.29
937.11	1081.66
937.41	1077.91
937.71	1077.21
938.01	1077.21
938.31	1079.43
938.61	1078.07
938.91	1077.70
939.21	1074.96
939.51	1076.79
939.81	1076.76
940.11	1075.94
940.41	1076.67
940.71	1079.85
941.01	1074.75
941.31	1072.67
941.61	1074.52
941.91	1074.31
942.21	1070.75
942.51	1074.31
942.81	1076.13
943.11	1075.15
943.41	1075.59
943.71	1079.48
944.01	1077.47
944.31	1074.31
944.61	1072.34
944.90	1075.20
945.20	1075.13
945.50	1073.58
945.80	1077.68
946.10	1083.50
946.40	1084.53
946.70	1083.29
947.00	1088.63
947.30	1089.99
947.60	1084.84
947.89	1079.27
948.19	1079.95
948.49	1076.04
948.79	1076.79
949.09	1077.44
949.39	1080.20
949.69	1082.33
949.98	1081.98
950.28	1074.91
950.58	1076.23
950.88	1075.52
951.18	1073.91
951.48	1076.95
951.77	1079.22
952.07	1081.21
952.37	1081.84
952.67	1080.48
952.97	1078.26
953.26	1079.08
953.56	1078.73
953.86	1076.18
954.16	1078.07
954.45	1080.41
954.75	1079.36
955.05	1078.96
955.35	1077.33
955.64	1075.10
955.94	1073.51
956.24	1072.29
956.54	1068.08
956.83	1069.16
957.13	1071.01
957.43	1071.08
957.72	1073.25
958.02	1075.43
958.32	1078.36
958.61	1075.55
958.91	1073.70
959.21	1070.82
959.50	1071.40
959.80	1069.23
960.10	1069.48
960.39	1069.84
960.69	1070.80
960.99	1072.25
961.28	1072.18
961.58	1073.16
961.87	1073.39
962.17	1072.60
962.47	1070.14
962.76	1072.43
963.06	1071.33
963.36	1071.08
963.65	1074.31
963.95	1075.59
964.24	1077.91
964.54	1084.23
964.83	1088.09
965.13	1084.77
965.42	1086.92
965.72	1086.73
966.02	1083.01
966.31	1080.70
966.61	1084.11
966.90	1079.92
967.20	1073.95
967.49	1073.02
967.79	1074.21
968.08	1077.33
968.38	1076.74
968.67	1079.95
968.97	1079.78
969.26	1080.27
969.56	1076.30
969.85	1077.23
970.15	1075.22
970.44	1076.97
970.74	1077.11
971.03	1079.88
971.32	1076.88
971.62	1079.41
971.91	1078.26
972.21	1074.77
972.50	1074.26
972.80	1078.19
973.09	1077.79
973.38	1075.85
973.68	1077.49
973.97	1077.72
974.27	1077.72
974.56	1076.95
974.85	1077.49
975.15	1077.75
975.44	1075.10
975.73	1073.25
976.03	1073.72
976.32	1077.79
976.61	1077.35
976.91	1077.30
977.20	1080.81
977.49	1082.19
977.79	1079.27
978.08	1081.70
978.37	1084.56
978.67	1082.73
978.96	1081.66
979.25	1079.97
979.55	1074.45
979.84	1070.33
980.13	1071.68
980.42	1070.65
980.72	1073.63
981.01	1073.95
981.30	1078.94
981.59	1079.41
981.89	1078.64
982.18	1075.76
982.47	1078.61
982.76	1074.91
983.06	1075.17
983.35	1075.01
983.64	1077.04
983.93	1077.51
984.22	1079.90
984.52	1078.21
984.81	1082.19
985.10	1081.14
985.39	1082.97
985.68	1079.76
985.97	1078.99
986.27	1077.42
986.56	1077.56
986.85	1074.59
987.14	1079.53
987.43	1080.81
987.72	1079.08
988.01	1081.00
988.31	1082.76
988.60	1080.48
988.89	1083.20
989.18	1085.82
989.47	1084.70
989.76	1083.62
990.05	1081.63
990.34	1081.00
990.63	1081.49
990.92	1080.46
991.21	1079.01
991.51	1078.99
991.80	1074.31
992.09	1073.91
992.38	1075.62
992.67	1077.82
992.96	1077.61
993.25	1080.72
993.54	1078.71
993.83	1077.49
994.12	1076.67
994.41	1079.29
994.70	1077.42
994.99	1078.61
995.28	1078.64
995.57	1080.34
995.86	1078.07
996.15	1078.47
996.44	1076.97
996.73	1076.15
997.02	1076.44
997.31	1076.81
997.59	1074.52
997.88	1074.87
998.17	1075.64
998.46	1073.16
998.75	1068.88
999.04	1071.92
999.33	1072.08
999.62	1074.47
999.91	1072.48
1000.20	1077.21
1000.49	1076.90
1000.77	1077.63
1001.06	1077.37
1001.35	1080.98
1001.64	1083.50
1001.93	1083.04
1002.22	1085.68
1002.51	1086.57
1002.79	1085.12
1003.08	1083.79
1003.37	1085.99
1003.66	1082.90
1003.95	1076.93
1004.23	1077.84
1004.52	1077.82
1004.81	1075.48
1005.10	1075.05
1005.39	1076.62
1005.67	1074.96
1005.96	1074.59
1006.25	1075.64
1006.54	1076.65
1006.83	1077.79
1007.11	1077.79
1007.40	1078.38
1007.69	1076.18
1007.97	1075.17
1008.26	1075.13
1008.55	1075.69
1008.84	1074.07
1009.12	1076.13
1009.41	1075.92
1009.70	1078.99
1009.98	1080.27
1010.27	1079.92
1010.56	1082.97
1010.85	1082.78
1011.13	1079.60
1011.42	1079.92
1011.71	1080.93
1011.99	1079.43
1012.28	1082.08
1012.56	1084.32
1012.85	1083.43
1013.14	1083.50
1013.42	1081.12
1013.71	1077.37
1014.00	1078.64
1014.28	1081.23
1014.57	1079.76
1014.85	1080.67
1015.14	1083.93
1015.43	1082.33
1015.71	1079.48
1016.00	1083.01
1016.28	1083.50
1016.57	1080.56
1016.85	1081.07
1017.14	1083.69
1017.43	1082.15
1017.71	1077.30
1018.00	1078.66
1018.28	1076.83
1018.57	1074.91
1018.85	1072.88
1019.14	1075.08
1019.42	1074.70
1019.71	1074.54
1019.99	1073.37
1020.28	1071.94
1020.56	1074.21
1020.85	1075.62
1021.13	1073.63
1021.42	1076.08
1021.70	1078.12
1021.99	1077.89
1022.27	1078.43
1022.55	1078.87
1022.84	1085.19
>>>>>End Processed Spectral Data<<<<<
