SpectraSuite Data File
++++++++++++++++++++++++++++++++++++
Date: Mon Aug 26 10:22:05 PDT 2019
User: corrico
Dark Spectrum Present: No
Reference Spectrum Present: No
Number of Sampled Component Spectra: 1
Spectrometers: USB2+H06089
Integration Time (usec): 2000 (USB2+H06089)
Spectra Averaged: 20 (USB2+H06089)
Boxcar Smoothing: 2 (USB2+H06089)
Correct for Electrical Dark: No (USB2+H06089)
Strobe/Lamp Enabled: No (USB2+H06089)
Correct for Detector Non-linearity: No (USB2+H06089)
Correct for Stray Light: No (USB2+H06089)
Number of Pixels in Processed Spectrum: 2048
>>>>>Begin Processed Spectral Data<<<<<
339.70	1026.79
340.07	1026.79
340.45	995.03
340.82	973.01
341.19	950.07
341.57	925.49
341.94	915.97
342.31	905.97
342.69	902.44
343.06	900.50
343.43	899.02
343.81	898.41
344.18	899.70
344.55	902.91
344.93	909.06
345.30	916.02
345.67	925.26
346.04	935.58
346.42	942.02
346.79	949.34
347.16	959.25
347.54	966.17
347.91	974.51
348.28	985.55
348.65	993.30
349.03	1000.11
349.40	1007.20
349.77	1014.67
350.14	1024.97
350.52	1032.93
350.89	1041.21
351.26	1049.54
351.63	1054.95
352.01	1053.80
352.38	1058.11
352.75	1059.05
353.12	1062.14
353.50	1065.04
353.87	1070.63
354.24	1073.30
354.61	1077.35
354.98	1079.34
355.36	1082.17
355.73	1085.73
356.10	1084.46
356.47	1085.31
356.84	1082.61
357.22	1083.04
357.59	1079.60
357.96	1081.05
358.33	1080.30
358.70	1081.56
359.08	1078.36
359.45	1079.22
359.82	1079.83
360.19	1079.22
360.56	1078.94
360.94	1081.14
361.31	1080.88
361.68	1079.85
362.05	1080.91
362.42	1082.57
362.79	1081.30
363.16	1082.69
363.54	1081.00
363.91	1079.62
364.28	1077.30
364.65	1077.68
365.02	1074.03
365.39	1073.30
365.76	1073.11
366.14	1076.83
366.51	1077.30
366.88	1081.14
367.25	1083.22
367.62	1081.98
367.99	1078.26
368.36	1078.33
368.73	1076.15
369.10	1072.88
369.48	1072.57
369.85	1075.73
370.22	1074.66
370.59	1074.68
370.96	1080.13
371.33	1082.38
371.70	1080.53
372.07	1082.08
372.44	1082.22
372.81	1078.59
373.18	1076.81
373.55	1074.68
373.93	1074.70
374.30	1075.17
374.67	1073.56
375.04	1074.31
375.41	1076.27
375.78	1076.93
376.15	1073.98
376.52	1078.03
376.89	1078.68
377.26	1079.13
377.63	1080.70
378.00	1085.26
378.37	1086.01
378.74	1090.29
379.11	1087.41
379.48	1084.16
379.85	1078.38
380.22	1077.49
380.59	1074.35
380.96	1074.73
381.33	1074.49
381.70	1078.82
382.07	1077.72
382.44	1078.57
382.81	1078.33
383.18	1081.12
383.55	1083.55
383.92	1084.67
384.29	1084.51
384.66	1087.58
385.03	1084.98
385.40	1080.67
385.77	1077.42
386.14	1077.40
386.51	1080.06
386.88	1082.29
387.25	1082.54
387.62	1083.11
387.99	1082.52
388.36	1083.25
388.73	1082.45
389.10	1085.19
389.46	1088.96
389.83	1088.19
390.20	1084.18
390.57	1083.41
390.94	1083.04
391.31	1084.09
391.68	1082.92
392.05	1083.60
392.42	1086.22
392.79	1086.69
393.16	1086.43
393.53	1087.76
393.89	1089.36
394.26	1085.17
394.63	1085.96
395.00	1082.15
395.37	1084.60
395.74	1083.67
396.11	1088.09
396.48	1088.00
396.84	1089.03
397.21	1090.10
397.58	1092.26
397.95	1087.09
398.32	1084.23
398.69	1086.55
399.06	1082.01
399.42	1077.82
399.79	1079.01
400.16	1079.36
400.53	1078.17
400.90	1083.60
401.27	1086.52
401.64	1090.03
402.00	1091.65
402.37	1091.60
402.74	1090.34
403.11	1091.74
403.48	1093.15
403.84	1095.07
404.21	1097.10
404.58	1095.96
404.95	1095.72
405.32	1095.30
405.68	1096.73
406.05	1095.04
406.42	1095.86
406.79	1094.11
407.16	1093.66
407.52	1091.13
407.89	1092.35
408.26	1093.92
408.63	1095.18
408.99	1098.20
409.36	1098.83
409.73	1101.92
410.10	1101.41
410.47	1100.17
410.83	1098.76
411.20	1098.51
411.57	1097.99
411.94	1099.56
412.30	1101.34
412.67	1100.19
413.04	1102.42
413.40	1102.86
413.77	1102.88
414.14	1103.38
414.51	1104.97
414.87	1104.01
415.24	1104.62
415.61	1102.81
415.97	1103.56
416.34	1107.75
416.71	1110.82
417.08	1109.02
417.44	1112.06
417.81	1115.12
418.18	1111.66
418.54	1113.67
418.91	1116.04
419.28	1115.27
419.64	1113.70
420.01	1116.62
420.38	1115.55
420.74	1116.20
421.11	1118.82
421.48	1122.17
421.84	1123.81
422.21	1127.62
422.58	1129.71
422.94	1132.23
423.31	1136.70
423.68	1139.82
424.04	1142.02
424.41	1146.68
424.77	1152.46
425.14	1152.74
425.51	1158.24
425.87	1161.37
426.24	1167.55
426.61	1175.79
426.97	1185.32
427.34	1189.30
427.70	1200.79
428.07	1209.17
428.44	1215.07
428.80	1221.13
429.17	1235.36
429.53	1242.99
429.90	1254.15
430.27	1264.17
430.63	1278.49
431.00	1284.11
431.36	1301.64
431.73	1314.19
432.09	1329.68
432.46	1345.97
432.83	1372.89
433.19	1391.43
433.56	1418.15
433.92	1446.24
434.29	1477.79
434.65	1504.22
435.02	1534.74
435.38	1568.56
435.75	1599.08
436.11	1635.96
436.48	1676.76
436.84	1719.94
437.21	1760.20
437.57	1812.63
437.94	1864.26
438.30	1911.87
438.67	1970.78
439.03	2037.76
439.40	2106.25
439.76	2171.62
440.13	2249.16
440.49	2327.05
440.86	2401.74
441.22	2485.16
441.59	2573.42
441.95	2678.88
442.32	2785.28
442.68	2906.13
443.05	3031.79
443.41	3165.48
443.78	3293.34
444.14	3434.36
444.51	3578.33
444.87	3746.52
445.24	3909.68
445.60	4092.99
445.96	4278.36
446.33	4481.59
446.69	4672.97
447.06	4893.40
447.42	5117.96
447.79	5346.77
448.15	5621.19
448.51	5902.85
448.88	6235.40
449.24	6540.02
449.61	6908.65
449.97	7259.55
450.33	7642.39
450.70	7988.72
451.06	8428.11
451.43	8822.53
451.79	9287.29
452.15	9777.89
452.52	10322.70
452.88	10872.00
453.24	11514.71
453.61	12219.98
453.97	12928.60
454.34	13624.14
454.70	14433.87
455.06	15245.10
455.43	15994.89
455.79	16690.90
456.15	17514.02
456.52	18274.76
456.88	19175.49
457.24	20099.35
457.61	21207.92
457.97	22273.19
458.33	23361.31
458.70	24419.21
459.06	25397.86
459.42	26407.26
459.79	27330.55
460.15	28385.88
460.51	29373.96
460.88	30477.59
461.24	31464.66
461.60	32603.26
461.96	33663.13
462.33	34726.13
462.69	35789.86
463.05	36934.94
463.42	37978.89
463.78	38922.17
464.14	39650.31
464.50	40358.47
464.87	40855.34
465.23	41159.05
465.59	41536.32
465.95	41866.59
466.32	42120.02
466.68	42418.82
467.04	42605.82
467.40	42647.58
467.77	42765.96
468.13	42679.46
468.49	42475.39
468.85	42375.33
469.22	42263.17
469.58	42021.65
469.94	41891.66
470.30	41695.52
470.66	41330.40
471.03	40781.73
471.39	40387.30
471.75	39648.14
472.11	38913.09
472.47	38402.74
472.84	37890.65
473.20	37176.81
473.56	36824.33
473.92	36275.21
474.28	35668.76
474.65	35013.81
475.01	34338.05
475.37	33476.38
475.73	32799.89
476.09	32071.14
476.45	31447.58
476.81	30914.15
477.18	30365.13
477.54	29890.89
477.90	29442.53
478.26	28865.92
478.62	28335.88
478.98	27892.35
479.34	27447.98
479.71	26906.40
480.07	26488.38
480.43	26056.58
480.79	25597.53
481.15	25116.17
481.51	24718.42
481.87	24366.50
482.23	23983.89
482.59	23656.17
482.96	23352.04
483.32	23045.59
483.68	22654.84
484.04	22325.27
484.40	21914.41
484.76	21470.65
485.12	21033.79
485.48	20614.83
485.84	20109.88
486.20	19671.41
486.56	19243.23
486.92	18856.32
487.28	18450.16
487.64	18050.00
488.00	17658.17
488.37	17248.04
488.73	16775.04
489.09	16301.15
489.45	15860.13
489.81	15383.73
490.17	14938.00
490.53	14557.50
490.89	14143.08
491.25	13735.43
491.61	13343.42
491.97	12948.08
492.33	12533.29
492.69	12194.75
493.05	11873.14
493.41	11567.37
493.77	11259.94
494.13	10964.12
494.49	10653.30
494.85	10351.70
495.21	10059.81
495.57	9791.19
495.93	9514.18
496.29	9264.54
496.64	9029.34
497.00	8783.59
497.36	8524.98
497.72	8284.51
498.08	8058.72
498.44	7826.52
498.80	7611.23
499.16	7408.78
499.52	7212.22
499.88	7028.96
500.24	6858.66
500.60	6694.12
500.96	6545.87
501.32	6393.10
501.68	6222.27
502.03	6043.10
502.39	5882.68
502.75	5706.30
503.11	5547.16
503.47	5404.93
503.83	5272.27
504.19	5142.88
504.55	5035.08
504.91	4919.03
505.26	4806.95
505.62	4696.87
505.98	4580.12
506.34	4453.57
506.70	4335.28
507.06	4226.12
507.42	4119.39
507.78	4025.56
508.13	3936.29
508.49	3856.85
508.85	3772.26
509.21	3682.88
509.57	3595.81
509.93	3511.27
510.28	3417.32
510.64	3328.83
511.00	3254.98
511.36	3178.75
511.72	3106.99
512.07	3050.09
512.43	2994.72
512.79	2934.94
513.15	2873.52
513.51	2817.70
513.86	2761.79
514.22	2707.95
514.58	2656.41
514.94	2612.25
515.30	2565.65
515.65	2520.55
516.01	2478.16
516.37	2436.92
516.73	2396.57
517.08	2359.28
517.44	2314.35
517.80	2275.38
518.16	2237.04
518.51	2200.20
518.87	2167.06
519.23	2142.13
519.59	2113.67
519.94	2084.97
520.30	2057.82
520.66	2020.35
521.01	1986.74
521.37	1955.66
521.73	1927.29
522.09	1899.81
522.44	1879.57
522.80	1858.97
523.16	1833.76
523.51	1812.98
523.87	1788.50
524.23	1769.77
524.58	1748.97
524.94	1732.28
525.30	1708.10
525.65	1689.09
526.01	1664.71
526.37	1645.86
526.72	1626.34
527.08	1611.39
527.44	1593.37
527.79	1582.72
528.15	1569.49
528.51	1555.73
528.86	1538.29
529.22	1526.80
529.58	1509.13
529.93	1495.60
530.29	1482.50
530.65	1472.43
531.00	1459.68
531.36	1449.12
531.71	1435.50
532.07	1425.60
532.43	1414.53
532.78	1406.57
533.14	1394.33
533.49	1383.54
533.85	1375.11
534.21	1368.21
534.56	1357.77
534.92	1353.63
535.27	1348.31
535.63	1338.37
535.98	1326.50
536.34	1315.90
536.69	1307.80
537.05	1297.36
537.41	1290.10
537.76	1287.69
538.12	1281.93
538.47	1275.29
538.83	1271.59
539.18	1267.82
539.54	1264.61
539.89	1264.92
540.25	1262.65
540.60	1258.46
540.96	1250.27
541.31	1244.46
541.67	1239.85
542.02	1231.38
542.38	1227.77
542.73	1226.49
543.09	1220.64
543.44	1217.48
543.80	1218.06
544.15	1215.60
544.51	1213.97
544.86	1213.17
545.22	1209.38
545.57	1206.10
545.93	1201.87
546.28	1197.63
546.64	1193.42
546.99	1188.88
547.35	1188.73
547.70	1183.47
548.05	1182.39
548.41	1179.23
548.76	1178.11
549.12	1171.98
549.47	1174.15
549.83	1173.12
550.18	1174.13
550.53	1171.16
550.89	1166.90
551.24	1158.99
551.60	1152.57
551.95	1149.13
552.30	1145.53
552.66	1146.61
553.01	1147.00
553.37	1148.95
553.72	1147.14
554.07	1148.06
554.43	1147.68
554.78	1147.80
555.13	1143.87
555.49	1144.08
555.84	1137.83
556.19	1134.81
556.55	1132.05
556.90	1132.73
557.26	1130.81
557.61	1132.68
557.96	1131.11
558.32	1135.04
558.67	1131.86
559.02	1129.07
559.37	1126.43
559.73	1122.80
560.08	1119.27
560.43	1120.25
560.79	1120.48
561.14	1121.42
561.49	1125.33
561.85	1125.24
562.20	1121.14
562.55	1118.78
562.90	1117.30
563.26	1115.57
563.61	1113.51
563.96	1113.93
564.32	1115.01
564.67	1114.84
565.02	1112.15
565.37	1111.26
565.73	1109.34
566.08	1108.59
566.43	1105.55
566.78	1105.22
567.14	1105.25
567.49	1108.59
567.84	1106.28
568.19	1108.62
568.54	1106.68
568.90	1105.22
569.25	1101.55
569.60	1101.25
569.95	1100.96
570.31	1101.03
570.66	1099.14
571.01	1099.26
571.36	1100.36
571.71	1101.41
572.06	1100.57
572.42	1101.08
572.77	1103.42
573.12	1102.16
573.47	1100.19
573.82	1100.57
574.18	1101.71
574.53	1098.27
574.88	1097.64
575.23	1099.16
575.58	1101.32
575.93	1101.01
576.28	1101.01
576.64	1102.95
576.99	1102.51
577.34	1102.88
577.69	1102.79
578.04	1104.10
578.39	1101.62
578.74	1099.28
579.09	1098.18
579.44	1095.72
579.80	1094.81
580.15	1094.50
580.50	1094.25
580.85	1096.26
581.20	1096.45
581.55	1093.73
581.90	1091.18
582.25	1090.01
582.60	1086.24
582.95	1084.67
583.30	1085.56
583.65	1090.43
584.00	1092.59
584.35	1093.24
584.71	1093.01
585.06	1092.30
585.41	1092.42
585.76	1096.54
586.11	1098.44
586.46	1097.31
586.81	1098.11
587.16	1094.50
587.51	1090.57
587.86	1087.72
588.21	1088.72
588.56	1090.29
588.91	1089.85
589.26	1085.49
589.61	1087.46
589.96	1086.76
590.31	1083.22
590.66	1084.39
591.01	1087.13
591.36	1085.38
591.71	1090.34
592.06	1091.70
592.41	1089.61
592.76	1087.44
593.10	1088.89
593.45	1083.50
593.80	1083.90
594.15	1086.73
594.50	1091.06
594.85	1090.74
595.20	1094.88
595.55	1096.07
595.90	1097.36
596.25	1096.40
596.60	1095.65
596.95	1094.13
597.30	1091.37
597.64	1095.75
597.99	1096.56
598.34	1095.84
598.69	1095.18
599.04	1097.10
599.39	1091.93
599.74	1091.18
600.09	1091.04
600.44	1093.10
600.78	1091.58
601.13	1092.68
601.48	1091.34
601.83	1090.27
602.18	1089.54
602.53	1089.82
602.88	1084.93
603.22	1084.11
603.57	1086.34
603.92	1084.98
604.27	1085.63
604.62	1087.30
604.97	1088.16
605.31	1087.09
605.66	1087.51
606.01	1089.59
606.36	1090.57
606.71	1088.58
607.05	1088.42
607.40	1089.14
607.75	1085.45
608.10	1083.50
608.44	1085.10
608.79	1085.35
609.14	1084.09
609.49	1086.62
609.84	1085.31
610.18	1086.06
610.53	1086.85
610.88	1088.19
611.23	1087.32
611.57	1091.09
611.92	1091.25
612.27	1089.45
612.62	1092.16
612.96	1091.37
613.31	1091.11
613.66	1088.96
614.00	1089.89
614.35	1087.55
614.70	1087.81
615.05	1086.17
615.39	1084.30
615.74	1083.27
616.09	1081.87
616.43	1083.06
616.78	1082.47
617.13	1084.44
617.47	1086.29
617.82	1087.79
618.17	1089.00
618.51	1088.37
618.86	1087.34
619.21	1084.72
619.55	1082.47
619.90	1078.50
620.25	1080.16
620.59	1082.45
620.94	1085.33
621.29	1086.15
621.63	1087.58
621.98	1086.03
622.32	1085.96
622.67	1084.93
623.02	1083.62
623.36	1083.34
623.71	1085.45
624.05	1082.10
624.40	1083.01
624.75	1083.25
625.09	1085.03
625.44	1082.22
625.78	1084.09
626.13	1083.34
626.48	1082.12
626.82	1080.72
627.17	1081.94
627.51	1081.91
627.86	1084.21
628.20	1089.00
628.55	1089.17
628.89	1090.20
629.24	1088.77
629.58	1085.45
629.93	1081.09
630.28	1083.34
630.62	1082.33
630.97	1083.81
631.31	1084.79
631.66	1086.80
632.00	1081.14
632.35	1081.26
632.69	1081.70
633.04	1080.02
633.38	1077.61
633.73	1079.36
634.07	1079.69
634.42	1082.24
634.76	1081.16
635.11	1083.08
635.45	1084.11
635.79	1087.41
636.14	1084.91
636.48	1084.14
636.83	1081.23
637.17	1080.88
637.52	1077.93
637.86	1078.73
638.21	1080.09
638.55	1081.73
638.89	1083.18
639.24	1083.39
639.58	1079.62
639.93	1081.16
640.27	1083.69
640.61	1084.63
640.96	1084.60
641.30	1087.67
641.65	1087.74
641.99	1086.80
642.33	1086.59
642.68	1086.34
643.02	1085.63
643.37	1085.19
643.71	1082.43
644.05	1081.44
644.40	1081.26
644.74	1082.38
645.08	1082.92
645.43	1085.45
645.77	1084.44
646.11	1082.43
646.46	1082.43
646.80	1079.83
647.14	1079.01
647.49	1080.04
647.83	1083.71
648.17	1082.40
648.52	1086.08
648.86	1087.27
649.20	1087.53
649.55	1087.51
649.89	1087.18
650.23	1085.14
650.57	1084.86
650.92	1083.86
651.26	1085.05
651.60	1084.96
651.95	1084.65
652.29	1082.76
652.63	1080.91
652.97	1077.84
653.32	1079.38
653.66	1082.22
654.00	1082.94
654.34	1081.84
654.69	1080.60
655.03	1077.86
655.37	1077.47
655.71	1075.71
656.05	1077.30
656.40	1080.51
656.74	1082.19
657.08	1081.09
657.42	1084.72
657.76	1087.55
658.11	1084.89
658.45	1082.40
658.79	1082.26
659.13	1082.01
659.47	1079.53
659.82	1083.15
660.16	1085.56
660.50	1084.07
660.84	1079.88
661.18	1080.95
661.52	1080.72
661.87	1080.48
662.21	1081.75
662.55	1082.85
662.89	1082.24
663.23	1080.37
663.57	1079.03
663.91	1081.33
664.25	1081.07
664.60	1078.92
664.94	1078.43
665.28	1081.02
665.62	1076.48
665.96	1078.40
666.30	1080.27
666.64	1078.12
666.98	1077.98
667.32	1078.38
667.66	1076.55
668.01	1077.65
668.35	1079.06
668.69	1079.50
669.03	1081.40
669.37	1080.51
669.71	1079.48
670.05	1080.18
670.39	1077.47
670.73	1077.86
671.07	1079.38
671.41	1080.39
671.75	1079.53
672.09	1081.02
672.43	1081.70
672.77	1083.06
673.11	1085.00
673.45	1085.94
673.79	1083.60
674.13	1083.62
674.47	1082.80
674.81	1079.53
675.15	1076.53
675.49	1080.72
675.83	1079.31
676.17	1080.91
676.51	1080.98
676.85	1086.80
677.19	1082.01
677.53	1081.09
677.87	1081.61
678.21	1082.87
678.55	1081.21
678.89	1086.06
679.23	1088.02
679.57	1084.14
679.90	1081.75
680.24	1078.61
680.58	1077.84
680.92	1076.23
681.26	1079.78
681.60	1084.02
681.94	1085.38
682.28	1086.87
682.62	1088.75
682.96	1084.67
683.29	1080.93
683.63	1079.01
683.97	1077.07
684.31	1075.29
684.65	1076.69
684.99	1078.73
685.33	1085.05
685.67	1085.73
686.00	1082.66
686.34	1085.14
686.68	1086.50
687.02	1080.06
687.36	1082.47
687.70	1084.39
688.03	1082.26
688.37	1080.56
688.71	1083.62
689.05	1081.82
689.39	1085.33
689.72	1087.44
690.06	1087.30
690.40	1087.23
690.74	1088.33
691.08	1086.41
691.41	1086.36
691.75	1088.70
692.09	1089.80
692.43	1088.21
692.76	1087.88
693.10	1088.26
693.44	1087.79
693.78	1085.47
694.11	1085.19
694.45	1088.70
694.79	1087.72
695.13	1087.16
695.46	1087.32
695.80	1088.16
696.14	1083.83
696.48	1084.91
696.81	1083.79
697.15	1085.35
697.49	1084.91
697.82	1087.02
698.16	1081.87
698.50	1081.94
698.83	1078.43
699.17	1076.90
699.51	1075.31
699.84	1080.02
700.18	1078.99
700.52	1078.21
700.85	1078.12
701.19	1076.97
701.53	1077.51
701.86	1074.73
702.20	1079.36
702.54	1078.61
702.87	1078.50
703.21	1077.07
703.55	1080.32
703.88	1079.46
704.22	1080.34
704.55	1081.07
704.89	1083.83
705.23	1085.66
705.56	1085.14
705.90	1081.77
706.23	1081.26
706.57	1078.68
706.91	1077.75
707.24	1076.46
707.58	1080.74
707.91	1082.29
708.25	1081.84
708.58	1079.36
708.92	1078.03
709.26	1079.74
709.59	1082.01
709.93	1081.05
710.26	1082.94
710.60	1083.60
710.93	1081.80
711.27	1078.24
711.60	1078.21
711.94	1078.33
712.27	1078.38
712.61	1075.50
712.94	1077.91
713.28	1080.77
713.61	1078.94
713.95	1081.66
714.28	1083.53
714.62	1081.47
714.95	1082.50
715.29	1085.49
715.62	1082.10
715.96	1082.73
716.29	1084.77
716.63	1083.20
716.96	1082.10
717.29	1085.03
717.63	1084.98
717.96	1086.22
718.30	1084.25
718.63	1080.44
718.97	1078.52
719.30	1078.64
719.63	1077.28
719.97	1080.13
720.30	1084.14
720.64	1087.83
720.97	1086.20
721.30	1086.43
721.64	1083.39
721.97	1086.36
722.31	1082.57
722.64	1083.88
722.97	1083.55
723.31	1085.00
723.64	1081.98
723.97	1083.60
724.31	1082.87
724.64	1082.17
724.98	1081.16
725.31	1078.50
725.64	1079.81
725.98	1082.26
726.31	1080.23
726.64	1077.82
726.97	1080.30
727.31	1074.91
727.64	1075.08
727.97	1076.15
728.31	1079.50
728.64	1076.81
728.97	1078.85
729.31	1076.93
729.64	1075.27
729.97	1076.23
730.30	1077.72
730.64	1078.43
730.97	1077.79
731.30	1080.98
731.63	1081.42
731.97	1083.74
732.30	1085.49
732.63	1086.13
732.96	1083.57
733.30	1084.65
733.63	1084.32
733.96	1083.62
734.29	1083.60
734.63	1082.57
734.96	1079.43
735.29	1078.68
735.62	1078.59
735.95	1077.49
736.29	1081.42
736.62	1081.91
736.95	1082.52
737.28	1080.51
737.61	1079.74
737.94	1079.97
738.28	1082.24
738.61	1079.88
738.94	1080.56
739.27	1080.63
739.60	1077.61
739.93	1077.96
740.27	1079.97
740.60	1082.12
740.93	1084.02
741.26	1085.05
741.59	1083.08
741.92	1082.71
742.25	1083.46
742.58	1085.38
742.91	1083.71
743.25	1084.30
743.58	1083.81
743.91	1083.06
744.24	1082.08
744.57	1082.52
744.90	1083.39
745.23	1086.71
745.56	1088.28
745.89	1088.65
746.22	1089.82
746.55	1086.73
746.88	1083.97
747.21	1080.53
747.54	1080.27
747.87	1080.20
748.20	1079.10
748.53	1080.84
748.87	1082.97
749.20	1081.16
749.53	1081.23
749.86	1084.23
750.19	1080.98
750.52	1079.55
750.85	1079.64
751.18	1078.43
751.51	1074.98
751.84	1078.99
752.16	1078.71
752.49	1079.90
752.82	1082.05
753.15	1085.24
753.48	1084.98
753.81	1084.16
754.14	1083.95
754.47	1082.36
754.80	1079.46
755.13	1076.44
755.46	1077.56
755.79	1077.58
756.12	1079.15
756.45	1081.28
756.78	1080.72
757.11	1083.32
757.43	1082.59
757.76	1081.26
758.09	1082.54
758.42	1082.57
758.75	1080.72
759.08	1077.54
759.41	1076.62
759.74	1074.54
760.07	1074.40
760.39	1076.72
760.72	1081.07
761.05	1084.35
761.38	1083.15
761.71	1085.91
762.04	1082.05
762.36	1080.81
762.69	1076.88
763.02	1077.44
763.35	1073.58
763.68	1073.21
764.01	1073.30
764.33	1077.63
764.66	1079.01
764.99	1078.31
765.32	1078.14
765.65	1080.41
765.97	1077.40
766.30	1077.11
766.63	1077.04
766.96	1078.89
767.28	1079.46
767.61	1083.55
767.94	1084.44
768.27	1087.60
768.59	1091.02
768.92	1087.06
769.25	1084.37
769.58	1081.42
769.90	1081.05
770.23	1077.98
770.56	1082.33
770.89	1081.37
771.21	1083.74
771.54	1084.23
771.87	1084.32
772.19	1080.46
772.52	1080.20
772.85	1079.43
773.17	1078.64
773.50	1076.06
773.83	1077.86
774.15	1079.99
774.48	1080.06
774.81	1079.71
775.13	1083.22
775.46	1082.33
775.79	1082.05
776.11	1079.83
776.44	1081.30
776.77	1078.61
777.09	1078.21
777.42	1076.48
777.74	1078.28
778.07	1077.51
778.40	1077.09
778.72	1078.26
779.05	1076.95
779.37	1078.33
779.70	1076.67
780.03	1075.69
780.35	1075.15
780.68	1078.75
781.00	1081.42
781.33	1082.24
781.65	1084.14
781.98	1081.91
782.31	1083.76
782.63	1082.52
782.96	1085.52
783.28	1086.92
783.61	1091.23
783.93	1086.01
784.26	1084.70
784.58	1083.48
784.91	1083.86
785.23	1080.37
785.56	1082.31
785.88	1081.05
786.21	1080.37
786.53	1080.06
786.86	1080.44
787.18	1079.62
787.51	1081.63
787.83	1081.77
788.16	1078.38
788.48	1079.53
788.81	1078.85
789.13	1078.54
789.46	1078.05
789.78	1080.02
790.10	1080.27
790.43	1082.24
790.75	1082.08
791.08	1083.69
791.40	1085.10
791.73	1085.70
792.05	1085.84
792.37	1085.66
792.70	1082.36
793.02	1083.39
793.35	1081.82
793.67	1081.14
793.99	1081.37
794.32	1081.37
794.64	1080.72
794.96	1081.02
795.29	1081.44
795.61	1082.38
795.93	1084.07
796.26	1081.68
796.58	1081.89
796.91	1079.15
797.23	1077.40
797.55	1076.23
797.87	1076.93
798.20	1076.27
798.52	1078.21
798.84	1077.00
799.17	1081.75
799.49	1079.67
799.81	1079.15
800.14	1076.41
800.46	1079.78
800.78	1078.26
801.10	1081.61
801.43	1084.77
801.75	1087.76
802.07	1085.17
802.40	1081.96
802.72	1076.72
803.04	1072.08
803.36	1070.96
803.69	1071.26
804.01	1073.74
804.33	1076.67
804.65	1077.56
804.97	1080.25
805.30	1080.06
805.62	1079.74
805.94	1080.16
806.26	1080.86
806.58	1081.28
806.91	1081.47
807.23	1079.64
807.55	1080.56
807.87	1081.30
808.19	1081.05
808.52	1081.23
808.84	1082.08
809.16	1079.92
809.48	1078.07
809.80	1076.97
810.12	1074.91
810.44	1075.10
810.77	1077.09
811.09	1078.94
811.41	1078.85
811.73	1080.48
812.05	1079.57
812.37	1081.54
812.69	1079.48
813.01	1078.66
813.33	1078.52
813.66	1079.83
813.98	1080.95
814.30	1083.93
814.62	1084.32
814.94	1084.93
815.26	1085.82
815.58	1082.69
815.90	1082.05
816.22	1082.19
816.54	1081.19
816.86	1079.85
817.18	1079.57
817.50	1079.78
817.82	1081.47
818.14	1084.14
818.46	1082.99
818.78	1080.91
819.10	1080.46
819.42	1078.00
819.74	1076.08
820.06	1075.17
820.38	1075.52
820.70	1077.18
821.02	1078.07
821.34	1078.21
821.66	1082.78
821.98	1083.13
822.30	1075.85
822.62	1076.11
822.94	1074.56
823.26	1070.61
823.58	1072.08
823.90	1076.97
824.22	1074.38
824.54	1077.28
824.86	1075.80
825.18	1073.93
825.50	1073.88
825.81	1076.81
826.13	1076.48
826.45	1080.72
826.77	1084.72
827.09	1084.18
827.41	1081.42
827.73	1081.14
828.05	1077.09
828.36	1075.64
828.68	1078.33
829.00	1078.47
829.32	1079.67
829.64	1085.33
829.96	1083.53
830.28	1083.48
830.59	1083.48
830.91	1082.05
831.23	1078.94
831.55	1078.66
831.87	1077.89
832.19	1080.06
832.50	1078.38
832.82	1077.68
833.14	1077.77
833.46	1076.15
833.78	1076.88
834.09	1079.50
834.41	1080.27
834.73	1080.81
835.05	1083.41
835.36	1083.57
835.68	1080.58
836.00	1079.38
836.32	1080.60
836.63	1076.83
836.95	1075.15
837.27	1073.84
837.59	1076.46
837.90	1075.66
838.22	1077.47
838.54	1081.21
838.85	1084.18
839.17	1084.74
839.49	1085.31
839.80	1084.79
840.12	1076.23
840.44	1076.30
840.76	1071.94
841.07	1069.55
841.39	1068.43
841.71	1072.27
842.02	1072.34
842.34	1074.54
842.65	1079.67
842.97	1080.91
843.29	1083.04
843.60	1083.97
843.92	1083.06
844.24	1080.02
844.55	1081.26
844.87	1081.68
845.18	1077.28
845.50	1080.44
845.82	1080.84
846.13	1079.50
846.45	1077.96
846.76	1084.16
847.08	1084.53
847.40	1084.98
847.71	1087.48
848.03	1088.09
848.34	1083.11
848.66	1080.04
848.97	1078.50
849.29	1076.65
849.60	1074.40
849.92	1076.44
850.24	1073.56
850.55	1074.87
850.87	1075.69
851.18	1078.05
851.50	1078.40
851.81	1082.97
852.13	1083.62
852.44	1083.48
852.76	1085.14
853.07	1083.41
853.39	1083.48
853.70	1082.97
854.01	1081.30
854.33	1078.21
854.64	1078.50
854.96	1077.37
855.27	1072.57
855.59	1072.18
855.90	1071.29
856.22	1071.10
856.53	1069.02
856.84	1073.56
857.16	1072.67
857.47	1073.00
857.79	1077.28
858.10	1079.27
858.41	1076.74
858.73	1076.93
859.04	1080.20
859.36	1079.88
859.67	1078.94
859.98	1081.21
860.30	1081.19
860.61	1078.96
860.92	1074.45
861.24	1074.68
861.55	1074.14
861.87	1077.47
862.18	1079.08
862.49	1081.96
862.81	1086.48
863.12	1086.36
863.43	1085.42
863.74	1083.25
864.06	1079.81
864.37	1076.30
864.68	1076.04
865.00	1073.02
865.31	1077.09
865.62	1080.04
865.94	1078.75
866.25	1075.38
866.56	1080.91
866.87	1077.23
867.19	1074.45
867.50	1074.56
867.81	1079.24
868.12	1077.72
868.44	1077.07
868.75	1082.61
869.06	1080.37
869.37	1077.61
869.68	1074.59
870.00	1073.95
870.31	1069.30
870.62	1072.41
870.93	1073.65
871.24	1075.29
871.56	1077.56
871.87	1080.74
872.18	1082.43
872.49	1081.89
872.80	1080.95
873.12	1078.40
873.43	1076.20
873.74	1072.83
874.05	1077.98
874.36	1076.97
874.67	1078.14
874.98	1080.25
875.29	1081.40
875.61	1076.88
875.92	1078.59
876.23	1081.30
876.54	1076.90
876.85	1078.66
877.16	1078.07
877.47	1078.61
877.78	1077.35
878.09	1080.84
878.40	1077.75
878.72	1079.38
879.03	1078.78
879.34	1077.58
879.65	1074.24
879.96	1077.21
880.27	1077.11
880.58	1078.19
880.89	1078.75
881.20	1078.28
881.51	1078.26
881.82	1077.58
882.13	1076.65
882.44	1077.11
882.75	1079.46
883.06	1079.10
883.37	1079.60
883.68	1080.63
883.99	1081.61
884.30	1084.72
884.61	1083.41
884.92	1083.15
885.23	1082.54
885.54	1080.84
885.85	1079.10
886.16	1080.63
886.47	1081.96
886.78	1084.11
887.08	1085.17
887.39	1083.04
887.70	1081.54
888.01	1081.00
888.32	1081.23
888.63	1080.60
888.94	1082.03
889.25	1081.44
889.56	1080.93
889.87	1077.02
890.17	1073.70
890.48	1073.60
890.79	1072.64
891.10	1071.12
891.41	1073.46
891.72	1077.93
892.03	1076.30
892.34	1078.78
892.64	1079.74
892.95	1080.13
893.26	1081.37
893.57	1082.64
893.88	1078.12
894.18	1077.21
894.49	1073.88
894.80	1070.12
895.11	1068.22
895.42	1075.31
895.72	1078.82
896.03	1082.76
896.34	1082.38
896.65	1084.11
896.96	1081.56
897.26	1082.45
897.57	1081.91
897.88	1082.03
898.19	1082.80
898.49	1083.64
898.80	1079.81
899.11	1079.24
899.41	1079.95
899.72	1081.49
900.03	1079.31
900.34	1079.36
900.64	1080.16
900.95	1081.40
901.26	1078.89
901.56	1076.60
901.87	1078.36
902.18	1075.41
902.48	1071.08
902.79	1072.43
903.10	1074.75
903.40	1073.77
903.71	1076.11
904.02	1079.81
904.32	1075.99
904.63	1076.79
904.94	1075.83
905.24	1076.95
905.55	1078.28
905.85	1082.66
906.16	1080.37
906.47	1078.94
906.77	1076.90
907.08	1075.41
907.38	1074.82
907.69	1075.87
908.00	1079.22
908.30	1079.85
908.61	1081.66
908.91	1078.92
909.22	1080.88
909.52	1080.60
909.83	1079.69
910.14	1076.83
910.44	1080.06
910.75	1080.39
911.05	1082.40
911.36	1082.85
911.66	1085.89
911.97	1086.52
912.27	1086.66
912.58	1085.49
912.88	1086.36
913.19	1084.35
913.49	1079.71
913.80	1078.80
914.10	1074.70
914.41	1073.93
914.71	1075.97
915.01	1079.10
915.32	1079.53
915.62	1082.43
915.93	1082.15
916.23	1082.38
916.54	1083.34
916.84	1082.92
917.15	1083.76
917.45	1083.97
917.75	1084.07
918.06	1084.60
918.36	1086.78
918.67	1084.18
918.97	1083.90
919.27	1082.61
919.58	1080.72
919.88	1078.40
920.18	1076.95
920.49	1077.49
920.79	1076.90
921.10	1077.07
921.40	1078.10
921.70	1082.90
922.01	1084.16
922.31	1084.14
922.61	1081.07
922.92	1080.30
923.22	1078.78
923.52	1080.02
923.82	1080.25
924.13	1085.70
924.43	1085.63
924.73	1084.21
925.04	1082.15
925.34	1083.64
925.64	1082.05
925.94	1084.46
926.25	1085.47
926.55	1084.09
926.85	1082.24
927.15	1079.22
927.46	1073.70
927.76	1076.32
928.06	1076.81
928.36	1078.94
928.67	1078.75
928.97	1080.91
929.27	1080.02
929.57	1078.96
929.87	1075.55
930.18	1078.21
930.48	1079.08
930.78	1076.97
931.08	1074.84
931.38	1075.97
931.69	1076.04
931.99	1078.61
932.29	1078.87
932.59	1081.30
932.89	1082.17
933.19	1081.33
933.49	1078.03
933.80	1079.24
934.10	1080.91
934.40	1078.40
934.70	1080.91
935.00	1081.66
935.30	1082.31
935.60	1081.40
935.90	1081.61
936.20	1080.32
936.50	1081.30
936.81	1078.43
937.11	1076.81
937.41	1080.34
937.71	1080.56
938.01	1079.99
938.31	1083.08
938.61	1084.49
938.91	1083.90
939.21	1083.48
939.51	1083.20
939.81	1079.24
940.11	1077.44
940.41	1075.64
940.71	1075.73
941.01	1076.20
941.31	1078.07
941.61	1080.02
941.91	1080.39
942.21	1081.80
942.51	1082.73
942.81	1082.10
943.11	1084.18
943.41	1082.17
943.71	1080.58
944.01	1077.04
944.31	1076.18
944.61	1073.39
944.90	1072.11
945.20	1069.04
945.50	1068.69
945.80	1070.12
946.10	1069.58
946.40	1072.50
946.70	1073.74
947.00	1073.98
947.30	1072.83
947.60	1073.65
947.89	1075.41
948.19	1079.20
948.49	1082.83
948.79	1084.67
949.09	1084.77
949.39	1083.46
949.69	1079.17
949.98	1077.30
950.28	1073.42
950.58	1070.54
950.88	1069.46
951.18	1071.03
951.48	1071.08
951.77	1075.55
952.07	1080.86
952.37	1082.99
952.67	1082.01
952.97	1084.28
953.26	1086.92
953.56	1085.40
953.86	1084.18
954.16	1085.70
954.45	1083.95
954.75	1077.89
955.05	1076.58
955.35	1074.75
955.64	1072.78
955.94	1072.50
956.24	1075.94
956.54	1074.66
956.83	1077.56
957.13	1079.60
957.43	1078.03
957.72	1078.52
958.02	1080.70
958.32	1080.65
958.61	1079.20
958.91	1080.81
959.21	1078.45
959.50	1076.79
959.80	1075.13
960.10	1075.13
960.39	1075.31
960.69	1077.47
960.99	1081.07
961.28	1084.42
961.58	1081.77
961.87	1082.66
962.17	1083.22
962.47	1080.65
962.76	1077.00
963.06	1082.90
963.36	1079.01
963.65	1076.95
963.95	1074.96
964.24	1077.35
964.54	1076.32
964.83	1078.68
965.13	1077.98
965.42	1077.25
965.72	1074.49
966.02	1071.99
966.31	1072.62
966.61	1073.84
966.90	1075.03
967.20	1075.31
967.49	1077.42
967.79	1075.76
968.08	1077.61
968.38	1080.98
968.67	1082.54
968.97	1079.48
969.26	1082.19
969.56	1078.87
969.85	1078.36
970.15	1076.08
970.44	1079.57
970.74	1076.34
971.03	1078.12
971.32	1077.02
971.62	1077.21
971.91	1075.80
972.21	1077.11
972.50	1076.34
972.80	1074.19
973.09	1077.35
973.38	1077.37
973.68	1078.17
973.97	1076.46
974.27	1077.33
974.56	1074.98
974.85	1076.06
975.15	1075.43
975.44	1075.36
975.73	1075.03
976.03	1075.10
976.32	1074.03
976.61	1073.77
976.91	1075.34
977.20	1077.54
977.49	1079.41
977.79	1079.74
978.08	1081.07
978.37	1080.81
978.67	1079.92
978.96	1078.82
979.25	1079.17
979.55	1074.24
979.84	1075.55
980.13	1074.56
980.42	1072.71
980.72	1072.15
981.01	1076.32
981.30	1075.03
981.59	1076.23
981.89	1078.19
982.18	1077.98
982.47	1078.66
982.76	1078.33
983.06	1076.62
983.35	1077.18
983.64	1075.90
983.93	1075.08
984.22	1076.93
984.52	1078.26
984.81	1078.21
985.10	1080.13
985.39	1078.07
985.68	1078.52
985.97	1076.88
986.27	1075.55
986.56	1072.71
986.85	1074.40
987.14	1071.38
987.43	1073.51
987.72	1074.31
988.01	1076.55
988.31	1076.95
988.60	1078.45
988.89	1078.43
989.18	1077.30
989.47	1078.14
989.76	1075.50
990.05	1074.84
990.34	1074.84
990.63	1078.31
990.92	1078.36
991.21	1079.43
991.51	1078.68
991.80	1079.29
992.09	1073.79
992.38	1071.73
992.67	1070.91
992.96	1073.88
993.25	1073.72
993.54	1077.72
993.83	1076.58
994.12	1077.79
994.41	1076.58
994.70	1078.50
994.99	1077.49
995.28	1079.62
995.57	1081.40
995.86	1079.90
996.15	1077.79
996.44	1079.15
996.73	1079.17
997.02	1080.77
997.31	1078.61
997.59	1080.63
997.88	1078.21
998.17	1078.99
998.46	1076.53
998.75	1079.90
999.04	1078.61
999.33	1078.40
999.62	1076.18
999.91	1078.57
1000.20	1077.07
1000.49	1077.23
1000.77	1078.64
1001.06	1080.34
1001.35	1076.15
1001.64	1077.02
1001.93	1080.06
1002.22	1081.00
1002.51	1082.92
1002.79	1082.43
1003.08	1079.95
1003.37	1076.13
1003.66	1075.20
1003.95	1071.68
1004.23	1070.94
1004.52	1073.23
1004.81	1072.90
1005.10	1069.95
1005.39	1073.28
1005.67	1077.30
1005.96	1075.83
1006.25	1077.00
1006.54	1081.26
1006.83	1081.21
1007.11	1081.23
1007.40	1082.40
1007.69	1082.71
1007.97	1081.02
1008.26	1079.48
1008.55	1078.33
1008.84	1078.28
1009.12	1075.45
1009.41	1075.03
1009.70	1074.45
1009.98	1072.62
1010.27	1074.17
1010.56	1075.85
1010.85	1080.77
1011.13	1083.13
1011.42	1085.31
1011.71	1085.07
1011.99	1086.59
1012.28	1082.57
1012.56	1078.07
1012.85	1078.47
1013.14	1082.54
1013.42	1078.64
1013.71	1078.82
1014.00	1083.90
1014.28	1082.19
1014.57	1077.86
1014.85	1081.12
1015.14	1078.61
1015.43	1075.73
1015.71	1076.93
1016.00	1075.92
1016.28	1076.25
1016.57	1079.74
1016.85	1081.82
1017.14	1081.05
1017.43	1081.61
1017.71	1079.55
1018.00	1077.65
1018.28	1077.77
1018.57	1078.03
1018.85	1074.68
1019.14	1073.63
1019.42	1074.35
1019.71	1072.76
1019.99	1073.18
1020.28	1074.75
1020.56	1075.01
1020.85	1075.50
1021.13	1073.58
1021.42	1072.57
1021.70	1071.92
1021.99	1074.00
1022.27	1075.76
1022.55	1082.38
1022.84	1090.81
>>>>>End Processed Spectral Data<<<<<
