SpectraSuite Data File
++++++++++++++++++++++++++++++++++++
Date: Mon Aug 26 10:21:56 PDT 2019
User: corrico
Dark Spectrum Present: No
Reference Spectrum Present: No
Number of Sampled Component Spectra: 1
Spectrometers: USB2+H06089
Integration Time (usec): 2000 (USB2+H06089)
Spectra Averaged: 20 (USB2+H06089)
Boxcar Smoothing: 2 (USB2+H06089)
Correct for Electrical Dark: No (USB2+H06089)
Strobe/Lamp Enabled: No (USB2+H06089)
Correct for Detector Non-linearity: No (USB2+H06089)
Correct for Stray Light: No (USB2+H06089)
Number of Pixels in Processed Spectrum: 2048
>>>>>Begin Processed Spectral Data<<<<<
339.70	1033.23
340.07	1033.23
340.45	995.50
340.82	971.91
341.19	945.83
341.57	920.98
341.94	908.03
342.31	899.51
342.69	895.14
343.06	894.39
343.43	890.43
343.81	894.34
344.18	899.51
344.55	904.83
344.93	911.03
345.30	919.69
345.67	927.58
346.04	933.50
346.42	942.00
346.79	946.63
347.16	957.00
347.54	961.38
347.91	971.53
348.28	981.11
348.65	990.42
349.03	996.65
349.40	1008.51
349.77	1017.76
350.14	1022.53
350.52	1026.42
350.89	1029.34
351.26	1035.69
351.63	1039.36
352.01	1046.36
352.38	1052.21
352.75	1057.45
353.12	1060.08
353.50	1063.59
353.87	1066.86
354.24	1071.05
354.61	1074.10
354.98	1073.67
355.36	1075.45
355.73	1074.00
356.10	1073.88
356.47	1075.43
356.84	1076.67
357.22	1076.20
357.59	1073.49
357.96	1078.12
358.33	1076.32
358.70	1076.55
359.08	1075.99
359.45	1078.14
359.82	1075.69
360.19	1074.05
360.56	1073.04
360.94	1073.11
361.31	1069.67
361.68	1066.58
362.05	1069.16
362.42	1067.54
362.79	1063.40
363.16	1066.98
363.54	1066.61
363.91	1064.45
364.28	1065.76
364.65	1065.65
365.02	1064.69
365.39	1066.25
365.76	1066.82
366.14	1065.27
366.51	1067.00
366.88	1064.43
367.25	1062.91
367.62	1063.98
367.99	1064.59
368.36	1065.41
368.73	1067.89
369.10	1066.44
369.48	1063.80
369.85	1064.62
370.22	1064.15
370.59	1062.93
370.96	1062.91
371.33	1061.99
371.70	1059.51
372.07	1058.60
372.44	1058.27
372.81	1060.19
373.18	1063.24
373.55	1065.06
373.93	1064.78
374.30	1064.52
374.67	1064.22
375.04	1064.29
375.41	1063.35
375.78	1063.94
376.15	1064.34
376.52	1062.65
376.89	1060.17
377.26	1061.34
377.63	1063.84
378.00	1065.27
378.37	1066.35
378.74	1065.81
379.11	1065.97
379.48	1061.43
379.85	1060.64
380.22	1059.58
380.59	1060.82
380.96	1060.57
381.33	1060.33
381.70	1061.22
382.07	1060.99
382.44	1064.55
382.81	1064.34
383.18	1066.91
383.55	1064.52
383.92	1068.41
384.29	1067.33
384.66	1069.93
385.03	1068.34
385.40	1070.09
385.77	1072.06
386.14	1071.64
386.51	1071.87
386.88	1073.37
387.25	1076.46
387.62	1074.21
387.99	1075.29
388.36	1071.78
388.73	1072.20
389.10	1069.53
389.46	1066.44
389.83	1066.02
390.20	1067.78
390.57	1068.90
390.94	1070.28
391.31	1072.48
391.68	1069.88
392.05	1067.99
392.42	1064.83
392.79	1063.89
393.16	1066.56
393.53	1070.05
393.89	1072.39
394.26	1073.74
394.63	1072.55
395.00	1071.10
395.37	1068.41
395.74	1066.93
396.11	1068.88
396.48	1071.80
396.84	1072.36
397.21	1073.65
397.58	1075.85
397.95	1074.73
398.32	1068.92
398.69	1067.96
399.06	1069.41
399.42	1065.32
399.79	1066.18
400.16	1071.97
400.53	1071.61
400.90	1069.39
401.27	1074.52
401.64	1075.20
402.00	1075.29
402.37	1075.90
402.74	1076.72
403.11	1072.97
403.48	1073.23
403.84	1074.94
404.21	1073.67
404.58	1074.49
404.95	1077.75
405.32	1075.83
405.68	1069.41
406.05	1070.65
406.42	1069.39
406.79	1065.72
407.16	1065.97
407.52	1067.94
407.89	1066.28
408.26	1067.66
408.63	1069.93
408.99	1071.97
409.36	1073.28
409.73	1072.01
410.10	1074.03
410.47	1073.67
410.83	1074.77
411.20	1074.54
411.57	1078.73
411.94	1074.40
412.30	1076.11
412.67	1071.87
413.04	1070.28
413.40	1067.99
413.77	1068.57
414.14	1068.83
414.51	1070.51
414.87	1071.73
415.24	1075.31
415.61	1074.80
415.97	1071.52
416.34	1076.04
416.71	1075.52
417.08	1073.70
417.44	1076.60
417.81	1079.81
418.18	1076.90
418.54	1081.73
418.91	1078.10
419.28	1076.76
419.64	1080.60
420.01	1080.30
420.38	1076.88
420.74	1078.59
421.11	1080.48
421.48	1076.48
421.84	1076.51
422.21	1076.04
422.58	1079.99
422.94	1080.88
423.31	1083.32
423.68	1083.46
424.04	1082.26
424.41	1082.80
424.77	1081.58
425.14	1081.84
425.51	1081.66
425.87	1085.96
426.24	1084.30
426.61	1085.14
426.97	1084.70
427.34	1086.83
427.70	1087.76
428.07	1089.82
428.44	1090.50
428.80	1089.94
429.17	1091.34
429.53	1092.23
429.90	1096.42
430.27	1098.44
430.63	1100.22
431.00	1103.00
431.36	1102.86
431.73	1100.99
432.09	1104.15
432.46	1105.93
432.83	1108.45
433.19	1113.23
433.56	1115.08
433.92	1116.62
434.29	1118.71
434.65	1123.46
435.02	1126.78
435.38	1134.86
435.75	1140.73
436.11	1147.63
436.48	1149.81
436.84	1151.24
437.21	1153.77
437.57	1156.41
437.94	1161.21
438.30	1168.91
438.67	1178.37
439.03	1186.14
439.40	1193.60
439.76	1203.55
440.13	1212.30
440.49	1222.67
440.86	1231.10
441.22	1242.78
441.59	1255.23
441.95	1268.06
442.32	1277.14
442.68	1292.21
443.05	1309.60
443.41	1321.93
443.78	1332.51
444.14	1349.95
444.51	1363.41
444.87	1379.82
445.24	1399.13
445.60	1421.78
445.96	1442.89
446.33	1467.45
446.69	1487.90
447.06	1510.82
447.42	1537.36
447.79	1567.29
448.15	1600.22
448.51	1631.31
448.88	1669.27
449.24	1701.10
449.61	1738.15
449.97	1777.94
450.33	1823.11
450.70	1858.03
451.06	1905.43
451.43	1948.87
451.79	1995.59
452.15	2051.32
452.52	2119.26
452.88	2181.68
453.24	2250.94
453.61	2331.01
453.97	2402.30
454.34	2473.55
454.70	2555.63
455.06	2637.46
455.43	2715.07
455.79	2794.46
456.15	2882.44
456.52	2974.47
456.88	3078.53
457.24	3175.31
457.61	3298.87
457.97	3411.21
458.33	3526.88
458.70	3652.17
459.06	3780.29
459.42	3890.98
459.79	3999.25
460.15	4116.18
460.51	4220.55
460.88	4332.05
461.24	4436.37
461.60	4559.81
461.96	4674.31
462.33	4793.30
462.69	4900.03
463.05	5030.93
463.42	5152.88
463.78	5275.59
464.14	5375.46
464.50	5477.02
464.87	5544.78
465.23	5612.49
465.59	5686.10
465.95	5755.94
466.32	5826.34
466.68	5898.48
467.04	5931.90
467.40	5935.27
467.77	5938.38
468.13	5926.63
468.49	5926.10
468.85	5929.51
469.22	5931.29
469.58	5919.24
469.94	5916.08
470.30	5869.20
470.66	5815.08
471.03	5743.51
471.39	5686.12
471.75	5580.66
472.11	5501.17
472.47	5439.71
472.84	5369.96
473.20	5288.39
473.56	5257.90
473.92	5198.42
474.28	5143.91
474.65	5102.93
475.01	5053.83
475.37	4977.90
475.73	4910.37
476.09	4830.70
476.45	4764.07
476.81	4704.17
477.18	4640.74
477.54	4585.93
477.90	4549.25
478.26	4485.64
478.62	4419.38
478.98	4360.02
479.34	4313.84
479.71	4246.69
480.07	4198.27
480.43	4173.18
480.79	4148.83
481.15	4112.25
481.51	4081.36
481.87	4045.97
482.23	3987.99
482.59	3931.44
482.96	3883.32
483.32	3839.16
483.68	3782.35
484.04	3735.47
484.40	3688.12
484.76	3643.39
485.12	3587.01
485.48	3540.41
485.84	3487.87
486.20	3433.07
486.56	3369.95
486.92	3316.82
487.28	3267.11
487.64	3212.55
488.00	3165.18
488.37	3117.52
488.73	3068.11
489.09	3021.42
489.45	2976.79
489.81	2926.21
490.17	2879.96
490.53	2835.82
490.89	2780.60
491.25	2734.07
491.61	2696.25
491.97	2652.30
492.33	2604.88
492.69	2563.35
493.05	2518.79
493.41	2468.40
493.77	2425.75
494.13	2381.68
494.49	2342.60
494.85	2304.28
495.21	2270.51
495.57	2234.42
495.93	2199.28
496.29	2170.14
496.64	2141.03
497.00	2107.54
497.36	2074.02
497.72	2043.47
498.08	2014.10
498.44	1986.01
498.80	1957.44
499.16	1934.69
499.52	1915.45
499.88	1893.49
500.24	1868.31
500.60	1844.83
500.96	1821.19
501.32	1798.35
501.68	1773.70
502.03	1750.95
502.39	1730.87
502.75	1712.62
503.11	1688.25
503.47	1668.15
503.83	1656.35
504.19	1641.32
504.55	1622.86
504.91	1611.62
505.26	1592.41
505.62	1568.51
505.98	1551.52
506.34	1538.60
506.70	1522.82
507.06	1512.48
507.42	1503.33
507.78	1490.83
508.13	1476.48
508.49	1462.81
508.85	1447.55
509.21	1433.95
509.57	1419.68
509.93	1404.04
510.28	1393.23
510.64	1385.90
511.00	1374.67
511.36	1367.36
511.72	1358.00
512.07	1349.72
512.43	1341.45
512.79	1332.79
513.15	1324.79
513.51	1319.08
513.86	1308.87
514.22	1299.18
514.58	1288.32
514.94	1280.65
515.30	1273.09
515.65	1269.76
516.01	1264.87
516.37	1262.67
516.73	1254.48
517.08	1247.83
517.44	1241.28
517.80	1233.44
518.16	1227.49
518.51	1224.10
518.87	1220.52
519.23	1214.34
519.59	1213.80
519.94	1210.34
520.30	1204.74
520.66	1202.43
521.01	1199.66
521.37	1197.42
521.73	1193.86
522.09	1194.54
522.44	1190.30
522.80	1188.45
523.16	1184.15
523.51	1180.17
523.87	1175.42
524.23	1173.78
524.58	1169.66
524.94	1164.84
525.30	1163.97
525.65	1159.52
526.01	1157.93
526.37	1152.41
526.72	1147.26
527.08	1144.26
527.44	1144.59
527.79	1140.19
528.15	1138.20
528.51	1140.07
528.86	1138.02
529.22	1134.04
529.58	1132.12
529.93	1132.16
530.29	1126.45
530.65	1122.38
531.00	1122.71
531.36	1120.32
531.71	1118.57
532.07	1120.70
532.43	1120.32
532.78	1115.69
533.14	1114.28
533.49	1114.73
533.85	1113.21
534.21	1109.48
534.56	1110.94
534.92	1110.28
535.27	1107.85
535.63	1102.70
535.98	1106.25
536.34	1105.97
536.69	1104.90
537.05	1105.97
537.41	1110.23
537.76	1108.10
538.12	1107.56
538.47	1104.36
538.83	1103.07
539.18	1100.05
539.54	1098.93
539.89	1095.44
540.25	1099.05
540.60	1095.89
540.96	1096.21
541.31	1096.59
541.67	1100.40
542.02	1098.65
542.38	1098.18
542.73	1095.21
543.09	1095.56
543.44	1091.65
543.80	1090.01
544.15	1092.30
544.51	1093.87
544.86	1094.13
545.22	1094.13
545.57	1095.60
545.93	1093.52
546.28	1094.11
546.64	1088.98
546.99	1086.73
547.35	1087.27
547.70	1089.24
548.05	1090.95
548.41	1091.72
548.76	1092.07
549.12	1089.66
549.47	1086.69
549.83	1083.27
550.18	1084.70
550.53	1085.28
550.89	1088.23
551.24	1087.06
551.60	1088.86
551.95	1088.37
552.30	1088.33
552.66	1085.99
553.01	1087.27
553.37	1084.16
553.72	1084.04
554.07	1084.16
554.43	1082.99
554.78	1084.11
555.13	1082.87
555.49	1082.90
555.84	1081.73
556.19	1079.27
556.55	1080.56
556.90	1081.12
557.26	1078.78
557.61	1081.21
557.96	1083.86
558.32	1082.31
558.67	1079.69
559.02	1082.85
559.37	1082.10
559.73	1079.43
560.08	1079.08
560.43	1079.81
560.79	1078.10
561.14	1077.18
561.49	1079.50
561.85	1077.16
562.20	1076.39
562.55	1077.40
562.90	1076.55
563.26	1073.67
563.61	1073.14
563.96	1074.24
564.32	1072.78
564.67	1072.25
565.02	1073.51
565.37	1075.92
565.73	1077.84
566.08	1078.66
566.43	1078.28
566.78	1079.27
567.14	1077.91
567.49	1074.89
567.84	1076.32
568.19	1080.51
568.54	1082.50
568.90	1082.50
569.25	1085.05
569.60	1085.61
569.95	1080.88
570.31	1084.25
570.66	1086.90
571.01	1086.17
571.36	1082.38
571.71	1084.28
572.06	1078.99
572.42	1076.48
572.77	1075.90
573.12	1078.38
573.47	1077.93
573.82	1078.03
574.18	1079.85
574.53	1080.04
574.88	1076.25
575.23	1074.70
575.58	1077.23
575.93	1075.73
576.28	1076.30
576.64	1076.27
576.99	1077.11
577.34	1073.72
577.69	1073.63
578.04	1073.65
578.39	1074.61
578.74	1073.49
579.09	1074.47
579.44	1072.97
579.80	1074.75
580.15	1075.55
580.50	1076.76
580.85	1073.74
581.20	1074.31
581.55	1068.90
581.90	1069.25
582.25	1072.69
582.60	1075.85
582.95	1074.77
583.30	1079.17
583.65	1081.49
584.00	1078.82
584.35	1077.42
584.71	1080.84
585.06	1080.86
585.41	1082.85
585.76	1084.51
586.11	1085.75
586.46	1079.53
586.81	1077.02
587.16	1073.60
587.51	1072.62
587.86	1069.65
588.21	1075.13
588.56	1077.33
588.91	1080.09
589.26	1073.53
589.61	1075.85
589.96	1074.59
590.31	1071.85
590.66	1068.90
591.01	1077.58
591.36	1079.10
591.71	1078.99
592.06	1078.92
592.41	1077.14
592.76	1076.58
593.10	1073.28
593.45	1074.19
593.80	1075.24
594.15	1076.15
594.50	1074.73
594.85	1079.08
595.20	1079.85
595.55	1078.31
595.90	1080.51
596.25	1078.59
596.60	1077.98
596.95	1077.33
597.30	1078.78
597.64	1090.62
597.99	1092.14
598.34	1091.98
598.69	1091.02
599.04	1092.14
599.39	1077.00
599.74	1075.03
600.09	1076.01
600.44	1075.17
600.78	1074.10
601.13	1073.51
601.48	1072.76
601.83	1068.24
602.18	1068.22
602.53	1069.81
602.88	1073.70
603.22	1075.78
603.57	1074.10
603.92	1073.65
604.27	1075.38
604.62	1073.91
604.97	1074.63
605.31	1076.13
605.66	1074.17
606.01	1069.84
606.36	1070.19
606.71	1068.08
607.05	1070.87
607.40	1073.02
607.75	1076.11
608.10	1070.72
608.44	1074.03
608.79	1074.07
609.14	1073.37
609.49	1070.98
609.84	1077.54
610.18	1077.11
610.53	1077.33
610.88	1079.17
611.23	1080.98
611.57	1078.73
611.92	1077.98
612.27	1077.16
612.62	1076.86
612.96	1076.93
613.31	1077.77
613.66	1077.65
614.00	1076.39
614.35	1077.84
614.70	1077.18
615.05	1076.76
615.39	1073.93
615.74	1073.77
616.09	1072.32
616.43	1071.82
616.78	1067.57
617.13	1068.97
617.47	1068.76
617.82	1069.25
618.17	1070.14
618.51	1074.10
618.86	1073.65
619.21	1075.48
619.55	1074.52
619.90	1074.98
620.25	1075.92
620.59	1077.82
620.94	1074.42
621.29	1076.44
621.63	1076.46
621.98	1077.86
622.32	1075.27
622.67	1078.85
623.02	1074.49
623.36	1069.91
623.71	1066.23
624.05	1071.40
624.40	1072.22
624.75	1074.14
625.09	1080.34
625.44	1083.15
625.78	1078.82
626.13	1076.79
626.48	1077.21
626.82	1074.49
627.17	1074.14
627.51	1073.28
627.86	1072.92
628.20	1074.12
628.55	1072.57
628.89	1073.46
629.24	1078.78
629.58	1078.47
629.93	1078.47
630.28	1079.46
630.62	1078.00
630.97	1074.14
631.31	1076.62
631.66	1073.14
632.00	1074.14
632.35	1074.54
632.69	1073.42
633.04	1070.00
633.38	1073.25
633.73	1070.47
634.07	1069.95
634.42	1070.63
634.76	1072.83
635.11	1071.92
635.45	1074.66
635.79	1074.07
636.14	1072.97
636.48	1073.04
636.83	1074.45
637.17	1074.70
637.52	1074.68
637.86	1074.77
638.21	1076.55
638.55	1076.23
638.89	1076.72
639.24	1076.72
639.58	1079.97
639.93	1079.76
640.27	1079.13
640.61	1076.37
640.96	1077.40
641.30	1074.96
641.65	1072.50
641.99	1072.41
642.33	1075.55
642.68	1074.54
643.02	1073.84
643.37	1074.66
643.71	1075.45
644.05	1074.03
644.40	1075.97
644.74	1076.95
645.08	1076.65
645.43	1077.77
645.77	1075.69
646.11	1073.44
646.46	1073.93
646.80	1073.88
647.14	1072.81
647.49	1076.11
647.83	1074.87
648.17	1075.73
648.52	1075.45
648.86	1073.30
649.20	1070.40
649.55	1069.44
649.89	1068.10
650.23	1068.62
650.57	1068.27
650.92	1068.97
651.26	1072.01
651.60	1071.57
651.95	1070.33
652.29	1071.26
652.63	1071.31
652.97	1071.19
653.32	1069.58
653.66	1071.33
654.00	1070.16
654.34	1069.74
654.69	1069.48
655.03	1072.92
655.37	1071.31
655.71	1075.85
656.05	1077.02
656.40	1078.85
656.74	1077.00
657.08	1076.76
657.42	1075.97
657.76	1073.72
658.11	1073.51
658.45	1071.99
658.79	1069.04
659.13	1066.82
659.47	1067.92
659.82	1064.87
660.16	1067.19
660.50	1071.03
660.84	1071.40
661.18	1071.19
661.52	1073.39
661.87	1075.38
662.21	1073.46
662.55	1074.35
662.89	1074.68
663.23	1074.52
663.57	1071.50
663.91	1072.01
664.25	1071.75
664.60	1072.64
664.94	1071.71
665.28	1071.17
665.62	1074.96
665.96	1076.15
666.30	1073.77
666.64	1068.81
666.98	1071.99
667.32	1068.48
667.66	1064.66
668.01	1067.17
668.35	1074.26
668.69	1072.29
669.03	1073.95
669.37	1074.94
669.71	1075.17
670.05	1072.53
670.39	1073.21
670.73	1070.65
671.07	1070.02
671.41	1069.37
671.75	1071.03
672.09	1072.15
672.43	1074.75
672.77	1075.52
673.11	1075.15
673.45	1074.91
673.79	1074.96
674.13	1075.78
674.47	1076.27
674.81	1079.78
675.15	1078.64
675.49	1076.65
675.83	1077.63
676.17	1078.07
676.51	1074.59
676.85	1074.96
677.19	1072.43
677.53	1069.23
677.87	1068.24
678.21	1068.06
678.55	1069.39
678.89	1070.70
679.23	1071.38
679.57	1072.60
679.90	1073.81
680.24	1070.37
680.58	1073.44
680.92	1072.11
681.26	1072.22
681.60	1071.52
681.94	1074.56
682.28	1071.82
682.62	1072.06
682.96	1073.88
683.29	1074.12
683.63	1072.74
683.97	1073.51
684.31	1076.95
684.65	1074.14
684.99	1075.05
685.33	1077.44
685.67	1079.76
686.00	1076.46
686.34	1079.10
686.68	1078.28
687.02	1077.82
687.36	1078.57
687.70	1077.72
688.03	1073.16
688.37	1072.11
688.71	1071.01
689.05	1069.51
689.39	1068.31
689.72	1069.06
690.06	1070.68
690.40	1071.92
690.74	1070.16
691.08	1074.19
691.41	1076.55
691.75	1075.31
692.09	1076.15
692.43	1075.52
692.76	1071.82
693.10	1070.47
693.44	1071.64
693.78	1070.16
694.11	1070.19
694.45	1073.49
694.79	1074.52
695.13	1072.78
695.46	1072.11
695.80	1075.76
696.14	1075.34
696.48	1076.74
696.81	1080.39
697.15	1080.13
697.49	1076.37
697.82	1076.79
698.16	1078.14
698.50	1074.75
698.83	1073.84
699.17	1077.49
699.51	1076.95
699.84	1073.23
700.18	1073.88
700.52	1072.97
700.85	1069.67
701.19	1070.30
701.53	1068.48
701.86	1070.80
702.20	1071.17
702.54	1073.30
702.87	1072.92
703.21	1077.61
703.55	1077.65
703.88	1078.36
704.22	1076.46
704.55	1074.59
704.89	1075.03
705.23	1076.32
705.56	1075.85
705.90	1075.90
706.23	1077.11
706.57	1075.73
706.91	1073.46
707.24	1075.55
707.58	1074.10
707.91	1073.30
708.25	1071.57
708.58	1072.18
708.92	1072.20
709.26	1074.63
709.59	1076.30
709.93	1075.55
710.26	1073.18
710.60	1072.76
710.93	1076.04
711.27	1072.06
711.60	1074.61
711.94	1077.37
712.27	1076.72
712.61	1075.15
712.94	1080.67
713.28	1080.37
713.61	1076.67
713.95	1077.14
714.28	1078.68
714.62	1076.88
714.95	1075.27
715.29	1080.46
715.62	1080.63
715.96	1076.72
716.29	1077.47
716.63	1076.62
716.96	1073.23
717.29	1073.14
717.63	1074.21
717.96	1070.37
718.30	1071.66
718.63	1069.93
718.97	1071.12
719.30	1071.47
719.63	1074.00
719.97	1075.41
720.30	1076.27
720.64	1076.15
720.97	1074.00
721.30	1074.42
721.64	1073.21
721.97	1075.66
722.31	1073.77
722.64	1074.21
722.97	1076.88
723.31	1081.51
723.64	1082.47
723.97	1083.88
724.31	1084.60
724.64	1085.75
724.98	1083.04
725.31	1078.64
725.64	1076.39
725.98	1076.93
726.31	1074.12
726.64	1073.11
726.97	1075.71
727.31	1078.43
727.64	1079.15
727.97	1076.93
728.31	1074.42
728.64	1074.54
728.97	1072.88
729.31	1070.89
729.64	1070.56
729.97	1074.47
730.30	1075.08
730.64	1075.43
730.97	1074.19
731.30	1076.30
731.63	1075.20
731.97	1073.51
732.30	1072.67
732.63	1074.66
732.96	1076.37
733.30	1074.26
733.63	1077.49
733.96	1077.30
734.29	1077.65
734.63	1076.37
734.96	1080.25
735.29	1078.87
735.62	1081.19
735.95	1082.17
736.29	1082.73
736.62	1081.16
736.95	1082.36
737.28	1080.16
737.61	1080.25
737.94	1077.42
738.28	1074.98
738.61	1072.22
738.94	1072.83
739.27	1073.60
739.60	1076.60
739.93	1076.01
740.27	1071.08
740.60	1072.01
740.93	1070.96
741.26	1069.18
741.59	1069.72
741.92	1076.46
742.25	1076.62
742.58	1076.48
742.91	1074.82
743.25	1073.23
743.58	1068.88
743.91	1067.45
744.24	1068.34
744.57	1069.67
744.90	1072.81
745.23	1076.81
745.56	1079.27
745.89	1078.07
746.22	1078.85
746.55	1075.36
746.88	1073.44
747.21	1072.15
747.54	1072.13
747.87	1070.35
748.20	1069.72
748.53	1071.71
748.87	1070.19
749.20	1068.57
749.53	1066.61
749.86	1069.72
750.19	1066.54
750.52	1065.46
750.85	1068.03
751.18	1073.46
751.51	1071.82
751.84	1074.68
752.16	1078.33
752.49	1073.65
752.82	1070.21
753.15	1072.81
753.48	1072.55
753.81	1071.29
754.14	1070.87
754.47	1070.91
754.80	1070.12
755.13	1070.89
755.46	1075.29
755.79	1079.34
756.12	1083.53
756.45	1082.40
756.78	1081.26
757.11	1076.86
757.43	1079.24
757.76	1075.45
758.09	1077.30
758.42	1076.93
758.75	1077.98
759.08	1074.91
759.41	1075.94
759.74	1073.39
760.07	1073.04
760.39	1070.98
760.72	1071.08
761.05	1070.40
761.38	1073.35
761.71	1073.28
762.04	1073.32
762.36	1070.63
762.69	1072.97
763.02	1073.63
763.35	1077.37
763.68	1077.18
764.01	1078.68
764.33	1079.20
764.66	1078.05
764.99	1072.04
765.32	1074.42
765.65	1075.66
765.97	1077.37
766.30	1078.73
766.63	1081.87
766.96	1078.75
767.28	1078.64
767.61	1073.88
767.94	1073.49
768.27	1072.71
768.59	1074.33
768.92	1076.01
769.25	1079.88
769.58	1079.29
769.90	1078.10
770.23	1077.75
770.56	1074.33
770.89	1071.10
771.21	1072.25
771.54	1072.81
771.87	1072.60
772.19	1074.70
772.52	1074.75
772.85	1072.34
773.17	1072.08
773.50	1070.63
773.83	1071.50
774.15	1071.97
774.48	1070.65
774.81	1071.19
775.13	1073.07
775.46	1072.22
775.79	1072.74
776.11	1077.61
776.44	1077.58
776.77	1078.47
777.09	1077.14
777.42	1075.13
777.74	1074.38
778.07	1077.09
778.40	1075.36
778.72	1077.28
779.05	1079.46
779.37	1079.27
779.70	1077.00
780.03	1076.15
780.35	1076.69
780.68	1076.34
781.00	1074.38
781.33	1073.60
781.65	1075.76
781.98	1073.23
782.31	1069.11
782.63	1071.03
782.96	1077.18
783.28	1077.42
783.61	1080.70
783.93	1083.95
784.26	1081.14
784.58	1075.17
784.91	1073.30
785.23	1074.00
785.56	1073.67
785.88	1070.96
786.21	1070.33
786.53	1070.84
786.86	1067.14
787.18	1067.75
787.51	1070.61
787.83	1071.47
788.16	1070.75
788.48	1072.53
788.81	1071.12
789.13	1071.78
789.46	1072.32
789.78	1074.61
790.10	1074.12
790.43	1075.71
790.75	1076.23
791.08	1076.55
791.40	1074.42
791.73	1074.96
792.05	1073.72
792.37	1073.28
792.70	1072.64
793.02	1073.56
793.35	1070.49
793.67	1071.05
793.99	1069.93
794.32	1071.15
794.64	1070.37
794.96	1073.00
795.29	1072.34
795.61	1075.22
795.93	1074.68
796.26	1076.34
796.58	1076.18
796.91	1074.98
797.23	1074.80
797.55	1075.41
797.87	1074.24
798.20	1072.18
798.52	1073.18
798.84	1071.64
799.17	1071.05
799.49	1073.18
799.81	1072.55
800.14	1073.93
800.46	1075.78
800.78	1076.01
801.10	1074.66
801.43	1079.57
801.75	1079.90
802.07	1080.09
802.40	1078.05
802.72	1075.71
803.04	1073.25
803.36	1073.79
803.69	1071.54
804.01	1070.07
804.33	1071.59
804.65	1070.42
804.97	1070.91
805.30	1069.74
805.62	1072.50
805.94	1070.91
806.26	1072.55
806.58	1071.12
806.91	1074.12
807.23	1074.84
807.55	1077.54
807.87	1077.30
808.19	1077.54
808.52	1074.77
808.84	1073.49
809.16	1073.49
809.48	1075.80
809.80	1076.23
810.12	1078.05
810.44	1078.28
810.77	1076.67
811.09	1072.97
811.41	1074.00
811.73	1074.77
812.05	1076.46
812.37	1078.14
812.69	1078.14
813.01	1076.55
813.33	1076.81
813.66	1074.38
813.98	1073.32
814.30	1076.55
814.62	1075.83
814.94	1074.35
815.26	1076.83
815.58	1080.11
815.90	1078.00
816.22	1076.62
816.54	1076.65
816.86	1074.91
817.18	1071.01
817.50	1068.67
817.82	1072.60
818.14	1071.03
818.46	1071.19
818.78	1074.52
819.10	1073.95
819.42	1071.29
819.74	1073.65
820.06	1073.65
820.38	1073.86
820.70	1077.65
821.02	1077.51
821.34	1077.28
821.66	1075.38
821.98	1072.57
822.30	1071.85
822.62	1075.10
822.94	1071.75
823.26	1074.94
823.58	1075.27
823.90	1077.04
824.22	1076.51
824.54	1079.15
824.86	1079.29
825.18	1079.06
825.50	1076.93
825.81	1074.98
826.13	1073.67
826.45	1073.04
826.77	1073.16
827.09	1072.60
827.41	1069.51
827.73	1071.08
828.05	1068.92
828.36	1070.19
828.68	1070.02
829.00	1073.51
829.32	1075.17
829.64	1075.59
829.96	1077.63
830.28	1077.72
830.59	1078.24
830.91	1076.11
831.23	1078.87
831.55	1076.46
831.87	1080.58
832.19	1077.93
832.50	1075.59
832.82	1073.88
833.14	1072.08
833.46	1066.68
833.78	1070.63
834.09	1075.45
834.41	1073.51
834.73	1073.91
835.05	1077.77
835.36	1075.31
835.68	1072.41
836.00	1071.54
836.32	1072.01
836.63	1068.41
836.95	1072.36
837.27	1071.80
837.59	1073.95
837.90	1073.60
838.22	1075.76
838.54	1071.03
838.85	1071.92
839.17	1070.37
839.49	1070.23
839.80	1071.57
840.12	1075.71
840.44	1074.59
840.76	1075.90
841.07	1076.65
841.39	1074.33
841.71	1070.96
842.02	1071.80
842.34	1071.24
842.65	1068.71
842.97	1068.43
843.29	1066.37
843.60	1067.96
843.92	1069.91
844.24	1067.96
844.55	1067.40
844.87	1070.54
845.18	1069.16
845.50	1065.29
845.82	1066.82
846.13	1067.07
846.45	1066.63
846.76	1067.35
847.08	1070.35
847.40	1072.36
847.71	1071.43
848.03	1072.22
848.34	1071.61
848.66	1068.95
848.97	1072.06
849.29	1074.10
849.60	1071.75
849.92	1073.02
850.24	1073.39
850.55	1072.06
850.87	1071.24
851.18	1072.97
851.50	1072.27
851.81	1074.66
852.13	1072.55
852.44	1077.21
852.76	1077.75
853.07	1077.77
853.39	1077.89
853.70	1078.82
854.01	1077.54
854.33	1076.95
854.64	1078.52
854.96	1079.06
855.27	1078.33
855.59	1077.18
855.90	1075.85
856.22	1073.21
856.53	1072.95
856.84	1075.76
857.16	1074.94
857.47	1074.63
857.79	1073.16
858.10	1071.66
858.41	1069.74
858.73	1069.02
859.04	1070.26
859.36	1073.14
859.67	1075.41
859.98	1076.90
860.30	1074.66
860.61	1075.03
860.92	1073.51
861.24	1070.77
861.55	1069.72
861.87	1074.35
862.18	1072.67
862.49	1073.39
862.81	1074.70
863.12	1073.79
863.43	1071.99
863.74	1074.14
864.06	1075.57
864.37	1074.47
864.68	1073.95
865.00	1073.95
865.31	1073.02
865.62	1072.41
865.94	1073.77
866.25	1074.87
866.56	1075.15
866.87	1073.95
867.19	1071.87
867.50	1070.33
867.81	1071.01
868.12	1066.42
868.44	1069.81
868.75	1069.25
869.06	1070.54
869.37	1070.00
869.68	1073.28
870.00	1071.24
870.31	1072.08
870.62	1071.90
870.93	1070.56
871.24	1068.67
871.56	1067.89
871.87	1069.30
872.18	1070.96
872.49	1074.66
872.80	1076.90
873.12	1077.72
873.43	1077.00
873.74	1078.43
874.05	1074.80
874.36	1078.28
874.67	1077.93
874.98	1080.13
875.29	1077.70
875.61	1080.60
875.92	1076.37
876.23	1076.18
876.54	1076.01
876.85	1075.48
877.16	1075.62
877.47	1075.76
877.78	1076.20
878.09	1077.65
878.40	1076.53
878.72	1073.88
879.03	1076.37
879.34	1078.05
879.65	1077.49
879.96	1075.52
880.27	1075.97
880.58	1074.35
880.89	1074.14
881.20	1071.64
881.51	1076.53
881.82	1074.66
882.13	1074.21
882.44	1073.65
882.75	1073.30
883.06	1073.72
883.37	1070.75
883.68	1068.52
883.99	1065.88
884.30	1065.79
884.61	1064.80
884.92	1072.81
885.23	1074.82
885.54	1075.85
885.85	1075.27
886.16	1077.47
886.47	1074.28
886.78	1075.94
887.08	1076.86
887.39	1078.43
887.70	1076.30
888.01	1076.58
888.32	1077.51
888.63	1078.45
888.94	1077.21
889.25	1074.56
889.56	1076.46
889.87	1071.78
890.17	1069.84
890.48	1069.67
890.79	1071.47
891.10	1068.90
891.41	1070.87
891.72	1073.44
892.03	1073.81
892.34	1075.31
892.64	1078.66
892.95	1080.53
893.26	1080.30
893.57	1078.43
893.88	1078.87
894.18	1079.13
894.49	1076.37
894.80	1070.98
895.11	1074.61
895.42	1071.99
895.72	1070.23
896.03	1071.38
896.34	1075.92
896.65	1075.92
896.96	1076.34
897.26	1077.51
897.57	1079.81
897.88	1080.06
898.19	1078.45
898.49	1077.93
898.80	1076.30
899.11	1074.42
899.41	1073.42
899.72	1073.32
900.03	1077.42
900.34	1079.27
900.64	1078.82
900.95	1078.80
901.26	1079.83
901.56	1076.62
901.87	1074.73
902.18	1077.25
902.48	1077.82
902.79	1076.95
903.10	1076.11
903.40	1072.50
903.71	1072.11
904.02	1071.24
904.32	1071.43
904.63	1070.65
904.94	1077.47
905.24	1075.50
905.55	1075.97
905.85	1077.70
906.16	1080.56
906.47	1077.72
906.77	1078.17
907.08	1076.67
907.38	1076.15
907.69	1071.73
908.00	1071.52
908.30	1070.42
908.61	1071.85
908.91	1071.73
909.22	1075.71
909.52	1073.84
909.83	1075.71
910.14	1074.54
910.44	1074.24
910.75	1073.42
911.05	1074.82
911.36	1072.01
911.66	1070.68
911.97	1069.77
912.27	1072.32
912.58	1073.14
912.88	1075.05
913.19	1076.08
913.49	1075.57
913.80	1077.25
914.10	1073.60
914.41	1070.96
914.71	1075.59
915.01	1076.20
915.32	1072.74
915.62	1077.09
915.93	1079.97
916.23	1075.71
916.54	1077.14
916.84	1076.55
917.15	1075.97
917.45	1074.10
917.75	1076.76
918.06	1077.42
918.36	1077.09
918.67	1075.41
918.97	1076.51
919.27	1078.66
919.58	1075.59
919.88	1078.40
920.18	1077.09
920.49	1077.25
920.79	1076.48
921.10	1077.44
921.40	1074.70
921.70	1076.44
922.01	1076.20
922.31	1072.69
922.61	1072.18
922.92	1069.51
923.22	1072.08
923.52	1073.28
923.82	1074.80
924.13	1076.88
924.43	1078.87
924.73	1075.92
925.04	1075.78
925.34	1075.48
925.64	1073.58
925.94	1073.28
926.25	1074.00
926.55	1074.31
926.85	1074.70
927.15	1074.91
927.46	1077.54
927.76	1076.60
928.06	1075.59
928.36	1077.30
928.67	1078.78
928.97	1077.86
929.27	1075.38
929.57	1074.14
929.87	1071.19
930.18	1071.61
930.48	1071.33
930.78	1074.21
931.08	1076.51
931.38	1076.15
931.69	1072.97
931.99	1069.72
932.29	1069.95
932.59	1068.83
932.89	1070.89
933.19	1073.04
933.49	1076.86
933.80	1078.05
934.10	1076.41
934.40	1074.75
934.70	1076.72
935.00	1074.05
935.30	1075.83
935.60	1076.20
935.90	1076.65
936.20	1073.77
936.50	1077.37
936.81	1073.18
937.11	1075.10
937.41	1077.56
937.71	1080.91
938.01	1080.39
938.31	1079.50
938.61	1077.79
938.91	1075.99
939.21	1073.84
939.51	1072.78
939.81	1072.18
940.11	1074.80
940.41	1072.83
940.71	1068.36
941.01	1066.84
941.31	1068.92
941.61	1067.49
941.91	1065.67
942.21	1069.06
942.51	1071.68
942.81	1071.59
943.11	1071.61
943.41	1072.25
943.71	1069.30
944.01	1069.18
944.31	1069.65
944.61	1070.26
944.90	1075.24
945.20	1077.58
945.50	1074.73
945.80	1071.33
946.10	1069.93
946.40	1065.53
946.70	1066.14
947.00	1068.55
947.30	1072.97
947.60	1070.94
947.89	1071.54
948.19	1073.74
948.49	1072.25
948.79	1068.95
949.09	1072.36
949.39	1074.26
949.69	1070.58
949.98	1072.29
950.28	1078.12
950.58	1080.77
950.88	1076.15
951.18	1077.70
951.48	1078.82
951.77	1075.71
952.07	1074.49
952.37	1077.58
952.67	1078.80
952.97	1074.49
953.26	1073.37
953.56	1072.60
953.86	1073.49
954.16	1075.31
954.45	1077.82
954.75	1077.70
955.05	1075.97
955.35	1076.72
955.64	1074.77
955.94	1074.35
956.24	1072.81
956.54	1071.66
956.83	1074.12
957.13	1071.59
957.43	1070.56
957.72	1076.18
958.02	1080.18
958.32	1079.74
958.61	1083.13
958.91	1082.83
959.21	1080.32
959.50	1077.18
959.80	1075.34
960.10	1074.54
960.39	1076.06
960.69	1074.28
960.99	1078.92
961.28	1076.27
961.58	1074.17
961.87	1074.03
962.17	1077.04
962.47	1072.92
962.76	1075.34
963.06	1075.13
963.36	1075.01
963.65	1073.49
963.95	1073.21
964.24	1072.11
964.54	1071.90
964.83	1072.95
965.13	1070.00
965.42	1067.45
965.72	1067.19
966.02	1067.03
966.31	1065.81
966.61	1069.20
966.90	1072.48
967.20	1071.80
967.49	1074.52
967.79	1077.14
968.08	1076.58
968.38	1078.59
968.67	1080.53
968.97	1081.75
969.26	1080.06
969.56	1076.18
969.85	1074.52
970.15	1074.98
970.44	1073.67
970.74	1072.81
971.03	1077.28
971.32	1077.09
971.62	1072.90
971.91	1072.83
972.21	1072.32
972.50	1073.14
972.80	1073.98
973.09	1074.59
973.38	1072.32
973.68	1074.19
973.97	1071.99
974.27	1073.42
974.56	1074.56
974.85	1078.24
975.15	1077.37
975.44	1076.90
975.73	1075.83
976.03	1077.72
976.32	1077.61
976.61	1075.24
976.91	1074.63
977.20	1074.40
977.49	1072.43
977.79	1071.40
978.08	1073.30
978.37	1076.32
978.67	1076.97
978.96	1078.38
979.25	1078.54
979.55	1077.44
979.84	1076.95
980.13	1072.48
980.42	1069.88
980.72	1067.49
981.01	1069.93
981.30	1067.89
981.59	1071.94
981.89	1074.21
982.18	1073.51
982.47	1071.24
982.76	1073.58
983.06	1073.25
983.35	1075.17
983.64	1078.28
983.93	1079.57
984.22	1079.31
984.52	1079.67
984.81	1078.17
985.10	1078.03
985.39	1078.12
985.68	1078.85
985.97	1076.53
986.27	1072.57
986.56	1071.68
986.85	1070.75
987.14	1068.15
987.43	1071.64
987.72	1075.90
988.01	1077.58
988.31	1078.10
988.60	1079.71
988.89	1077.58
989.18	1077.58
989.47	1074.33
989.76	1073.77
990.05	1072.36
990.34	1073.00
990.63	1070.07
990.92	1073.74
991.21	1073.72
991.51	1077.72
991.80	1076.27
992.09	1077.98
992.38	1075.10
992.67	1075.03
992.96	1071.29
993.25	1070.49
993.54	1071.87
993.83	1072.81
994.12	1072.46
994.41	1073.39
994.70	1073.93
994.99	1073.86
995.28	1073.70
995.57	1076.30
995.86	1073.02
996.15	1072.22
996.44	1069.41
996.73	1068.38
997.02	1067.19
997.31	1072.11
997.59	1073.11
997.88	1075.52
998.17	1076.25
998.46	1076.88
998.75	1073.91
999.04	1074.56
999.33	1075.71
999.62	1073.81
999.91	1074.96
1000.20	1078.38
1000.49	1073.30
1000.77	1073.74
1001.06	1077.75
1001.35	1073.07
1001.64	1070.94
1001.93	1077.07
1002.22	1077.93
1002.51	1073.07
1002.79	1077.28
1003.08	1077.93
1003.37	1078.61
1003.66	1076.88
1003.95	1079.74
1004.23	1078.96
1004.52	1077.77
1004.81	1074.91
1005.10	1071.31
1005.39	1073.04
1005.67	1072.76
1005.96	1075.85
1006.25	1075.57
1006.54	1078.14
1006.83	1076.39
1007.11	1076.06
1007.40	1074.03
1007.69	1077.42
1007.97	1075.73
1008.26	1075.55
1008.55	1076.60
1008.84	1076.51
1009.12	1073.02
1009.41	1075.03
1009.70	1075.17
1009.98	1070.94
1010.27	1071.75
1010.56	1073.56
1010.85	1072.97
1011.13	1070.98
1011.42	1074.61
1011.71	1074.10
1011.99	1074.91
1012.28	1077.75
1012.56	1079.92
1012.85	1079.03
1013.14	1078.47
1013.42	1077.25
1013.71	1074.31
1014.00	1072.43
1014.28	1071.52
1014.57	1069.06
1014.85	1069.37
1015.14	1070.58
1015.43	1074.31
1015.71	1076.08
1016.00	1079.20
1016.28	1080.37
1016.57	1081.42
1016.85	1080.25
1017.14	1081.23
1017.43	1082.87
1017.71	1080.63
1018.00	1077.37
1018.28	1074.38
1018.57	1073.30
1018.85	1066.02
1019.14	1066.56
1019.42	1068.38
1019.71	1071.54
1019.99	1073.53
1020.28	1077.58
1020.56	1077.82
1020.85	1075.50
1021.13	1074.70
1021.42	1072.57
1021.70	1075.01
1021.99	1075.01
1022.27	1078.05
1022.55	1074.66
1022.84	1080.86
>>>>>End Processed Spectral Data<<<<<
