SpectraSuite Data File
++++++++++++++++++++++++++++++++++++
Date: Mon Aug 26 10:22:30 PDT 2019
User: corrico
Dark Spectrum Present: No
Reference Spectrum Present: No
Number of Sampled Component Spectra: 1
Spectrometers: USB2+H06089
Integration Time (usec): 2000 (USB2+H06089)
Spectra Averaged: 20 (USB2+H06089)
Boxcar Smoothing: 2 (USB2+H06089)
Correct for Electrical Dark: No (USB2+H06089)
Strobe/Lamp Enabled: No (USB2+H06089)
Correct for Detector Non-linearity: No (USB2+H06089)
Correct for Stray Light: No (USB2+H06089)
Number of Pixels in Processed Spectrum: 2048
>>>>>Begin Processed Spectral Data<<<<<
339.70	1027.38
340.07	1027.38
340.45	993.39
340.82	971.53
341.19	947.61
341.57	920.79
341.94	909.30
342.31	903.33
342.69	899.44
343.06	898.84
343.43	901.55
343.81	902.39
344.18	901.53
344.55	903.82
344.93	906.42
345.30	911.62
345.67	925.75
346.04	936.45
346.42	945.08
346.79	954.99
347.16	961.94
347.54	964.84
347.91	970.18
348.28	979.02
348.65	987.50
349.03	998.47
349.40	1007.44
349.77	1017.03
350.14	1025.72
350.52	1034.84
350.89	1041.00
351.26	1045.47
351.63	1051.91
352.01	1054.04
352.38	1059.09
352.75	1063.33
353.12	1068.62
353.50	1070.72
353.87	1074.66
354.24	1074.40
354.61	1075.83
354.98	1075.52
355.36	1077.82
355.73	1081.42
356.10	1080.32
356.47	1081.70
356.84	1084.74
357.22	1085.61
357.59	1085.14
357.96	1086.17
358.33	1083.95
358.70	1081.94
359.08	1080.02
359.45	1082.03
359.82	1083.71
360.19	1085.45
360.56	1084.23
360.94	1084.02
361.31	1079.71
361.68	1078.38
362.05	1078.75
362.42	1079.55
362.79	1078.57
363.16	1076.95
363.54	1077.37
363.91	1071.85
364.28	1072.50
364.65	1074.89
365.02	1078.92
365.39	1077.58
365.76	1080.39
366.14	1080.44
366.51	1081.42
366.88	1080.74
367.25	1082.64
367.62	1082.43
367.99	1083.55
368.36	1082.36
368.73	1077.75
369.10	1072.64
369.48	1073.32
369.85	1073.09
370.22	1068.20
370.59	1071.80
370.96	1075.08
371.33	1073.37
371.70	1072.29
372.07	1073.16
372.44	1075.38
372.81	1075.13
373.18	1078.68
373.55	1078.78
373.93	1082.08
374.30	1079.10
374.67	1082.01
375.04	1083.32
375.41	1080.27
375.78	1078.47
376.15	1079.60
376.52	1075.45
376.89	1073.46
377.26	1073.86
377.63	1075.29
378.00	1076.11
378.37	1077.58
378.74	1075.55
379.11	1075.36
379.48	1074.84
379.85	1074.70
380.22	1075.38
380.59	1078.21
380.96	1080.32
381.33	1080.13
381.70	1079.71
382.07	1080.02
382.44	1078.57
382.81	1081.28
383.18	1081.75
383.55	1083.48
383.92	1085.49
384.29	1086.83
384.66	1087.62
385.03	1089.26
385.40	1088.35
385.77	1085.35
386.14	1087.51
386.51	1088.09
386.88	1086.43
387.25	1084.53
387.62	1085.91
387.99	1082.66
388.36	1078.78
388.73	1081.63
389.10	1083.15
389.46	1081.91
389.83	1083.06
390.20	1083.83
390.57	1080.56
390.94	1080.27
391.31	1082.29
391.68	1081.73
392.05	1083.20
392.42	1085.56
392.79	1085.49
393.16	1085.61
393.53	1086.66
393.89	1087.69
394.26	1087.04
394.63	1088.47
395.00	1088.37
395.37	1089.96
395.74	1087.83
396.11	1087.16
396.48	1088.21
396.84	1086.87
397.21	1085.31
397.58	1085.38
397.95	1085.03
398.32	1082.97
398.69	1083.48
399.06	1083.39
399.42	1083.62
399.79	1084.67
400.16	1086.22
400.53	1086.29
400.90	1087.23
401.27	1089.26
401.64	1091.60
402.00	1093.47
402.37	1093.66
402.74	1094.46
403.11	1095.82
403.48	1094.06
403.84	1090.41
404.21	1093.55
404.58	1092.61
404.95	1089.80
405.32	1089.73
405.68	1093.17
406.05	1092.70
406.42	1094.43
406.79	1096.24
407.16	1099.61
407.52	1098.93
407.89	1097.59
408.26	1094.34
408.63	1093.47
408.99	1090.46
409.36	1088.35
409.73	1087.90
410.10	1091.42
410.47	1091.63
410.83	1094.62
411.20	1095.79
411.57	1097.76
411.94	1095.51
412.30	1097.08
412.67	1094.97
413.04	1094.86
413.40	1094.74
413.77	1095.32
414.14	1093.24
414.51	1099.96
414.87	1102.74
415.24	1103.26
415.61	1103.12
415.97	1105.90
416.34	1099.84
416.71	1099.86
417.08	1102.09
417.44	1103.31
417.81	1104.59
418.18	1107.52
418.54	1109.04
418.91	1109.23
419.28	1111.85
419.64	1111.38
420.01	1112.57
420.38	1114.75
420.74	1117.09
421.11	1118.82
421.48	1121.98
421.84	1124.65
422.21	1124.65
422.58	1126.71
422.94	1129.29
423.31	1132.47
423.68	1133.17
424.04	1134.46
424.41	1135.77
424.77	1136.73
425.14	1138.13
425.51	1144.80
425.87	1150.77
426.24	1154.84
426.61	1161.44
426.97	1168.35
427.34	1171.56
427.70	1179.51
428.07	1186.65
428.44	1193.23
428.80	1198.78
429.17	1206.38
429.53	1212.16
429.90	1223.19
430.27	1235.22
430.63	1247.65
431.00	1261.13
431.36	1272.43
431.73	1282.89
432.09	1291.44
432.46	1302.95
432.83	1316.25
433.19	1334.06
433.56	1349.44
433.92	1370.22
434.29	1395.17
434.65	1421.34
435.02	1446.52
435.38	1477.95
435.75	1507.23
436.11	1535.02
436.48	1563.27
436.84	1596.95
437.21	1631.87
437.57	1670.11
437.94	1712.57
438.30	1759.71
438.67	1803.59
439.03	1850.08
439.40	1907.23
439.76	1963.03
440.13	2024.45
440.49	2094.17
440.86	2165.16
441.22	2236.34
441.59	2311.00
441.95	2388.10
442.32	2468.35
442.68	2562.40
443.05	2658.87
443.41	2753.31
443.78	2854.54
444.14	2965.53
444.51	3073.99
444.87	3210.37
445.24	3356.73
445.60	3512.21
445.96	3666.57
446.33	3841.73
446.69	4002.92
447.06	4184.13
447.42	4370.25
447.79	4560.96
448.15	4785.41
448.51	5014.71
448.88	5280.34
449.24	5524.83
449.61	5811.11
449.97	6084.13
450.33	6376.27
450.70	6629.99
451.06	6963.16
451.43	7266.57
451.79	7628.16
452.15	8032.46
452.52	8491.00
452.88	8961.35
453.24	9506.20
453.61	10094.61
453.97	10666.94
454.34	11216.39
454.70	11854.79
455.06	12504.85
455.43	13136.44
455.79	13726.63
456.15	14457.98
456.52	15127.47
456.88	15910.70
457.24	16648.75
457.61	17516.36
457.97	18283.49
458.33	19080.12
458.70	19841.94
459.06	20596.20
459.42	21434.13
459.79	22230.97
460.15	23131.33
460.51	24003.01
460.88	24943.70
461.24	25740.09
461.60	26718.50
461.96	27584.97
462.33	28434.96
462.69	29222.59
463.05	30066.29
463.42	30741.35
463.78	31421.06
464.14	31963.32
464.50	32572.35
464.87	33065.26
465.23	33434.65
465.59	33772.76
465.95	34080.66
466.32	34328.78
466.68	34557.82
467.04	34708.60
467.40	34833.40
467.77	34993.96
468.13	34982.19
468.49	34875.81
468.85	34777.48
469.22	34599.53
469.58	34240.68
469.94	33972.81
470.30	33660.18
470.66	33239.54
471.03	32649.54
471.39	32235.73
471.75	31570.29
472.11	30934.37
472.47	30565.10
472.84	30222.87
473.20	29728.45
473.56	29488.20
473.92	29082.58
474.28	28576.72
474.65	28103.00
475.01	27643.53
475.37	27056.48
475.73	26607.09
476.09	26070.97
476.45	25543.13
476.81	25014.83
477.18	24482.42
477.54	24032.15
477.90	23689.01
478.26	23287.68
478.62	22956.75
478.98	22682.53
479.34	22345.56
479.71	21917.90
480.07	21549.13
480.43	21180.42
480.79	20767.04
481.15	20408.51
481.51	20106.33
481.87	19879.18
482.23	19602.43
482.59	19353.14
482.96	19079.88
483.32	18775.78
483.68	18383.74
484.04	18028.87
484.40	17654.40
484.76	17282.26
485.12	16924.23
485.48	16601.21
485.84	16248.65
486.20	15906.00
486.56	15540.85
486.92	15220.04
487.28	14859.69
487.64	14508.72
488.00	14173.39
488.37	13845.20
488.73	13473.43
489.09	13121.02
489.45	12800.93
489.81	12478.03
490.17	12165.52
490.53	11879.62
490.89	11583.26
491.25	11267.99
491.61	10957.57
491.97	10657.79
492.33	10339.62
492.69	10029.31
493.05	9735.41
493.41	9451.25
493.77	9166.57
494.13	8913.39
494.49	8674.24
494.85	8443.39
495.21	8213.92
495.57	7998.52
495.93	7774.72
496.29	7569.04
496.64	7376.43
497.00	7184.23
497.36	6998.13
497.72	6826.43
498.08	6649.13
498.44	6466.43
498.80	6299.08
499.16	6133.61
499.52	5969.16
499.88	5835.73
500.24	5714.49
500.60	5592.24
500.96	5472.80
501.32	5357.28
501.68	5236.48
502.03	5098.51
502.39	4972.59
502.75	4834.82
503.11	4707.50
503.47	4581.27
503.83	4468.41
504.19	4343.10
504.55	4239.39
504.91	4140.83
505.26	4042.18
505.62	3957.49
505.98	3875.83
506.34	3786.85
506.70	3702.21
507.06	3616.24
507.42	3524.87
507.78	3443.49
508.13	3369.93
508.49	3291.50
508.85	3221.35
509.21	3155.63
509.57	3090.47
509.93	3017.89
510.28	2952.75
510.64	2889.72
511.00	2825.71
511.36	2764.15
511.72	2714.16
512.07	2666.67
512.43	2618.97
512.79	2569.72
513.15	2521.88
513.51	2470.67
513.86	2420.49
514.22	2377.40
514.58	2340.82
514.94	2303.77
515.30	2267.18
515.65	2231.51
516.01	2199.47
516.37	2164.86
516.73	2134.59
517.08	2107.02
517.44	2078.72
517.80	2044.67
518.16	2015.81
518.51	1989.13
518.87	1962.73
519.23	1934.85
519.59	1909.85
519.94	1883.50
520.30	1858.71
520.66	1833.32
521.01	1813.87
521.37	1794.63
521.73	1775.90
522.09	1754.11
522.44	1735.72
522.80	1713.48
523.16	1694.43
523.51	1674.54
523.87	1657.36
524.23	1642.05
524.58	1623.47
524.94	1611.01
525.30	1589.97
525.65	1573.82
526.01	1556.46
526.37	1542.30
526.72	1520.90
527.08	1508.80
527.44	1493.38
527.79	1479.92
528.15	1469.81
528.51	1454.34
528.86	1442.85
529.22	1429.65
529.58	1422.20
529.93	1410.31
530.29	1401.68
530.65	1390.72
531.00	1383.09
531.36	1371.67
531.71	1362.52
532.07	1356.64
532.43	1347.52
532.78	1338.60
533.14	1329.49
533.49	1322.08
533.85	1315.64
534.21	1312.29
534.56	1309.06
534.92	1303.33
535.27	1296.61
535.63	1291.46
535.98	1284.49
536.34	1275.64
536.69	1270.04
537.05	1265.29
537.41	1260.24
537.76	1253.99
538.12	1250.50
538.47	1244.04
538.83	1238.73
539.18	1233.23
539.54	1230.26
539.89	1223.30
540.25	1221.60
540.60	1216.05
540.96	1212.49
541.31	1213.36
541.67	1210.03
542.02	1205.59
542.38	1203.39
542.73	1200.32
543.09	1191.66
543.44	1189.86
543.80	1186.79
544.15	1188.38
544.51	1185.69
544.86	1185.67
545.22	1182.67
545.57	1183.42
545.93	1178.32
546.28	1175.30
546.64	1173.94
546.99	1174.20
547.35	1168.00
547.70	1161.82
548.05	1159.20
548.41	1153.06
548.76	1151.01
549.12	1149.25
549.47	1150.00
549.83	1147.45
550.18	1147.80
550.53	1144.22
550.89	1141.62
551.24	1138.37
551.60	1137.15
551.95	1136.28
552.30	1136.61
552.66	1134.86
553.01	1135.25
553.37	1133.69
553.72	1131.39
554.07	1129.61
554.43	1129.10
554.78	1127.08
555.13	1126.43
555.49	1125.70
555.84	1127.69
556.19	1128.26
556.55	1127.62
556.90	1127.23
557.26	1126.66
557.61	1122.40
557.96	1118.85
558.32	1119.60
558.67	1119.83
559.02	1115.38
559.37	1113.18
559.73	1115.15
560.08	1112.39
560.43	1110.28
560.79	1107.61
561.14	1107.73
561.49	1108.24
561.85	1109.30
562.20	1108.95
562.55	1113.14
562.90	1111.75
563.26	1107.80
563.61	1105.58
563.96	1106.18
564.32	1105.36
564.67	1108.88
565.02	1109.72
565.37	1107.24
565.73	1103.23
566.08	1099.09
566.43	1094.06
566.78	1097.50
567.14	1101.64
567.49	1105.29
567.84	1109.27
568.19	1110.40
568.54	1105.34
568.90	1103.28
569.25	1100.26
569.60	1101.11
569.95	1099.26
570.31	1097.20
570.66	1096.49
571.01	1099.09
571.36	1096.49
571.71	1098.16
572.06	1100.22
572.42	1101.69
572.77	1100.29
573.12	1100.26
573.47	1098.86
573.82	1099.89
574.18	1102.53
574.53	1105.25
574.88	1103.45
575.23	1104.17
575.58	1102.30
575.93	1097.71
576.28	1092.82
576.64	1094.08
576.99	1091.09
577.34	1092.77
577.69	1094.88
578.04	1094.93
578.39	1091.34
578.74	1092.98
579.09	1087.41
579.44	1085.26
579.80	1084.14
580.15	1085.42
580.50	1086.08
580.85	1090.69
581.20	1088.47
581.55	1090.81
581.90	1093.66
582.25	1090.69
582.60	1088.49
582.95	1090.32
583.30	1089.66
583.65	1086.94
584.00	1089.29
584.35	1089.89
584.71	1087.65
585.06	1087.34
585.41	1089.80
585.76	1089.29
586.11	1087.93
586.46	1091.86
586.81	1088.86
587.16	1085.82
587.51	1086.73
587.86	1090.01
588.21	1087.55
588.56	1092.87
588.91	1092.23
589.26	1091.51
589.61	1091.86
589.96	1094.93
590.31	1091.09
590.66	1092.70
591.01	1091.32
591.36	1089.57
591.71	1084.58
592.06	1084.65
592.41	1084.53
592.76	1086.29
593.10	1082.64
593.45	1083.50
593.80	1083.32
594.15	1084.46
594.50	1082.94
594.85	1086.31
595.20	1087.37
595.55	1088.65
595.90	1088.86
596.25	1088.35
596.60	1089.22
596.95	1089.73
597.30	1089.66
597.64	1097.27
597.99	1099.56
598.34	1095.14
598.69	1091.84
599.04	1092.35
599.39	1083.06
599.74	1081.94
600.09	1086.59
600.44	1088.89
600.78	1086.66
601.13	1087.65
601.48	1092.89
601.83	1090.81
602.18	1091.98
602.53	1091.42
602.88	1093.62
603.22	1086.66
603.57	1085.21
603.92	1083.11
604.27	1083.34
604.62	1078.85
604.97	1081.89
605.31	1078.64
605.66	1081.47
606.01	1084.77
606.36	1084.91
606.71	1083.83
607.05	1089.82
607.40	1090.24
607.75	1087.46
608.10	1088.00
608.44	1087.90
608.79	1083.22
609.14	1080.86
609.49	1080.98
609.84	1081.61
610.18	1081.02
610.53	1086.92
610.88	1084.98
611.23	1086.34
611.57	1087.18
611.92	1088.28
612.27	1087.83
612.62	1089.43
612.96	1090.71
613.31	1090.64
613.66	1090.48
614.00	1087.23
614.35	1088.26
614.70	1085.84
615.05	1086.41
615.39	1086.48
615.74	1087.04
616.09	1086.66
616.43	1085.96
616.78	1084.02
617.13	1085.12
617.47	1084.63
617.82	1082.83
618.17	1083.36
618.51	1083.53
618.86	1081.33
619.21	1084.11
619.55	1085.45
619.90	1080.60
620.25	1079.88
620.59	1081.12
620.94	1080.37
621.29	1080.65
621.63	1084.67
621.98	1082.87
622.32	1081.05
622.67	1077.49
623.02	1078.10
623.36	1079.17
623.71	1081.73
624.05	1082.92
624.40	1085.12
624.75	1084.00
625.09	1085.52
625.44	1085.61
625.78	1085.47
626.13	1083.60
626.48	1082.19
626.82	1077.47
627.17	1075.01
627.51	1075.17
627.86	1077.84
628.20	1077.91
628.55	1078.00
628.89	1079.01
629.24	1079.13
629.58	1079.64
629.93	1078.57
630.28	1083.01
630.62	1083.71
630.97	1078.92
631.31	1077.02
631.66	1078.80
632.00	1080.84
632.35	1080.93
632.69	1085.42
633.04	1085.84
633.38	1086.64
633.73	1084.00
634.07	1084.51
634.42	1084.02
634.76	1084.37
635.11	1083.01
635.45	1081.94
635.79	1084.46
636.14	1084.65
636.48	1083.90
636.83	1085.24
637.17	1085.24
637.52	1083.48
637.86	1081.91
638.21	1081.00
638.55	1082.47
638.89	1080.20
639.24	1080.86
639.58	1081.26
639.93	1085.33
640.27	1083.60
640.61	1086.50
640.96	1087.74
641.30	1087.81
641.65	1087.97
641.99	1087.32
642.33	1086.73
642.68	1084.72
643.02	1085.35
643.37	1082.54
643.71	1083.22
644.05	1084.25
644.40	1082.40
644.74	1080.86
645.08	1080.44
645.43	1082.66
645.77	1081.05
646.11	1080.46
646.46	1082.29
646.80	1081.75
647.14	1079.43
647.49	1079.67
647.83	1081.42
648.17	1082.54
648.52	1082.80
648.86	1083.69
649.20	1086.64
649.55	1087.04
649.89	1084.60
650.23	1087.13
650.57	1085.38
650.92	1081.33
651.26	1079.31
651.60	1080.70
651.95	1081.35
652.29	1081.82
652.63	1081.05
652.97	1082.45
653.32	1082.22
653.66	1075.92
654.00	1074.89
654.34	1078.07
654.69	1073.63
655.03	1071.66
655.37	1074.21
655.71	1075.87
656.05	1077.23
656.40	1082.64
656.74	1084.00
657.08	1083.29
657.42	1081.07
657.76	1077.49
658.11	1079.24
658.45	1077.98
658.79	1079.38
659.13	1082.57
659.47	1086.90
659.82	1086.90
660.16	1088.82
660.50	1090.17
660.84	1087.83
661.18	1083.83
661.52	1081.51
661.87	1082.38
662.21	1081.37
662.55	1084.25
662.89	1089.73
663.23	1089.96
663.57	1090.10
663.91	1088.12
664.25	1086.99
664.60	1083.08
664.94	1081.94
665.28	1078.92
665.62	1079.92
665.96	1078.78
666.30	1076.37
666.64	1076.48
666.98	1076.65
667.32	1077.58
667.66	1075.10
668.01	1077.42
668.35	1079.31
668.69	1081.02
669.03	1081.28
669.37	1084.46
669.71	1082.83
670.05	1081.94
670.39	1081.68
670.73	1080.84
671.07	1079.92
671.41	1078.33
671.75	1079.53
672.09	1077.51
672.43	1078.31
672.77	1079.08
673.11	1080.06
673.45	1078.50
673.79	1083.08
674.13	1080.58
674.47	1079.85
674.81	1083.27
675.15	1085.24
675.49	1083.88
675.83	1087.04
676.17	1087.27
676.51	1083.08
676.85	1080.25
677.19	1079.85
677.53	1081.23
677.87	1078.82
678.21	1080.25
678.55	1082.05
678.89	1080.51
679.23	1078.40
679.57	1083.36
679.90	1085.05
680.24	1083.97
680.58	1085.07
680.92	1083.79
681.26	1079.24
681.60	1073.39
681.94	1074.19
682.28	1071.19
682.62	1071.47
682.96	1073.37
683.29	1079.95
683.63	1078.80
683.97	1085.03
684.31	1083.39
684.65	1084.14
684.99	1082.59
685.33	1085.05
685.67	1079.08
686.00	1082.24
686.34	1081.56
686.68	1078.73
687.02	1077.00
687.36	1077.65
687.70	1078.26
688.03	1079.03
688.37	1078.24
688.71	1078.38
689.05	1078.66
689.39	1076.27
689.72	1073.65
690.06	1075.62
690.40	1075.83
690.74	1076.25
691.08	1074.33
691.41	1075.66
691.75	1076.08
692.09	1073.88
692.43	1076.11
692.76	1078.64
693.10	1081.47
693.44	1082.83
693.78	1082.85
694.11	1079.08
694.45	1079.78
694.79	1078.00
695.13	1072.22
695.46	1075.05
695.80	1076.01
696.14	1075.43
696.48	1075.55
696.81	1081.26
697.15	1077.91
697.49	1076.37
697.82	1074.42
698.16	1072.64
698.50	1070.61
698.83	1072.88
699.17	1074.84
699.51	1077.51
699.84	1079.22
700.18	1079.43
700.52	1079.64
700.85	1080.39
701.19	1078.68
701.53	1077.14
701.86	1077.96
702.20	1077.98
702.54	1078.68
702.87	1082.94
703.21	1086.50
703.55	1085.38
703.88	1082.92
704.22	1083.83
704.55	1080.20
704.89	1077.89
705.23	1079.60
705.56	1083.15
705.90	1084.11
706.23	1084.79
706.57	1085.19
706.91	1086.48
707.24	1083.01
707.58	1081.61
707.91	1079.06
708.25	1079.41
708.58	1079.53
708.92	1078.82
709.26	1079.13
709.59	1080.72
709.93	1081.63
710.26	1082.15
710.60	1084.51
710.93	1084.58
711.27	1085.26
711.60	1084.18
711.94	1080.84
712.27	1082.80
712.61	1079.90
712.94	1077.93
713.28	1078.07
713.61	1080.48
713.95	1077.30
714.28	1080.86
714.62	1082.50
714.95	1081.77
715.29	1080.34
715.62	1082.05
715.96	1078.80
716.29	1081.47
716.63	1083.20
716.96	1085.82
717.29	1088.79
717.63	1091.13
717.96	1092.02
718.30	1088.93
718.63	1086.62
718.97	1083.67
719.30	1081.09
719.63	1076.39
719.97	1078.10
720.30	1078.80
720.64	1079.36
720.97	1079.76
721.30	1081.61
721.64	1080.67
721.97	1081.94
722.31	1081.16
722.64	1080.46
722.97	1080.65
723.31	1079.76
723.64	1075.15
723.97	1074.63
724.31	1073.95
724.64	1075.57
724.98	1077.58
725.31	1080.93
725.64	1084.35
725.98	1090.43
726.31	1088.37
726.64	1089.66
726.97	1090.53
727.31	1086.06
727.64	1083.74
727.97	1085.10
728.31	1086.20
728.64	1084.28
728.97	1085.42
729.31	1085.96
729.64	1084.49
729.97	1079.10
730.30	1078.24
730.64	1078.40
730.97	1075.85
731.30	1074.03
731.63	1076.76
731.97	1079.29
732.30	1082.36
732.63	1084.65
732.96	1087.86
733.30	1085.75
733.63	1086.13
733.96	1086.08
734.29	1084.02
734.63	1082.43
734.96	1081.00
735.29	1078.73
735.62	1075.50
735.95	1077.09
736.29	1075.71
736.62	1080.30
736.95	1079.90
737.28	1078.52
737.61	1077.25
737.94	1082.01
738.28	1077.70
738.61	1080.46
738.94	1083.64
739.27	1086.13
739.60	1082.38
739.93	1084.44
740.27	1080.63
740.60	1077.28
740.93	1072.74
741.26	1073.98
741.59	1073.49
741.92	1077.49
742.25	1077.79
742.58	1079.83
742.91	1080.37
743.25	1081.33
743.58	1079.99
743.91	1083.34
744.24	1083.20
744.57	1083.04
744.90	1080.46
745.23	1078.26
745.56	1073.88
745.89	1073.51
746.22	1071.22
746.55	1073.16
746.88	1073.44
747.21	1077.30
747.54	1079.57
747.87	1081.63
748.20	1083.25
748.53	1086.71
748.87	1086.10
749.20	1085.61
749.53	1083.32
749.86	1084.53
750.19	1082.92
750.52	1083.20
750.85	1082.38
751.18	1082.94
751.51	1081.33
751.84	1081.54
752.16	1081.68
752.49	1082.29
752.82	1085.82
753.15	1087.58
753.48	1087.95
753.81	1087.46
754.14	1086.66
754.47	1083.22
754.80	1079.78
755.13	1077.84
755.46	1076.04
755.79	1072.57
756.12	1072.76
756.45	1071.92
756.78	1071.52
757.11	1071.17
757.43	1073.44
757.76	1072.57
758.09	1073.00
758.42	1074.42
758.75	1077.63
759.08	1078.96
759.41	1081.14
759.74	1084.67
760.07	1084.49
760.39	1082.78
760.72	1082.19
761.05	1082.61
761.38	1081.23
761.71	1082.08
762.04	1079.81
762.36	1077.30
762.69	1077.58
763.02	1075.59
763.35	1076.06
763.68	1077.09
764.01	1082.19
764.33	1081.19
764.66	1086.08
764.99	1084.91
765.32	1086.80
765.65	1083.97
765.97	1084.32
766.30	1080.84
766.63	1079.34
766.96	1078.14
767.28	1077.68
767.61	1077.16
767.94	1078.12
768.27	1081.82
768.59	1080.63
768.92	1081.02
769.25	1080.37
769.58	1078.66
769.90	1075.52
770.23	1076.72
770.56	1076.74
770.89	1077.75
771.21	1076.15
771.54	1078.40
771.87	1080.06
772.19	1081.94
772.52	1080.34
772.85	1084.39
773.17	1080.53
773.50	1078.92
773.83	1076.88
774.15	1078.57
774.48	1076.18
774.81	1076.30
775.13	1076.37
775.46	1076.69
775.79	1075.62
776.11	1077.30
776.44	1080.44
776.77	1079.92
777.09	1082.08
777.42	1083.08
777.74	1086.64
778.07	1086.83
778.40	1086.87
778.72	1084.93
779.05	1084.56
779.37	1080.56
779.70	1078.78
780.03	1082.38
780.35	1083.32
780.68	1084.25
781.00	1082.85
781.33	1083.20
781.65	1079.06
781.98	1077.14
782.31	1074.31
782.63	1075.43
782.96	1076.79
783.28	1080.06
783.61	1080.60
783.93	1082.33
784.26	1081.87
784.58	1081.00
784.91	1079.24
785.23	1080.72
785.56	1080.02
785.88	1080.58
786.21	1079.41
786.53	1079.57
786.86	1080.46
787.18	1078.00
787.51	1075.48
787.83	1079.55
788.16	1079.53
788.48	1077.58
788.81	1079.83
789.13	1079.13
789.46	1075.17
789.78	1076.48
790.10	1078.36
790.43	1077.82
790.75	1080.18
791.08	1079.13
791.40	1077.96
791.73	1076.32
792.05	1076.79
792.37	1075.48
792.70	1075.01
793.02	1075.57
793.35	1071.92
793.67	1072.41
793.99	1071.71
794.32	1073.00
794.64	1071.03
794.96	1073.00
795.29	1074.31
795.61	1076.04
795.93	1079.34
796.26	1079.08
796.58	1078.54
796.91	1077.35
797.23	1081.16
797.55	1077.37
797.87	1080.58
798.20	1083.90
798.52	1084.32
798.84	1079.13
799.17	1077.96
799.49	1076.41
799.81	1075.87
800.14	1078.40
800.46	1078.47
800.78	1080.93
801.10	1078.80
801.43	1076.76
801.75	1072.85
802.07	1074.87
802.40	1074.12
802.72	1075.64
803.04	1076.88
803.36	1076.65
803.69	1075.45
804.01	1076.18
804.33	1076.76
804.65	1075.80
804.97	1077.09
805.30	1080.60
805.62	1081.82
805.94	1082.59
806.26	1081.28
806.58	1082.03
806.91	1077.33
807.23	1074.21
807.55	1073.09
807.87	1074.35
808.19	1073.16
808.52	1074.00
808.84	1075.17
809.16	1077.61
809.48	1077.75
809.80	1075.01
810.12	1076.53
810.44	1076.44
810.77	1073.74
811.09	1074.28
811.41	1076.69
811.73	1077.40
812.05	1078.05
812.37	1076.25
812.69	1078.33
813.01	1080.51
813.33	1079.60
813.66	1079.76
813.98	1081.49
814.30	1079.53
814.62	1079.62
814.94	1079.15
815.26	1079.15
815.58	1078.78
815.90	1076.23
816.22	1076.97
816.54	1079.50
816.86	1078.36
817.18	1079.20
817.50	1083.22
817.82	1081.87
818.14	1079.55
818.46	1079.78
818.78	1077.56
819.10	1076.37
819.42	1075.69
819.74	1074.70
820.06	1076.06
820.38	1080.51
820.70	1081.14
821.02	1082.17
821.34	1085.89
821.66	1086.78
821.98	1084.11
822.30	1083.29
822.62	1081.80
822.94	1080.09
823.26	1078.92
823.58	1079.13
823.90	1081.30
824.22	1083.22
824.54	1087.67
824.86	1088.96
825.18	1089.50
825.50	1085.45
825.81	1084.49
826.13	1078.26
826.45	1076.25
826.77	1076.55
827.09	1078.07
827.41	1078.10
827.73	1078.47
828.05	1078.17
828.36	1077.61
828.68	1079.17
829.00	1077.42
829.32	1077.28
829.64	1079.48
829.96	1078.68
830.28	1074.87
830.59	1074.03
830.91	1075.90
831.23	1075.41
831.55	1075.22
831.87	1073.81
832.19	1075.78
832.50	1075.38
832.82	1076.55
833.14	1075.94
833.46	1080.39
833.78	1080.34
834.09	1079.29
834.41	1078.26
834.73	1079.03
835.05	1079.46
835.36	1081.89
835.68	1082.17
836.00	1082.76
836.32	1080.86
836.63	1082.69
836.95	1081.30
837.27	1082.19
837.59	1079.60
837.90	1081.68
838.22	1077.21
838.54	1075.36
838.85	1075.45
839.17	1076.74
839.49	1079.64
839.80	1081.23
840.12	1081.26
840.44	1078.38
840.76	1079.83
841.07	1077.25
841.39	1075.03
841.71	1073.21
842.02	1074.87
842.34	1073.88
842.65	1073.44
842.97	1076.95
843.29	1080.32
843.60	1077.63
843.92	1077.40
844.24	1079.48
844.55	1078.96
844.87	1079.71
845.18	1081.49
845.50	1080.51
845.82	1079.57
846.13	1080.63
846.45	1075.36
846.76	1075.66
847.08	1076.72
847.40	1076.79
847.71	1077.51
848.03	1083.34
848.34	1084.32
848.66	1086.64
848.97	1086.29
849.29	1083.93
849.60	1080.18
849.92	1080.32
850.24	1076.23
850.55	1073.49
850.87	1075.69
851.18	1076.48
851.50	1075.80
851.81	1075.83
852.13	1075.34
852.44	1073.23
852.76	1072.76
853.07	1072.76
853.39	1073.04
853.70	1072.95
854.01	1073.11
854.33	1074.94
854.64	1073.44
854.96	1073.56
855.27	1076.53
855.59	1074.31
855.90	1073.49
856.22	1076.08
856.53	1078.52
856.84	1078.54
857.16	1082.54
857.47	1082.17
857.79	1084.16
858.10	1080.23
858.41	1081.21
858.73	1076.51
859.04	1075.57
859.36	1071.90
859.67	1073.98
859.98	1075.27
860.30	1079.24
860.61	1080.91
860.92	1081.94
861.24	1080.98
861.55	1078.24
861.87	1076.34
862.18	1078.71
862.49	1077.21
862.81	1077.00
863.12	1079.20
863.43	1078.59
863.74	1073.95
864.06	1076.15
864.37	1078.33
864.68	1078.21
865.00	1078.61
865.31	1079.67
865.62	1079.43
865.94	1077.61
866.25	1075.62
866.56	1076.93
866.87	1080.27
867.19	1079.71
867.50	1079.10
867.81	1079.22
868.12	1078.54
868.44	1076.46
868.75	1077.09
869.06	1078.12
869.37	1080.41
869.68	1080.91
870.00	1081.47
870.31	1081.70
870.62	1081.54
870.93	1081.80
871.24	1080.06
871.56	1074.77
871.87	1075.36
872.18	1077.40
872.49	1075.03
872.80	1077.63
873.12	1083.46
873.43	1081.42
873.74	1080.13
874.05	1076.65
874.36	1073.84
874.67	1072.57
874.98	1072.71
875.29	1072.64
875.61	1075.73
875.92	1076.20
876.23	1075.50
876.54	1080.34
876.85	1081.96
877.16	1081.40
877.47	1082.99
877.78	1080.34
878.09	1075.87
878.40	1073.23
878.72	1072.78
879.03	1070.23
879.34	1075.38
879.65	1079.36
879.96	1082.50
880.27	1082.92
880.58	1084.35
880.89	1081.40
881.20	1078.54
881.51	1075.76
881.82	1075.03
882.13	1072.29
882.44	1071.59
882.75	1073.46
883.06	1077.23
883.37	1076.83
883.68	1079.24
883.99	1082.50
884.30	1079.99
884.61	1077.14
884.92	1076.79
885.23	1078.26
885.54	1075.73
885.85	1073.95
886.16	1076.15
886.47	1078.78
886.78	1076.55
887.08	1077.58
887.39	1077.25
887.70	1073.09
888.01	1072.90
888.32	1075.27
888.63	1076.23
888.94	1079.41
889.25	1082.17
889.56	1082.90
889.87	1084.81
890.17	1085.14
890.48	1086.64
890.79	1085.84
891.10	1085.47
891.41	1082.05
891.72	1083.71
892.03	1079.69
892.34	1077.21
892.64	1076.20
892.95	1076.67
893.26	1073.74
893.57	1073.91
893.88	1074.26
894.18	1075.50
894.49	1076.67
894.80	1077.56
895.11	1080.20
895.42	1078.57
895.72	1078.47
896.03	1077.82
896.34	1073.91
896.65	1073.04
896.96	1075.50
897.26	1073.00
897.57	1072.34
897.88	1071.85
898.19	1071.31
898.49	1071.47
898.80	1075.15
899.11	1075.17
899.41	1075.24
899.72	1075.80
900.03	1074.40
900.34	1072.55
900.64	1073.77
900.95	1078.66
901.26	1079.03
901.56	1083.39
901.87	1085.59
902.18	1084.67
902.48	1081.21
902.79	1075.22
903.10	1071.82
903.40	1070.68
903.71	1070.16
904.02	1071.24
904.32	1076.62
904.63	1081.84
904.94	1079.69
905.24	1079.74
905.55	1080.16
905.85	1074.84
906.16	1071.73
906.47	1072.46
906.77	1074.89
907.08	1074.45
907.38	1078.50
907.69	1077.75
908.00	1078.94
908.30	1077.54
908.61	1077.16
908.91	1077.86
909.22	1078.59
909.52	1077.47
909.83	1075.27
910.14	1074.21
910.44	1072.15
910.75	1070.91
911.05	1071.80
911.36	1074.77
911.66	1073.07
911.97	1075.94
912.27	1075.20
912.58	1076.93
912.88	1076.62
913.19	1080.30
913.49	1079.41
913.80	1079.55
914.10	1076.48
914.41	1075.80
914.71	1075.24
915.01	1076.39
915.32	1079.10
915.62	1079.34
915.93	1076.88
916.23	1076.60
916.54	1074.98
916.84	1074.00
917.15	1075.01
917.45	1077.58
917.75	1077.70
918.06	1076.83
918.36	1077.51
918.67	1073.74
918.97	1073.37
919.27	1075.85
919.58	1078.33
919.88	1077.72
920.18	1078.26
920.49	1077.77
920.79	1074.68
921.10	1074.05
921.40	1072.71
921.70	1073.39
922.01	1076.62
922.31	1078.10
922.61	1077.37
922.92	1074.33
923.22	1075.36
923.52	1072.34
923.82	1071.47
924.13	1071.99
924.43	1074.00
924.73	1075.62
925.04	1077.54
925.34	1077.82
925.64	1077.09
925.94	1077.54
926.25	1078.68
926.55	1076.30
926.85	1074.96
927.15	1075.15
927.46	1076.86
927.76	1074.12
928.06	1077.09
928.36	1078.43
928.67	1080.86
928.97	1079.29
929.27	1079.29
929.57	1077.93
929.87	1079.57
930.18	1079.57
930.48	1084.39
930.78	1087.37
931.08	1085.91
931.38	1084.53
931.69	1082.08
931.99	1077.61
932.29	1076.41
932.59	1075.66
932.89	1074.19
933.19	1072.01
933.49	1075.08
933.80	1076.76
934.10	1077.89
934.40	1083.86
934.70	1087.60
935.00	1084.21
935.30	1080.25
935.60	1080.20
935.90	1076.25
936.20	1072.69
936.50	1074.87
936.81	1074.45
937.11	1073.04
937.41	1077.25
937.71	1077.82
938.01	1075.27
938.31	1074.19
938.61	1075.13
938.91	1070.61
939.21	1070.14
939.51	1071.29
939.81	1070.00
940.11	1069.60
940.41	1070.84
940.71	1070.80
941.01	1072.18
941.31	1074.61
941.61	1076.46
941.91	1077.47
942.21	1079.74
942.51	1078.26
942.81	1081.63
943.11	1080.06
943.41	1079.08
943.71	1079.03
944.01	1081.82
944.31	1080.20
944.61	1080.37
944.90	1079.95
945.20	1079.99
945.50	1074.68
945.80	1075.87
946.10	1075.03
946.40	1074.98
946.70	1073.77
947.00	1075.50
947.30	1073.84
947.60	1076.04
947.89	1076.32
948.19	1080.37
948.49	1082.50
948.79	1081.77
949.09	1082.94
949.39	1082.17
949.69	1076.34
949.98	1074.75
950.28	1078.12
950.58	1078.64
950.88	1079.34
951.18	1082.26
951.48	1081.63
951.77	1079.95
952.07	1077.04
952.37	1075.73
952.67	1075.31
952.97	1076.88
953.26	1075.36
953.56	1080.70
953.86	1082.90
954.16	1082.71
954.45	1083.48
954.75	1086.94
955.05	1084.42
955.35	1083.76
955.64	1083.93
955.94	1080.72
956.24	1079.53
956.54	1078.40
956.83	1079.01
957.13	1078.33
957.43	1079.88
957.72	1076.76
958.02	1075.45
958.32	1073.30
958.61	1077.33
958.91	1080.39
959.21	1082.01
959.50	1079.38
959.80	1081.68
960.10	1079.50
960.39	1078.80
960.69	1082.15
960.99	1083.04
961.28	1079.90
961.58	1077.07
961.87	1073.98
962.17	1070.61
962.47	1073.81
962.76	1073.60
963.06	1074.28
963.36	1074.77
963.65	1074.24
963.95	1071.05
964.24	1071.31
964.54	1069.72
964.83	1070.58
965.13	1070.42
965.42	1072.81
965.72	1073.09
966.02	1079.71
966.31	1081.35
966.61	1083.69
966.90	1083.08
967.20	1081.21
967.49	1077.42
967.79	1075.38
968.08	1075.78
968.38	1077.14
968.67	1082.57
968.97	1082.10
969.26	1081.37
969.56	1078.85
969.85	1079.69
970.15	1077.09
970.44	1078.05
970.74	1083.34
971.03	1084.58
971.32	1080.58
971.62	1078.68
971.91	1075.97
972.21	1071.26
972.50	1072.18
972.80	1073.91
973.09	1077.16
973.38	1079.22
973.68	1081.14
973.97	1079.71
974.27	1081.40
974.56	1080.81
974.85	1082.12
975.15	1077.72
975.44	1078.99
975.73	1075.64
976.03	1075.80
976.32	1073.98
976.61	1076.72
976.91	1075.64
977.20	1078.17
977.49	1078.64
977.79	1081.54
978.08	1079.90
978.37	1081.73
978.67	1081.75
978.96	1081.44
979.25	1080.20
979.55	1082.87
979.84	1078.96
980.13	1079.69
980.42	1078.33
980.72	1078.85
981.01	1078.10
981.30	1078.61
981.59	1076.72
981.89	1077.28
982.18	1077.63
982.47	1075.87
982.76	1077.09
983.06	1077.35
983.35	1077.79
983.64	1075.57
983.93	1076.83
984.22	1077.23
984.52	1077.04
984.81	1074.40
985.10	1076.06
985.39	1076.74
985.68	1075.05
985.97	1076.08
986.27	1076.60
986.56	1075.03
986.85	1072.43
987.14	1073.09
987.43	1070.68
987.72	1070.89
988.01	1073.72
988.31	1077.47
988.60	1079.83
988.89	1083.08
989.18	1085.12
989.47	1084.42
989.76	1083.81
990.05	1084.53
990.34	1082.47
990.63	1080.65
990.92	1079.41
991.21	1078.66
991.51	1078.14
991.80	1077.23
992.09	1077.33
992.38	1076.18
992.67	1075.55
992.96	1074.75
993.25	1076.20
993.54	1077.68
993.83	1080.67
994.12	1079.48
994.41	1083.39
994.70	1084.60
994.99	1085.10
995.28	1082.69
995.57	1084.60
995.86	1081.94
996.15	1078.43
996.44	1075.69
996.73	1073.53
997.02	1073.56
997.31	1070.21
997.59	1072.27
997.88	1075.03
998.17	1077.11
998.46	1077.61
998.75	1079.71
999.04	1080.86
999.33	1078.40
999.62	1078.10
999.91	1075.78
1000.20	1075.64
1000.49	1076.04
1000.77	1076.18
1001.06	1077.23
1001.35	1077.58
1001.64	1075.71
1001.93	1073.21
1002.22	1074.26
1002.51	1073.25
1002.79	1076.65
1003.08	1078.82
1003.37	1078.10
1003.66	1080.74
1003.95	1083.93
1004.23	1080.27
1004.52	1081.77
1004.81	1085.56
1005.10	1084.02
1005.39	1082.85
1005.67	1085.77
1005.96	1084.79
1006.25	1081.89
1006.54	1082.24
1006.83	1082.10
1007.11	1082.97
1007.40	1080.46
1007.69	1083.64
1007.97	1083.83
1008.26	1083.83
1008.55	1081.51
1008.84	1081.75
1009.12	1082.03
1009.41	1083.62
1009.70	1081.51
1009.98	1080.86
1010.27	1083.39
1010.56	1080.18
1010.85	1079.22
1011.13	1078.33
1011.42	1078.66
1011.71	1077.37
1011.99	1079.69
1012.28	1079.41
1012.56	1079.95
1012.85	1081.56
1013.14	1082.57
1013.42	1082.90
1013.71	1081.05
1014.00	1081.87
1014.28	1081.96
1014.57	1081.63
1014.85	1081.28
1015.14	1081.96
1015.43	1082.45
1015.71	1080.67
1016.00	1082.80
1016.28	1081.94
1016.57	1081.16
1016.85	1079.10
1017.14	1076.88
1017.43	1072.76
1017.71	1074.17
1018.00	1074.87
1018.28	1079.31
1018.57	1082.01
1018.85	1083.90
1019.14	1080.91
1019.42	1080.02
1019.71	1077.33
1019.99	1077.16
1020.28	1076.83
1020.56	1078.50
1020.85	1077.23
1021.13	1075.69
1021.42	1075.83
1021.70	1075.01
1021.99	1075.22
1022.27	1074.84
1022.55	1081.56
1022.84	1067.87
>>>>>End Processed Spectral Data<<<<<
