SpectraSuite Data File
++++++++++++++++++++++++++++++++++++
Date: Mon Aug 26 10:21:58 PDT 2019
User: corrico
Dark Spectrum Present: No
Reference Spectrum Present: No
Number of Sampled Component Spectra: 1
Spectrometers: USB2+H06089
Integration Time (usec): 2000 (USB2+H06089)
Spectra Averaged: 20 (USB2+H06089)
Boxcar Smoothing: 2 (USB2+H06089)
Correct for Electrical Dark: No (USB2+H06089)
Strobe/Lamp Enabled: No (USB2+H06089)
Correct for Detector Non-linearity: No (USB2+H06089)
Correct for Stray Light: No (USB2+H06089)
Number of Pixels in Processed Spectrum: 2048
>>>>>Begin Processed Spectral Data<<<<<
339.70	1018.48
340.07	1018.48
340.45	984.36
340.82	962.50
341.19	940.31
341.57	919.99
341.94	910.61
342.31	903.73
342.69	899.70
343.06	896.68
343.43	890.92
343.81	894.20
344.18	898.02
344.55	903.59
344.93	911.36
345.30	916.09
345.67	921.98
346.04	927.60
346.42	933.66
346.79	937.71
347.16	949.39
347.54	960.04
347.91	968.05
348.28	977.67
348.65	988.24
349.03	1000.18
349.40	1006.92
349.77	1015.89
350.14	1024.12
350.52	1029.95
350.89	1035.24
351.26	1039.20
351.63	1044.86
352.01	1050.78
352.38	1059.89
352.75	1062.67
353.12	1070.82
353.50	1073.91
353.87	1074.61
354.24	1070.47
354.61	1071.61
354.98	1073.56
355.36	1075.41
355.73	1076.55
356.10	1080.56
356.47	1084.89
356.84	1081.40
357.22	1079.43
357.59	1079.50
357.96	1080.86
358.33	1077.04
358.70	1076.81
359.08	1075.76
359.45	1073.67
359.82	1075.08
360.19	1073.98
360.56	1074.77
360.94	1077.04
361.31	1080.30
361.68	1078.07
362.05	1078.12
362.42	1074.42
362.79	1074.33
363.16	1074.00
363.54	1072.74
363.91	1071.36
364.28	1072.25
364.65	1069.67
365.02	1066.02
365.39	1067.52
365.76	1070.96
366.14	1074.10
366.51	1070.68
366.88	1070.51
367.25	1068.92
367.62	1065.34
367.99	1062.86
368.36	1068.31
368.73	1069.65
369.10	1069.55
369.48	1070.28
369.85	1070.80
370.22	1070.61
370.59	1070.56
370.96	1071.68
371.33	1070.37
371.70	1068.92
372.07	1069.95
372.44	1071.33
372.81	1068.97
373.18	1070.07
373.55	1073.11
373.93	1071.33
374.30	1072.04
374.67	1073.46
375.04	1074.47
375.41	1072.18
375.78	1071.40
376.15	1070.40
376.52	1068.76
376.89	1070.58
377.26	1071.90
377.63	1073.67
378.00	1072.46
378.37	1072.29
378.74	1071.38
379.11	1073.58
379.48	1074.14
379.85	1074.38
380.22	1076.46
380.59	1077.54
380.96	1074.49
381.33	1071.08
381.70	1072.18
382.07	1072.50
382.44	1070.44
382.81	1072.83
383.18	1076.04
383.55	1075.97
383.92	1075.03
384.29	1074.00
384.66	1073.07
385.03	1073.56
385.40	1073.65
385.77	1072.34
386.14	1076.27
386.51	1075.55
386.88	1072.53
387.25	1071.36
387.62	1075.83
387.99	1071.94
388.36	1072.57
388.73	1076.23
389.10	1078.28
389.46	1076.44
389.83	1077.96
390.20	1081.56
390.57	1079.13
390.94	1080.11
391.31	1081.61
391.68	1081.23
392.05	1079.17
392.42	1078.71
392.79	1080.86
393.16	1079.76
393.53	1078.36
393.89	1078.38
394.26	1083.06
394.63	1080.67
395.00	1077.14
395.37	1079.43
395.74	1078.03
396.11	1076.67
396.48	1076.90
396.84	1079.95
397.21	1076.67
397.58	1076.13
397.95	1072.97
398.32	1073.02
398.69	1074.70
399.06	1079.71
399.42	1081.00
399.79	1083.43
400.16	1080.70
400.53	1080.34
400.90	1081.02
401.27	1081.12
401.64	1078.50
402.00	1079.92
402.37	1077.65
402.74	1073.56
403.11	1075.73
403.48	1076.95
403.84	1077.72
404.21	1079.67
404.58	1082.19
404.95	1082.54
405.32	1086.66
405.68	1085.96
406.05	1085.54
406.42	1086.31
406.79	1089.24
407.16	1085.77
407.52	1087.39
407.89	1086.83
408.26	1087.02
408.63	1083.53
408.99	1081.70
409.36	1080.41
409.73	1080.48
410.10	1078.50
410.47	1077.23
410.83	1079.43
411.20	1082.10
411.57	1083.08
411.94	1082.87
412.30	1084.07
412.67	1083.43
413.04	1079.53
413.40	1083.22
413.77	1085.91
414.14	1085.14
414.51	1083.53
414.87	1088.12
415.24	1085.82
415.61	1084.09
415.97	1085.38
416.34	1089.45
416.71	1087.88
417.08	1088.02
417.44	1089.66
417.81	1088.82
418.18	1091.04
418.54	1091.49
418.91	1093.24
419.28	1092.84
419.64	1095.75
420.01	1094.79
420.38	1093.03
420.74	1090.62
421.11	1092.68
421.48	1093.05
421.84	1092.84
422.21	1098.32
422.58	1100.61
422.94	1101.27
423.31	1101.01
423.68	1102.56
424.04	1103.14
424.41	1104.41
424.77	1109.44
425.14	1115.31
425.51	1119.08
425.87	1120.88
426.24	1119.41
426.61	1118.85
426.97	1121.33
427.34	1126.31
427.70	1131.11
428.07	1139.47
428.44	1145.29
428.80	1147.80
429.17	1148.24
429.53	1149.48
429.90	1155.97
430.27	1162.57
430.63	1168.33
431.00	1176.89
431.36	1187.49
431.73	1190.96
432.09	1199.64
432.46	1206.10
432.83	1215.07
433.19	1224.45
433.56	1238.73
433.92	1248.51
434.29	1261.83
434.65	1273.70
435.02	1286.10
435.38	1301.57
435.75	1318.75
436.11	1337.52
436.48	1357.44
436.84	1379.77
437.21	1402.50
437.57	1420.56
437.94	1448.51
438.30	1475.85
438.67	1496.12
439.03	1523.20
439.40	1559.57
439.76	1587.59
440.13	1619.46
440.49	1667.35
440.86	1707.12
441.22	1746.46
441.59	1787.19
441.95	1835.89
442.32	1879.24
442.68	1933.24
443.05	1988.40
443.41	2050.87
443.78	2108.17
444.14	2172.53
444.51	2237.39
444.87	2314.77
445.24	2391.54
445.60	2481.90
445.96	2566.87
446.33	2660.84
446.69	2750.13
447.06	2847.43
447.42	2951.20
447.79	3064.11
448.15	3188.91
448.51	3323.00
448.88	3467.15
449.24	3605.38
449.61	3764.56
449.97	3926.06
450.33	4085.17
450.70	4255.35
451.06	4458.67
451.43	4659.23
451.79	4892.52
452.15	5130.43
452.52	5384.87
452.88	5636.01
453.24	5915.73
453.61	6218.73
453.97	6535.29
454.34	6836.59
454.70	7183.83
455.06	7536.52
455.43	7881.38
455.79	8208.73
456.15	8591.97
456.52	8959.31
456.88	9371.60
457.24	9771.01
457.61	10271.93
457.97	10724.38
458.33	11184.48
458.70	11630.38
459.06	12060.08
459.42	12510.94
459.79	12968.56
460.15	13505.29
460.51	14020.37
460.88	14554.88
461.24	15021.32
461.60	15546.00
461.96	15969.64
462.33	16374.11
462.69	16841.84
463.05	17371.15
463.42	17842.89
463.78	18318.18
464.14	18738.68
464.50	19071.62
464.87	19266.56
465.23	19374.67
465.59	19538.68
465.95	19720.21
466.32	19890.72
466.68	20074.38
467.04	20198.03
467.40	20208.61
467.77	20193.60
468.13	20142.88
468.49	20047.93
468.85	19996.53
469.22	19960.14
469.58	19883.58
469.94	19802.34
470.30	19691.37
470.66	19535.00
471.03	19250.70
471.39	19009.57
471.75	18622.89
472.11	18259.85
472.47	17939.69
472.84	17658.90
473.20	17278.00
473.56	17053.07
473.92	16732.68
474.28	16462.65
474.65	16212.05
475.01	16011.60
475.37	15734.18
475.73	15516.11
476.09	15234.01
476.45	14934.00
476.81	14647.63
477.18	14358.16
477.54	14117.57
477.90	13907.18
478.26	13679.87
478.62	13434.39
478.98	13264.14
479.34	13096.42
479.71	12874.68
480.07	12691.60
480.43	12537.88
480.79	12312.90
481.15	12080.51
481.51	11923.34
481.87	11767.63
482.23	11564.70
482.59	11396.44
482.96	11207.82
483.32	10990.10
483.68	10758.65
484.04	10555.68
484.40	10343.25
484.76	10155.87
485.12	9986.69
485.48	9833.92
485.84	9664.73
486.20	9492.35
486.56	9305.95
486.92	9112.50
487.28	8897.62
487.64	8705.97
488.00	8521.84
488.37	8338.18
488.73	8130.58
489.09	7941.58
489.45	7750.36
489.81	7571.24
490.17	7407.77
490.53	7248.87
490.89	7087.00
491.25	6937.63
491.61	6766.51
491.97	6579.20
492.33	6398.79
492.69	6226.29
493.05	6055.18
493.41	5912.66
493.77	5765.07
494.13	5626.93
494.49	5491.41
494.85	5350.86
495.21	5208.04
495.57	5079.59
495.93	4952.62
496.29	4827.52
496.64	4726.97
497.00	4614.18
497.36	4510.94
497.72	4414.93
498.08	4322.52
498.44	4224.95
498.80	4130.81
499.16	4031.22
499.52	3936.29
499.88	3847.63
500.24	3751.95
500.60	3666.45
500.96	3589.42
501.32	3516.54
501.68	3435.72
502.03	3358.36
502.39	3284.52
502.75	3209.53
503.11	3132.48
503.47	3065.21
503.83	3004.08
504.19	2943.29
504.55	2887.52
504.91	2835.70
505.26	2784.58
505.62	2732.86
505.98	2682.37
506.34	2634.18
506.70	2584.07
507.06	2534.05
507.42	2485.67
507.78	2440.80
508.13	2394.27
508.49	2355.35
508.85	2318.21
509.21	2279.56
509.57	2237.34
509.93	2196.50
510.28	2156.12
510.64	2119.85
511.00	2085.02
511.36	2053.26
511.72	2024.26
512.07	1995.38
512.43	1964.36
512.79	1937.31
513.15	1913.13
513.51	1884.48
513.86	1857.45
514.22	1835.71
514.58	1809.02
514.94	1780.05
515.30	1757.84
515.65	1735.23
516.01	1711.45
516.37	1690.73
516.73	1675.38
517.08	1659.00
517.44	1642.52
517.80	1625.10
518.16	1609.61
518.51	1599.83
518.87	1582.67
519.23	1568.14
519.59	1556.92
519.94	1541.38
520.30	1522.19
520.66	1508.94
521.01	1494.32
521.37	1480.25
521.73	1466.11
522.09	1450.69
522.44	1438.56
522.80	1430.07
523.16	1420.07
523.51	1411.06
523.87	1401.93
524.23	1390.77
524.58	1378.76
524.94	1365.87
525.30	1359.38
525.65	1353.25
526.01	1350.89
526.37	1347.47
526.72	1341.20
527.08	1332.98
527.44	1325.56
527.79	1313.49
528.15	1303.87
528.51	1297.22
528.86	1289.47
529.22	1282.26
529.58	1277.11
529.93	1271.14
530.29	1264.80
530.65	1260.03
531.00	1252.09
531.36	1246.45
531.71	1238.61
532.07	1234.98
532.43	1227.66
532.78	1223.02
533.14	1215.65
533.49	1213.45
533.85	1210.17
534.21	1206.78
534.56	1205.45
534.92	1207.81
535.27	1205.14
535.63	1199.41
535.98	1197.54
536.34	1192.55
536.69	1186.93
537.05	1180.87
537.41	1178.32
537.76	1172.47
538.12	1171.84
538.47	1167.90
538.83	1164.70
539.18	1162.97
539.54	1166.20
539.89	1161.61
540.25	1161.98
540.60	1160.11
540.96	1158.96
541.31	1154.70
541.67	1153.67
542.02	1150.33
542.38	1150.65
542.73	1148.57
543.09	1146.86
543.44	1145.22
543.80	1142.42
544.15	1140.43
544.51	1138.18
544.86	1135.77
545.22	1131.70
545.57	1129.00
545.93	1129.75
546.28	1126.48
546.64	1123.29
546.99	1122.24
547.35	1124.21
547.70	1118.71
548.05	1120.41
548.41	1120.48
548.76	1121.05
549.12	1116.74
549.47	1121.12
549.83	1118.92
550.18	1119.20
550.53	1118.26
550.89	1120.02
551.24	1116.22
551.60	1116.51
551.95	1114.70
552.30	1112.83
552.66	1109.06
553.01	1109.34
553.37	1105.90
553.72	1105.44
554.07	1103.38
554.43	1107.45
554.78	1104.55
555.13	1107.42
555.49	1105.53
555.84	1106.98
556.19	1103.16
556.55	1104.05
556.90	1099.21
557.26	1102.16
557.61	1102.93
557.96	1102.32
558.32	1099.30
558.67	1101.99
559.02	1097.73
559.37	1095.44
559.73	1096.92
560.08	1099.91
560.43	1097.20
560.79	1098.02
561.14	1097.76
561.49	1095.32
561.85	1094.48
562.20	1096.12
562.55	1096.10
562.90	1097.34
563.26	1098.13
563.61	1096.85
563.96	1092.87
564.32	1092.14
564.67	1091.20
565.02	1088.96
565.37	1086.50
565.73	1091.27
566.08	1089.99
566.43	1087.95
566.78	1090.15
567.14	1094.72
567.49	1092.77
567.84	1094.25
568.19	1097.83
568.54	1096.99
568.90	1091.98
569.25	1090.20
569.60	1090.27
569.95	1090.71
570.31	1093.85
570.66	1095.98
571.01	1093.50
571.36	1088.70
571.71	1085.24
572.06	1077.61
572.42	1078.24
572.77	1083.20
573.12	1086.45
573.47	1087.02
573.82	1091.49
574.18	1090.50
574.53	1087.69
574.88	1087.97
575.23	1086.64
575.58	1087.11
575.93	1089.03
576.28	1087.65
576.64	1088.56
576.99	1086.50
577.34	1083.60
577.69	1080.16
578.04	1080.32
578.39	1079.13
578.74	1082.92
579.09	1081.91
579.44	1081.07
579.80	1084.09
580.15	1081.84
580.50	1082.47
580.85	1085.42
581.20	1087.23
581.55	1089.10
581.90	1090.39
582.25	1089.61
582.60	1089.33
582.95	1086.50
583.30	1083.60
583.65	1085.70
584.00	1080.93
584.35	1082.31
584.71	1085.19
585.06	1082.36
585.41	1081.63
585.76	1084.51
586.11	1082.92
586.46	1081.96
586.81	1085.19
587.16	1084.65
587.51	1085.47
587.86	1083.13
588.21	1083.74
588.56	1081.70
588.91	1080.56
589.26	1078.92
589.61	1080.51
589.96	1080.79
590.31	1081.75
590.66	1082.97
591.01	1083.06
591.36	1081.94
591.71	1080.32
592.06	1077.89
592.41	1078.66
592.76	1078.80
593.10	1077.70
593.45	1079.24
593.80	1082.87
594.15	1082.85
594.50	1083.01
594.85	1082.94
595.20	1082.92
595.55	1081.21
595.90	1078.19
596.25	1079.13
596.60	1078.94
596.95	1077.56
597.30	1077.44
597.64	1091.39
597.99	1090.85
598.34	1089.68
598.69	1089.38
599.04	1088.79
599.39	1077.51
599.74	1076.62
600.09	1080.41
600.44	1080.48
600.78	1081.42
601.13	1082.76
601.48	1083.79
601.83	1081.94
602.18	1081.66
602.53	1080.72
602.88	1080.23
603.22	1082.10
603.57	1080.30
603.92	1080.04
604.27	1080.46
604.62	1078.38
604.97	1077.21
605.31	1080.77
605.66	1082.54
606.01	1078.50
606.36	1078.05
606.71	1077.11
607.05	1074.91
607.40	1071.15
607.75	1074.10
608.10	1075.36
608.44	1073.56
608.79	1073.81
609.14	1080.04
609.49	1080.98
609.84	1080.74
610.18	1083.90
610.53	1083.62
610.88	1082.69
611.23	1082.83
611.57	1082.92
611.92	1082.99
612.27	1084.67
612.62	1084.30
612.96	1082.38
613.31	1080.04
613.66	1079.03
614.00	1080.58
614.35	1078.40
614.70	1080.44
615.05	1081.09
615.39	1081.87
615.74	1079.29
616.09	1081.21
616.43	1076.69
616.78	1078.07
617.13	1080.09
617.47	1081.73
617.82	1079.53
618.17	1083.36
618.51	1081.70
618.86	1076.55
619.21	1074.70
619.55	1074.49
619.90	1073.07
620.25	1072.22
620.59	1074.45
620.94	1074.82
621.29	1077.09
621.63	1078.07
621.98	1078.94
622.32	1078.94
622.67	1079.27
623.02	1077.07
623.36	1079.38
623.71	1082.24
624.05	1081.09
624.40	1082.15
624.75	1083.48
625.09	1081.84
625.44	1081.30
625.78	1082.22
626.13	1081.09
626.48	1078.68
626.82	1076.18
627.17	1074.24
627.51	1073.67
627.86	1072.92
628.20	1076.69
628.55	1077.21
628.89	1076.95
629.24	1078.47
629.58	1081.35
629.93	1078.47
630.28	1079.36
630.62	1081.87
630.97	1080.09
631.31	1076.37
631.66	1077.37
632.00	1078.64
632.35	1075.41
632.69	1075.78
633.04	1076.79
633.38	1075.87
633.73	1077.49
634.07	1080.77
634.42	1080.34
634.76	1077.72
635.11	1078.61
635.45	1076.15
635.79	1073.60
636.14	1075.62
636.48	1080.30
636.83	1078.17
637.17	1078.68
637.52	1080.77
637.86	1077.65
638.21	1078.33
638.55	1081.40
638.89	1083.15
639.24	1083.06
639.58	1083.81
639.93	1082.43
640.27	1080.86
640.61	1080.02
640.96	1081.40
641.30	1080.16
641.65	1080.67
641.99	1080.60
642.33	1077.49
642.68	1071.47
643.02	1071.75
643.37	1071.99
643.71	1073.16
644.05	1072.57
644.40	1076.60
644.74	1077.96
645.08	1078.10
645.43	1077.75
645.77	1080.51
646.11	1081.94
646.46	1083.04
646.80	1080.39
647.14	1078.47
647.49	1079.17
647.83	1076.74
648.17	1077.16
648.52	1077.98
648.86	1077.63
649.20	1076.46
649.55	1078.28
649.89	1077.68
650.23	1081.02
650.57	1080.65
650.92	1082.22
651.26	1080.04
651.60	1080.27
651.95	1073.02
652.29	1079.38
652.63	1078.78
652.97	1079.03
653.32	1078.31
653.66	1082.12
654.00	1079.53
654.34	1080.23
654.69	1081.80
655.03	1082.12
655.37	1083.15
655.71	1079.83
656.05	1078.21
656.40	1077.75
656.74	1074.54
657.08	1073.46
657.42	1072.64
657.76	1075.17
658.11	1075.43
658.45	1073.28
658.79	1073.77
659.13	1073.37
659.47	1071.61
659.82	1070.54
660.16	1075.20
660.50	1076.08
660.84	1077.33
661.18	1078.14
661.52	1076.83
661.87	1077.91
662.21	1078.38
662.55	1078.21
662.89	1075.55
663.23	1074.73
663.57	1075.17
663.91	1070.49
664.25	1072.74
664.60	1072.95
664.94	1075.85
665.28	1073.02
665.62	1074.10
665.96	1075.71
666.30	1077.65
666.64	1074.54
666.98	1074.68
667.32	1077.61
667.66	1079.20
668.01	1075.59
668.35	1077.23
668.69	1076.76
669.03	1074.33
669.37	1070.28
669.71	1071.54
670.05	1072.53
670.39	1072.62
670.73	1073.86
671.07	1075.52
671.41	1077.37
671.75	1075.27
672.09	1076.95
672.43	1076.25
672.77	1072.88
673.11	1070.72
673.45	1071.24
673.79	1068.74
674.13	1068.92
674.47	1069.23
674.81	1071.92
675.15	1074.96
675.49	1078.17
675.83	1080.11
676.17	1081.44
676.51	1081.14
676.85	1079.78
677.19	1080.27
677.53	1080.95
677.87	1079.46
678.21	1080.04
678.55	1079.57
678.89	1076.06
679.23	1074.82
679.57	1077.21
679.90	1076.97
680.24	1077.79
680.58	1079.29
680.92	1077.58
681.26	1075.15
681.60	1071.33
681.94	1069.79
682.28	1071.10
682.62	1070.68
682.96	1071.33
683.29	1074.12
683.63	1074.03
683.97	1071.52
684.31	1073.98
684.65	1072.15
684.99	1073.21
685.33	1073.07
685.67	1075.92
686.00	1073.30
686.34	1077.47
686.68	1074.98
687.02	1075.73
687.36	1073.56
687.70	1071.43
688.03	1068.10
688.37	1069.34
688.71	1067.61
689.05	1067.40
689.39	1073.72
689.72	1073.51
690.06	1073.51
690.40	1075.36
690.74	1077.21
691.08	1075.62
691.41	1077.33
691.75	1079.97
692.09	1080.37
692.43	1080.58
692.76	1080.44
693.10	1078.38
693.44	1076.51
693.78	1076.88
694.11	1076.18
694.45	1074.77
694.79	1078.19
695.13	1076.41
695.46	1073.56
695.80	1074.00
696.14	1077.21
696.48	1076.08
696.81	1076.74
697.15	1078.54
697.49	1078.75
697.82	1075.41
698.16	1077.00
698.50	1078.64
698.83	1079.46
699.17	1077.28
699.51	1076.79
699.84	1075.29
700.18	1072.55
700.52	1071.92
700.85	1073.07
701.19	1072.90
701.53	1074.73
701.86	1076.83
702.20	1077.28
702.54	1079.48
702.87	1079.13
703.21	1075.87
703.55	1074.26
703.88	1077.37
704.22	1074.42
704.55	1075.80
704.89	1077.58
705.23	1079.69
705.56	1074.66
705.90	1076.32
706.23	1072.83
706.57	1070.02
706.91	1069.32
707.24	1071.92
707.58	1069.86
707.91	1076.04
708.25	1080.02
708.58	1080.37
708.92	1080.44
709.26	1082.19
709.59	1080.25
709.93	1078.31
710.26	1078.43
710.60	1076.13
710.93	1078.19
711.27	1076.18
711.60	1077.86
711.94	1078.03
712.27	1079.64
712.61	1074.91
712.94	1078.07
713.28	1079.83
713.61	1081.16
713.95	1081.26
714.28	1082.92
714.62	1079.46
714.95	1073.77
715.29	1073.58
715.62	1073.95
715.96	1075.41
716.29	1074.73
716.63	1079.48
716.96	1077.89
717.29	1073.81
717.63	1072.50
717.96	1075.43
718.30	1072.69
718.63	1072.46
718.97	1076.30
719.30	1076.08
719.63	1074.14
719.97	1071.71
720.30	1070.12
720.64	1069.16
720.97	1070.28
721.30	1072.25
721.64	1075.71
721.97	1078.82
722.31	1079.55
722.64	1079.76
722.97	1080.51
723.31	1080.67
723.64	1079.36
723.97	1077.49
724.31	1074.70
724.64	1073.95
724.98	1075.01
725.31	1073.60
725.64	1074.45
725.98	1076.79
726.31	1076.72
726.64	1075.76
726.97	1079.46
727.31	1078.68
727.64	1079.27
727.97	1074.26
728.31	1074.68
728.64	1070.94
728.97	1071.12
729.31	1069.79
729.64	1072.43
729.97	1069.91
730.30	1072.81
730.64	1076.53
730.97	1078.12
731.30	1080.58
731.63	1081.40
731.97	1079.20
732.30	1076.60
732.63	1072.32
732.96	1070.63
733.30	1071.52
733.63	1073.60
733.96	1072.64
734.29	1077.49
734.63	1080.72
734.96	1079.74
735.29	1078.80
735.62	1079.10
735.95	1077.25
736.29	1075.64
736.62	1078.40
736.95	1074.00
737.28	1074.94
737.61	1076.93
737.94	1074.89
738.28	1070.61
738.61	1073.58
738.94	1073.56
739.27	1072.88
739.60	1075.03
739.93	1074.54
740.27	1072.71
740.60	1074.84
740.93	1074.91
741.26	1075.45
741.59	1078.57
741.92	1079.50
742.25	1076.37
742.58	1075.17
742.91	1074.35
743.25	1073.91
743.58	1077.25
743.91	1076.79
744.24	1077.33
744.57	1074.75
744.90	1073.86
745.23	1069.27
745.56	1068.43
745.89	1066.91
746.22	1071.47
746.55	1068.01
746.88	1071.38
747.21	1074.98
747.54	1073.44
747.87	1071.31
748.20	1075.05
748.53	1072.88
748.87	1069.55
749.20	1072.15
749.53	1071.78
749.86	1071.47
750.19	1075.52
750.52	1076.67
750.85	1078.85
751.18	1079.62
751.51	1079.15
751.84	1077.86
752.16	1081.70
752.49	1080.51
752.82	1079.01
753.15	1079.01
753.48	1079.60
753.81	1078.94
754.14	1080.02
754.47	1083.60
754.80	1083.62
755.13	1080.25
755.46	1074.89
755.79	1070.23
756.12	1066.63
756.45	1070.09
756.78	1074.52
757.11	1076.83
757.43	1084.18
757.76	1085.05
758.09	1081.96
758.42	1079.67
758.75	1078.68
759.08	1075.22
759.41	1073.56
759.74	1075.50
760.07	1076.60
760.39	1078.94
760.72	1081.42
761.05	1082.19
761.38	1081.61
761.71	1077.89
762.04	1078.05
762.36	1075.57
762.69	1074.10
763.02	1073.11
763.35	1073.77
763.68	1072.64
764.01	1071.12
764.33	1073.67
764.66	1071.43
764.99	1074.03
765.32	1074.07
765.65	1071.29
765.97	1071.75
766.30	1076.04
766.63	1073.93
766.96	1071.10
767.28	1074.03
767.61	1070.94
767.94	1070.35
768.27	1067.80
768.59	1069.62
768.92	1069.13
769.25	1071.71
769.58	1069.48
769.90	1073.37
770.23	1074.73
770.56	1075.52
770.89	1075.05
771.21	1076.37
771.54	1075.38
771.87	1074.98
772.19	1073.49
772.52	1071.31
772.85	1072.97
773.17	1073.16
773.50	1071.08
773.83	1075.90
774.15	1078.57
774.48	1076.37
774.81	1075.17
775.13	1076.44
775.46	1070.91
775.79	1068.67
776.11	1068.36
776.44	1072.36
776.77	1072.83
777.09	1075.17
777.42	1077.56
777.74	1079.27
778.07	1075.20
778.40	1073.35
778.72	1073.25
779.05	1070.87
779.37	1073.09
779.70	1075.20
780.03	1080.04
780.35	1079.38
780.68	1081.91
781.00	1077.89
781.33	1076.30
781.65	1074.40
781.98	1072.39
782.31	1070.28
782.63	1072.34
782.96	1074.17
783.28	1071.12
783.61	1073.91
783.93	1074.89
784.26	1076.46
784.58	1073.74
784.91	1075.55
785.23	1072.25
785.56	1071.57
785.88	1069.02
786.21	1070.49
786.53	1071.43
786.86	1072.18
787.18	1073.37
787.51	1074.31
787.83	1074.24
788.16	1073.67
788.48	1075.22
788.81	1073.88
789.13	1072.90
789.46	1076.11
789.78	1076.46
790.10	1076.41
790.43	1075.90
790.75	1079.38
791.08	1076.55
791.40	1074.73
791.73	1076.88
792.05	1079.01
792.37	1076.13
792.70	1076.60
793.02	1079.03
793.35	1075.01
793.67	1076.97
793.99	1077.30
794.32	1076.27
794.64	1076.15
794.96	1077.42
795.29	1075.24
795.61	1076.88
795.93	1077.63
796.26	1077.68
796.58	1078.40
796.91	1079.88
797.23	1075.20
797.55	1073.51
797.87	1071.78
798.20	1070.91
798.52	1068.83
798.84	1067.19
799.17	1069.67
799.49	1069.11
799.81	1071.38
800.14	1072.39
800.46	1074.28
800.78	1072.13
801.10	1072.64
801.43	1071.03
801.75	1068.45
802.07	1070.23
802.40	1071.31
802.72	1071.78
803.04	1073.46
803.36	1073.77
803.69	1072.92
804.01	1074.63
804.33	1077.70
804.65	1075.31
804.97	1078.21
805.30	1080.32
805.62	1081.30
805.94	1075.27
806.26	1074.45
806.58	1073.95
806.91	1070.77
807.23	1069.46
807.55	1072.34
807.87	1073.84
808.19	1071.92
808.52	1072.78
808.84	1071.99
809.16	1071.24
809.48	1070.65
809.80	1071.17
810.12	1071.45
810.44	1069.39
810.77	1070.02
811.09	1068.38
811.41	1066.30
811.73	1068.36
812.05	1070.44
812.37	1069.41
812.69	1074.05
813.01	1077.75
813.33	1077.63
813.66	1074.28
813.98	1074.91
814.30	1075.83
814.62	1076.41
814.94	1072.90
815.26	1076.55
815.58	1077.28
815.90	1075.22
816.22	1075.55
816.54	1080.39
816.86	1081.84
817.18	1083.34
817.50	1080.06
817.82	1077.04
818.14	1073.14
818.46	1069.88
818.78	1068.62
819.10	1071.29
819.42	1072.18
819.74	1077.07
820.06	1078.85
820.38	1079.95
820.70	1079.62
821.02	1080.02
821.34	1077.04
821.66	1077.70
821.98	1078.75
822.30	1079.69
822.62	1080.44
822.94	1077.11
823.26	1075.64
823.58	1074.31
823.90	1074.17
824.22	1074.31
824.54	1078.50
824.86	1079.22
825.18	1079.57
825.50	1080.20
825.81	1083.08
826.13	1081.66
826.45	1079.78
826.77	1078.03
827.09	1079.24
827.41	1075.31
827.73	1071.90
828.05	1075.66
828.36	1076.15
828.68	1077.44
829.00	1077.00
829.32	1083.08
829.64	1079.88
829.96	1081.44
830.28	1077.33
830.59	1077.77
830.91	1077.18
831.23	1077.70
831.55	1076.48
831.87	1075.17
832.19	1074.54
832.50	1071.94
832.82	1069.77
833.14	1067.64
833.46	1069.81
833.78	1072.22
834.09	1070.82
834.41	1074.68
834.73	1077.40
835.05	1079.85
835.36	1080.98
835.68	1085.07
836.00	1085.42
836.32	1083.55
836.63	1082.33
836.95	1080.51
837.27	1079.83
837.59	1077.11
837.90	1077.21
838.22	1075.15
838.54	1073.63
838.85	1070.80
839.17	1071.90
839.49	1071.26
839.80	1070.61
840.12	1072.69
840.44	1074.19
840.76	1073.91
841.07	1076.15
841.39	1074.47
841.71	1072.57
842.02	1071.57
842.34	1069.53
842.65	1070.84
842.97	1071.94
843.29	1072.48
843.60	1073.14
843.92	1072.90
844.24	1069.74
844.55	1070.30
844.87	1069.77
845.18	1069.02
845.50	1071.01
845.82	1073.86
846.13	1075.38
846.45	1076.51
846.76	1081.61
847.08	1080.53
847.40	1081.00
847.71	1079.67
848.03	1074.40
848.34	1069.46
848.66	1067.99
848.97	1064.87
849.29	1065.06
849.60	1070.42
849.92	1073.60
850.24	1078.40
850.55	1080.16
850.87	1081.70
851.18	1080.91
851.50	1078.47
851.81	1077.58
852.13	1078.40
852.44	1080.04
852.76	1081.21
853.07	1082.03
853.39	1083.62
853.70	1081.49
854.01	1078.96
854.33	1076.55
854.64	1074.05
854.96	1070.72
855.27	1071.90
855.59	1071.87
855.90	1073.65
856.22	1073.74
856.53	1075.78
856.84	1075.87
857.16	1074.47
857.47	1072.85
857.79	1074.40
858.10	1074.24
858.41	1074.05
858.73	1075.55
859.04	1075.85
859.36	1074.82
859.67	1073.51
859.98	1070.89
860.30	1070.35
860.61	1071.99
860.92	1073.39
861.24	1074.47
861.55	1077.16
861.87	1077.02
862.18	1074.54
862.49	1074.21
862.81	1073.46
863.12	1072.97
863.43	1072.92
863.74	1076.04
864.06	1079.62
864.37	1079.57
864.68	1080.48
865.00	1082.78
865.31	1081.68
865.62	1078.78
865.94	1079.69
866.25	1082.10
866.56	1080.30
866.87	1078.80
867.19	1078.59
867.50	1078.66
867.81	1074.45
868.12	1077.68
868.44	1080.81
868.75	1079.57
869.06	1079.57
869.37	1078.64
869.68	1076.01
870.00	1073.95
870.31	1074.24
870.62	1073.23
870.93	1073.56
871.24	1072.04
871.56	1070.70
871.87	1070.05
872.18	1068.95
872.49	1070.56
872.80	1072.64
873.12	1076.27
873.43	1079.15
873.74	1080.06
874.05	1080.30
874.36	1079.43
874.67	1078.75
874.98	1077.33
875.29	1077.47
875.61	1077.14
875.92	1078.52
876.23	1076.25
876.54	1078.24
876.85	1078.31
877.16	1077.40
877.47	1075.48
877.78	1076.65
878.09	1074.82
878.40	1078.10
878.72	1081.68
879.03	1082.26
879.34	1083.76
879.65	1083.55
879.96	1083.01
880.27	1083.69
880.58	1082.97
880.89	1082.99
881.20	1084.04
881.51	1082.83
881.82	1078.03
882.13	1077.40
882.44	1077.07
882.75	1075.92
883.06	1075.27
883.37	1078.52
883.68	1079.08
883.99	1077.84
884.30	1077.65
884.61	1078.78
884.92	1076.39
885.23	1076.48
885.54	1073.84
885.85	1070.21
886.16	1065.60
886.47	1068.24
886.78	1069.46
887.08	1072.36
887.39	1076.46
887.70	1076.60
888.01	1075.80
888.32	1076.58
888.63	1075.27
888.94	1074.75
889.25	1078.68
889.56	1077.44
889.87	1078.50
890.17	1082.10
890.48	1083.53
890.79	1083.93
891.10	1082.59
891.41	1078.45
891.72	1073.23
892.03	1070.68
892.34	1068.97
892.64	1068.31
892.95	1069.67
893.26	1070.65
893.57	1072.50
893.88	1073.65
894.18	1074.87
894.49	1076.72
894.80	1078.40
895.11	1077.54
895.42	1075.90
895.72	1076.44
896.03	1074.94
896.34	1075.85
896.65	1075.36
896.96	1075.38
897.26	1075.69
897.57	1075.57
897.88	1074.45
898.19	1074.49
898.49	1073.25
898.80	1073.23
899.11	1073.46
899.41	1073.51
899.72	1072.92
900.03	1072.48
900.34	1074.10
900.64	1075.15
900.95	1075.52
901.26	1075.94
901.56	1079.38
901.87	1076.81
902.18	1074.33
902.48	1070.87
902.79	1071.97
903.10	1070.77
903.40	1072.97
903.71	1075.76
904.02	1081.49
904.32	1081.77
904.63	1081.66
904.94	1081.47
905.24	1081.09
905.55	1080.44
905.85	1079.10
906.16	1081.07
906.47	1081.14
906.77	1079.60
907.08	1073.07
907.38	1074.10
907.69	1073.23
908.00	1073.63
908.30	1072.78
908.61	1077.65
908.91	1077.35
909.22	1075.99
909.52	1073.35
909.83	1075.22
910.14	1073.53
910.44	1072.50
910.75	1074.89
911.05	1078.03
911.36	1079.08
911.66	1080.16
911.97	1082.76
912.27	1080.30
912.58	1078.05
912.88	1075.31
913.19	1072.81
913.49	1069.55
913.80	1072.53
914.10	1072.55
914.41	1073.98
914.71	1076.32
915.01	1079.43
915.32	1076.01
915.62	1076.65
915.93	1076.13
916.23	1077.89
916.54	1075.38
916.84	1076.39
917.15	1075.71
917.45	1077.16
917.75	1074.87
918.06	1075.59
918.36	1075.48
918.67	1073.39
918.97	1071.82
919.27	1073.70
919.58	1072.78
919.88	1072.48
920.18	1074.14
920.49	1073.79
920.79	1072.43
921.10	1074.19
921.40	1072.53
921.70	1070.42
922.01	1069.70
922.31	1068.55
922.61	1067.07
922.92	1066.54
923.22	1067.92
923.52	1072.08
923.82	1074.38
924.13	1075.71
924.43	1078.03
924.73	1077.40
925.04	1073.53
925.34	1073.00
925.64	1074.38
925.94	1074.26
926.25	1076.95
926.55	1074.98
926.85	1075.01
927.15	1071.66
927.46	1069.74
927.76	1067.19
928.06	1068.78
928.36	1067.80
928.67	1069.44
928.97	1069.53
929.27	1071.90
929.57	1071.85
929.87	1073.09
930.18	1074.28
930.48	1075.34
930.78	1076.25
931.08	1079.60
931.38	1079.74
931.69	1081.28
931.99	1080.81
932.29	1080.44
932.59	1079.08
932.89	1078.21
933.19	1075.85
933.49	1077.04
933.80	1075.55
934.10	1075.85
934.40	1077.72
934.70	1077.07
935.00	1077.42
935.30	1075.48
935.60	1075.97
935.90	1073.23
936.20	1070.42
936.50	1069.25
936.81	1069.16
937.11	1068.88
937.41	1070.54
937.71	1073.93
938.01	1074.70
938.31	1076.69
938.61	1078.64
938.91	1078.14
939.21	1077.49
939.51	1081.96
939.81	1082.90
940.11	1083.13
940.41	1083.69
940.71	1082.10
941.01	1077.30
941.31	1075.36
941.61	1071.92
941.91	1071.10
942.21	1072.69
942.51	1074.49
942.81	1077.58
943.11	1079.62
943.41	1077.61
943.71	1077.18
944.01	1076.20
944.31	1072.81
944.61	1068.88
944.90	1071.03
945.20	1072.57
945.50	1072.85
945.80	1073.72
946.10	1074.84
946.40	1074.00
946.70	1071.05
947.00	1068.24
947.30	1067.00
947.60	1064.31
947.89	1064.62
948.19	1067.45
948.49	1070.96
948.79	1073.56
949.09	1077.58
949.39	1078.43
949.69	1078.59
949.98	1077.68
950.28	1077.63
950.58	1073.98
950.88	1072.76
951.18	1074.42
951.48	1073.07
951.77	1073.53
952.07	1077.70
952.37	1078.07
952.67	1073.49
952.97	1075.52
953.26	1072.57
953.56	1072.88
953.86	1073.14
954.16	1074.00
954.45	1072.18
954.75	1071.47
955.05	1070.54
955.35	1072.71
955.64	1071.97
955.94	1076.41
956.24	1081.09
956.54	1077.00
956.83	1075.01
957.13	1077.75
957.43	1074.52
957.72	1072.48
958.02	1076.39
958.32	1077.79
958.61	1076.88
958.91	1075.78
959.21	1078.43
959.50	1079.81
959.80	1079.10
960.10	1079.64
960.39	1081.70
960.69	1079.53
960.99	1076.30
961.28	1074.68
961.58	1075.36
961.87	1070.40
962.17	1069.65
962.47	1071.50
962.76	1075.69
963.06	1071.54
963.36	1075.80
963.65	1076.74
963.95	1077.40
964.24	1073.25
964.54	1077.98
964.83	1077.37
965.13	1077.82
965.42	1078.28
965.72	1077.04
966.02	1075.92
966.31	1075.71
966.61	1073.02
966.90	1072.46
967.20	1073.77
967.49	1074.10
967.79	1074.40
968.08	1076.95
968.38	1077.28
968.67	1076.01
968.97	1074.40
969.26	1073.44
969.56	1074.59
969.85	1073.02
970.15	1075.92
970.44	1079.53
970.74	1079.85
971.03	1075.57
971.32	1076.67
971.62	1074.91
971.91	1071.19
972.21	1074.05
972.50	1075.41
972.80	1074.84
973.09	1076.69
973.38	1076.13
973.68	1073.04
973.97	1074.17
974.27	1075.03
974.56	1074.87
974.85	1074.70
975.15	1072.01
975.44	1071.40
975.73	1071.99
976.03	1070.56
976.32	1072.78
976.61	1073.72
976.91	1073.28
977.20	1072.76
977.49	1073.95
977.79	1073.44
978.08	1073.65
978.37	1076.88
978.67	1076.23
978.96	1075.43
979.25	1074.66
979.55	1072.29
979.84	1073.25
980.13	1073.00
980.42	1074.19
980.72	1073.18
981.01	1076.39
981.30	1069.60
981.59	1071.92
981.89	1071.17
982.18	1072.55
982.47	1071.24
982.76	1072.92
983.06	1072.41
983.35	1070.98
983.64	1069.91
983.93	1074.19
984.22	1075.94
984.52	1073.77
984.81	1074.14
985.10	1077.25
985.39	1075.31
985.68	1075.03
985.97	1075.76
986.27	1077.49
986.56	1076.48
986.85	1076.55
987.14	1076.04
987.43	1075.59
987.72	1076.01
988.01	1076.74
988.31	1078.17
988.60	1077.86
988.89	1078.89
989.18	1076.34
989.47	1073.93
989.76	1071.94
990.05	1072.32
990.34	1072.08
990.63	1074.07
990.92	1074.33
991.21	1076.93
991.51	1079.83
991.80	1079.64
992.09	1079.22
992.38	1082.59
992.67	1083.79
992.96	1080.46
993.25	1082.08
993.54	1081.42
993.83	1078.66
994.12	1076.23
994.41	1076.08
994.70	1072.22
994.99	1071.78
995.28	1074.07
995.57	1074.24
995.86	1077.91
996.15	1082.66
996.44	1085.03
996.73	1084.14
997.02	1086.13
997.31	1083.11
997.59	1078.89
997.88	1074.03
998.17	1071.99
998.46	1067.68
998.75	1065.41
999.04	1066.47
999.33	1067.28
999.62	1067.28
999.91	1067.05
1000.20	1068.55
1000.49	1068.64
1000.77	1073.37
1001.06	1074.12
1001.35	1074.56
1001.64	1079.17
1001.93	1081.51
1002.22	1080.93
1002.51	1080.09
1002.79	1080.46
1003.08	1078.31
1003.37	1073.56
1003.66	1071.12
1003.95	1072.22
1004.23	1073.58
1004.52	1070.61
1004.81	1071.99
1005.10	1070.75
1005.39	1069.58
1005.67	1070.07
1005.96	1071.82
1006.25	1073.07
1006.54	1075.20
1006.83	1075.50
1007.11	1077.14
1007.40	1077.63
1007.69	1080.30
1007.97	1079.24
1008.26	1080.60
1008.55	1081.00
1008.84	1084.23
1009.12	1079.95
1009.41	1083.50
1009.70	1080.46
1009.98	1075.83
1010.27	1070.56
1010.56	1070.89
1010.85	1067.64
1011.13	1068.36
1011.42	1070.58
1011.71	1071.71
1011.99	1074.80
1012.28	1078.75
1012.56	1082.15
1012.85	1079.85
1013.14	1081.70
1013.42	1080.44
1013.71	1076.46
1014.00	1073.11
1014.28	1075.69
1014.57	1074.40
1014.85	1075.36
1015.14	1075.48
1015.43	1075.50
1015.71	1071.73
1016.00	1073.77
1016.28	1072.76
1016.57	1075.31
1016.85	1077.72
1017.14	1080.70
1017.43	1077.54
1017.71	1075.01
1018.00	1073.32
1018.28	1069.81
1018.57	1070.58
1018.85	1072.85
1019.14	1074.10
1019.42	1071.15
1019.71	1075.22
1019.99	1074.21
1020.28	1074.61
1020.56	1073.84
1020.85	1074.91
1021.13	1073.30
1021.42	1068.01
1021.70	1064.92
1021.99	1066.77
1022.27	1069.32
1022.55	1076.41
1022.84	1080.04
>>>>>End Processed Spectral Data<<<<<
