SpectraSuite Data File
++++++++++++++++++++++++++++++++++++
Date: Mon Aug 26 10:22:28 PDT 2019
User: corrico
Dark Spectrum Present: No
Reference Spectrum Present: No
Number of Sampled Component Spectra: 1
Spectrometers: USB2+H06089
Integration Time (usec): 2000 (USB2+H06089)
Spectra Averaged: 20 (USB2+H06089)
Boxcar Smoothing: 2 (USB2+H06089)
Correct for Electrical Dark: No (USB2+H06089)
Strobe/Lamp Enabled: No (USB2+H06089)
Correct for Detector Non-linearity: No (USB2+H06089)
Correct for Stray Light: No (USB2+H06089)
Number of Pixels in Processed Spectrum: 2048
>>>>>Begin Processed Spectral Data<<<<<
339.70	1029.95
340.07	1029.95
340.45	997.30
340.82	974.04
341.19	951.97
341.57	925.75
341.94	916.27
342.31	904.24
342.69	901.06
343.06	896.35
343.43	895.30
343.81	894.51
344.18	899.19
344.55	904.97
344.93	907.57
345.30	915.17
345.67	919.62
346.04	926.62
346.42	932.70
346.79	942.58
347.16	952.62
347.54	965.80
347.91	976.64
348.28	985.79
348.65	995.29
349.03	1005.19
349.40	1012.42
349.77	1019.35
350.14	1025.95
350.52	1032.78
350.89	1036.79
351.26	1044.07
351.63	1051.06
352.01	1057.52
352.38	1063.05
352.75	1070.96
353.12	1072.06
353.50	1073.98
353.87	1076.79
354.24	1079.71
354.61	1079.03
354.98	1081.54
355.36	1081.84
355.73	1082.45
356.10	1080.81
356.47	1081.07
356.84	1083.27
357.22	1086.71
357.59	1090.53
357.96	1093.83
358.33	1093.92
358.70	1091.77
359.08	1088.54
359.45	1085.38
359.82	1083.57
360.19	1079.88
360.56	1079.36
360.94	1079.31
361.31	1080.41
361.68	1080.04
362.05	1080.72
362.42	1079.76
362.79	1081.00
363.16	1076.13
363.54	1072.39
363.91	1073.02
364.28	1072.62
364.65	1072.11
365.02	1072.69
365.39	1074.54
365.76	1074.42
366.14	1073.72
366.51	1074.19
366.88	1073.53
367.25	1076.65
367.62	1077.25
367.99	1079.88
368.36	1082.61
368.73	1084.35
369.10	1081.91
369.48	1082.54
369.85	1079.85
370.22	1075.05
370.59	1073.79
370.96	1074.56
371.33	1074.03
371.70	1074.21
372.07	1072.85
372.44	1075.36
372.81	1075.57
373.18	1074.80
373.55	1076.69
373.93	1081.23
374.30	1079.99
374.67	1082.05
375.04	1082.73
375.41	1082.01
375.78	1082.33
376.15	1082.87
376.52	1079.01
376.89	1082.26
377.26	1083.97
377.63	1081.05
378.00	1078.96
378.37	1080.18
378.74	1077.47
379.11	1079.08
379.48	1080.81
379.85	1081.44
380.22	1081.23
380.59	1083.20
380.96	1081.42
381.33	1083.18
381.70	1084.09
382.07	1086.57
382.44	1086.94
382.81	1086.64
383.18	1085.63
383.55	1086.01
383.92	1084.72
384.29	1084.72
384.66	1087.58
385.03	1086.66
385.40	1083.88
385.77	1085.19
386.14	1082.76
386.51	1077.58
386.88	1076.18
387.25	1076.53
387.62	1072.25
387.99	1070.51
388.36	1075.20
388.73	1077.28
389.10	1080.18
389.46	1084.07
389.83	1086.59
390.20	1084.72
390.57	1084.74
390.94	1085.54
391.31	1088.44
391.68	1087.39
392.05	1086.52
392.42	1086.85
392.79	1085.14
393.16	1082.29
393.53	1083.46
393.89	1086.92
394.26	1086.83
394.63	1087.74
395.00	1090.53
395.37	1091.91
395.74	1090.78
396.11	1089.43
396.48	1088.86
396.84	1086.45
397.21	1084.25
397.58	1086.03
397.95	1087.72
398.32	1088.84
398.69	1090.83
399.06	1092.68
399.42	1090.97
399.79	1091.02
400.16	1091.67
400.53	1089.24
400.90	1087.67
401.27	1087.74
401.64	1088.37
402.00	1090.20
402.37	1089.96
402.74	1089.03
403.11	1090.97
403.48	1091.06
403.84	1087.39
404.21	1088.02
404.58	1086.83
404.95	1082.01
405.32	1080.98
405.68	1082.05
406.05	1084.11
406.42	1088.23
406.79	1089.24
407.16	1090.62
407.52	1094.01
407.89	1094.50
408.26	1093.92
408.63	1098.93
408.99	1099.26
409.36	1099.02
409.73	1099.61
410.10	1101.32
410.47	1100.33
410.83	1102.58
411.20	1101.39
411.57	1099.79
411.94	1100.59
412.30	1097.92
412.67	1095.98
413.04	1097.08
413.40	1097.08
413.77	1098.98
414.14	1100.66
414.51	1098.90
414.87	1100.64
415.24	1101.69
415.61	1097.92
415.97	1098.74
416.34	1100.59
416.71	1096.40
417.08	1101.85
417.44	1104.80
417.81	1109.34
418.18	1108.99
418.54	1114.68
418.91	1112.46
419.28	1114.70
419.64	1115.55
420.01	1120.77
420.38	1119.03
420.74	1119.57
421.11	1120.20
421.48	1114.59
421.84	1113.16
422.21	1116.15
422.58	1115.66
422.94	1118.96
423.31	1124.86
423.68	1127.83
424.04	1131.30
424.41	1138.74
424.77	1138.97
425.14	1144.15
425.51	1146.68
425.87	1153.23
426.24	1156.20
426.61	1161.07
426.97	1165.19
427.34	1173.59
427.70	1175.35
428.07	1181.24
428.44	1190.56
428.80	1199.66
429.17	1204.37
429.53	1214.41
429.90	1225.13
430.27	1232.69
430.63	1244.44
431.00	1255.53
431.36	1268.64
431.73	1279.41
432.09	1292.05
432.46	1302.48
432.83	1320.04
433.19	1336.19
433.56	1357.44
433.92	1382.88
434.29	1405.26
434.65	1425.85
435.02	1449.66
435.38	1472.71
435.75	1498.34
436.11	1531.06
436.48	1566.40
436.84	1603.45
437.21	1638.77
437.57	1668.99
437.94	1709.81
438.30	1754.49
438.67	1798.23
439.03	1848.53
439.40	1906.30
439.76	1960.36
440.13	2018.06
440.49	2085.96
440.86	2152.68
441.22	2227.89
441.59	2301.75
441.95	2384.56
442.32	2462.52
442.68	2559.89
443.05	2651.69
443.41	2751.63
443.78	2854.75
444.14	2967.71
444.51	3075.51
444.87	3210.58
445.24	3352.23
445.60	3508.25
445.96	3667.39
446.33	3842.34
446.69	4006.29
447.06	4185.44
447.42	4367.25
447.79	4556.81
448.15	4778.77
448.51	5012.73
448.88	5278.33
449.24	5521.60
449.61	5804.46
449.97	6077.97
450.33	6365.86
450.70	6628.63
451.06	6962.70
451.43	7269.00
451.79	7633.07
452.15	8045.17
452.52	8501.97
452.88	8981.64
453.24	9515.21
453.61	10107.42
453.97	10661.44
454.34	11212.62
454.70	11853.64
455.06	12509.41
455.43	13132.75
455.79	13747.98
456.15	14469.45
456.52	15126.41
456.88	15902.93
457.24	16623.33
457.61	17475.70
457.97	18242.65
458.33	19040.54
458.70	19821.18
459.06	20600.97
459.42	21442.51
459.79	22244.64
460.15	23154.83
460.51	24043.93
460.88	24980.89
461.24	25786.27
461.60	26774.44
461.96	27653.90
462.33	28461.31
462.69	29247.47
463.05	30105.89
463.42	30802.20
463.78	31438.61
464.14	31992.22
464.50	32581.78
464.87	33036.59
465.23	33384.18
465.59	33724.76
465.95	34036.40
466.32	34295.43
466.68	34528.59
467.04	34660.53
467.40	34813.74
467.77	34977.11
468.13	34960.37
468.49	34849.03
468.85	34762.01
469.22	34593.14
469.58	34229.35
469.94	33978.14
470.30	33673.57
470.66	33271.32
471.03	32667.93
471.39	32282.78
471.75	31650.43
472.11	31043.44
472.47	30660.13
472.84	30354.55
473.20	29870.15
473.56	29594.48
473.92	29185.64
474.28	28701.80
474.65	28204.27
475.01	27728.28
475.37	27150.54
475.73	26684.19
476.09	26130.86
476.45	25598.67
476.81	25062.67
477.18	24524.91
477.54	24072.50
477.90	23717.02
478.26	23293.13
478.62	22960.16
478.98	22675.48
479.34	22351.76
479.71	21936.48
480.07	21585.47
480.43	21212.70
480.79	20810.66
481.15	20450.22
481.51	20132.59
481.87	19885.43
482.23	19596.58
482.59	19360.49
482.96	19078.57
483.32	18790.17
483.68	18405.36
484.04	18065.35
484.40	17697.21
484.76	17327.31
485.12	16961.02
485.48	16647.50
485.84	16281.21
486.20	15913.72
486.56	15564.21
486.92	15233.10
487.28	14882.44
487.64	14542.47
488.00	14205.44
488.37	13872.10
488.73	13507.91
489.09	13142.74
489.45	12829.48
489.81	12522.54
490.17	12216.31
490.53	11940.97
490.89	11644.73
491.25	11327.89
491.61	11016.57
491.97	10698.94
492.33	10377.42
492.69	10076.01
493.05	9774.62
493.41	9476.90
493.77	9199.08
494.13	8940.35
494.49	8693.26
494.85	8459.77
495.21	8244.35
495.57	8017.60
495.93	7799.51
496.29	7587.92
496.64	7396.33
497.00	7197.78
497.36	7012.99
497.72	6826.34
498.08	6653.07
498.44	6469.83
498.80	6293.75
499.16	6122.89
499.52	5970.29
499.88	5831.80
500.24	5708.61
500.60	5586.30
500.96	5480.11
501.32	5361.72
501.68	5242.43
502.03	5116.04
502.39	4989.44
502.75	4844.89
503.11	4722.36
503.47	4602.66
503.83	4475.08
504.19	4360.91
504.55	4259.12
504.91	4156.30
505.26	4059.26
505.62	3981.70
505.98	3890.86
506.34	3802.18
506.70	3711.74
507.06	3621.93
507.42	3524.10
507.78	3447.30
508.13	3368.34
508.49	3296.97
508.85	3225.05
509.21	3162.41
509.57	3098.87
509.93	3034.86
510.28	2963.89
510.64	2902.01
511.00	2836.28
511.36	2771.19
511.72	2718.09
512.07	2670.93
512.43	2619.93
512.79	2569.18
513.15	2524.06
513.51	2470.55
513.86	2421.71
514.22	2379.83
514.58	2341.68
514.94	2300.63
515.30	2269.78
515.65	2235.24
516.01	2203.26
516.37	2175.36
516.73	2150.95
517.08	2123.03
517.44	2091.76
517.80	2064.31
518.16	2038.33
518.51	2007.24
518.87	1979.11
519.23	1954.60
519.59	1921.49
519.94	1887.36
520.30	1857.78
520.66	1828.85
521.01	1805.28
521.37	1785.62
521.73	1768.84
522.09	1748.22
522.44	1729.77
522.80	1708.54
523.16	1691.58
523.51	1670.42
523.87	1656.54
524.23	1638.59
524.58	1619.28
524.94	1599.55
525.30	1580.00
525.65	1562.14
526.01	1544.43
526.37	1531.95
526.72	1519.22
527.08	1508.26
527.44	1494.39
527.79	1485.82
528.15	1469.95
528.51	1457.80
528.86	1447.41
529.22	1433.74
529.58	1417.57
529.93	1410.78
530.29	1400.46
530.65	1388.17
531.00	1380.05
531.36	1374.32
531.71	1365.37
532.07	1356.79
532.43	1349.13
532.78	1342.98
533.14	1336.12
533.49	1329.99
533.85	1320.95
534.21	1314.37
534.56	1306.39
534.92	1297.10
535.27	1287.48
535.63	1282.52
535.98	1278.05
536.34	1271.57
536.69	1266.51
537.05	1260.57
537.41	1254.64
537.76	1248.07
538.12	1245.89
538.47	1242.85
538.83	1244.81
539.18	1242.82
539.54	1239.20
539.89	1231.15
540.25	1226.63
540.60	1218.86
540.96	1213.87
541.31	1208.35
541.67	1206.57
542.02	1201.16
542.38	1196.13
542.73	1191.03
543.09	1192.13
543.44	1189.72
543.80	1184.22
544.15	1183.91
544.51	1183.40
544.86	1178.95
545.22	1175.09
545.57	1179.42
545.93	1177.85
546.28	1173.85
546.64	1172.14
546.99	1169.05
547.35	1165.52
547.70	1161.91
548.05	1161.75
548.41	1159.78
548.76	1158.89
549.12	1155.01
549.47	1152.60
549.83	1153.37
550.18	1148.71
550.53	1143.33
550.89	1142.42
551.24	1141.15
551.60	1135.32
551.95	1136.61
552.30	1138.23
552.66	1135.42
553.01	1134.90
553.37	1132.35
553.72	1131.86
554.07	1131.79
554.43	1134.95
554.78	1134.25
555.13	1135.39
555.49	1133.76
555.84	1130.13
556.19	1125.77
556.55	1125.42
556.90	1125.61
557.26	1124.91
557.61	1128.49
557.96	1130.08
558.32	1126.71
558.67	1123.71
559.02	1121.12
559.37	1119.71
559.73	1118.52
560.08	1118.35
560.43	1118.85
560.79	1119.62
561.14	1117.09
561.49	1112.20
561.85	1115.27
562.20	1115.38
562.55	1111.78
562.90	1113.23
563.26	1114.66
563.61	1111.15
563.96	1109.25
564.32	1110.26
564.67	1109.18
565.02	1109.60
565.37	1108.06
565.73	1107.12
566.08	1107.21
566.43	1103.59
566.78	1104.62
567.14	1106.56
567.49	1106.44
567.84	1106.51
568.19	1106.21
568.54	1101.95
568.90	1096.63
569.25	1096.94
569.60	1096.73
569.95	1096.68
570.31	1098.04
570.66	1100.50
571.01	1102.91
571.36	1103.47
571.71	1106.11
572.06	1108.08
572.42	1107.54
572.77	1102.84
573.12	1100.94
573.47	1097.73
573.82	1094.62
574.18	1092.61
574.53	1094.50
574.88	1093.92
575.23	1097.50
575.58	1095.51
575.93	1096.12
576.28	1096.68
576.64	1095.49
576.99	1091.16
577.34	1094.32
577.69	1094.65
578.04	1093.08
578.39	1090.60
578.74	1091.98
579.09	1093.05
579.44	1091.25
579.80	1091.20
580.15	1093.26
580.50	1091.74
580.85	1089.17
581.20	1091.42
581.55	1092.09
581.90	1092.26
582.25	1090.55
582.60	1092.35
582.95	1096.66
583.30	1093.36
583.65	1093.57
584.00	1097.55
584.35	1095.56
584.71	1092.54
585.06	1092.66
585.41	1089.19
585.76	1085.96
586.11	1087.02
586.46	1084.04
586.81	1086.22
587.16	1089.24
587.51	1088.35
587.86	1084.70
588.21	1085.21
588.56	1086.87
588.91	1085.49
589.26	1084.56
589.61	1085.68
589.96	1086.45
590.31	1083.88
590.66	1083.29
591.01	1087.79
591.36	1090.39
591.71	1090.46
592.06	1088.30
592.41	1089.24
592.76	1087.60
593.10	1088.02
593.45	1085.26
593.80	1086.36
594.15	1085.96
594.50	1084.86
594.85	1085.33
595.20	1086.24
595.55	1087.72
595.90	1087.58
596.25	1087.72
596.60	1083.46
596.95	1085.10
597.30	1088.63
597.64	1098.39
597.99	1102.67
598.34	1102.70
598.69	1101.53
599.04	1096.78
599.39	1088.91
599.74	1086.55
600.09	1089.54
600.44	1091.67
600.78	1094.69
601.13	1092.00
601.48	1090.83
601.83	1089.19
602.18	1088.75
602.53	1084.16
602.88	1085.28
603.22	1084.04
603.57	1083.04
603.92	1079.06
604.27	1078.17
604.62	1076.39
604.97	1077.00
605.31	1076.18
605.66	1079.36
606.01	1085.40
606.36	1086.34
606.71	1086.41
607.05	1089.33
607.40	1088.91
607.75	1087.30
608.10	1090.20
608.44	1090.10
608.79	1089.59
609.14	1089.31
609.49	1085.03
609.84	1081.26
610.18	1077.04
610.53	1074.91
610.88	1076.23
611.23	1079.17
611.57	1077.79
611.92	1083.69
612.27	1085.77
612.62	1083.20
612.96	1081.16
613.31	1084.86
613.66	1084.14
614.00	1086.41
614.35	1088.19
614.70	1089.73
615.05	1089.22
615.39	1089.22
615.74	1085.10
616.09	1084.56
616.43	1082.87
616.78	1083.60
617.13	1082.64
617.47	1085.03
617.82	1084.81
618.17	1085.84
618.51	1087.23
618.86	1089.85
619.21	1089.12
619.55	1086.83
619.90	1087.37
620.25	1085.77
620.59	1084.49
620.94	1082.94
621.29	1085.68
621.63	1084.96
621.98	1083.06
622.32	1079.95
622.67	1079.92
623.02	1079.67
623.36	1084.93
623.71	1085.80
624.05	1087.93
624.40	1091.39
624.75	1093.43
625.09	1091.09
625.44	1095.51
625.78	1096.10
626.13	1092.21
626.48	1089.24
626.82	1088.65
627.17	1083.93
627.51	1085.33
627.86	1088.63
628.20	1091.25
628.55	1091.77
628.89	1094.60
629.24	1092.49
629.58	1091.53
629.93	1088.86
630.28	1086.55
630.62	1085.42
630.97	1084.35
631.31	1081.14
631.66	1084.51
632.00	1083.46
632.35	1082.24
632.69	1082.52
633.04	1085.05
633.38	1080.30
633.73	1080.04
634.07	1081.35
634.42	1083.32
634.76	1084.18
635.11	1084.25
635.45	1084.79
635.79	1083.20
636.14	1081.05
636.48	1079.97
636.83	1079.08
637.17	1076.13
637.52	1077.79
637.86	1078.68
638.21	1078.14
638.55	1082.05
638.89	1085.24
639.24	1083.90
639.58	1085.21
639.93	1084.04
640.27	1084.98
640.61	1084.49
640.96	1083.74
641.30	1080.37
641.65	1081.56
641.99	1077.49
642.33	1078.24
642.68	1079.38
643.02	1082.83
643.37	1083.15
643.71	1085.73
644.05	1087.48
644.40	1085.70
644.74	1085.77
645.08	1085.75
645.43	1085.49
645.77	1082.64
646.11	1085.68
646.46	1087.32
646.80	1087.51
647.14	1087.76
647.49	1087.51
647.83	1083.43
648.17	1080.20
648.52	1079.34
648.86	1077.58
649.20	1081.66
649.55	1082.94
649.89	1084.53
650.23	1084.30
650.57	1084.79
650.92	1082.03
651.26	1082.40
651.60	1080.72
651.95	1082.01
652.29	1085.26
652.63	1084.72
652.97	1085.00
653.32	1085.14
653.66	1083.48
654.00	1079.64
654.34	1079.64
654.69	1079.69
655.03	1080.74
655.37	1081.44
655.71	1081.54
656.05	1084.11
656.40	1082.50
656.74	1083.60
657.08	1082.66
657.42	1081.09
657.76	1079.60
658.11	1083.36
658.45	1080.74
658.79	1082.76
659.13	1087.39
659.47	1085.40
659.82	1084.44
660.16	1086.80
660.50	1085.61
660.84	1083.08
661.18	1085.21
661.52	1084.70
661.87	1085.07
662.21	1085.19
662.55	1085.84
662.89	1085.96
663.23	1087.16
663.57	1085.40
663.91	1084.07
664.25	1082.52
664.60	1081.49
664.94	1079.38
665.28	1074.80
665.62	1073.79
665.96	1074.07
666.30	1074.40
666.64	1076.41
666.98	1078.52
667.32	1079.71
667.66	1079.78
668.01	1079.92
668.35	1078.57
668.69	1079.15
669.03	1081.02
669.37	1080.30
669.71	1080.72
670.05	1080.16
670.39	1083.50
670.73	1081.61
671.07	1082.94
671.41	1081.12
671.75	1083.81
672.09	1081.82
672.43	1082.29
672.77	1080.41
673.11	1082.73
673.45	1081.70
673.79	1081.75
674.13	1083.08
674.47	1085.56
674.81	1086.62
675.15	1084.77
675.49	1083.95
675.83	1085.38
676.17	1085.42
676.51	1085.47
676.85	1086.50
677.19	1085.61
677.53	1082.97
677.87	1083.39
678.21	1080.58
678.55	1081.33
678.89	1083.76
679.23	1084.79
679.57	1085.00
679.90	1085.59
680.24	1085.14
680.58	1084.58
680.92	1083.15
681.26	1082.33
681.60	1082.10
681.94	1082.19
682.28	1080.51
682.62	1077.21
682.96	1074.17
683.29	1073.84
683.63	1072.92
683.97	1075.34
684.31	1078.50
684.65	1081.30
684.99	1082.76
685.33	1082.12
685.67	1079.57
686.00	1079.60
686.34	1079.95
686.68	1077.37
687.02	1078.03
687.36	1078.24
687.70	1079.24
688.03	1077.30
688.37	1077.93
688.71	1079.08
689.05	1080.32
689.39	1076.72
689.72	1078.94
690.06	1079.27
690.40	1078.96
690.74	1077.79
691.08	1081.77
691.41	1081.00
691.75	1080.16
692.09	1076.95
692.43	1078.12
692.76	1077.58
693.10	1078.07
693.44	1078.61
693.78	1083.08
694.11	1084.07
694.45	1082.90
694.79	1084.72
695.13	1082.40
695.46	1079.81
695.80	1079.13
696.14	1081.84
696.48	1078.99
696.81	1081.21
697.15	1081.16
697.49	1079.95
697.82	1077.58
698.16	1077.30
698.50	1077.56
698.83	1076.74
699.17	1077.30
699.51	1077.56
699.84	1078.52
700.18	1080.32
700.52	1079.17
700.85	1081.87
701.19	1083.39
701.53	1087.53
701.86	1086.97
702.20	1089.12
702.54	1087.72
702.87	1086.57
703.21	1081.84
703.55	1081.05
703.88	1080.74
704.22	1077.00
704.55	1074.26
704.89	1073.74
705.23	1073.51
705.56	1072.43
705.90	1075.66
706.23	1079.10
706.57	1081.28
706.91	1081.68
707.24	1084.14
707.58	1081.84
707.91	1080.18
708.25	1081.26
708.58	1079.95
708.92	1078.87
709.26	1080.34
709.59	1081.96
709.93	1078.31
710.26	1080.74
710.60	1083.67
710.93	1084.60
711.27	1083.55
711.60	1084.86
711.94	1082.45
712.27	1080.25
712.61	1076.30
712.94	1076.88
713.28	1076.39
713.61	1079.41
713.95	1079.85
714.28	1083.62
714.62	1085.66
714.95	1083.81
715.29	1082.38
715.62	1079.83
715.96	1078.92
716.29	1078.31
716.63	1081.12
716.96	1081.47
717.29	1081.23
717.63	1082.08
717.96	1082.54
718.30	1082.83
718.63	1082.40
718.97	1082.94
719.30	1080.30
719.63	1079.76
719.97	1077.65
720.30	1076.39
720.64	1077.79
720.97	1079.92
721.30	1079.13
721.64	1080.27
721.97	1080.56
722.31	1081.05
722.64	1080.23
722.97	1080.91
723.31	1081.26
723.64	1080.37
723.97	1079.71
724.31	1079.71
724.64	1078.45
724.98	1077.37
725.31	1080.51
725.64	1082.99
725.98	1083.81
726.31	1082.50
726.64	1083.76
726.97	1082.99
727.31	1081.61
727.64	1081.61
727.97	1083.74
728.31	1084.51
728.64	1085.66
728.97	1086.41
729.31	1088.86
729.64	1091.02
729.97	1087.44
730.30	1085.05
730.64	1082.33
730.97	1078.05
731.30	1074.89
731.63	1076.46
731.97	1076.01
732.30	1078.96
732.63	1081.91
732.96	1081.33
733.30	1082.29
733.63	1084.04
733.96	1082.03
734.29	1081.51
734.63	1084.70
734.96	1086.99
735.29	1086.97
735.62	1086.80
735.95	1086.80
736.29	1084.25
736.62	1082.24
736.95	1079.95
737.28	1076.15
737.61	1075.80
737.94	1076.79
738.28	1077.18
738.61	1079.41
738.94	1085.68
739.27	1085.89
739.60	1087.48
739.93	1085.07
740.27	1084.63
740.60	1081.58
740.93	1078.47
741.26	1076.53
741.59	1076.44
741.92	1076.37
742.25	1078.40
742.58	1081.80
742.91	1083.90
743.25	1084.30
743.58	1084.49
743.91	1082.33
744.24	1079.34
744.57	1077.16
744.90	1075.55
745.23	1074.75
745.56	1076.13
745.89	1081.00
746.22	1080.41
746.55	1080.72
746.88	1082.80
747.21	1080.20
747.54	1075.99
747.87	1076.72
748.20	1082.08
748.53	1081.14
748.87	1084.46
749.20	1086.24
749.53	1085.82
749.86	1082.01
750.19	1080.70
750.52	1078.68
750.85	1078.92
751.18	1076.74
751.51	1077.51
751.84	1077.18
752.16	1077.79
752.49	1077.18
752.82	1077.11
753.15	1076.90
753.48	1078.54
753.81	1075.62
754.14	1076.06
754.47	1078.82
754.80	1080.32
755.13	1081.44
755.46	1083.50
755.79	1084.16
756.12	1084.96
756.45	1083.62
756.78	1082.73
757.11	1084.02
757.43	1081.63
757.76	1078.43
758.09	1077.47
758.42	1076.97
758.75	1076.46
759.08	1076.88
759.41	1077.96
759.74	1080.79
760.07	1079.76
760.39	1080.86
760.72	1083.15
761.05	1083.60
761.38	1080.32
761.71	1079.76
762.04	1079.76
762.36	1080.04
762.69	1080.06
763.02	1083.88
763.35	1084.37
763.68	1085.28
764.01	1083.60
764.33	1082.43
764.66	1080.70
764.99	1081.12
765.32	1080.20
765.65	1078.71
765.97	1077.33
766.30	1075.76
766.63	1076.72
766.96	1074.26
767.28	1075.36
767.61	1078.00
767.94	1078.45
768.27	1078.54
768.59	1078.99
768.92	1079.71
769.25	1080.27
769.58	1082.10
769.90	1082.10
770.23	1082.73
770.56	1083.53
770.89	1082.83
771.21	1080.51
771.54	1079.22
771.87	1077.28
772.19	1076.69
772.52	1077.49
772.85	1078.73
773.17	1075.15
773.50	1075.71
773.83	1073.46
774.15	1071.68
774.48	1071.01
774.81	1074.52
775.13	1075.62
775.46	1077.77
775.79	1078.59
776.11	1078.38
776.44	1078.89
776.77	1081.94
777.09	1081.98
777.42	1082.64
777.74	1083.08
778.07	1084.91
778.40	1083.20
778.72	1083.25
779.05	1082.76
779.37	1082.03
779.70	1078.80
780.03	1076.93
780.35	1077.61
780.68	1078.45
781.00	1078.57
781.33	1080.70
781.65	1077.54
781.98	1076.15
782.31	1072.01
782.63	1072.08
782.96	1070.30
783.28	1074.84
783.61	1075.57
783.93	1079.20
784.26	1079.92
784.58	1079.41
784.91	1078.40
785.23	1079.83
785.56	1079.24
785.88	1079.60
786.21	1081.30
786.53	1079.88
786.86	1077.25
787.18	1076.04
787.51	1074.33
787.83	1074.75
788.16	1079.29
788.48	1080.37
788.81	1083.90
789.13	1085.03
789.46	1081.77
789.78	1079.95
790.10	1080.67
790.43	1080.16
790.75	1079.48
791.08	1080.65
791.40	1079.38
791.73	1078.59
792.05	1077.11
792.37	1076.04
792.70	1077.82
793.02	1077.96
793.35	1076.20
793.67	1078.07
793.99	1081.23
794.32	1080.02
794.64	1082.47
794.96	1080.09
795.29	1078.28
795.61	1076.44
795.93	1076.27
796.26	1076.86
796.58	1078.96
796.91	1078.19
797.23	1080.88
797.55	1083.08
797.87	1080.98
798.20	1083.55
798.52	1083.57
798.84	1078.52
799.17	1076.46
799.49	1074.87
799.81	1071.33
800.14	1073.32
800.46	1077.72
800.78	1077.18
801.10	1081.37
801.43	1080.91
801.75	1078.33
802.07	1078.43
802.40	1081.26
802.72	1079.10
803.04	1082.22
803.36	1086.36
803.69	1082.92
804.01	1080.44
804.33	1080.58
804.65	1080.20
804.97	1077.89
805.30	1079.43
805.62	1082.01
805.94	1079.29
806.26	1080.13
806.58	1080.46
806.91	1079.95
807.23	1075.85
807.55	1078.96
807.87	1078.89
808.19	1077.14
808.52	1077.30
808.84	1078.82
809.16	1079.57
809.48	1080.39
809.80	1082.01
810.12	1081.33
810.44	1084.00
810.77	1080.63
811.09	1080.27
811.41	1082.17
811.73	1080.74
812.05	1080.20
812.37	1080.60
812.69	1081.16
813.01	1080.46
813.33	1083.86
813.66	1080.41
813.98	1084.46
814.30	1085.35
814.62	1083.74
814.94	1079.92
815.26	1081.58
815.58	1077.70
815.90	1073.93
816.22	1075.71
816.54	1079.53
816.86	1080.34
817.18	1079.06
817.50	1079.97
817.82	1077.75
818.14	1076.25
818.46	1079.46
818.78	1077.89
819.10	1078.24
819.42	1079.92
819.74	1080.53
820.06	1077.33
820.38	1080.56
820.70	1080.95
821.02	1081.00
821.34	1082.57
821.66	1082.15
821.98	1084.14
822.30	1083.04
822.62	1080.39
822.94	1077.28
823.26	1078.61
823.58	1076.53
823.90	1076.76
824.22	1078.78
824.54	1081.28
824.86	1080.37
825.18	1081.80
825.50	1080.37
825.81	1079.38
826.13	1078.73
826.45	1076.74
826.77	1076.55
827.09	1075.43
827.41	1076.81
827.73	1074.24
828.05	1075.85
828.36	1078.00
828.68	1080.98
829.00	1078.05
829.32	1081.40
829.64	1082.92
829.96	1078.85
830.28	1079.38
830.59	1080.18
830.91	1079.31
831.23	1076.90
831.55	1077.11
831.87	1076.88
832.19	1078.17
832.50	1080.53
832.82	1080.95
833.14	1081.61
833.46	1080.27
833.78	1078.96
834.09	1075.78
834.41	1075.15
834.73	1076.46
835.05	1076.25
835.36	1078.40
835.68	1077.84
836.00	1079.06
836.32	1077.89
836.63	1079.71
836.95	1077.47
837.27	1079.53
837.59	1079.13
837.90	1076.37
838.22	1074.68
838.54	1075.69
838.85	1073.11
839.17	1072.29
839.49	1072.11
839.80	1072.27
840.12	1073.58
840.44	1074.94
840.76	1077.04
841.07	1078.19
841.39	1077.00
841.71	1074.68
842.02	1070.21
842.34	1069.04
842.65	1070.49
842.97	1074.10
843.29	1076.08
843.60	1079.17
843.92	1077.79
844.24	1076.79
844.55	1073.86
844.87	1073.42
845.18	1075.38
845.50	1076.15
845.82	1075.55
846.13	1075.59
846.45	1074.73
846.76	1076.46
847.08	1077.44
847.40	1079.90
847.71	1081.96
848.03	1083.57
848.34	1081.87
848.66	1083.79
848.97	1083.41
849.29	1080.72
849.60	1077.68
849.92	1077.77
850.24	1075.64
850.55	1077.21
850.87	1080.72
851.18	1081.14
851.50	1078.45
851.81	1080.65
852.13	1077.82
852.44	1075.52
852.76	1075.99
853.07	1080.20
853.39	1077.84
853.70	1080.48
854.01	1080.56
854.33	1080.51
854.64	1077.14
854.96	1075.17
855.27	1072.32
855.59	1072.85
855.90	1075.27
856.22	1077.91
856.53	1079.67
856.84	1081.75
857.16	1080.48
857.47	1078.36
857.79	1077.93
858.10	1079.97
858.41	1080.93
858.73	1083.88
859.04	1082.69
859.36	1083.13
859.67	1078.99
859.98	1077.70
860.30	1076.65
860.61	1075.94
860.92	1076.44
861.24	1077.98
861.55	1079.03
861.87	1079.71
862.18	1083.22
862.49	1082.94
862.81	1085.07
863.12	1086.24
863.43	1083.69
863.74	1084.18
864.06	1080.58
864.37	1077.72
864.68	1073.49
865.00	1075.34
865.31	1072.39
865.62	1072.95
865.94	1072.92
866.25	1073.74
866.56	1076.97
866.87	1080.13
867.19	1083.53
867.50	1086.13
867.81	1084.67
868.12	1079.97
868.44	1077.37
868.75	1074.82
869.06	1070.54
869.37	1073.28
869.68	1073.79
870.00	1073.98
870.31	1075.73
870.62	1080.37
870.93	1079.99
871.24	1077.84
871.56	1078.07
871.87	1076.23
872.18	1078.05
872.49	1077.23
872.80	1078.94
873.12	1080.58
873.43	1080.91
873.74	1074.75
874.05	1077.40
874.36	1078.24
874.67	1077.56
874.98	1075.52
875.29	1079.10
875.61	1076.95
875.92	1076.69
876.23	1076.23
876.54	1077.84
876.85	1077.70
877.16	1078.64
877.47	1079.29
877.78	1079.34
878.09	1079.50
878.40	1076.60
878.72	1079.97
879.03	1076.04
879.34	1073.77
879.65	1072.95
879.96	1076.08
880.27	1073.88
880.58	1075.20
880.89	1079.46
881.20	1081.87
881.51	1080.79
881.82	1079.08
882.13	1080.02
882.44	1078.73
882.75	1080.98
883.06	1078.33
883.37	1076.60
883.68	1078.14
883.99	1078.45
884.30	1075.80
884.61	1077.02
884.92	1078.24
885.23	1080.60
885.54	1076.81
885.85	1075.27
886.16	1074.63
886.47	1074.87
886.78	1070.87
887.08	1072.53
887.39	1072.32
887.70	1078.52
888.01	1079.90
888.32	1077.84
888.63	1078.45
888.94	1081.05
889.25	1076.39
889.56	1074.94
889.87	1078.82
890.17	1079.95
890.48	1080.46
890.79	1083.20
891.10	1084.84
891.41	1083.13
891.72	1081.96
892.03	1080.09
892.34	1076.97
892.64	1071.33
892.95	1073.28
893.26	1071.85
893.57	1073.98
893.88	1075.85
894.18	1080.16
894.49	1080.46
894.80	1081.23
895.11	1079.55
895.42	1076.51
895.72	1078.71
896.03	1077.30
896.34	1078.61
896.65	1081.56
896.96	1082.87
897.26	1079.36
897.57	1079.03
897.88	1077.09
898.19	1076.55
898.49	1075.66
898.80	1078.50
899.11	1076.93
899.41	1077.37
899.72	1074.24
900.03	1073.65
900.34	1072.76
900.64	1074.31
900.95	1073.67
901.26	1075.59
901.56	1075.69
901.87	1074.94
902.18	1076.32
902.48	1074.19
902.79	1071.90
903.10	1076.37
903.40	1074.89
903.71	1075.03
904.02	1077.61
904.32	1079.38
904.63	1077.25
904.94	1078.54
905.24	1079.01
905.55	1079.92
905.85	1077.75
906.16	1077.33
906.47	1080.11
906.77	1076.97
907.08	1078.54
907.38	1078.26
907.69	1079.48
908.00	1075.03
908.30	1073.25
908.61	1073.16
908.91	1075.69
909.22	1074.80
909.52	1076.20
909.83	1077.84
910.14	1078.14
910.44	1077.47
910.75	1076.34
911.05	1077.35
911.36	1078.87
911.66	1076.25
911.97	1076.58
912.27	1078.33
912.58	1076.58
912.88	1077.70
913.19	1080.46
913.49	1081.54
913.80	1079.15
914.10	1082.26
914.41	1081.16
914.71	1079.10
915.01	1078.05
915.32	1081.26
915.62	1078.43
915.93	1078.03
916.23	1077.30
916.54	1077.33
916.84	1075.57
917.15	1077.98
917.45	1076.37
917.75	1078.66
918.06	1076.88
918.36	1079.08
918.67	1078.03
918.97	1079.15
919.27	1077.93
919.58	1077.63
919.88	1076.79
920.18	1076.13
920.49	1076.97
920.79	1075.64
921.10	1075.83
921.40	1076.90
921.70	1077.70
922.01	1077.70
922.31	1079.08
922.61	1080.16
922.92	1078.43
923.22	1079.64
923.52	1079.48
923.82	1080.86
924.13	1081.35
924.43	1080.06
924.73	1081.75
925.04	1082.76
925.34	1079.53
925.64	1076.79
925.94	1076.93
926.25	1072.67
926.55	1073.46
926.85	1075.03
927.15	1078.28
927.46	1079.83
927.76	1080.60
928.06	1079.24
928.36	1079.46
928.67	1078.94
928.97	1077.42
929.27	1077.00
929.57	1077.61
929.87	1079.06
930.18	1077.75
930.48	1077.18
930.78	1077.65
931.08	1074.70
931.38	1074.28
931.69	1074.70
931.99	1075.97
932.29	1075.94
932.59	1076.58
932.89	1074.73
933.19	1072.83
933.49	1074.80
933.80	1073.11
934.10	1074.26
934.40	1076.58
934.70	1077.42
935.00	1071.71
935.30	1073.37
935.60	1072.11
935.90	1068.71
936.20	1069.81
936.50	1074.91
936.81	1075.55
937.11	1077.42
937.41	1078.80
937.71	1076.55
938.01	1077.21
938.31	1076.18
938.61	1072.90
938.91	1073.84
939.21	1076.93
939.51	1073.93
939.81	1072.50
940.11	1075.24
940.41	1074.42
940.71	1074.59
941.01	1076.11
941.31	1077.42
941.61	1077.86
941.91	1078.12
942.21	1074.91
942.51	1072.06
942.81	1074.87
943.11	1074.66
943.41	1072.46
943.71	1073.51
944.01	1073.42
944.31	1070.75
944.61	1070.05
944.90	1073.00
945.20	1075.13
945.50	1075.85
945.80	1073.53
946.10	1074.47
946.40	1075.80
946.70	1071.94
947.00	1075.22
947.30	1079.74
947.60	1078.80
947.89	1077.18
948.19	1079.06
948.49	1076.44
948.79	1075.90
949.09	1079.03
949.39	1080.81
949.69	1082.54
949.98	1081.91
950.28	1083.64
950.58	1080.48
950.88	1077.72
951.18	1075.76
951.48	1077.11
951.77	1074.77
952.07	1074.94
952.37	1074.10
952.67	1075.92
952.97	1075.34
953.26	1074.63
953.56	1074.66
953.86	1079.64
954.16	1078.80
954.45	1079.17
954.75	1079.55
955.05	1081.47
955.35	1076.76
955.64	1078.17
955.94	1079.31
956.24	1078.17
956.54	1078.19
956.83	1081.37
957.13	1083.06
957.43	1084.58
957.72	1085.77
958.02	1085.35
958.32	1082.40
958.61	1079.36
958.91	1077.98
959.21	1078.33
959.50	1078.47
959.80	1080.20
960.10	1082.64
960.39	1079.88
960.69	1079.95
960.99	1077.77
961.28	1082.90
961.58	1080.04
961.87	1082.03
962.17	1081.21
962.47	1084.74
962.76	1082.05
963.06	1082.73
963.36	1084.25
963.65	1083.34
963.95	1082.47
964.24	1080.06
964.54	1079.41
964.83	1076.55
965.13	1077.58
965.42	1076.13
965.72	1077.23
966.02	1078.07
966.31	1080.51
966.61	1082.45
966.90	1081.75
967.20	1079.67
967.49	1083.34
967.79	1081.51
968.08	1077.65
968.38	1079.62
968.67	1080.23
968.97	1075.50
969.26	1075.92
969.56	1075.87
969.85	1077.04
970.15	1074.28
970.44	1073.30
970.74	1073.98
971.03	1077.49
971.32	1076.46
971.62	1080.79
971.91	1083.97
972.21	1082.80
972.50	1083.15
972.80	1082.78
973.09	1079.85
973.38	1078.50
973.68	1079.85
973.97	1077.72
974.27	1077.07
974.56	1077.23
974.85	1074.82
975.15	1074.94
975.44	1072.41
975.73	1071.29
976.03	1071.40
976.32	1074.87
976.61	1074.82
976.91	1080.65
977.20	1081.28
977.49	1081.07
977.79	1078.96
978.08	1081.77
978.37	1081.19
978.67	1080.34
978.96	1079.46
979.25	1082.40
979.55	1078.61
979.84	1073.67
980.13	1074.21
980.42	1075.99
980.72	1075.10
981.01	1074.73
981.30	1076.79
981.59	1078.21
981.89	1077.79
982.18	1076.20
982.47	1075.48
982.76	1076.32
983.06	1076.30
983.35	1075.90
983.64	1080.65
983.93	1085.03
984.22	1084.30
984.52	1086.06
984.81	1088.84
985.10	1084.07
985.39	1083.62
985.68	1083.67
985.97	1078.26
986.27	1077.79
986.56	1080.18
986.85	1076.65
987.14	1077.21
987.43	1079.29
987.72	1076.53
988.01	1075.24
988.31	1075.85
988.60	1075.69
988.89	1077.56
989.18	1080.67
989.47	1080.34
989.76	1081.51
990.05	1084.77
990.34	1083.04
990.63	1080.41
990.92	1077.93
991.21	1079.15
991.51	1077.18
991.80	1078.38
992.09	1081.09
992.38	1084.77
992.67	1083.97
992.96	1082.43
993.25	1082.29
993.54	1081.49
993.83	1080.51
994.12	1081.44
994.41	1080.60
994.70	1080.91
994.99	1083.64
995.28	1084.70
995.57	1082.03
995.86	1083.74
996.15	1084.42
996.44	1080.41
996.73	1080.63
997.02	1078.64
997.31	1077.09
997.59	1074.68
997.88	1073.44
998.17	1070.19
998.46	1072.57
998.75	1072.22
999.04	1073.44
999.33	1075.05
999.62	1078.43
999.91	1081.70
1000.20	1082.03
1000.49	1082.47
1000.77	1081.35
1001.06	1079.57
1001.35	1076.81
1001.64	1077.51
1001.93	1076.48
1002.22	1075.27
1002.51	1075.08
1002.79	1075.71
1003.08	1076.58
1003.37	1076.72
1003.66	1079.74
1003.95	1079.64
1004.23	1078.40
1004.52	1076.46
1004.81	1075.99
1005.10	1075.17
1005.39	1077.49
1005.67	1079.29
1005.96	1078.68
1006.25	1079.69
1006.54	1078.71
1006.83	1075.94
1007.11	1073.86
1007.40	1074.59
1007.69	1075.73
1007.97	1077.09
1008.26	1079.08
1008.55	1079.88
1008.84	1077.02
1009.12	1073.95
1009.41	1074.91
1009.70	1074.63
1009.98	1074.05
1010.27	1078.66
1010.56	1080.98
1010.85	1077.79
1011.13	1077.28
1011.42	1075.66
1011.71	1073.98
1011.99	1068.45
1012.28	1068.62
1012.56	1068.38
1012.85	1070.72
1013.14	1072.62
1013.42	1079.36
1013.71	1081.91
1014.00	1080.39
1014.28	1080.16
1014.57	1078.92
1014.85	1076.81
1015.14	1074.98
1015.43	1077.25
1015.71	1074.38
1016.00	1076.27
1016.28	1074.56
1016.57	1073.32
1016.85	1074.05
1017.14	1075.76
1017.43	1074.61
1017.71	1077.77
1018.00	1079.46
1018.28	1078.28
1018.57	1083.22
1018.85	1080.65
1019.14	1079.13
1019.42	1077.61
1019.71	1075.10
1019.99	1070.89
1020.28	1071.08
1020.56	1070.72
1020.85	1072.85
1021.13	1074.10
1021.42	1074.24
1021.70	1074.12
1021.99	1072.69
1022.27	1072.53
1022.55	1067.87
1022.84	1077.23
>>>>>End Processed Spectral Data<<<<<
