SpectraSuite Data File
++++++++++++++++++++++++++++++++++++
Date: Mon Aug 26 10:22:02 PDT 2019
User: corrico
Dark Spectrum Present: No
Reference Spectrum Present: No
Number of Sampled Component Spectra: 1
Spectrometers: USB2+H06089
Integration Time (usec): 2000 (USB2+H06089)
Spectra Averaged: 20 (USB2+H06089)
Boxcar Smoothing: 2 (USB2+H06089)
Correct for Electrical Dark: No (USB2+H06089)
Strobe/Lamp Enabled: No (USB2+H06089)
Correct for Detector Non-linearity: No (USB2+H06089)
Correct for Stray Light: No (USB2+H06089)
Number of Pixels in Processed Spectrum: 2048
>>>>>Begin Processed Spectral Data<<<<<
339.70	1021.29
340.07	1021.29
340.45	991.08
340.82	968.98
341.19	948.90
341.57	924.16
341.94	911.76
342.31	901.62
342.69	900.71
343.06	896.10
343.43	895.79
343.81	897.97
344.18	900.87
344.55	901.32
344.93	906.54
345.30	913.77
345.67	920.06
346.04	928.63
346.42	938.98
346.79	947.21
347.16	957.77
347.54	965.54
347.91	972.96
348.28	982.74
348.65	992.32
349.03	999.13
349.40	1007.34
349.77	1019.07
350.14	1024.50
350.52	1030.14
350.89	1034.63
351.26	1042.17
351.63	1048.44
352.01	1053.45
352.38	1058.76
352.75	1063.47
353.12	1068.29
353.50	1069.44
353.87	1070.51
354.24	1074.70
354.61	1076.48
354.98	1074.56
355.36	1074.31
355.73	1077.68
356.10	1077.37
356.47	1078.92
356.84	1081.89
357.22	1085.89
357.59	1086.59
357.96	1085.47
358.33	1086.76
358.70	1086.99
359.08	1083.93
359.45	1085.33
359.82	1087.06
360.19	1084.74
360.56	1083.90
360.94	1086.01
361.31	1084.53
361.68	1080.11
362.05	1079.29
362.42	1079.55
362.79	1078.92
363.16	1078.92
363.54	1079.64
363.91	1081.05
364.28	1080.74
364.65	1079.36
365.02	1075.20
365.39	1073.88
365.76	1072.62
366.14	1070.82
366.51	1070.14
366.88	1073.25
367.25	1074.96
367.62	1075.85
367.99	1074.91
368.36	1074.75
368.73	1073.28
369.10	1072.25
369.48	1070.42
369.85	1072.43
370.22	1071.59
370.59	1073.98
370.96	1076.86
371.33	1080.09
371.70	1083.48
372.07	1086.22
372.44	1083.27
372.81	1082.64
373.18	1082.66
373.55	1077.86
373.93	1076.55
374.30	1074.73
374.67	1077.56
375.04	1077.51
375.41	1079.38
375.78	1077.79
376.15	1080.91
376.52	1079.38
376.89	1079.10
377.26	1077.02
377.63	1079.55
378.00	1080.48
378.37	1077.91
378.74	1073.53
379.11	1076.34
379.48	1074.61
379.85	1073.81
380.22	1075.94
380.59	1078.71
380.96	1080.37
381.33	1081.12
381.70	1078.54
382.07	1076.90
382.44	1076.88
382.81	1074.94
383.18	1073.95
383.55	1076.55
383.92	1076.15
384.29	1076.55
384.66	1078.66
385.03	1079.29
385.40	1082.52
385.77	1084.93
386.14	1087.09
386.51	1084.93
386.88	1085.19
387.25	1081.54
387.62	1078.14
387.99	1079.55
388.36	1080.63
388.73	1082.76
389.10	1084.39
389.46	1086.38
389.83	1084.96
390.20	1085.49
390.57	1083.71
390.94	1084.49
391.31	1088.68
391.68	1088.42
392.05	1090.13
392.42	1091.20
392.79	1090.13
393.16	1088.65
393.53	1089.89
393.89	1083.95
394.26	1085.00
394.63	1084.98
395.00	1084.35
395.37	1084.16
395.74	1089.94
396.11	1090.01
396.48	1094.76
396.84	1091.98
397.21	1091.30
397.58	1088.89
397.95	1088.02
398.32	1082.69
398.69	1084.21
399.06	1084.16
399.42	1081.94
399.79	1080.37
400.16	1082.33
400.53	1082.71
400.90	1079.27
401.27	1082.22
401.64	1082.87
402.00	1082.97
402.37	1085.12
402.74	1087.83
403.11	1085.91
403.48	1089.12
403.84	1088.49
404.21	1085.87
404.58	1088.70
404.95	1090.08
405.32	1089.50
405.68	1090.03
406.05	1093.19
406.42	1090.71
406.79	1094.01
407.16	1097.27
407.52	1096.66
407.89	1093.80
408.26	1096.47
408.63	1090.67
408.99	1086.73
409.36	1088.14
409.73	1091.32
410.10	1091.81
410.47	1097.43
410.83	1097.29
411.20	1098.02
411.57	1096.63
411.94	1096.82
412.30	1098.65
412.67	1097.64
413.04	1100.10
413.40	1102.84
413.77	1102.63
414.14	1098.95
414.51	1100.73
414.87	1098.72
415.24	1096.28
415.61	1095.14
415.97	1094.69
416.34	1094.65
416.71	1098.04
417.08	1100.50
417.44	1103.80
417.81	1108.55
418.18	1109.58
418.54	1107.96
418.91	1108.83
419.28	1110.02
419.64	1107.59
420.01	1111.38
420.38	1112.39
420.74	1111.66
421.11	1112.97
421.48	1118.45
421.84	1120.65
422.21	1123.78
422.58	1128.54
422.94	1128.21
423.31	1131.25
423.68	1129.45
424.04	1129.80
424.41	1130.55
424.77	1134.01
425.14	1134.15
425.51	1137.78
425.87	1141.15
426.24	1146.84
426.61	1151.82
426.97	1157.75
427.34	1161.80
427.70	1168.49
428.07	1176.24
428.44	1182.77
428.80	1187.92
429.17	1200.65
429.53	1209.52
429.90	1217.55
430.27	1227.56
430.63	1237.02
431.00	1246.85
431.36	1257.90
431.73	1272.95
432.09	1290.48
432.46	1311.17
432.83	1328.21
433.19	1348.66
433.56	1366.66
433.92	1386.30
434.29	1404.81
434.65	1426.51
435.02	1446.83
435.38	1470.96
435.75	1493.68
436.11	1521.61
436.48	1553.25
436.84	1588.99
437.21	1626.13
437.57	1666.16
437.94	1709.32
438.30	1754.68
438.67	1801.02
439.03	1849.77
439.40	1909.20
439.76	1961.81
440.13	2026.44
440.49	2098.24
440.86	2171.90
441.22	2248.60
441.59	2330.12
441.95	2411.27
442.32	2496.37
442.68	2590.62
443.05	2684.20
443.41	2790.53
443.78	2894.99
444.14	3007.28
444.51	3115.63
444.87	3249.20
445.24	3385.96
445.60	3537.09
445.96	3682.65
446.33	3857.27
446.69	4022.09
447.06	4207.86
447.42	4397.80
447.79	4603.97
448.15	4833.74
448.51	5065.06
448.88	5321.21
449.24	5564.51
449.61	5859.48
449.97	6147.21
450.33	6454.89
450.70	6753.05
451.06	7121.69
451.43	7457.27
451.79	7846.34
452.15	8257.67
452.52	8696.03
452.88	9143.58
453.24	9656.51
453.61	10203.54
453.97	10770.35
454.34	11323.65
454.70	11955.62
455.06	12587.47
455.43	13199.64
455.79	13772.06
456.15	14476.14
456.52	15152.84
456.88	15992.39
457.24	16802.61
457.61	17754.91
457.97	18620.11
458.33	19504.41
458.70	20322.71
459.06	21123.33
459.42	21984.70
459.79	22792.93
460.15	23704.95
460.51	24530.97
460.88	25398.56
461.24	26185.73
461.60	27109.40
461.96	27920.23
462.33	28736.61
462.69	29600.24
463.05	30506.47
463.42	31364.00
463.78	32140.73
464.14	32777.00
464.50	33457.14
464.87	33953.43
465.23	34255.82
465.59	34622.16
465.95	34970.25
466.32	35215.93
466.68	35442.85
467.04	35657.20
467.40	35795.61
467.77	35949.93
468.13	35973.89
468.49	35899.93
468.85	35816.73
469.22	35712.99
469.58	35487.95
469.94	35287.41
470.30	35081.47
470.66	34700.62
471.03	34125.99
471.39	33688.08
471.75	33014.75
472.11	32322.21
472.47	31848.56
472.84	31405.87
473.20	30755.15
473.56	30349.47
473.92	29807.05
474.28	29246.94
474.65	28696.28
475.01	28198.49
475.37	27586.21
475.73	27108.30
476.09	26574.93
476.45	26088.99
476.81	25636.80
477.18	25168.20
477.54	24768.65
477.90	24429.32
478.26	23989.81
478.62	23607.37
478.98	23296.80
479.34	22998.53
479.71	22572.73
480.07	22211.61
480.43	21851.55
480.79	21420.84
481.15	20970.19
481.51	20622.53
481.87	20321.37
482.23	19995.90
482.59	19730.44
482.96	19433.16
483.32	19108.06
483.68	18732.85
484.04	18393.85
484.40	18020.00
484.76	17687.38
485.12	17339.91
485.48	17040.06
485.84	16704.36
486.20	16394.70
486.56	16029.70
486.92	15715.67
487.28	15363.42
487.64	14997.80
488.00	14643.80
488.37	14274.15
488.73	13868.73
489.09	13462.53
489.45	13102.86
489.81	12749.39
490.17	12437.07
490.53	12140.69
490.89	11850.06
491.25	11529.08
491.61	11191.41
491.97	10873.43
492.33	10565.83
492.69	10270.29
493.05	10003.66
493.41	9736.46
493.77	9448.11
494.13	9184.73
494.49	8923.29
494.85	8655.44
495.21	8409.45
495.57	8200.07
495.93	7965.03
496.29	7741.30
496.64	7558.17
497.00	7359.53
497.36	7150.64
497.72	6980.91
498.08	6822.33
498.44	6649.42
498.80	6480.29
499.16	6316.71
499.52	6140.61
499.88	5985.33
500.24	5835.45
500.60	5700.30
500.96	5575.86
501.32	5450.66
501.68	5309.88
502.03	5172.72
502.39	5046.29
502.75	4914.52
503.11	4799.76
503.47	4693.76
503.83	4585.16
504.19	4475.36
504.55	4375.07
504.91	4270.35
505.26	4164.66
505.62	4057.93
505.98	3960.79
506.34	3859.31
506.70	3762.25
507.06	3676.68
507.42	3595.48
507.78	3517.10
508.13	3444.59
508.49	3374.44
508.85	3302.99
509.21	3232.12
509.57	3161.81
509.93	3093.06
510.28	3018.61
510.64	2952.94
511.00	2894.70
511.36	2832.14
511.72	2776.60
512.07	2730.40
512.43	2681.55
512.79	2630.34
513.15	2584.33
513.51	2534.82
513.86	2484.90
514.22	2439.14
514.58	2392.80
514.94	2348.33
515.30	2310.48
515.65	2269.03
516.01	2237.60
516.37	2204.97
516.73	2175.36
517.08	2141.68
517.44	2114.51
517.80	2080.31
518.16	2048.83
518.51	2017.31
518.87	1989.97
519.23	1962.94
519.59	1936.54
519.94	1909.55
520.30	1889.80
520.66	1861.66
521.01	1836.81
521.37	1811.39
521.73	1788.68
522.09	1759.83
522.44	1741.78
522.80	1717.37
523.16	1697.89
523.51	1678.91
523.87	1663.72
524.23	1644.88
524.58	1631.17
524.94	1613.10
525.30	1601.39
525.65	1580.28
526.01	1561.54
526.37	1547.98
526.72	1536.26
527.08	1518.31
527.44	1509.69
527.79	1501.76
528.15	1488.39
528.51	1473.77
528.86	1466.84
529.22	1453.75
529.58	1439.55
529.93	1428.87
530.29	1420.63
530.65	1405.56
531.00	1394.02
531.36	1384.89
531.71	1374.97
532.07	1362.10
532.43	1352.74
532.78	1345.93
533.14	1336.87
533.49	1327.29
533.85	1323.18
534.21	1318.70
534.56	1311.43
534.92	1308.08
535.27	1305.20
535.63	1296.26
535.98	1287.79
536.34	1282.80
536.69	1273.84
537.05	1265.27
537.41	1260.61
537.76	1255.02
538.12	1249.99
538.47	1243.99
538.83	1242.73
539.18	1238.94
539.54	1233.67
539.89	1230.42
540.25	1228.62
540.60	1224.69
540.96	1222.37
541.31	1223.09
541.67	1217.80
542.02	1213.78
542.38	1207.74
542.73	1202.75
543.09	1194.87
543.44	1194.66
543.80	1192.83
544.15	1191.99
544.51	1189.90
544.86	1189.02
545.22	1182.93
545.57	1183.26
545.93	1180.47
546.28	1180.38
546.64	1178.93
546.99	1179.49
547.35	1176.05
547.70	1174.20
548.05	1175.11
548.41	1176.59
548.76	1172.44
549.12	1166.01
549.47	1162.26
549.83	1153.39
550.18	1147.78
550.53	1147.33
550.89	1145.86
551.24	1144.73
551.60	1145.53
551.95	1143.68
552.30	1140.15
552.66	1139.51
553.01	1139.70
553.37	1136.73
553.72	1137.36
554.07	1138.46
554.43	1135.67
554.78	1131.41
555.13	1131.27
555.49	1128.49
555.84	1124.93
556.19	1125.89
556.55	1128.51
556.90	1125.70
557.26	1124.37
557.61	1122.45
557.96	1121.26
558.32	1119.41
558.67	1119.03
559.02	1119.34
559.37	1119.08
559.73	1117.89
560.08	1116.08
560.43	1116.69
560.79	1115.55
561.14	1114.91
561.49	1117.14
561.85	1116.62
562.20	1113.84
562.55	1108.76
562.90	1109.27
563.26	1107.71
563.61	1106.04
563.96	1108.83
564.32	1112.81
564.67	1113.09
565.02	1110.84
565.37	1111.52
565.73	1108.78
566.08	1109.44
566.43	1109.39
566.78	1109.60
567.14	1109.13
567.49	1107.73
567.84	1104.69
568.19	1104.26
568.54	1103.91
568.90	1100.71
569.25	1102.60
569.60	1103.21
569.95	1098.32
570.31	1098.18
570.66	1101.57
571.01	1100.12
571.36	1097.95
571.71	1098.65
572.06	1098.79
572.42	1097.22
572.77	1097.15
573.12	1098.62
573.47	1100.73
573.82	1098.41
574.18	1095.63
574.53	1094.32
574.88	1093.40
575.23	1094.60
575.58	1097.83
575.93	1099.63
576.28	1102.30
576.64	1103.02
576.99	1100.19
577.34	1098.79
577.69	1100.78
578.04	1099.33
578.39	1098.34
578.74	1096.94
579.09	1096.56
579.44	1096.35
579.80	1094.76
580.15	1094.39
580.50	1094.13
580.85	1094.65
581.20	1089.99
581.55	1090.20
581.90	1088.35
582.25	1089.52
582.60	1086.80
582.95	1087.16
583.30	1088.40
583.65	1089.43
584.00	1090.24
584.35	1090.95
584.71	1091.86
585.06	1093.38
585.41	1095.56
585.76	1093.85
586.11	1095.98
586.46	1099.75
586.81	1098.30
587.16	1095.96
587.51	1099.12
587.86	1101.46
588.21	1098.88
588.56	1098.32
588.91	1098.81
589.26	1092.56
589.61	1089.12
589.96	1089.59
590.31	1091.09
590.66	1090.97
591.01	1096.35
591.36	1095.07
591.71	1093.08
592.06	1088.14
592.41	1087.93
592.76	1089.45
593.10	1088.54
593.45	1086.69
593.80	1090.17
594.15	1091.30
594.50	1086.99
594.85	1086.50
595.20	1086.62
595.55	1086.01
595.90	1085.59
596.25	1085.84
596.60	1086.94
596.95	1087.81
597.30	1083.97
597.64	1094.48
597.99	1097.73
598.34	1096.52
598.69	1097.24
599.04	1101.29
599.39	1091.37
599.74	1090.64
600.09	1091.37
600.44	1091.58
600.78	1086.83
601.13	1084.11
601.48	1079.57
601.83	1078.21
602.18	1076.37
602.53	1080.41
602.88	1079.27
603.22	1079.24
603.57	1079.76
603.92	1079.31
604.27	1080.37
604.62	1079.10
604.97	1078.47
605.31	1081.54
605.66	1083.36
606.01	1078.73
606.36	1081.35
606.71	1084.30
607.05	1081.61
607.40	1081.70
607.75	1084.98
608.10	1085.05
608.44	1086.03
608.79	1090.90
609.14	1091.95
609.49	1089.94
609.84	1090.10
610.18	1088.61
610.53	1084.81
610.88	1083.11
611.23	1085.24
611.57	1087.11
611.92	1087.93
612.27	1088.65
612.62	1091.93
612.96	1089.94
613.31	1086.59
613.66	1084.35
614.00	1083.22
614.35	1083.71
614.70	1086.03
615.05	1088.23
615.39	1090.01
615.74	1092.09
616.09	1087.51
616.43	1083.90
616.78	1082.05
617.13	1082.22
617.47	1080.84
617.82	1078.94
618.17	1082.71
618.51	1086.97
618.86	1084.49
619.21	1080.77
619.55	1084.30
619.90	1084.07
620.25	1082.47
620.59	1085.10
620.94	1089.40
621.29	1089.43
621.63	1088.40
621.98	1085.35
622.32	1083.43
622.67	1081.58
623.02	1079.60
623.36	1079.99
623.71	1082.10
624.05	1084.46
624.40	1083.20
624.75	1083.81
625.09	1081.21
625.44	1082.50
625.78	1080.39
626.13	1079.53
626.48	1079.48
626.82	1082.54
627.17	1082.47
627.51	1082.47
627.86	1083.29
628.20	1082.99
628.55	1078.73
628.89	1073.39
629.24	1077.07
629.58	1079.92
629.93	1084.28
630.28	1087.65
630.62	1088.21
630.97	1088.65
631.31	1089.14
631.66	1084.44
632.00	1081.47
632.35	1085.03
632.69	1079.46
633.04	1076.58
633.38	1079.71
633.73	1082.01
634.07	1079.62
634.42	1080.37
634.76	1080.44
635.11	1074.82
635.45	1074.03
635.79	1076.90
636.14	1077.30
636.48	1079.78
636.83	1084.51
637.17	1088.09
637.52	1087.88
637.86	1087.74
638.21	1086.41
638.55	1084.81
638.89	1082.76
639.24	1081.00
639.58	1083.50
639.93	1081.98
640.27	1082.54
640.61	1079.88
640.96	1082.08
641.30	1081.98
641.65	1084.28
641.99	1086.20
642.33	1087.06
642.68	1085.54
643.02	1086.17
643.37	1088.23
643.71	1090.03
644.05	1089.45
644.40	1088.00
644.74	1085.17
645.08	1077.00
645.43	1072.25
645.77	1073.56
646.11	1074.66
646.46	1074.31
646.80	1079.60
647.14	1079.67
647.49	1080.09
647.83	1080.65
648.17	1083.36
648.52	1086.24
648.86	1089.57
649.20	1091.49
649.55	1088.56
649.89	1088.12
650.23	1084.58
650.57	1082.73
650.92	1080.84
651.26	1083.60
651.60	1081.16
651.95	1078.14
652.29	1076.41
652.63	1077.28
652.97	1079.64
653.32	1083.76
653.66	1086.71
654.00	1085.99
654.34	1086.69
654.69	1084.70
655.03	1083.29
655.37	1082.90
655.71	1085.31
656.05	1084.74
656.40	1085.07
656.74	1082.31
657.08	1081.73
657.42	1079.29
657.76	1081.26
658.11	1079.34
658.45	1081.73
658.79	1083.06
659.13	1086.50
659.47	1083.83
659.82	1083.71
660.16	1083.04
660.50	1084.86
660.84	1082.87
661.18	1082.47
661.52	1082.03
661.87	1083.55
662.21	1083.25
662.55	1083.71
662.89	1084.00
663.23	1085.80
663.57	1085.42
663.91	1082.78
664.25	1084.21
664.60	1081.80
664.94	1079.62
665.28	1079.01
665.62	1081.96
665.96	1080.02
666.30	1083.60
666.64	1086.62
666.98	1088.23
667.32	1086.08
667.66	1089.07
668.01	1085.28
668.35	1083.50
668.69	1080.53
669.03	1080.48
669.37	1077.82
669.71	1078.10
670.05	1077.11
670.39	1075.55
670.73	1075.66
671.07	1077.02
671.41	1078.82
671.75	1081.56
672.09	1082.73
672.43	1080.51
672.77	1078.28
673.11	1077.49
673.45	1075.20
673.79	1077.54
674.13	1080.06
674.47	1081.37
674.81	1083.20
675.15	1085.14
675.49	1082.66
675.83	1079.41
676.17	1081.68
676.51	1081.37
676.85	1081.26
677.19	1082.50
677.53	1087.11
677.87	1086.20
678.21	1085.28
678.55	1085.84
678.89	1082.61
679.23	1077.54
679.57	1076.97
679.90	1079.64
680.24	1076.34
680.58	1078.52
680.92	1079.95
681.26	1078.92
681.60	1075.31
681.94	1077.28
682.28	1077.21
682.62	1079.62
682.96	1079.31
683.29	1079.27
683.63	1077.86
683.97	1081.40
684.31	1081.00
684.65	1083.01
684.99	1082.15
685.33	1085.61
685.67	1082.43
686.00	1080.84
686.34	1075.64
686.68	1076.23
687.02	1076.01
687.36	1077.25
687.70	1080.84
688.03	1084.70
688.37	1087.95
688.71	1086.94
689.05	1087.09
689.39	1083.88
689.72	1082.57
690.06	1079.29
690.40	1078.17
690.74	1078.24
691.08	1079.85
691.41	1081.68
691.75	1084.96
692.09	1088.19
692.43	1088.56
692.76	1089.26
693.10	1090.69
693.44	1089.75
693.78	1088.58
694.11	1085.87
694.45	1084.77
694.79	1081.87
695.13	1081.82
695.46	1078.40
695.80	1075.92
696.14	1074.17
696.48	1074.26
696.81	1072.27
697.15	1073.77
697.49	1079.01
697.82	1080.20
698.16	1081.07
698.50	1082.10
698.83	1081.16
699.17	1081.12
699.51	1081.47
699.84	1080.67
700.18	1081.02
700.52	1086.06
700.85	1086.73
701.19	1088.09
701.53	1089.92
701.86	1088.28
702.20	1084.63
702.54	1081.33
702.87	1080.65
703.21	1078.82
703.55	1080.11
703.88	1082.97
704.22	1084.56
704.55	1083.43
704.89	1084.14
705.23	1081.94
705.56	1076.93
705.90	1077.44
706.23	1076.13
706.57	1076.11
706.91	1079.31
707.24	1080.65
707.58	1079.60
707.91	1079.97
708.25	1080.06
708.58	1080.44
708.92	1083.18
709.26	1081.44
709.59	1081.44
709.93	1080.48
710.26	1077.89
710.60	1076.13
710.93	1077.40
711.27	1078.66
711.60	1078.17
711.94	1078.73
712.27	1077.00
712.61	1078.99
712.94	1081.66
713.28	1083.18
713.61	1086.38
713.95	1089.07
714.28	1090.71
714.62	1088.98
714.95	1088.40
715.29	1085.84
715.62	1085.07
715.96	1079.62
716.29	1077.77
716.63	1077.47
716.96	1078.21
717.29	1080.04
717.63	1081.75
717.96	1081.87
718.30	1083.67
718.63	1079.34
718.97	1077.04
719.30	1075.92
719.63	1077.49
719.97	1078.28
720.30	1080.39
720.64	1082.08
720.97	1083.55
721.30	1081.40
721.64	1079.43
721.97	1082.61
722.31	1079.62
722.64	1080.84
722.97	1082.38
723.31	1081.44
723.64	1078.78
723.97	1082.94
724.31	1083.04
724.64	1080.41
724.98	1083.20
725.31	1082.24
725.64	1081.21
725.98	1082.10
726.31	1085.05
726.64	1082.33
726.97	1084.98
727.31	1083.67
727.64	1081.42
727.97	1078.64
728.31	1079.67
728.64	1081.40
728.97	1080.37
729.31	1081.63
729.64	1081.19
729.97	1080.51
730.30	1076.95
730.64	1074.24
730.97	1073.53
731.30	1075.27
731.63	1075.05
731.97	1077.40
732.30	1079.90
732.63	1080.63
732.96	1076.81
733.30	1074.87
733.63	1072.55
733.96	1073.30
734.29	1071.82
734.63	1076.25
734.96	1078.40
735.29	1079.24
735.62	1078.75
735.95	1078.00
736.29	1077.47
736.62	1078.61
736.95	1080.34
737.28	1083.74
737.61	1084.25
737.94	1086.52
738.28	1085.63
738.61	1085.24
738.94	1081.44
739.27	1082.26
739.60	1080.44
739.93	1077.89
740.27	1077.21
740.60	1079.48
740.93	1079.08
741.26	1079.22
741.59	1080.13
741.92	1080.72
742.25	1081.40
742.58	1080.88
742.91	1080.98
743.25	1081.51
743.58	1079.74
743.91	1079.97
744.24	1082.31
744.57	1083.76
744.90	1086.90
745.23	1084.07
745.56	1078.50
745.89	1077.51
746.22	1076.25
746.55	1073.65
746.88	1075.38
747.21	1081.16
747.54	1084.07
747.87	1082.12
748.20	1079.55
748.53	1081.51
748.87	1077.11
749.20	1074.54
749.53	1078.19
749.86	1082.80
750.19	1082.29
750.52	1086.17
750.85	1084.14
751.18	1082.94
751.51	1083.36
751.84	1082.83
752.16	1078.03
752.49	1078.52
752.82	1081.07
753.15	1078.54
753.48	1079.92
753.81	1082.69
754.14	1084.60
754.47	1083.08
754.80	1083.11
755.13	1081.40
755.46	1080.67
755.79	1080.16
756.12	1078.28
756.45	1078.03
756.78	1075.66
757.11	1072.39
757.43	1074.26
757.76	1073.37
758.09	1074.00
758.42	1077.25
758.75	1080.77
759.08	1077.02
759.41	1081.12
759.74	1080.56
760.07	1080.39
760.39	1081.33
760.72	1082.90
761.05	1081.09
761.38	1082.17
761.71	1080.65
762.04	1080.51
762.36	1080.23
762.69	1079.53
763.02	1078.82
763.35	1077.82
763.68	1075.50
764.01	1075.52
764.33	1072.50
764.66	1072.62
764.99	1075.10
765.32	1078.40
765.65	1079.24
765.97	1079.83
766.30	1079.74
766.63	1081.19
766.96	1079.69
767.28	1080.91
767.61	1083.11
767.94	1084.53
768.27	1083.08
768.59	1081.21
768.92	1078.31
769.25	1077.54
769.58	1075.22
769.90	1078.03
770.23	1081.89
770.56	1081.23
770.89	1080.91
771.21	1082.61
771.54	1082.47
771.87	1079.64
772.19	1081.02
772.52	1081.07
772.85	1078.71
773.17	1073.95
773.50	1078.24
773.83	1076.44
774.15	1076.93
774.48	1080.13
774.81	1079.20
775.13	1073.44
775.46	1077.54
775.79	1077.98
776.11	1077.16
776.44	1081.37
776.77	1084.07
777.09	1080.04
777.42	1079.83
777.74	1078.05
778.07	1076.67
778.40	1074.40
778.72	1073.70
779.05	1073.35
779.37	1073.60
779.70	1075.43
780.03	1079.60
780.35	1080.30
780.68	1082.54
781.00	1083.55
781.33	1081.94
781.65	1080.60
781.98	1082.08
782.31	1081.07
782.63	1082.01
782.96	1081.75
783.28	1082.94
783.61	1079.55
783.93	1079.31
784.26	1075.76
784.58	1075.10
784.91	1073.30
785.23	1079.41
785.56	1075.62
785.88	1076.95
786.21	1077.23
786.53	1078.61
786.86	1075.78
787.18	1080.74
787.51	1081.87
787.83	1081.58
788.16	1077.07
788.48	1078.03
788.81	1078.92
789.13	1079.08
789.46	1079.67
789.78	1081.09
790.10	1079.90
790.43	1077.25
790.75	1076.88
791.08	1076.25
791.40	1078.73
791.73	1081.21
792.05	1080.77
792.37	1079.83
792.70	1078.07
793.02	1075.94
793.35	1071.10
793.67	1072.64
793.99	1074.59
794.32	1079.08
794.64	1082.57
794.96	1086.50
795.29	1087.06
795.61	1084.21
795.93	1081.96
796.26	1080.51
796.58	1076.27
796.91	1072.48
797.23	1074.05
797.55	1075.20
797.87	1074.05
798.20	1078.24
798.52	1077.82
798.84	1076.93
799.17	1074.54
799.49	1074.61
799.81	1074.61
800.14	1079.27
800.46	1080.81
800.78	1083.79
801.10	1083.74
801.43	1082.54
801.75	1082.12
802.07	1081.12
802.40	1079.97
802.72	1081.68
803.04	1082.50
803.36	1079.71
803.69	1080.13
804.01	1079.03
804.33	1079.24
804.65	1082.05
804.97	1079.83
805.30	1078.14
805.62	1077.35
805.94	1076.65
806.26	1074.14
806.58	1074.66
806.91	1075.76
807.23	1078.52
807.55	1079.06
807.87	1077.16
808.19	1079.31
808.52	1084.02
808.84	1082.17
809.16	1080.16
809.48	1081.30
809.80	1081.89
810.12	1078.38
810.44	1080.32
810.77	1079.34
811.09	1078.03
811.41	1078.31
811.73	1075.83
812.05	1074.63
812.37	1075.45
812.69	1075.27
813.01	1076.23
813.33	1080.70
813.66	1080.95
813.98	1079.08
814.30	1080.67
814.62	1078.36
814.94	1076.51
815.26	1078.05
815.58	1079.34
815.90	1080.79
816.22	1083.27
816.54	1082.61
816.86	1079.64
817.18	1081.61
817.50	1078.10
817.82	1073.42
818.14	1074.66
818.46	1077.96
818.78	1077.72
819.10	1078.26
819.42	1082.54
819.74	1083.18
820.06	1080.41
820.38	1081.14
820.70	1084.11
821.02	1086.57
821.34	1084.53
821.66	1084.65
821.98	1081.75
822.30	1077.23
822.62	1071.80
822.94	1071.12
823.26	1071.85
823.58	1072.18
823.90	1073.91
824.22	1075.66
824.54	1076.48
824.86	1078.19
825.18	1078.85
825.50	1078.59
825.81	1076.62
826.13	1077.28
826.45	1075.20
826.77	1075.57
827.09	1079.78
827.41	1083.81
827.73	1084.49
828.05	1086.73
828.36	1086.66
828.68	1081.28
829.00	1078.73
829.32	1076.46
829.64	1075.78
829.96	1076.18
830.28	1076.79
830.59	1077.16
830.91	1077.00
831.23	1073.72
831.55	1073.30
831.87	1074.19
832.19	1075.85
832.50	1078.68
832.82	1081.05
833.14	1080.63
833.46	1080.13
833.78	1079.74
834.09	1077.75
834.41	1075.83
834.73	1078.31
835.05	1078.75
835.36	1077.40
835.68	1077.14
836.00	1080.04
836.32	1077.89
836.63	1079.27
836.95	1077.91
837.27	1077.49
837.59	1077.44
837.90	1077.61
838.22	1075.38
838.54	1077.25
838.85	1078.26
839.17	1074.98
839.49	1073.25
839.80	1073.09
840.12	1068.34
840.44	1066.25
840.76	1067.92
841.07	1069.13
841.39	1069.58
841.71	1072.55
842.02	1075.97
842.34	1072.57
842.65	1072.34
842.97	1074.24
843.29	1076.13
843.60	1072.15
843.92	1074.75
844.24	1073.46
844.55	1073.39
844.87	1072.97
845.18	1075.85
845.50	1077.84
845.82	1082.19
846.13	1080.91
846.45	1082.40
846.76	1082.85
847.08	1081.42
847.40	1081.66
847.71	1083.29
848.03	1082.19
848.34	1084.96
848.66	1084.74
848.97	1082.64
849.29	1081.00
849.60	1082.87
849.92	1079.57
850.24	1079.43
850.55	1079.06
850.87	1078.99
851.18	1079.20
851.50	1080.32
851.81	1082.50
852.13	1082.15
852.44	1079.74
852.76	1074.63
853.07	1074.31
853.39	1074.19
853.70	1073.86
854.01	1074.68
854.33	1076.86
854.64	1079.48
854.96	1079.01
855.27	1080.06
855.59	1081.96
855.90	1084.74
856.22	1082.83
856.53	1080.11
856.84	1081.00
857.16	1080.25
857.47	1078.07
857.79	1075.15
858.10	1076.25
858.41	1076.08
858.73	1080.77
859.04	1081.12
859.36	1084.00
859.67	1084.35
859.98	1083.46
860.30	1081.12
860.61	1080.09
860.92	1077.16
861.24	1079.53
861.55	1078.75
861.87	1077.37
862.18	1079.03
862.49	1080.60
862.81	1078.10
863.12	1077.25
863.43	1077.21
863.74	1077.75
864.06	1078.33
864.37	1077.47
864.68	1079.50
865.00	1079.97
865.31	1080.70
865.62	1081.26
865.94	1085.63
866.25	1082.83
866.56	1081.63
866.87	1079.69
867.19	1079.41
867.50	1075.85
867.81	1077.75
868.12	1077.18
868.44	1076.88
868.75	1075.36
869.06	1076.08
869.37	1075.90
869.68	1078.85
870.00	1079.10
870.31	1075.87
870.62	1073.79
870.93	1072.41
871.24	1071.94
871.56	1071.99
871.87	1075.50
872.18	1079.60
872.49	1082.26
872.80	1082.45
873.12	1083.67
873.43	1083.43
873.74	1080.77
874.05	1079.53
874.36	1077.49
874.67	1076.83
874.98	1078.40
875.29	1076.51
875.61	1079.22
875.92	1079.13
876.23	1077.75
876.54	1079.60
876.85	1083.60
877.16	1080.88
877.47	1082.38
877.78	1082.40
878.09	1076.53
878.40	1075.13
878.72	1074.21
879.03	1075.29
879.34	1077.11
879.65	1079.53
879.96	1076.01
880.27	1076.23
880.58	1074.00
880.89	1071.87
881.20	1073.98
881.51	1078.80
881.82	1081.07
882.13	1084.89
882.44	1086.94
882.75	1083.88
883.06	1084.04
883.37	1081.82
883.68	1078.19
883.99	1077.86
884.30	1079.97
884.61	1079.85
884.92	1079.97
885.23	1082.24
885.54	1080.72
885.85	1080.23
886.16	1076.13
886.47	1079.78
886.78	1079.06
887.08	1078.31
887.39	1076.62
887.70	1079.31
888.01	1075.62
888.32	1074.75
888.63	1073.14
888.94	1075.29
889.25	1073.95
889.56	1074.38
889.87	1074.80
890.17	1081.23
890.48	1079.10
890.79	1084.63
891.10	1086.85
891.41	1085.82
891.72	1083.22
892.03	1087.16
892.34	1085.12
892.64	1083.83
892.95	1084.35
893.26	1081.37
893.57	1078.71
893.88	1078.03
894.18	1075.36
894.49	1075.55
894.80	1076.04
895.11	1077.21
895.42	1075.31
895.72	1078.36
896.03	1075.57
896.34	1074.82
896.65	1076.60
896.96	1074.75
897.26	1073.53
897.57	1079.01
897.88	1078.33
898.19	1076.88
898.49	1078.12
898.80	1081.23
899.11	1077.86
899.41	1081.05
899.72	1077.54
900.03	1077.98
900.34	1072.41
900.64	1071.17
900.95	1071.87
901.26	1071.78
901.56	1072.39
901.87	1073.53
902.18	1076.69
902.48	1075.41
902.79	1077.00
903.10	1075.64
903.40	1079.01
903.71	1075.48
904.02	1073.93
904.32	1075.85
904.63	1079.29
904.94	1078.50
905.24	1079.95
905.55	1082.31
905.85	1080.16
906.16	1077.70
906.47	1075.22
906.77	1078.73
907.08	1081.09
907.38	1084.32
907.69	1085.35
908.00	1086.34
908.30	1084.00
908.61	1080.98
908.91	1077.70
909.22	1078.75
909.52	1078.99
909.83	1079.06
910.14	1079.06
910.44	1080.44
910.75	1074.47
911.05	1075.78
911.36	1075.64
911.66	1075.85
911.97	1074.05
912.27	1080.72
912.58	1078.52
912.88	1078.87
913.19	1078.47
913.49	1077.33
913.80	1075.45
914.10	1076.55
914.41	1076.44
914.71	1077.68
915.01	1078.40
915.32	1077.84
915.62	1078.73
915.93	1076.97
916.23	1074.31
916.54	1076.11
916.84	1076.67
917.15	1075.31
917.45	1073.88
917.75	1074.61
918.06	1075.17
918.36	1076.74
918.67	1077.58
918.97	1080.56
919.27	1081.98
919.58	1082.76
919.88	1078.43
920.18	1077.54
920.49	1078.47
920.79	1079.34
921.10	1074.89
921.40	1075.27
921.70	1074.98
922.01	1071.78
922.31	1072.62
922.61	1077.61
922.92	1080.88
923.22	1081.96
923.52	1082.78
923.82	1081.73
924.13	1077.58
924.43	1077.61
924.73	1077.21
925.04	1076.39
925.34	1075.69
925.64	1075.50
925.94	1071.78
926.25	1068.48
926.55	1069.55
926.85	1070.51
927.15	1072.81
927.46	1077.61
927.76	1078.43
928.06	1078.68
928.36	1080.65
928.67	1082.01
928.97	1083.01
929.27	1085.68
929.57	1086.20
929.87	1081.16
930.18	1081.89
930.48	1077.68
930.78	1075.59
931.08	1078.75
931.38	1082.52
931.69	1081.54
931.99	1084.51
932.29	1086.73
932.59	1082.22
932.89	1081.51
933.19	1078.80
933.49	1076.25
933.80	1076.30
934.10	1077.98
934.40	1078.66
934.70	1080.56
935.00	1082.10
935.30	1082.31
935.60	1082.87
935.90	1081.35
936.20	1081.09
936.50	1078.80
936.81	1079.29
937.11	1075.41
937.41	1076.25
937.71	1077.04
938.01	1079.74
938.31	1078.87
938.61	1080.74
938.91	1079.57
939.21	1078.07
939.51	1075.59
939.81	1076.76
940.11	1078.28
940.41	1076.67
940.71	1077.61
941.01	1079.01
941.31	1077.63
941.61	1080.13
941.91	1081.49
942.21	1083.11
942.51	1081.05
942.81	1078.59
943.11	1077.77
943.41	1078.52
943.71	1074.80
944.01	1076.93
944.31	1080.04
944.61	1077.30
944.90	1076.08
945.20	1077.42
945.50	1074.82
945.80	1075.48
946.10	1077.89
946.40	1078.33
946.70	1079.22
947.00	1081.96
947.30	1081.89
947.60	1078.19
947.89	1076.27
948.19	1079.01
948.49	1076.90
948.79	1076.34
949.09	1077.37
949.39	1078.38
949.69	1073.98
949.98	1074.87
950.28	1075.80
950.58	1075.57
950.88	1076.34
951.18	1075.48
951.48	1078.52
951.77	1079.50
952.07	1079.34
952.37	1079.24
952.67	1081.96
952.97	1078.87
953.26	1077.07
953.56	1078.12
953.86	1077.63
954.16	1075.69
954.45	1075.83
954.75	1074.45
955.05	1076.18
955.35	1078.43
955.64	1079.88
955.94	1079.41
956.24	1079.99
956.54	1076.69
956.83	1074.73
957.13	1075.41
957.43	1076.60
957.72	1078.28
958.02	1079.81
958.32	1083.39
958.61	1082.97
958.91	1083.60
959.21	1081.21
959.50	1080.41
959.80	1078.54
960.10	1079.90
960.39	1077.93
960.69	1079.81
960.99	1080.95
961.28	1081.63
961.58	1081.19
961.87	1082.19
962.17	1081.02
962.47	1080.20
962.76	1082.31
963.06	1080.48
963.36	1079.85
963.65	1081.05
963.95	1082.50
964.24	1079.13
964.54	1078.47
964.83	1080.06
965.13	1081.82
965.42	1082.29
965.72	1085.07
966.02	1085.33
966.31	1084.04
966.61	1082.61
966.90	1081.51
967.20	1080.95
967.49	1078.89
967.79	1078.89
968.08	1078.31
968.38	1077.93
968.67	1075.71
968.97	1078.47
969.26	1076.60
969.56	1074.94
969.85	1073.77
970.15	1073.04
970.44	1074.49
970.74	1073.09
971.03	1074.52
971.32	1074.61
971.62	1074.12
971.91	1071.43
972.21	1076.44
972.50	1074.82
972.80	1073.81
973.09	1072.27
973.38	1075.05
973.68	1074.91
973.97	1075.41
974.27	1076.55
974.56	1077.49
974.85	1073.98
975.15	1071.47
975.44	1073.53
975.73	1075.43
976.03	1075.92
976.32	1079.83
976.61	1079.57
976.91	1078.52
977.20	1077.56
977.49	1077.35
977.79	1077.14
978.08	1078.68
978.37	1075.13
978.67	1076.08
978.96	1075.48
979.25	1074.45
979.55	1074.66
979.84	1078.14
980.13	1078.17
980.42	1079.01
980.72	1079.38
981.01	1077.96
981.30	1077.82
981.59	1077.61
981.89	1081.26
982.18	1078.80
982.47	1078.94
982.76	1080.41
983.06	1079.22
983.35	1077.93
983.64	1082.90
983.93	1085.26
984.22	1085.45
984.52	1083.27
984.81	1079.74
985.10	1079.64
985.39	1077.96
985.68	1075.24
985.97	1076.41
986.27	1078.61
986.56	1075.38
986.85	1075.55
987.14	1074.82
987.43	1079.01
987.72	1079.15
988.01	1079.08
988.31	1080.09
988.60	1084.70
988.89	1083.69
989.18	1082.45
989.47	1084.02
989.76	1082.83
990.05	1076.83
990.34	1076.04
990.63	1077.07
990.92	1075.64
991.21	1075.08
991.51	1080.34
991.80	1079.41
992.09	1078.99
992.38	1080.34
992.67	1078.96
992.96	1076.13
993.25	1074.28
993.54	1073.98
993.83	1071.22
994.12	1073.25
994.41	1074.77
994.70	1076.69
994.99	1078.75
995.28	1078.38
995.57	1079.85
995.86	1077.98
996.15	1077.63
996.44	1075.10
996.73	1075.62
997.02	1073.49
997.31	1075.22
997.59	1077.61
997.88	1079.06
998.17	1079.34
998.46	1080.39
998.75	1080.34
999.04	1079.06
999.33	1079.17
999.62	1080.74
999.91	1082.76
1000.20	1079.85
1000.49	1080.04
1000.77	1081.75
1001.06	1082.43
1001.35	1082.03
1001.64	1087.60
1001.93	1085.59
1002.22	1086.03
1002.51	1086.83
1002.79	1087.32
1003.08	1086.31
1003.37	1087.11
1003.66	1084.65
1003.95	1084.37
1004.23	1083.95
1004.52	1080.06
1004.81	1082.83
1005.10	1083.83
1005.39	1083.74
1005.67	1081.61
1005.96	1082.45
1006.25	1078.94
1006.54	1076.27
1006.83	1073.65
1007.11	1074.14
1007.40	1074.54
1007.69	1076.20
1007.97	1078.50
1008.26	1080.20
1008.55	1081.63
1008.84	1083.90
1009.12	1082.76
1009.41	1083.76
1009.70	1078.94
1009.98	1076.13
1010.27	1077.09
1010.56	1077.61
1010.85	1075.20
1011.13	1077.70
1011.42	1079.55
1011.71	1076.93
1011.99	1078.43
1012.28	1078.47
1012.56	1079.20
1012.85	1079.53
1013.14	1080.18
1013.42	1080.04
1013.71	1082.45
1014.00	1081.82
1014.28	1080.95
1014.57	1079.88
1014.85	1076.11
1015.14	1070.61
1015.43	1073.04
1015.71	1074.42
1016.00	1075.27
1016.28	1078.00
1016.57	1080.74
1016.85	1079.50
1017.14	1077.86
1017.43	1075.38
1017.71	1077.44
1018.00	1077.30
1018.28	1080.77
1018.57	1080.72
1018.85	1082.94
1019.14	1078.71
1019.42	1079.88
1019.71	1077.44
1019.99	1078.43
1020.28	1079.41
1020.56	1081.44
1020.85	1081.80
1021.13	1084.21
1021.42	1085.07
1021.70	1083.48
1021.99	1087.58
1022.27	1085.33
1022.55	1099.12
1022.84	1069.51
>>>>>End Processed Spectral Data<<<<<
