SpectraSuite Data File
++++++++++++++++++++++++++++++++++++
Date: Mon Aug 26 10:22:23 PDT 2019
User: corrico
Dark Spectrum Present: No
Reference Spectrum Present: No
Number of Sampled Component Spectra: 1
Spectrometers: USB2+H06089
Integration Time (usec): 2000 (USB2+H06089)
Spectra Averaged: 20 (USB2+H06089)
Boxcar Smoothing: 2 (USB2+H06089)
Correct for Electrical Dark: No (USB2+H06089)
Strobe/Lamp Enabled: No (USB2+H06089)
Correct for Detector Non-linearity: No (USB2+H06089)
Correct for Stray Light: No (USB2+H06089)
Number of Pixels in Processed Spectrum: 2048
>>>>>Begin Processed Spectral Data<<<<<
339.70	1018.48
340.07	1018.48
340.45	986.68
340.82	967.44
341.19	945.81
341.57	922.33
341.94	910.59
342.31	904.34
342.69	893.34
343.06	889.24
343.43	889.22
343.81	893.55
344.18	896.89
344.55	907.50
344.93	915.34
345.30	921.33
345.67	922.31
346.04	928.42
346.42	933.62
346.79	936.31
347.16	943.35
347.54	956.04
347.91	967.79
348.28	977.90
348.65	989.74
349.03	1000.32
349.40	1010.90
349.77	1017.24
350.14	1023.82
350.52	1030.30
350.89	1038.59
351.26	1041.05
351.63	1047.48
352.01	1053.24
352.38	1061.01
352.75	1061.15
353.12	1068.31
353.50	1073.23
353.87	1074.89
354.24	1074.52
354.61	1077.11
354.98	1075.80
355.36	1075.41
355.73	1080.20
356.10	1083.27
356.47	1087.65
356.84	1090.06
357.22	1089.47
357.59	1086.22
357.96	1085.82
358.33	1084.00
358.70	1085.40
359.08	1085.73
359.45	1087.16
359.82	1087.90
360.19	1086.80
360.56	1084.74
360.94	1083.04
361.31	1082.08
361.68	1078.89
362.05	1076.62
362.42	1076.53
362.79	1075.80
363.16	1075.36
363.54	1073.88
363.91	1075.38
364.28	1070.63
364.65	1070.77
365.02	1072.64
365.39	1074.56
365.76	1075.15
366.14	1078.82
366.51	1078.87
366.88	1074.70
367.25	1073.81
367.62	1072.34
367.99	1071.94
368.36	1071.38
368.73	1072.46
369.10	1072.01
369.48	1069.95
369.85	1068.41
370.22	1066.93
370.59	1068.10
370.96	1067.19
371.33	1070.33
371.70	1070.68
372.07	1073.18
372.44	1075.24
372.81	1081.30
373.18	1079.29
373.55	1082.05
373.93	1080.86
374.30	1078.54
374.67	1073.49
375.04	1075.99
375.41	1075.48
375.78	1078.66
376.15	1082.83
376.52	1087.69
376.89	1087.32
377.26	1086.71
377.63	1086.99
378.00	1085.00
378.37	1082.59
378.74	1085.21
379.11	1085.87
379.48	1082.80
379.85	1081.61
380.22	1083.25
380.59	1079.31
380.96	1079.22
381.33	1078.47
381.70	1081.44
382.07	1081.51
382.44	1082.87
382.81	1081.49
383.18	1082.36
383.55	1079.67
383.92	1076.65
384.29	1078.40
384.66	1078.24
385.03	1081.54
385.40	1082.87
385.77	1082.31
386.14	1081.63
386.51	1082.71
386.88	1082.36
387.25	1081.98
387.62	1084.49
387.99	1081.42
388.36	1083.64
388.73	1083.55
389.10	1083.25
389.46	1084.32
389.83	1083.83
390.20	1083.69
390.57	1084.28
390.94	1081.89
391.31	1082.31
391.68	1087.55
392.05	1082.97
392.42	1083.81
392.79	1086.03
393.16	1083.48
393.53	1082.59
393.89	1084.53
394.26	1081.37
394.63	1083.79
395.00	1085.28
395.37	1084.18
395.74	1087.02
396.11	1086.59
396.48	1086.94
396.84	1088.54
397.21	1090.88
397.58	1088.26
397.95	1092.56
398.32	1092.07
398.69	1088.42
399.06	1086.85
399.42	1086.62
399.79	1086.99
400.16	1089.26
400.53	1094.18
400.90	1094.18
401.27	1095.77
401.64	1093.33
402.00	1089.87
402.37	1087.55
402.74	1090.27
403.11	1091.13
403.48	1093.43
403.84	1094.11
404.21	1091.20
404.58	1089.29
404.95	1091.18
405.32	1090.88
405.68	1092.33
406.05	1097.31
406.42	1096.78
406.79	1095.37
407.16	1094.04
407.52	1093.17
407.89	1092.73
408.26	1091.74
408.63	1093.17
408.99	1093.99
409.36	1093.22
409.73	1094.74
410.10	1096.05
410.47	1095.32
410.83	1093.85
411.20	1093.71
411.57	1089.45
411.94	1092.59
412.30	1091.98
412.67	1095.07
413.04	1098.16
413.40	1103.38
413.77	1103.96
414.14	1104.94
414.51	1103.77
414.87	1103.16
415.24	1103.77
415.61	1101.74
415.97	1104.59
416.34	1106.32
416.71	1106.84
417.08	1105.58
417.44	1103.38
417.81	1105.41
418.18	1108.06
418.54	1108.20
418.91	1105.97
419.28	1112.53
419.64	1110.65
420.01	1111.57
420.38	1111.38
420.74	1114.63
421.11	1116.58
421.48	1117.89
421.84	1116.95
422.21	1121.00
422.58	1124.42
422.94	1124.14
423.31	1125.82
423.68	1128.98
424.04	1131.88
424.41	1132.94
424.77	1134.72
425.14	1136.70
425.51	1141.25
425.87	1142.25
426.24	1148.43
426.61	1153.70
426.97	1162.73
427.34	1165.61
427.70	1173.85
428.07	1181.97
428.44	1190.02
428.80	1194.38
429.17	1206.57
429.53	1216.96
429.90	1225.93
430.27	1234.05
430.63	1244.16
431.00	1254.29
431.36	1262.58
431.73	1269.74
432.09	1285.23
432.46	1302.06
432.83	1316.50
433.19	1333.89
433.56	1357.02
433.92	1377.99
434.29	1395.85
434.65	1414.34
435.02	1436.01
435.38	1459.51
435.75	1484.48
436.11	1513.41
436.48	1549.15
436.84	1586.72
437.21	1623.23
437.57	1659.28
437.94	1702.95
438.30	1741.41
438.67	1786.69
439.03	1833.79
439.40	1890.85
439.76	1944.68
440.13	2007.41
440.49	2070.79
440.86	2135.48
441.22	2202.49
441.59	2274.84
441.95	2355.33
442.32	2441.93
442.68	2536.11
443.05	2631.53
443.41	2732.08
443.78	2827.27
444.14	2929.51
444.51	3042.56
444.87	3184.37
445.24	3317.66
445.60	3472.70
445.96	3631.01
446.33	3800.35
446.69	3958.76
447.06	4145.37
447.42	4325.01
447.79	4514.89
448.15	4741.83
448.51	4963.67
448.88	5220.05
449.24	5462.60
449.61	5738.36
449.97	5994.18
450.33	6281.62
450.70	6534.31
451.06	6856.46
451.43	7155.28
451.79	7517.17
452.15	7910.21
452.52	8358.80
452.88	8826.65
453.24	9356.24
453.61	9928.67
453.97	10479.28
454.34	11021.96
454.70	11658.14
455.06	12312.25
455.43	12939.18
455.79	13549.67
456.15	14260.60
456.52	14912.98
456.88	15667.76
457.24	16387.21
457.61	17220.33
457.97	17981.05
458.33	18755.06
458.70	19505.49
459.06	20264.99
459.42	21073.67
459.79	21858.54
460.15	22756.63
460.51	23614.46
460.88	24527.69
461.24	25328.69
461.60	26257.37
461.96	27109.16
462.33	27925.05
462.69	28694.73
463.05	29544.07
463.42	30291.92
463.78	30920.33
464.14	31467.33
464.50	32057.94
464.87	32528.65
465.23	32836.15
465.59	33208.13
465.95	33547.58
466.32	33798.51
466.68	34027.55
467.04	34203.93
467.40	34340.67
467.77	34469.21
468.13	34460.76
468.49	34374.70
468.85	34300.20
469.22	34134.40
469.58	33801.88
469.94	33567.85
470.30	33244.97
470.66	32822.15
471.03	32226.27
471.39	31849.45
471.75	31227.68
472.11	30658.54
472.47	30304.72
472.84	30007.75
473.20	29525.39
473.56	29258.50
473.92	28838.21
474.28	28321.32
474.65	27844.72
475.01	27375.16
475.37	26803.04
475.73	26325.20
476.09	25818.54
476.45	25306.32
476.81	24781.08
477.18	24257.31
477.54	23817.67
477.90	23446.11
478.26	23024.22
478.62	22689.90
478.98	22394.88
479.34	22083.94
479.71	21676.89
480.07	21333.77
480.43	20983.98
480.79	20593.09
481.15	20242.40
481.51	19931.81
481.87	19667.57
482.23	19371.51
482.59	19120.87
482.96	18831.88
483.32	18546.97
483.68	18160.85
484.04	17826.13
484.40	17459.62
484.76	17100.66
485.12	16739.23
485.48	16432.46
485.84	16079.69
486.20	15726.88
486.56	15363.16
486.92	15047.98
487.28	14709.00
487.64	14361.01
488.00	14053.09
488.37	13736.49
488.73	13383.39
489.09	13027.28
489.45	12714.40
489.81	12400.49
490.17	12109.67
490.53	11828.01
490.89	11544.97
491.25	11254.26
491.61	10946.08
491.97	10624.04
492.33	10294.05
492.69	9997.06
493.05	9694.01
493.41	9406.29
493.77	9128.67
494.13	8874.52
494.49	8624.71
494.85	8376.85
495.21	8145.93
495.57	7937.06
495.93	7732.08
496.29	7525.38
496.64	7349.31
497.00	7156.68
497.36	6960.94
497.72	6771.47
498.08	6595.30
498.44	6411.97
498.80	6245.60
499.16	6088.76
499.52	5939.02
499.88	5810.92
500.24	5692.11
500.60	5571.86
500.96	5458.78
501.32	5341.87
501.68	5218.60
502.03	5089.68
502.39	4962.45
502.75	4828.85
503.11	4701.53
503.47	4579.98
503.83	4459.00
504.19	4339.84
504.55	4227.87
504.91	4132.03
505.26	4037.49
505.62	3953.24
505.98	3868.79
506.34	3781.93
506.70	3695.75
507.06	3605.34
507.42	3515.25
507.78	3439.82
508.13	3365.08
508.49	3286.93
508.85	3223.41
509.21	3155.74
509.57	3082.58
509.93	3014.89
510.28	2945.82
510.64	2875.23
511.00	2811.22
511.36	2751.18
511.72	2697.65
512.07	2654.35
512.43	2605.30
512.79	2556.05
513.15	2511.84
513.51	2464.26
513.86	2413.49
514.22	2370.66
514.58	2330.19
514.94	2290.85
515.30	2250.85
515.65	2219.11
516.01	2188.00
516.37	2154.93
516.73	2124.25
517.08	2099.06
517.44	2066.06
517.80	2035.99
518.16	2010.17
518.51	1986.51
518.87	1956.97
519.23	1931.20
519.59	1905.57
519.94	1881.02
520.30	1853.10
520.66	1828.33
521.01	1804.04
521.37	1779.77
521.73	1760.62
522.09	1745.03
522.44	1729.82
522.80	1710.14
523.16	1690.85
523.51	1669.32
523.87	1647.06
524.23	1624.94
524.58	1606.36
524.94	1588.97
525.30	1571.69
525.65	1553.34
526.01	1539.18
526.37	1529.00
526.72	1519.73
527.08	1508.19
527.44	1496.16
527.79	1485.56
528.15	1470.91
528.51	1454.88
528.86	1440.93
529.22	1432.01
529.58	1416.02
529.93	1405.09
530.29	1393.77
530.65	1384.64
531.00	1372.93
531.36	1366.94
531.71	1357.18
532.07	1353.34
532.43	1347.54
532.78	1340.24
533.14	1331.69
533.49	1326.83
533.85	1317.37
534.21	1310.26
534.56	1307.28
534.92	1299.72
535.27	1293.29
535.63	1288.00
535.98	1278.14
536.34	1268.31
536.69	1264.99
537.05	1258.74
537.41	1251.93
537.76	1250.57
538.12	1249.45
538.47	1244.30
538.83	1240.06
539.18	1235.97
539.54	1230.98
539.89	1225.97
540.25	1222.49
540.60	1218.20
540.96	1215.21
541.31	1209.85
541.67	1205.98
542.02	1204.98
542.38	1202.38
542.73	1198.59
543.09	1195.08
543.44	1193.11
543.80	1190.91
544.15	1188.50
544.51	1185.65
544.86	1184.87
545.22	1183.45
545.57	1175.67
545.93	1173.64
546.28	1174.93
546.64	1174.13
546.99	1169.24
547.35	1170.10
547.70	1170.08
548.05	1165.00
548.41	1160.88
548.76	1160.70
549.12	1158.03
549.47	1150.63
549.83	1150.05
550.18	1150.26
550.53	1146.65
550.89	1146.82
551.24	1148.01
551.60	1145.46
551.95	1143.07
552.30	1140.68
552.66	1136.70
553.01	1136.66
553.37	1136.00
553.72	1133.33
554.07	1132.05
554.43	1134.13
554.78	1132.59
555.13	1131.02
555.49	1133.78
555.84	1131.58
556.19	1130.48
556.55	1131.93
556.90	1130.85
557.26	1126.15
557.61	1126.83
557.96	1121.82
558.32	1118.89
558.67	1117.25
559.02	1115.94
559.37	1116.27
559.73	1117.14
560.08	1116.79
560.43	1113.14
560.79	1113.88
561.14	1112.99
561.49	1113.46
561.85	1108.71
562.20	1112.76
562.55	1111.19
562.90	1109.16
563.26	1104.26
563.61	1103.87
563.96	1104.45
564.32	1105.34
564.67	1103.16
565.02	1108.06
565.37	1108.83
565.73	1104.85
566.08	1104.45
566.43	1105.79
566.78	1102.67
567.14	1100.33
567.49	1101.99
567.84	1101.83
568.19	1103.49
568.54	1102.28
568.90	1103.00
569.25	1100.80
569.60	1097.85
569.95	1098.90
570.31	1098.27
570.66	1100.03
571.01	1100.64
571.36	1100.82
571.71	1096.61
572.06	1096.73
572.42	1091.95
572.77	1091.13
573.12	1091.98
573.47	1094.25
573.82	1094.81
574.18	1098.06
574.53	1098.67
574.88	1095.32
575.23	1093.45
575.58	1093.71
575.93	1092.96
576.28	1092.42
576.64	1093.78
576.99	1093.29
577.34	1090.78
577.69	1093.17
578.04	1091.11
578.39	1094.97
578.74	1094.57
579.09	1097.69
579.44	1097.08
579.80	1100.17
580.15	1097.01
580.50	1098.69
580.85	1096.66
581.20	1096.70
581.55	1095.39
581.90	1095.67
582.25	1095.53
582.60	1095.53
582.95	1093.19
583.30	1090.41
583.65	1091.49
584.00	1088.75
584.35	1088.54
584.71	1089.45
585.06	1094.25
585.41	1090.69
585.76	1093.36
586.11	1094.22
586.46	1094.43
586.81	1094.06
587.16	1099.96
587.51	1100.40
587.86	1097.92
588.21	1098.83
588.56	1095.21
588.91	1092.09
589.26	1088.89
589.61	1090.62
589.96	1085.59
590.31	1086.90
590.66	1087.25
591.01	1090.69
591.36	1088.72
591.71	1089.03
592.06	1087.60
592.41	1087.39
592.76	1086.83
593.10	1085.68
593.45	1089.05
593.80	1090.29
594.15	1088.93
594.50	1086.73
594.85	1087.44
595.20	1086.10
595.55	1083.25
595.90	1083.76
596.25	1085.28
596.60	1090.81
596.95	1087.93
597.30	1090.13
597.64	1097.15
597.99	1095.91
598.34	1091.02
598.69	1091.72
599.04	1092.19
599.39	1083.34
599.74	1081.09
600.09	1079.38
600.44	1080.20
600.78	1081.07
601.13	1082.64
601.48	1081.51
601.83	1082.83
602.18	1084.81
602.53	1083.97
602.88	1083.48
603.22	1088.12
603.57	1088.84
603.92	1086.50
604.27	1087.11
604.62	1087.93
604.97	1086.13
605.31	1087.58
605.66	1090.08
606.01	1088.84
606.36	1091.51
606.71	1094.74
607.05	1096.12
607.40	1096.56
607.75	1093.87
608.10	1089.54
608.44	1086.38
608.79	1083.71
609.14	1080.63
609.49	1085.87
609.84	1085.31
610.18	1083.60
610.53	1084.58
610.88	1087.13
611.23	1084.46
611.57	1088.33
611.92	1086.57
612.27	1087.06
612.62	1086.24
612.96	1085.89
613.31	1083.32
613.66	1084.44
614.00	1081.58
614.35	1081.40
614.70	1080.41
615.05	1079.67
615.39	1079.81
615.74	1082.40
616.09	1084.32
616.43	1084.93
616.78	1087.39
617.13	1086.87
617.47	1084.42
617.82	1081.63
618.17	1080.65
618.51	1078.87
618.86	1080.51
619.21	1080.44
619.55	1079.55
619.90	1080.13
620.25	1080.27
620.59	1081.42
620.94	1084.07
621.29	1088.70
621.63	1091.16
621.98	1090.03
622.32	1088.16
622.67	1087.97
623.02	1086.29
623.36	1081.87
623.71	1084.09
624.05	1087.20
624.40	1085.61
624.75	1084.00
625.09	1085.35
625.44	1084.84
625.78	1082.76
626.13	1082.19
626.48	1081.33
626.82	1082.43
627.17	1080.20
627.51	1081.96
627.86	1084.28
628.20	1088.02
628.55	1089.10
628.89	1092.05
629.24	1088.63
629.58	1087.13
629.93	1085.68
630.28	1083.64
630.62	1081.49
630.97	1081.91
631.31	1081.28
631.66	1080.13
632.00	1082.22
632.35	1085.84
632.69	1087.90
633.04	1091.79
633.38	1093.12
633.73	1092.96
634.07	1088.68
634.42	1089.14
634.76	1085.87
635.11	1083.79
635.45	1082.29
635.79	1084.77
636.14	1084.67
636.48	1086.15
636.83	1084.65
637.17	1085.94
637.52	1085.49
637.86	1082.26
638.21	1078.12
638.55	1079.50
638.89	1078.75
639.24	1079.24
639.58	1082.45
639.93	1084.98
640.27	1083.62
640.61	1084.32
640.96	1081.91
641.30	1080.27
641.65	1079.81
641.99	1082.87
642.33	1084.46
642.68	1085.68
643.02	1084.46
643.37	1081.58
643.71	1080.18
644.05	1077.93
644.40	1077.44
644.74	1077.93
645.08	1083.29
645.43	1085.05
645.77	1082.97
646.11	1086.76
646.46	1088.98
646.80	1085.61
647.14	1081.33
647.49	1084.70
647.83	1083.27
648.17	1081.09
648.52	1083.32
648.86	1086.64
649.20	1081.66
649.55	1078.89
649.89	1079.88
650.23	1080.72
650.57	1082.52
650.92	1087.13
651.26	1086.17
651.60	1086.24
651.95	1085.05
652.29	1079.53
652.63	1077.86
652.97	1075.08
653.32	1073.63
653.66	1071.54
654.00	1072.04
654.34	1071.17
654.69	1073.86
655.03	1078.12
655.37	1077.72
655.71	1079.99
656.05	1080.06
656.40	1080.02
656.74	1074.26
657.08	1075.69
657.42	1077.00
657.76	1079.95
658.11	1080.39
658.45	1085.19
658.79	1083.95
659.13	1083.48
659.47	1082.29
659.82	1081.96
660.16	1082.94
660.50	1083.90
660.84	1084.37
661.18	1083.57
661.52	1086.01
661.87	1084.02
662.21	1084.63
662.55	1082.47
662.89	1079.95
663.23	1077.75
663.57	1075.57
663.91	1074.40
664.25	1073.37
664.60	1074.38
664.94	1073.98
665.28	1075.20
665.62	1076.79
665.96	1078.50
666.30	1080.04
666.64	1081.70
666.98	1083.20
667.32	1085.52
667.66	1083.81
668.01	1085.75
668.35	1086.62
668.69	1086.62
669.03	1084.98
669.37	1085.70
669.71	1087.37
670.05	1087.09
670.39	1084.21
670.73	1083.29
671.07	1086.08
671.41	1083.01
671.75	1081.51
672.09	1083.74
672.43	1083.62
672.77	1083.97
673.11	1085.19
673.45	1088.33
673.79	1087.86
674.13	1085.77
674.47	1083.55
674.81	1082.12
675.15	1080.09
675.49	1079.76
675.83	1084.58
676.17	1085.96
676.51	1088.65
676.85	1087.62
677.19	1087.51
677.53	1083.36
677.87	1083.34
678.21	1081.98
678.55	1080.02
678.89	1082.03
679.23	1085.87
679.57	1085.28
679.90	1082.54
680.24	1086.90
680.58	1086.06
680.92	1082.15
681.26	1080.39
681.60	1082.54
681.94	1081.56
682.28	1079.76
682.62	1082.52
682.96	1082.22
683.29	1085.42
683.63	1084.93
683.97	1086.20
684.31	1082.52
684.65	1085.40
684.99	1082.10
685.33	1080.74
685.67	1079.55
686.00	1081.84
686.34	1082.29
686.68	1083.01
687.02	1080.32
687.36	1080.51
687.70	1079.74
688.03	1078.07
688.37	1079.88
688.71	1083.27
689.05	1084.35
689.39	1086.43
689.72	1085.99
690.06	1082.22
690.40	1083.08
690.74	1082.36
691.08	1081.94
691.41	1083.11
691.75	1082.90
692.09	1082.19
692.43	1077.42
692.76	1077.63
693.10	1077.33
693.44	1078.21
693.78	1075.45
694.11	1077.00
694.45	1073.79
694.79	1075.36
695.13	1075.85
695.46	1079.08
695.80	1083.20
696.14	1086.69
696.48	1085.73
696.81	1083.13
697.15	1083.64
697.49	1083.88
697.82	1083.71
698.16	1081.47
698.50	1082.33
698.83	1080.34
699.17	1077.02
699.51	1076.39
699.84	1077.82
700.18	1078.40
700.52	1081.91
700.85	1084.21
701.19	1087.09
701.53	1086.80
701.86	1087.25
702.20	1084.11
702.54	1083.32
702.87	1078.61
703.21	1077.30
703.55	1076.53
703.88	1078.80
704.22	1077.84
704.55	1078.28
704.89	1080.02
705.23	1083.50
705.56	1083.57
705.90	1085.42
706.23	1086.06
706.57	1087.32
706.91	1083.64
707.24	1081.40
707.58	1079.85
707.91	1079.97
708.25	1078.07
708.58	1077.84
708.92	1077.09
709.26	1079.81
709.59	1081.47
709.93	1081.02
710.26	1084.30
710.60	1085.68
710.93	1084.16
711.27	1081.80
711.60	1081.63
711.94	1080.32
712.27	1079.22
712.61	1079.29
712.94	1080.09
713.28	1081.21
713.61	1082.69
713.95	1081.73
714.28	1080.09
714.62	1077.21
714.95	1076.11
715.29	1073.56
715.62	1076.30
715.96	1076.20
716.29	1078.82
716.63	1079.71
716.96	1080.25
717.29	1077.82
717.63	1079.22
717.96	1080.16
718.30	1080.39
718.63	1081.00
718.97	1084.23
719.30	1081.91
719.63	1084.23
719.97	1084.23
720.30	1086.34
720.64	1084.04
720.97	1084.74
721.30	1079.69
721.64	1080.81
721.97	1076.32
722.31	1077.02
722.64	1079.69
722.97	1078.99
723.31	1079.20
723.64	1081.26
723.97	1081.51
724.31	1081.00
724.64	1083.06
724.98	1080.41
725.31	1081.35
725.64	1080.81
725.98	1079.76
726.31	1081.21
726.64	1080.53
726.97	1078.73
727.31	1078.75
727.64	1077.79
727.97	1078.52
728.31	1080.09
728.64	1078.54
728.97	1079.85
729.31	1081.00
729.64	1077.63
729.97	1077.23
730.30	1082.19
730.64	1079.34
730.97	1080.53
731.30	1081.49
731.63	1082.22
731.97	1079.60
732.30	1081.82
732.63	1078.61
732.96	1078.99
733.30	1075.90
733.63	1075.99
733.96	1074.56
734.29	1077.04
734.63	1077.72
734.96	1079.48
735.29	1078.00
735.62	1076.30
735.95	1079.38
736.29	1077.84
736.62	1076.72
736.95	1077.30
737.28	1079.88
737.61	1074.63
737.94	1077.91
738.28	1080.34
738.61	1077.25
738.94	1077.28
739.27	1078.03
739.60	1074.38
739.93	1074.21
740.27	1076.37
740.60	1077.42
740.93	1078.31
741.26	1077.25
741.59	1079.24
741.92	1081.23
742.25	1081.37
742.58	1082.64
742.91	1084.77
743.25	1082.71
743.58	1081.87
743.91	1080.09
744.24	1079.27
744.57	1080.91
744.90	1080.32
745.23	1079.43
745.56	1078.00
745.89	1078.78
746.22	1076.41
746.55	1079.38
746.88	1080.70
747.21	1084.21
747.54	1083.22
747.87	1086.99
748.20	1086.01
748.53	1087.55
748.87	1088.09
749.20	1087.06
749.53	1084.60
749.86	1084.04
750.19	1083.79
750.52	1077.21
750.85	1079.60
751.18	1075.64
751.51	1074.21
751.84	1072.36
752.16	1077.63
752.49	1075.55
752.82	1081.12
753.15	1083.53
753.48	1083.57
753.81	1082.73
754.14	1082.01
754.47	1079.15
754.80	1077.42
755.13	1080.63
755.46	1083.11
755.79	1080.77
756.12	1082.97
756.45	1081.51
756.78	1080.93
757.11	1079.88
757.43	1084.37
757.76	1079.38
758.09	1081.87
758.42	1076.83
758.75	1075.76
759.08	1076.27
759.41	1078.96
759.74	1078.26
760.07	1084.65
760.39	1082.83
760.72	1081.91
761.05	1085.10
761.38	1086.73
761.71	1084.02
762.04	1085.94
762.36	1085.96
762.69	1085.68
763.02	1080.81
763.35	1081.26
763.68	1081.63
764.01	1080.98
764.33	1080.32
764.66	1082.19
764.99	1078.92
765.32	1077.44
765.65	1078.85
765.97	1078.57
766.30	1078.31
766.63	1080.27
766.96	1078.66
767.28	1074.82
767.61	1074.26
767.94	1076.39
768.27	1077.77
768.59	1078.89
768.92	1083.43
769.25	1083.60
769.58	1082.08
769.90	1081.82
770.23	1083.32
770.56	1083.04
770.89	1084.25
771.21	1087.90
771.54	1087.16
771.87	1086.29
772.19	1082.85
772.52	1080.98
772.85	1076.86
773.17	1076.74
773.50	1076.04
773.83	1078.78
774.15	1076.74
774.48	1076.46
774.81	1075.87
775.13	1077.02
775.46	1074.82
775.79	1075.69
776.11	1078.00
776.44	1079.20
776.77	1078.80
777.09	1082.31
777.42	1085.10
777.74	1085.33
778.07	1083.90
778.40	1083.39
778.72	1079.95
779.05	1077.40
779.37	1077.11
779.70	1075.73
780.03	1076.88
780.35	1078.47
780.68	1079.41
781.00	1078.87
781.33	1080.67
781.65	1080.86
781.98	1085.17
782.31	1085.61
782.63	1084.23
782.96	1083.88
783.28	1080.48
783.61	1077.63
783.93	1078.26
784.26	1080.41
784.58	1080.44
784.91	1081.89
785.23	1079.41
785.56	1081.54
785.88	1078.78
786.21	1080.13
786.53	1080.63
786.86	1080.27
787.18	1074.14
787.51	1076.11
787.83	1072.04
788.16	1072.36
788.48	1075.01
788.81	1081.05
789.13	1080.84
789.46	1083.95
789.78	1086.36
790.10	1084.67
790.43	1080.09
790.75	1083.36
791.08	1081.07
791.40	1078.36
791.73	1079.06
792.05	1079.06
792.37	1072.46
792.70	1073.58
793.02	1072.32
793.35	1070.33
793.67	1071.82
793.99	1073.42
794.32	1072.67
794.64	1074.26
794.96	1077.37
795.29	1078.94
795.61	1078.57
795.93	1078.99
796.26	1077.37
796.58	1073.07
796.91	1072.48
797.23	1073.81
797.55	1075.87
797.87	1076.27
798.20	1081.37
798.52	1079.34
798.84	1079.50
799.17	1080.58
799.49	1080.88
799.81	1079.55
800.14	1081.77
800.46	1083.48
800.78	1082.08
801.10	1084.72
801.43	1082.87
801.75	1083.95
802.07	1082.22
802.40	1079.60
802.72	1079.27
803.04	1081.12
803.36	1079.69
803.69	1079.62
804.01	1082.78
804.33	1081.00
804.65	1081.00
804.97	1078.68
805.30	1079.81
805.62	1077.07
805.94	1079.55
806.26	1079.46
806.58	1080.79
806.91	1083.15
807.23	1084.35
807.55	1084.77
807.87	1080.39
808.19	1077.54
808.52	1073.18
808.84	1072.15
809.16	1068.83
809.48	1072.62
809.80	1073.77
810.12	1072.95
810.44	1074.89
810.77	1076.15
811.09	1077.25
811.41	1081.19
811.73	1083.62
812.05	1080.65
812.37	1082.73
812.69	1083.62
813.01	1081.82
813.33	1081.87
813.66	1081.33
813.98	1077.68
814.30	1076.79
814.62	1078.24
814.94	1079.01
815.26	1082.22
815.58	1086.64
815.90	1083.43
816.22	1081.16
816.54	1081.19
816.86	1078.61
817.18	1076.06
817.50	1076.62
817.82	1079.06
818.14	1076.39
818.46	1076.90
818.78	1075.90
819.10	1073.77
819.42	1073.93
819.74	1075.34
820.06	1072.74
820.38	1072.32
820.70	1073.00
821.02	1071.01
821.34	1067.40
821.66	1071.05
821.98	1070.37
822.30	1074.05
822.62	1076.74
822.94	1078.14
823.26	1080.27
823.58	1081.19
823.90	1080.39
824.22	1077.14
824.54	1080.27
824.86	1078.31
825.18	1079.13
825.50	1078.07
825.81	1077.77
826.13	1077.47
826.45	1076.74
826.77	1076.30
827.09	1077.49
827.41	1077.58
827.73	1077.09
828.05	1077.37
828.36	1077.37
828.68	1078.43
829.00	1076.53
829.32	1078.24
829.64	1079.78
829.96	1080.84
830.28	1079.95
830.59	1083.95
830.91	1079.95
831.23	1078.61
831.55	1077.93
831.87	1075.92
832.19	1074.12
832.50	1078.47
832.82	1077.75
833.14	1075.73
833.46	1076.32
833.78	1077.86
834.09	1080.09
834.41	1080.16
834.73	1081.63
835.05	1080.72
835.36	1080.91
835.68	1074.31
836.00	1076.58
836.32	1077.61
836.63	1076.95
836.95	1073.79
837.27	1075.27
837.59	1072.97
837.90	1071.71
838.22	1073.72
838.54	1073.84
838.85	1075.73
839.17	1076.18
839.49	1076.06
839.80	1074.45
840.12	1078.47
840.44	1079.15
840.76	1076.20
841.07	1076.86
841.39	1079.08
841.71	1075.27
842.02	1074.17
842.34	1073.44
842.65	1071.94
842.97	1071.99
843.29	1072.32
843.60	1070.16
843.92	1073.79
844.24	1076.97
844.55	1077.11
844.87	1078.45
845.18	1079.41
845.50	1081.82
845.82	1081.77
846.13	1081.37
846.45	1080.23
846.76	1076.93
847.08	1075.31
847.40	1072.18
847.71	1070.80
848.03	1072.22
848.34	1072.76
848.66	1070.75
848.97	1074.26
849.29	1075.99
849.60	1075.55
849.92	1080.09
850.24	1080.93
850.55	1078.59
850.87	1079.53
851.18	1078.05
851.50	1078.64
851.81	1077.61
852.13	1081.75
852.44	1080.25
852.76	1080.60
853.07	1075.66
853.39	1079.34
853.70	1076.58
854.01	1076.32
854.33	1077.37
854.64	1082.29
854.96	1080.20
855.27	1081.16
855.59	1079.15
855.90	1078.64
856.22	1075.48
856.53	1078.14
856.84	1076.34
857.16	1078.50
857.47	1078.99
857.79	1079.67
858.10	1080.39
858.41	1082.29
858.73	1083.48
859.04	1082.54
859.36	1082.76
859.67	1080.81
859.98	1077.84
860.30	1078.71
860.61	1077.72
860.92	1078.50
861.24	1076.97
861.55	1077.86
861.87	1076.13
862.18	1078.10
862.49	1075.31
862.81	1076.44
863.12	1076.79
863.43	1078.59
863.74	1080.53
864.06	1081.68
864.37	1083.36
864.68	1084.23
865.00	1082.10
865.31	1078.50
865.62	1078.38
865.94	1075.05
866.25	1073.98
866.56	1072.71
866.87	1073.37
867.19	1073.16
867.50	1072.55
867.81	1070.37
868.12	1070.63
868.44	1073.70
868.75	1073.56
869.06	1078.54
869.37	1083.95
869.68	1085.61
870.00	1083.13
870.31	1082.54
870.62	1079.01
870.93	1076.23
871.24	1073.11
871.56	1073.93
871.87	1078.03
872.18	1076.95
872.49	1077.61
872.80	1079.53
873.12	1077.33
873.43	1077.09
873.74	1078.31
874.05	1076.20
874.36	1074.94
874.67	1077.11
874.98	1077.21
875.29	1078.38
875.61	1078.10
875.92	1080.06
876.23	1080.23
876.54	1077.33
876.85	1077.14
877.16	1078.99
877.47	1077.61
877.78	1076.67
878.09	1078.12
878.40	1079.48
878.72	1079.10
879.03	1079.38
879.34	1077.82
879.65	1074.98
879.96	1074.63
880.27	1073.58
880.58	1074.07
880.89	1076.53
881.20	1077.25
881.51	1075.62
881.82	1075.20
882.13	1074.17
882.44	1076.30
882.75	1080.27
883.06	1081.40
883.37	1084.35
883.68	1089.71
883.99	1089.80
884.30	1087.44
884.61	1087.67
884.92	1084.56
885.23	1083.32
885.54	1082.24
885.85	1080.04
886.16	1078.31
886.47	1083.93
886.78	1082.22
887.08	1080.23
887.39	1084.44
887.70	1085.66
888.01	1082.57
888.32	1080.04
888.63	1078.10
888.94	1074.33
889.25	1073.21
889.56	1074.21
889.87	1077.96
890.17	1080.51
890.48	1083.97
890.79	1087.02
891.10	1085.26
891.41	1083.46
891.72	1082.97
892.03	1080.67
892.34	1080.32
892.64	1080.18
892.95	1080.30
893.26	1077.18
893.57	1079.85
893.88	1076.23
894.18	1074.05
894.49	1072.29
894.80	1073.93
895.11	1071.17
895.42	1073.42
895.72	1080.74
896.03	1080.72
896.34	1081.94
896.65	1081.49
896.96	1080.91
897.26	1075.57
897.57	1077.91
897.88	1078.45
898.19	1081.87
898.49	1081.73
898.80	1084.65
899.11	1085.66
899.41	1084.51
899.72	1082.78
900.03	1083.97
900.34	1079.43
900.64	1077.44
900.95	1075.66
901.26	1073.72
901.56	1074.63
901.87	1077.49
902.18	1075.55
902.48	1076.51
902.79	1077.72
903.10	1076.39
903.40	1076.62
903.71	1078.36
904.02	1079.34
904.32	1080.11
904.63	1077.91
904.94	1072.48
905.24	1071.50
905.55	1072.55
905.85	1072.15
906.16	1075.99
906.47	1083.01
906.77	1084.04
907.08	1084.39
907.38	1083.60
907.69	1084.14
908.00	1082.15
908.30	1077.54
908.61	1076.88
908.91	1076.23
909.22	1069.11
909.52	1067.24
909.83	1073.81
910.14	1071.73
910.44	1071.43
910.75	1074.17
911.05	1074.10
911.36	1070.42
911.66	1071.10
911.97	1072.01
912.27	1071.24
912.58	1070.44
912.88	1072.27
913.19	1073.39
913.49	1073.74
913.80	1073.70
914.10	1076.27
914.41	1074.52
914.71	1074.40
915.01	1073.79
915.32	1076.30
915.62	1075.17
915.93	1075.27
916.23	1076.79
916.54	1081.19
916.84	1080.65
917.15	1078.85
917.45	1080.67
917.75	1081.16
918.06	1076.37
918.36	1077.30
918.67	1081.05
918.97	1080.48
919.27	1078.73
919.58	1079.67
919.88	1076.79
920.18	1075.78
920.49	1075.22
920.79	1074.31
921.10	1074.12
921.40	1077.37
921.70	1075.13
922.01	1074.38
922.31	1076.83
922.61	1079.81
922.92	1077.56
923.22	1078.28
923.52	1082.22
923.82	1080.25
924.13	1076.69
924.43	1077.68
924.73	1075.55
925.04	1073.60
925.34	1072.41
925.64	1074.00
925.94	1073.30
926.25	1073.95
926.55	1072.13
926.85	1071.33
927.15	1067.24
927.46	1068.52
927.76	1071.99
928.06	1074.61
928.36	1079.76
928.67	1083.48
928.97	1082.61
929.27	1079.78
929.57	1077.56
929.87	1072.50
930.18	1073.39
930.48	1072.97
930.78	1073.49
931.08	1076.01
931.38	1077.47
931.69	1076.08
931.99	1075.36
932.29	1075.69
932.59	1073.88
932.89	1077.25
933.19	1079.64
933.49	1079.46
933.80	1080.51
934.10	1078.10
934.40	1073.37
934.70	1071.97
935.00	1071.71
935.30	1071.71
935.60	1075.01
935.90	1078.38
936.20	1075.50
936.50	1080.74
936.81	1083.04
937.11	1080.91
937.41	1079.34
937.71	1080.23
938.01	1076.81
938.31	1074.07
938.61	1076.86
938.91	1075.36
939.21	1075.85
939.51	1075.43
939.81	1077.02
940.11	1078.59
940.41	1082.59
940.71	1083.34
941.01	1083.46
941.31	1084.44
941.61	1080.81
941.91	1079.10
942.21	1076.04
942.51	1077.40
942.81	1076.74
943.11	1077.82
943.41	1078.10
943.71	1081.14
944.01	1080.32
944.31	1076.72
944.61	1077.98
944.90	1077.21
945.20	1077.51
945.50	1076.95
945.80	1077.70
946.10	1078.07
946.40	1078.45
946.70	1078.12
947.00	1077.98
947.30	1081.42
947.60	1075.92
947.89	1075.34
948.19	1074.61
948.49	1073.95
948.79	1073.18
949.09	1075.71
949.39	1077.07
949.69	1076.25
949.98	1078.12
950.28	1073.88
950.58	1075.10
950.88	1076.65
951.18	1080.34
951.48	1081.75
951.77	1082.90
952.07	1084.79
952.37	1082.57
952.67	1081.63
952.97	1079.06
953.26	1079.24
953.56	1073.77
953.86	1074.68
954.16	1075.80
954.45	1077.68
954.75	1080.53
955.05	1083.76
955.35	1082.03
955.64	1081.33
955.94	1078.85
956.24	1076.83
956.54	1077.14
956.83	1075.59
957.13	1075.03
957.43	1077.77
957.72	1077.02
958.02	1079.90
958.32	1081.80
958.61	1079.48
958.91	1078.80
959.21	1080.48
959.50	1075.52
959.80	1078.66
960.10	1083.04
960.39	1082.94
960.69	1082.19
960.99	1083.67
961.28	1081.58
961.58	1080.16
961.87	1080.60
962.17	1081.56
962.47	1082.94
962.76	1082.17
963.06	1082.71
963.36	1081.21
963.65	1077.61
963.95	1076.72
964.24	1076.25
964.54	1074.63
964.83	1075.66
965.13	1077.23
965.42	1077.49
965.72	1076.97
966.02	1078.28
966.31	1076.55
966.61	1077.96
966.90	1078.03
967.20	1080.46
967.49	1077.58
967.79	1079.27
968.08	1079.88
968.38	1079.01
968.67	1075.76
968.97	1078.26
969.26	1081.26
969.56	1079.57
969.85	1080.72
970.15	1083.29
970.44	1084.51
970.74	1079.27
971.03	1081.68
971.32	1080.44
971.62	1081.16
971.91	1078.50
972.21	1081.70
972.50	1081.12
972.80	1081.91
973.09	1082.24
973.38	1082.19
973.68	1079.13
973.97	1076.81
974.27	1075.34
974.56	1076.04
974.85	1074.26
975.15	1076.11
975.44	1081.58
975.73	1082.24
976.03	1079.43
976.32	1083.67
976.61	1085.99
976.91	1081.89
977.20	1080.39
977.49	1080.79
977.79	1079.03
978.08	1077.33
978.37	1077.23
978.67	1078.80
978.96	1080.48
979.25	1082.99
979.55	1084.11
979.84	1084.81
980.13	1085.24
980.42	1086.38
980.72	1085.77
981.01	1083.93
981.30	1086.10
981.59	1084.67
981.89	1081.73
982.18	1078.75
982.47	1079.22
982.76	1076.88
983.06	1077.61
983.35	1078.14
983.64	1079.34
983.93	1075.10
984.22	1072.15
984.52	1073.88
984.81	1073.16
985.10	1071.54
985.39	1077.14
985.68	1082.17
985.97	1080.18
986.27	1081.00
986.56	1078.12
986.85	1075.31
987.14	1072.48
987.43	1073.58
987.72	1071.59
988.01	1073.14
988.31	1073.11
988.60	1075.01
988.89	1076.18
989.18	1075.48
989.47	1080.02
989.76	1078.80
990.05	1075.90
990.34	1078.52
990.63	1079.13
990.92	1073.91
991.21	1072.78
991.51	1076.13
991.80	1073.14
992.09	1075.01
992.38	1079.55
992.67	1085.70
992.96	1083.39
993.25	1081.94
993.54	1082.92
993.83	1081.94
994.12	1079.62
994.41	1079.78
994.70	1080.27
994.99	1081.58
995.28	1083.53
995.57	1083.34
995.86	1084.65
996.15	1084.70
996.44	1083.27
996.73	1082.50
997.02	1082.85
997.31	1081.58
997.59	1084.39
997.88	1082.90
998.17	1079.95
998.46	1076.60
998.75	1076.06
999.04	1077.09
999.33	1078.82
999.62	1079.92
999.91	1081.47
1000.20	1083.11
1000.49	1080.37
1000.77	1079.83
1001.06	1082.31
1001.35	1083.50
1001.64	1083.22
1001.93	1081.14
1002.22	1081.07
1002.51	1075.92
1002.79	1072.88
1003.08	1072.41
1003.37	1072.18
1003.66	1073.95
1003.95	1076.76
1004.23	1081.14
1004.52	1081.12
1004.81	1081.35
1005.10	1077.54
1005.39	1078.78
1005.67	1077.00
1005.96	1077.28
1006.25	1079.43
1006.54	1076.11
1006.83	1075.62
1007.11	1075.27
1007.40	1073.74
1007.69	1072.04
1007.97	1075.45
1008.26	1074.00
1008.55	1074.75
1008.84	1077.56
1009.12	1077.89
1009.41	1078.50
1009.70	1079.06
1009.98	1080.25
1010.27	1078.50
1010.56	1078.03
1010.85	1079.97
1011.13	1080.18
1011.42	1076.62
1011.71	1076.20
1011.99	1079.41
1012.28	1076.06
1012.56	1074.42
1012.85	1074.66
1013.14	1074.52
1013.42	1072.71
1013.71	1075.76
1014.00	1076.67
1014.28	1078.80
1014.57	1078.50
1014.85	1079.22
1015.14	1078.03
1015.43	1079.29
1015.71	1077.77
1016.00	1080.16
1016.28	1078.28
1016.57	1079.24
1016.85	1079.71
1017.14	1079.31
1017.43	1077.37
1017.71	1078.10
1018.00	1075.10
1018.28	1072.92
1018.57	1075.87
1018.85	1074.14
1019.14	1073.81
1019.42	1076.39
1019.71	1075.17
1019.99	1073.63
1020.28	1073.65
1020.56	1074.21
1020.85	1072.88
1021.13	1074.73
1021.42	1075.80
1021.70	1077.72
1021.99	1075.78
1022.27	1074.54
1022.55	1069.51
1022.84	1068.22
>>>>>End Processed Spectral Data<<<<<
