SpectraSuite Data File
++++++++++++++++++++++++++++++++++++
Date: Mon Aug 26 10:22:35 PDT 2019
User: corrico
Dark Spectrum Present: No
Reference Spectrum Present: No
Number of Sampled Component Spectra: 1
Spectrometers: USB2+H06089
Integration Time (usec): 2000 (USB2+H06089)
Spectra Averaged: 20 (USB2+H06089)
Boxcar Smoothing: 2 (USB2+H06089)
Correct for Electrical Dark: No (USB2+H06089)
Strobe/Lamp Enabled: No (USB2+H06089)
Correct for Detector Non-linearity: No (USB2+H06089)
Correct for Stray Light: No (USB2+H06089)
Number of Pixels in Processed Spectrum: 2048
>>>>>Begin Processed Spectral Data<<<<<
339.70	1022.93
340.07	1022.93
340.45	989.48
340.82	969.15
341.19	947.96
341.57	923.93
341.94	912.90
342.31	906.61
342.69	901.43
343.06	899.14
343.43	898.74
343.81	898.56
344.18	902.74
344.55	907.71
344.93	911.83
345.30	917.56
345.67	928.02
346.04	934.06
346.42	942.88
346.79	951.05
347.16	959.57
347.54	967.16
347.91	973.87
348.28	983.84
348.65	990.56
349.03	999.97
349.40	1007.74
349.77	1017.78
350.14	1022.98
350.52	1032.22
350.89	1037.96
351.26	1045.73
351.63	1049.29
352.01	1055.04
352.38	1059.07
352.75	1059.86
353.12	1063.28
353.50	1069.91
353.87	1071.85
354.24	1076.83
354.61	1085.38
354.98	1086.52
355.36	1087.86
355.73	1090.43
356.10	1089.99
356.47	1087.51
356.84	1085.66
357.22	1087.18
357.59	1086.06
357.96	1087.13
358.33	1087.30
358.70	1089.07
359.08	1082.45
359.45	1081.91
359.82	1078.24
360.19	1077.16
360.56	1078.28
360.94	1080.74
361.31	1078.85
361.68	1079.53
362.05	1079.41
362.42	1076.86
362.79	1078.07
363.16	1079.57
363.54	1076.83
363.91	1079.46
364.28	1079.36
364.65	1077.44
365.02	1078.12
365.39	1076.93
365.76	1073.09
366.14	1072.67
366.51	1072.62
366.88	1070.56
367.25	1073.65
367.62	1075.15
367.99	1075.10
368.36	1078.05
368.73	1076.79
369.10	1078.33
369.48	1079.31
369.85	1083.57
370.22	1080.34
370.59	1081.40
370.96	1080.46
371.33	1079.55
371.70	1074.19
372.07	1076.41
372.44	1076.08
372.81	1077.25
373.18	1077.23
373.55	1079.67
373.93	1079.92
374.30	1077.84
374.67	1076.34
375.04	1075.99
375.41	1077.11
375.78	1075.48
376.15	1079.22
376.52	1080.09
376.89	1079.71
377.26	1079.36
377.63	1082.08
378.00	1079.60
378.37	1077.96
378.74	1078.19
379.11	1076.88
379.48	1074.14
379.85	1078.28
380.22	1080.37
380.59	1079.38
380.96	1081.94
381.33	1084.25
381.70	1081.49
382.07	1078.89
382.44	1082.80
382.81	1082.69
383.18	1081.70
383.55	1084.46
383.92	1085.59
384.29	1084.74
384.66	1083.48
385.03	1081.98
385.40	1079.36
385.77	1078.89
386.14	1077.44
386.51	1077.21
386.88	1078.85
387.25	1080.27
387.62	1080.27
387.99	1081.77
388.36	1082.08
388.73	1082.69
389.10	1082.03
389.46	1082.50
389.83	1081.51
390.20	1081.61
390.57	1080.58
390.94	1079.88
391.31	1080.46
391.68	1080.77
392.05	1081.94
392.42	1082.87
392.79	1087.13
393.16	1085.61
393.53	1085.35
393.89	1086.31
394.26	1085.17
394.63	1079.10
395.00	1082.76
395.37	1083.22
395.74	1081.21
396.11	1081.77
396.48	1084.67
396.84	1085.33
397.21	1087.62
397.58	1090.29
397.95	1092.84
398.32	1093.15
398.69	1091.23
399.06	1087.16
399.42	1083.79
399.79	1082.78
400.16	1085.26
400.53	1086.15
400.90	1086.50
401.27	1089.78
401.64	1088.00
402.00	1083.86
402.37	1086.20
402.74	1090.03
403.11	1089.89
403.48	1088.89
403.84	1090.81
404.21	1089.73
404.58	1087.76
404.95	1084.67
405.32	1087.25
405.68	1086.55
406.05	1085.00
406.42	1084.00
406.79	1085.17
407.16	1084.16
407.52	1086.76
407.89	1087.95
408.26	1089.82
408.63	1090.50
408.99	1091.86
409.36	1091.60
409.73	1093.76
410.10	1094.04
410.47	1096.31
410.83	1095.67
411.20	1097.78
411.57	1096.05
411.94	1094.86
412.30	1091.88
412.67	1093.94
413.04	1093.97
413.40	1091.88
413.77	1094.79
414.14	1097.99
414.51	1099.07
414.87	1096.38
415.24	1098.88
415.61	1097.17
415.97	1092.54
416.34	1092.16
416.71	1093.15
417.08	1092.16
417.44	1096.78
417.81	1104.64
418.18	1105.55
418.54	1107.87
418.91	1112.95
419.28	1113.42
419.64	1112.32
420.01	1113.98
420.38	1113.91
420.74	1113.72
421.11	1114.28
421.48	1114.40
421.84	1113.16
422.21	1116.60
422.58	1119.50
422.94	1120.51
423.31	1124.46
423.68	1126.45
424.04	1126.55
424.41	1132.70
424.77	1133.38
425.14	1134.83
425.51	1139.68
425.87	1143.84
426.24	1144.24
426.61	1151.05
426.97	1158.66
427.34	1168.54
427.70	1174.81
428.07	1179.65
428.44	1187.75
428.80	1195.78
429.17	1197.02
429.53	1208.37
429.90	1218.16
430.27	1225.57
430.63	1231.45
431.00	1245.73
431.36	1253.66
431.73	1265.81
432.09	1280.09
432.46	1293.17
432.83	1308.57
433.19	1326.99
433.56	1345.20
433.92	1364.98
434.29	1388.52
434.65	1410.15
435.02	1434.47
435.38	1455.23
435.75	1483.99
436.11	1516.20
436.48	1546.20
436.84	1579.96
437.21	1621.50
437.57	1656.40
437.94	1695.60
438.30	1739.37
438.67	1782.39
439.03	1827.44
439.40	1878.35
439.76	1930.10
440.13	1984.56
440.49	2053.26
440.86	2117.44
441.22	2189.06
441.59	2262.13
441.95	2347.49
442.32	2427.16
442.68	2521.23
443.05	2614.50
443.41	2710.01
443.78	2802.04
444.14	2904.51
444.51	3014.05
444.87	3153.61
445.24	3290.65
445.60	3442.93
445.96	3592.77
446.33	3756.93
446.69	3904.95
447.06	4076.72
447.42	4257.39
447.79	4450.48
448.15	4670.68
448.51	4898.93
448.88	5157.60
449.24	5395.40
449.61	5668.33
449.97	5930.68
450.33	6204.57
450.70	6455.29
451.06	6769.51
451.43	7060.67
451.79	7406.04
452.15	7806.95
452.52	8248.07
452.88	8711.01
453.24	9243.52
453.61	9818.01
453.97	10361.55
454.34	10908.98
454.70	11540.29
455.06	12171.79
455.43	12781.29
455.79	13368.04
456.15	14060.89
456.52	14691.59
456.88	15421.74
457.24	16134.18
457.61	16964.88
457.97	17708.21
458.33	18466.94
458.70	19220.67
459.06	19970.18
459.42	20783.98
459.79	21552.19
460.15	22436.42
460.51	23293.36
460.88	24198.63
461.24	24985.69
461.60	25941.96
461.96	26801.69
462.33	27603.58
462.69	28350.72
463.05	29150.44
463.42	29804.59
463.78	30416.55
464.14	30950.80
464.50	31556.20
464.87	32025.62
465.23	32393.34
465.59	32750.06
465.95	33051.64
466.32	33261.80
466.68	33486.89
467.04	33620.65
467.40	33760.75
467.77	33908.75
468.13	33904.13
468.49	33826.92
468.85	33756.07
469.22	33599.37
469.58	33285.25
469.94	33058.94
470.30	32762.21
470.66	32361.39
471.03	31738.93
471.39	31333.83
471.75	30679.67
472.11	30060.62
472.47	29673.31
472.84	29379.95
473.20	28898.34
473.56	28653.89
473.92	28256.52
474.28	27760.49
474.65	27284.63
475.01	26817.72
475.37	26237.87
475.73	25760.94
476.09	25218.15
476.45	24693.54
476.81	24171.88
477.18	23662.21
477.54	23239.81
477.90	22930.37
478.26	22546.57
478.62	22247.05
478.98	21971.62
479.34	21660.42
479.71	21260.26
480.07	20919.54
480.43	20543.72
480.79	20159.92
481.15	19807.32
481.51	19504.11
481.87	19258.63
482.23	19000.77
482.59	18760.21
482.96	18490.98
483.32	18207.38
483.68	17842.98
484.04	17502.39
484.40	17139.88
484.76	16772.98
485.12	16399.41
485.48	16087.67
485.84	15748.13
486.20	15412.22
486.56	15064.58
486.92	14762.79
487.28	14408.69
487.64	14047.61
488.00	13718.96
488.37	13395.80
488.73	13044.58
489.09	12701.67
489.45	12400.09
489.81	12093.90
490.17	11803.35
490.53	11519.79
490.89	11221.63
491.25	10933.09
491.61	10632.02
491.97	10325.23
492.33	10010.68
492.69	9734.38
493.05	9442.54
493.41	9156.08
493.77	8890.76
494.13	8654.67
494.49	8411.49
494.85	8173.99
495.21	7968.05
495.57	7767.00
495.93	7558.88
496.29	7364.64
496.64	7188.09
497.00	7002.60
497.36	6813.25
497.72	6631.37
498.08	6454.05
498.44	6280.78
498.80	6115.87
499.16	5965.39
499.52	5816.63
499.88	5693.14
500.24	5571.81
500.60	5448.74
500.96	5327.04
501.32	5216.49
501.68	5093.54
502.03	4969.59
502.39	4847.74
502.75	4714.75
503.11	4586.77
503.47	4470.54
503.83	4352.44
504.19	4239.83
504.55	4143.64
504.91	4058.25
505.26	3964.12
505.62	3885.87
505.98	3800.82
506.34	3714.48
506.70	3623.95
507.06	3541.51
507.42	3449.72
507.78	3373.98
508.13	3296.83
508.49	3218.00
508.85	3148.89
509.21	3087.03
509.57	3017.93
509.93	2954.08
510.28	2893.51
510.64	2827.25
511.00	2764.71
511.36	2711.74
511.72	2655.85
512.07	2609.70
512.43	2564.85
512.79	2511.39
513.15	2465.82
513.51	2420.47
513.86	2370.92
514.22	2333.87
514.58	2304.42
514.94	2266.76
515.30	2231.56
515.65	2200.88
516.01	2163.94
516.37	2131.50
516.73	2101.40
517.08	2074.91
517.44	2046.00
517.80	2019.62
518.16	1995.42
518.51	1968.25
518.87	1940.26
519.23	1914.65
519.59	1889.00
519.94	1859.37
520.30	1835.82
520.66	1814.76
521.01	1791.42
521.37	1768.42
521.73	1750.42
522.09	1731.13
522.44	1708.15
522.80	1691.90
523.16	1670.86
523.51	1647.29
523.87	1626.74
524.23	1609.56
524.58	1588.59
524.94	1571.01
525.30	1556.29
525.65	1541.36
526.01	1529.77
526.37	1516.90
526.72	1510.84
527.08	1500.56
527.44	1490.62
527.79	1477.93
528.15	1465.99
528.51	1448.93
528.86	1436.04
529.22	1420.73
529.58	1409.96
529.93	1397.09
530.29	1390.33
530.65	1377.29
531.00	1370.71
531.36	1364.11
531.71	1354.77
532.07	1346.93
532.43	1343.96
532.78	1336.33
533.14	1326.83
533.49	1323.95
533.85	1315.80
534.21	1308.87
534.56	1303.26
534.92	1294.41
535.27	1284.72
535.63	1282.33
535.98	1273.09
536.34	1263.44
536.69	1262.04
537.05	1256.75
537.41	1244.88
537.76	1240.55
538.12	1235.12
538.47	1228.52
538.83	1227.75
539.18	1226.28
539.54	1222.39
539.89	1221.69
540.25	1214.22
540.60	1213.43
540.96	1210.97
541.31	1209.85
541.67	1207.13
542.02	1206.64
542.38	1197.09
542.73	1190.82
543.09	1186.63
543.44	1181.27
543.80	1179.77
544.15	1181.17
544.51	1178.79
544.86	1177.62
545.22	1173.80
545.57	1171.13
545.93	1166.62
546.28	1167.76
546.64	1162.99
546.99	1163.71
547.35	1160.44
547.70	1157.79
548.05	1156.25
548.41	1155.66
548.76	1154.68
549.12	1153.70
549.47	1151.73
549.83	1148.36
550.18	1146.35
550.53	1142.72
550.89	1143.94
551.24	1144.38
551.60	1141.62
551.95	1139.16
552.30	1138.34
552.66	1136.24
553.01	1132.89
553.37	1135.70
553.72	1137.85
554.07	1136.96
554.43	1133.78
554.78	1133.66
555.13	1133.92
555.49	1130.92
555.84	1129.45
556.19	1129.92
556.55	1130.88
556.90	1127.18
557.26	1126.94
557.61	1124.86
557.96	1122.03
558.32	1121.61
558.67	1117.58
559.02	1117.56
559.37	1118.10
559.73	1116.65
560.08	1112.74
560.43	1113.23
560.79	1109.09
561.14	1109.67
561.49	1109.48
561.85	1108.55
562.20	1112.53
562.55	1113.63
562.90	1113.14
563.26	1113.51
563.61	1111.57
563.96	1106.65
564.32	1105.88
564.67	1104.36
565.02	1103.49
565.37	1105.41
565.73	1105.22
566.08	1108.29
566.43	1106.35
566.78	1106.44
567.14	1108.48
567.49	1108.08
567.84	1103.07
568.19	1105.95
568.54	1105.53
568.90	1103.94
569.25	1105.20
569.60	1105.27
569.95	1103.77
570.31	1102.28
570.66	1101.39
571.01	1097.41
571.36	1096.96
571.71	1098.44
572.06	1098.11
572.42	1097.22
572.77	1098.44
573.12	1098.55
573.47	1094.76
573.82	1094.22
574.18	1092.09
574.53	1093.22
574.88	1093.19
575.23	1095.07
575.58	1094.65
575.93	1098.86
576.28	1096.68
576.64	1096.52
576.99	1096.49
577.34	1098.51
577.69	1097.41
578.04	1096.89
578.39	1095.37
578.74	1091.63
579.09	1087.04
579.44	1083.46
579.80	1084.00
580.15	1085.17
580.50	1090.60
580.85	1094.18
581.20	1093.59
581.55	1092.91
581.90	1089.80
582.25	1085.03
582.60	1083.62
582.95	1083.11
583.30	1081.09
583.65	1086.50
584.00	1085.59
584.35	1084.21
584.71	1083.93
585.06	1086.22
585.41	1087.37
585.76	1089.89
586.11	1089.96
586.46	1095.14
586.81	1095.00
587.16	1092.54
587.51	1093.59
587.86	1094.06
588.21	1091.25
588.56	1089.66
588.91	1087.16
589.26	1087.02
589.61	1088.42
589.96	1087.86
590.31	1091.58
590.66	1089.57
591.01	1088.16
591.36	1088.37
591.71	1088.23
592.06	1088.93
592.41	1092.14
592.76	1090.78
593.10	1091.65
593.45	1094.32
593.80	1092.23
594.15	1093.43
594.50	1094.88
594.85	1093.05
595.20	1090.08
595.55	1088.79
595.90	1085.77
596.25	1081.96
596.60	1082.22
596.95	1080.84
597.30	1082.03
597.64	1090.06
597.99	1090.39
598.34	1091.86
598.69	1094.60
599.04	1094.29
599.39	1087.48
599.74	1090.76
600.09	1088.86
600.44	1088.79
600.78	1089.71
601.13	1088.96
601.48	1088.65
601.83	1088.75
602.18	1087.79
602.53	1087.02
602.88	1086.57
603.22	1084.74
603.57	1082.61
603.92	1082.45
604.27	1082.40
604.62	1084.46
604.97	1085.63
605.31	1088.23
605.66	1086.69
606.01	1085.94
606.36	1086.24
606.71	1085.54
607.05	1082.94
607.40	1082.24
607.75	1080.30
608.10	1077.11
608.44	1079.27
608.79	1083.88
609.14	1084.44
609.49	1085.19
609.84	1085.19
610.18	1084.49
610.53	1080.18
610.88	1082.66
611.23	1083.25
611.57	1085.52
611.92	1086.01
612.27	1086.08
612.62	1085.24
612.96	1084.16
613.31	1081.21
613.66	1079.08
614.00	1080.53
614.35	1078.87
614.70	1080.18
615.05	1082.47
615.39	1083.41
615.74	1082.05
616.09	1084.30
616.43	1081.63
616.78	1078.40
617.13	1074.52
617.47	1077.58
617.82	1074.14
618.17	1076.90
618.51	1080.63
618.86	1083.76
619.21	1081.02
619.55	1083.90
619.90	1085.17
620.25	1084.09
620.59	1083.95
620.94	1086.06
621.29	1085.10
621.63	1083.64
621.98	1084.51
622.32	1085.77
622.67	1083.95
623.02	1083.76
623.36	1083.34
623.71	1081.70
624.05	1082.33
624.40	1084.04
624.75	1084.63
625.09	1085.63
625.44	1088.09
625.78	1088.77
626.13	1087.97
626.48	1087.65
626.82	1086.31
627.17	1085.96
627.51	1087.20
627.86	1085.47
628.20	1088.33
628.55	1089.12
628.89	1088.37
629.24	1083.48
629.58	1083.74
629.93	1079.60
630.28	1079.57
630.62	1077.79
630.97	1080.67
631.31	1080.27
631.66	1081.56
632.00	1081.30
632.35	1083.79
632.69	1083.20
633.04	1084.56
633.38	1082.78
633.73	1081.89
634.07	1081.14
634.42	1079.85
634.76	1079.41
635.11	1081.58
635.45	1080.25
635.79	1078.14
636.14	1080.27
636.48	1081.16
636.83	1079.36
637.17	1079.46
637.52	1078.21
637.86	1076.41
638.21	1075.01
638.55	1076.58
638.89	1080.04
639.24	1084.96
639.58	1086.64
639.93	1086.80
640.27	1087.37
640.61	1084.16
640.96	1081.80
641.30	1079.88
641.65	1080.72
641.99	1080.04
642.33	1082.94
642.68	1081.54
643.02	1084.74
643.37	1084.09
643.71	1083.88
644.05	1082.69
644.40	1083.69
644.74	1079.17
645.08	1077.14
645.43	1077.84
645.77	1079.81
646.11	1080.98
646.46	1084.18
646.80	1086.34
647.14	1084.91
647.49	1082.24
647.83	1082.26
648.17	1080.74
648.52	1081.26
648.86	1084.51
649.20	1083.95
649.55	1085.07
649.89	1085.75
650.23	1084.51
650.57	1081.68
650.92	1079.99
651.26	1080.20
651.60	1079.50
651.95	1076.41
652.29	1077.77
652.63	1079.29
652.97	1076.39
653.32	1076.83
653.66	1082.45
654.00	1081.68
654.34	1079.17
654.69	1081.75
655.03	1084.07
655.37	1084.21
655.71	1082.26
656.05	1086.57
656.40	1086.08
656.74	1083.95
657.08	1082.33
657.42	1082.71
657.76	1080.34
658.11	1077.51
658.45	1073.79
658.79	1076.13
659.13	1080.67
659.47	1083.93
659.82	1088.09
660.16	1090.32
660.50	1086.92
660.84	1079.41
661.18	1076.97
661.52	1073.42
661.87	1076.67
662.21	1076.58
662.55	1080.77
662.89	1084.11
663.23	1084.18
663.57	1081.44
663.91	1081.89
664.25	1081.51
664.60	1081.89
664.94	1084.49
665.28	1083.83
665.62	1083.60
665.96	1085.05
666.30	1084.98
666.64	1082.45
666.98	1082.36
667.32	1084.81
667.66	1082.26
668.01	1079.55
668.35	1079.64
668.69	1081.21
669.03	1079.03
669.37	1082.43
669.71	1083.29
670.05	1085.17
670.39	1085.73
670.73	1087.74
671.07	1084.16
671.41	1084.39
671.75	1081.94
672.09	1081.77
672.43	1078.05
672.77	1080.06
673.11	1078.71
673.45	1079.13
673.79	1079.43
674.13	1081.84
674.47	1082.50
674.81	1082.76
675.15	1084.89
675.49	1084.21
675.83	1083.53
676.17	1080.70
676.51	1081.30
676.85	1080.30
677.19	1078.75
677.53	1080.72
677.87	1083.04
678.21	1081.87
678.55	1082.22
678.89	1082.78
679.23	1083.53
679.57	1083.53
679.90	1082.45
680.24	1080.11
680.58	1080.30
680.92	1078.12
681.26	1077.49
681.60	1076.55
681.94	1076.81
682.28	1075.29
682.62	1074.91
682.96	1072.71
683.29	1076.58
683.63	1077.09
683.97	1078.89
684.31	1076.83
684.65	1077.49
684.99	1076.79
685.33	1077.54
685.67	1075.20
686.00	1077.51
686.34	1077.93
686.68	1076.69
687.02	1076.58
687.36	1081.96
687.70	1080.63
688.03	1081.87
688.37	1081.89
688.71	1078.57
689.05	1076.30
689.39	1079.62
689.72	1078.43
690.06	1078.43
690.40	1082.69
690.74	1083.97
691.08	1079.90
691.41	1082.94
691.75	1082.15
692.09	1081.12
692.43	1078.68
692.76	1076.97
693.10	1075.66
693.44	1076.13
693.78	1078.00
694.11	1075.92
694.45	1076.67
694.79	1077.47
695.13	1076.69
695.46	1076.27
695.80	1076.76
696.14	1079.03
696.48	1077.54
696.81	1075.36
697.15	1072.83
697.49	1077.44
697.82	1081.07
698.16	1081.19
698.50	1087.30
698.83	1090.55
699.17	1090.90
699.51	1088.72
699.84	1089.33
700.18	1085.82
700.52	1084.21
700.85	1080.63
701.19	1078.80
701.53	1077.91
701.86	1075.90
702.20	1072.90
702.54	1074.21
702.87	1076.13
703.21	1077.75
703.55	1082.80
703.88	1087.32
704.22	1084.16
704.55	1083.08
704.89	1081.30
705.23	1079.22
705.56	1076.67
705.90	1077.11
706.23	1075.29
706.57	1072.55
706.91	1070.58
707.24	1071.66
707.58	1071.90
707.91	1074.49
708.25	1079.85
708.58	1079.36
708.92	1080.77
709.26	1081.33
709.59	1080.04
709.93	1078.00
710.26	1079.95
710.60	1078.05
710.93	1077.68
711.27	1077.30
711.60	1078.12
711.94	1078.87
712.27	1079.46
712.61	1081.16
712.94	1081.84
713.28	1079.41
713.61	1077.49
713.95	1076.93
714.28	1074.38
714.62	1074.31
714.95	1074.77
715.29	1077.30
715.62	1076.51
715.96	1080.91
716.29	1080.58
716.63	1083.46
716.96	1081.19
717.29	1082.45
717.63	1082.64
717.96	1084.44
718.30	1084.72
718.63	1088.47
718.97	1087.13
719.30	1084.35
719.63	1083.83
719.97	1080.93
720.30	1077.70
720.64	1078.50
720.97	1076.23
721.30	1074.68
721.64	1074.42
721.97	1074.84
722.31	1073.30
722.64	1074.87
722.97	1075.87
723.31	1078.00
723.64	1079.29
723.97	1082.97
724.31	1085.26
724.64	1085.07
724.98	1084.25
725.31	1082.59
725.64	1081.61
725.98	1078.47
726.31	1076.97
726.64	1078.61
726.97	1076.41
727.31	1077.14
727.64	1078.82
727.97	1079.24
728.31	1079.62
728.64	1083.01
728.97	1083.93
729.31	1085.17
729.64	1084.79
729.97	1082.73
730.30	1081.73
730.64	1072.06
730.97	1069.23
731.30	1070.42
731.63	1068.99
731.97	1070.63
732.30	1079.10
732.63	1078.45
732.96	1081.49
733.30	1080.56
733.63	1079.06
733.96	1077.00
734.29	1081.30
734.63	1076.76
734.96	1078.36
735.29	1076.69
735.62	1078.03
735.95	1074.96
736.29	1074.07
736.62	1073.49
736.95	1078.21
737.28	1078.07
737.61	1077.96
737.94	1081.37
738.28	1082.10
738.61	1080.60
738.94	1082.19
739.27	1085.00
739.60	1082.54
739.93	1082.05
740.27	1082.97
740.60	1080.09
740.93	1079.36
741.26	1081.91
741.59	1084.39
741.92	1080.37
742.25	1080.72
742.58	1078.82
742.91	1077.04
743.25	1075.52
743.58	1076.11
743.91	1075.52
744.24	1075.90
744.57	1075.05
744.90	1076.88
745.23	1080.44
745.56	1081.82
745.89	1084.28
746.22	1087.55
746.55	1083.48
746.88	1082.64
747.21	1083.32
747.54	1080.18
747.87	1079.15
748.20	1079.60
748.53	1078.54
748.87	1078.26
749.20	1079.57
749.53	1080.37
749.86	1080.93
750.19	1081.87
750.52	1080.46
750.85	1080.84
751.18	1076.62
751.51	1078.40
751.84	1076.60
752.16	1076.65
752.49	1075.17
752.82	1077.70
753.15	1074.66
753.48	1074.87
753.81	1076.53
754.14	1078.85
754.47	1077.82
754.80	1081.09
755.13	1080.32
755.46	1078.40
755.79	1079.64
756.12	1082.36
756.45	1080.91
756.78	1082.17
757.11	1082.78
757.43	1080.98
757.76	1077.54
758.09	1080.81
758.42	1079.20
758.75	1079.48
759.08	1076.58
759.41	1076.18
759.74	1072.20
760.07	1074.14
760.39	1072.34
760.72	1076.60
761.05	1078.36
761.38	1079.22
761.71	1081.66
762.04	1082.85
762.36	1080.27
762.69	1080.34
763.02	1081.44
763.35	1080.18
763.68	1078.57
764.01	1082.15
764.33	1081.51
764.66	1080.98
764.99	1081.21
765.32	1081.26
765.65	1079.24
765.97	1079.74
766.30	1077.77
766.63	1074.98
766.96	1078.17
767.28	1077.68
767.61	1081.40
767.94	1083.36
768.27	1084.37
768.59	1080.70
768.92	1081.89
769.25	1080.25
769.58	1081.75
769.90	1084.04
770.23	1086.20
770.56	1083.29
770.89	1082.03
771.21	1079.13
771.54	1075.27
771.87	1074.96
772.19	1073.63
772.52	1072.57
772.85	1076.37
773.17	1076.95
773.50	1078.80
773.83	1078.82
774.15	1080.51
774.48	1076.39
774.81	1074.75
775.13	1074.91
775.46	1081.00
775.79	1083.04
776.11	1083.81
776.44	1083.27
776.77	1082.69
777.09	1079.97
777.42	1078.73
777.74	1078.99
778.07	1078.40
778.40	1077.56
778.72	1076.06
779.05	1077.84
779.37	1076.39
779.70	1083.18
780.03	1083.41
780.35	1082.99
780.68	1079.48
781.00	1080.88
781.33	1078.52
781.65	1078.92
781.98	1080.56
782.31	1082.38
782.63	1083.04
782.96	1081.61
783.28	1081.23
783.61	1078.43
783.93	1077.51
784.26	1076.41
784.58	1075.55
784.91	1072.95
785.23	1074.28
785.56	1072.36
785.88	1072.41
786.21	1073.44
786.53	1074.47
786.86	1073.00
787.18	1072.34
787.51	1075.43
787.83	1075.59
788.16	1075.41
788.48	1078.92
788.81	1080.39
789.13	1075.20
789.46	1077.00
789.78	1079.48
790.10	1078.96
790.43	1080.93
790.75	1082.76
791.08	1081.91
791.40	1082.10
791.73	1082.29
792.05	1075.59
792.37	1075.55
792.70	1073.67
793.02	1070.65
793.35	1071.97
793.67	1077.68
793.99	1077.25
794.32	1077.11
794.64	1078.87
794.96	1081.42
795.29	1082.57
795.61	1083.71
795.93	1083.76
796.26	1088.33
796.58	1087.27
796.91	1085.91
797.23	1085.47
797.55	1087.23
797.87	1084.21
798.20	1082.45
798.52	1081.77
798.84	1081.33
799.17	1082.31
799.49	1079.64
799.81	1079.46
800.14	1077.40
800.46	1079.74
800.78	1078.47
801.10	1076.90
801.43	1076.25
801.75	1076.53
802.07	1073.77
802.40	1074.24
802.72	1077.09
803.04	1074.98
803.36	1079.20
803.69	1077.51
804.01	1076.90
804.33	1076.62
804.65	1075.85
804.97	1074.70
805.30	1079.57
805.62	1079.06
805.94	1077.51
806.26	1078.64
806.58	1076.62
806.91	1073.25
807.23	1072.76
807.55	1073.79
807.87	1074.91
808.19	1072.97
808.52	1078.19
808.84	1076.74
809.16	1076.79
809.48	1074.33
809.80	1078.24
810.12	1075.15
810.44	1080.27
810.77	1080.60
811.09	1079.97
811.41	1078.17
811.73	1076.81
812.05	1074.66
812.37	1074.80
812.69	1077.33
813.01	1078.21
813.33	1078.10
813.66	1079.03
813.98	1079.62
814.30	1081.12
814.62	1079.17
814.94	1080.02
815.26	1078.31
815.58	1080.41
815.90	1081.61
816.22	1084.39
816.54	1084.53
816.86	1085.07
817.18	1084.77
817.50	1082.61
817.82	1083.81
818.14	1085.21
818.46	1086.52
818.78	1085.70
819.10	1083.46
819.42	1080.79
819.74	1079.29
820.06	1077.21
820.38	1074.66
820.70	1074.52
821.02	1073.95
821.34	1074.49
821.66	1076.81
821.98	1076.41
822.30	1078.57
822.62	1078.89
822.94	1078.57
823.26	1077.98
823.58	1080.79
823.90	1082.43
824.22	1081.54
824.54	1080.74
824.86	1081.33
825.18	1078.66
825.50	1074.89
825.81	1073.14
826.13	1074.87
826.45	1074.66
826.77	1075.03
827.09	1077.04
827.41	1078.21
827.73	1078.31
828.05	1075.50
828.36	1073.42
828.68	1075.76
829.00	1079.20
829.32	1080.37
829.64	1082.97
829.96	1086.13
830.28	1083.67
830.59	1080.79
830.91	1079.01
831.23	1074.52
831.55	1076.51
831.87	1075.08
832.19	1078.26
832.50	1075.24
832.82	1079.50
833.14	1079.60
833.46	1080.84
833.78	1080.93
834.09	1084.65
834.41	1083.67
834.73	1083.13
835.05	1085.19
835.36	1084.63
835.68	1082.24
836.00	1081.49
836.32	1077.82
836.63	1072.64
836.95	1068.34
837.27	1068.36
837.59	1067.19
837.90	1067.47
838.22	1068.81
838.54	1073.42
838.85	1072.78
839.17	1074.31
839.49	1074.26
839.80	1073.70
840.12	1071.68
840.44	1075.71
840.76	1075.83
841.07	1075.99
841.39	1077.93
841.71	1076.27
842.02	1074.98
842.34	1076.08
842.65	1078.75
842.97	1078.78
843.29	1080.23
843.60	1078.45
843.92	1077.14
844.24	1076.25
844.55	1078.57
844.87	1079.06
845.18	1078.03
845.50	1078.68
845.82	1076.79
846.13	1073.04
846.45	1074.10
846.76	1073.63
847.08	1070.75
847.40	1070.58
847.71	1070.28
848.03	1068.50
848.34	1071.31
848.66	1072.85
848.97	1076.15
849.29	1079.27
849.60	1083.11
849.92	1083.53
850.24	1086.31
850.55	1083.39
850.87	1082.54
851.18	1076.48
851.50	1075.43
851.81	1072.90
852.13	1074.19
852.44	1073.30
852.76	1078.19
853.07	1079.99
853.39	1081.91
853.70	1082.87
854.01	1083.32
854.33	1081.73
854.64	1082.17
854.96	1079.10
855.27	1076.13
855.59	1079.06
855.90	1078.92
856.22	1077.98
856.53	1079.38
856.84	1081.61
857.16	1077.40
857.47	1077.28
857.79	1076.39
858.10	1074.98
858.41	1072.88
858.73	1074.14
859.04	1073.63
859.36	1071.61
859.67	1074.17
859.98	1079.01
860.30	1080.30
860.61	1079.90
860.92	1081.09
861.24	1082.92
861.55	1079.50
861.87	1079.92
862.18	1079.71
862.49	1081.63
862.81	1081.80
863.12	1083.93
863.43	1082.19
863.74	1085.75
864.06	1085.70
864.37	1081.61
864.68	1081.73
865.00	1082.24
865.31	1077.75
865.62	1075.85
865.94	1077.70
866.25	1078.05
866.56	1077.58
866.87	1081.63
867.19	1079.60
867.50	1079.99
867.81	1078.40
868.12	1080.91
868.44	1078.64
868.75	1079.03
869.06	1075.73
869.37	1074.98
869.68	1074.68
870.00	1074.91
870.31	1079.34
870.62	1082.29
870.93	1083.06
871.24	1082.87
871.56	1084.49
871.87	1084.35
872.18	1084.60
872.49	1084.63
872.80	1083.34
873.12	1082.45
873.43	1079.55
873.74	1078.43
874.05	1078.82
874.36	1077.49
874.67	1076.37
874.98	1077.44
875.29	1078.78
875.61	1079.78
875.92	1079.95
876.23	1081.00
876.54	1078.38
876.85	1077.37
877.16	1075.92
877.47	1077.54
877.78	1075.45
878.09	1076.97
878.40	1074.21
878.72	1074.56
879.03	1073.02
879.34	1075.80
879.65	1075.99
879.96	1079.36
880.27	1080.20
880.58	1079.08
880.89	1078.57
881.20	1081.28
881.51	1079.15
881.82	1077.28
882.13	1078.92
882.44	1078.14
882.75	1077.00
883.06	1082.03
883.37	1083.57
883.68	1082.80
883.99	1083.36
884.30	1081.94
884.61	1075.99
884.92	1075.10
885.23	1078.59
885.54	1078.78
885.85	1079.53
886.16	1082.83
886.47	1081.35
886.78	1078.89
887.08	1076.53
887.39	1074.19
887.70	1072.29
888.01	1077.30
888.32	1078.31
888.63	1077.09
888.94	1080.06
889.25	1082.45
889.56	1078.92
889.87	1073.81
890.17	1077.16
890.48	1073.74
890.79	1073.51
891.10	1074.42
891.41	1079.71
891.72	1079.60
892.03	1081.89
892.34	1081.26
892.64	1080.72
892.95	1079.22
893.26	1078.38
893.57	1081.05
893.88	1082.78
894.18	1082.94
894.49	1084.53
894.80	1085.28
895.11	1083.04
895.42	1080.30
895.72	1081.16
896.03	1079.78
896.34	1079.88
896.65	1079.97
896.96	1076.46
897.26	1071.73
897.57	1072.46
897.88	1072.74
898.19	1069.72
898.49	1073.16
898.80	1077.28
899.11	1078.59
899.41	1078.85
899.72	1080.63
900.03	1078.99
900.34	1078.89
900.64	1076.81
900.95	1078.96
901.26	1078.14
901.56	1081.23
901.87	1080.72
902.18	1084.14
902.48	1083.25
902.79	1085.31
903.10	1085.70
903.40	1087.69
903.71	1083.39
904.02	1080.65
904.32	1080.74
904.63	1082.24
904.94	1077.23
905.24	1074.33
905.55	1073.51
905.85	1072.39
906.16	1069.95
906.47	1073.02
906.77	1075.45
907.08	1075.94
907.38	1075.78
907.69	1073.28
908.00	1070.37
908.30	1069.58
908.61	1073.93
908.91	1077.21
909.22	1079.01
909.52	1081.05
909.83	1083.04
910.14	1079.27
910.44	1078.03
910.75	1076.65
911.05	1077.04
911.36	1078.85
911.66	1080.41
911.97	1076.81
912.27	1079.15
912.58	1078.31
912.88	1077.44
913.19	1075.59
913.49	1078.64
913.80	1077.07
914.10	1078.64
914.41	1076.93
914.71	1079.78
915.01	1080.56
915.32	1080.41
915.62	1076.67
915.93	1077.98
916.23	1078.36
916.54	1076.67
916.84	1078.36
917.15	1080.23
917.45	1076.86
917.75	1070.75
918.06	1069.11
918.36	1066.58
918.67	1066.16
918.97	1069.84
919.27	1074.52
919.58	1077.56
919.88	1079.24
920.18	1079.53
920.49	1076.15
920.79	1075.43
921.10	1077.61
921.40	1076.04
921.70	1077.49
922.01	1079.53
922.31	1077.28
922.61	1075.83
922.92	1075.22
923.22	1076.88
923.52	1076.65
923.82	1079.34
924.13	1081.00
924.43	1085.66
924.73	1082.15
925.04	1085.05
925.34	1085.03
925.64	1079.27
925.94	1074.98
926.25	1076.41
926.55	1076.08
926.85	1074.52
927.15	1075.73
927.46	1075.52
927.76	1075.55
928.06	1072.18
928.36	1074.21
928.67	1074.07
928.97	1077.14
929.27	1078.71
929.57	1079.60
929.87	1078.52
930.18	1079.29
930.48	1076.67
930.78	1074.31
931.08	1073.44
931.38	1073.18
931.69	1075.48
931.99	1076.11
932.29	1078.71
932.59	1079.22
932.89	1081.61
933.19	1081.28
933.49	1080.93
933.80	1079.62
934.10	1080.13
934.40	1075.36
934.70	1072.43
935.00	1074.10
935.30	1072.62
935.60	1071.22
935.90	1071.24
936.20	1072.48
936.50	1071.03
936.81	1070.89
937.11	1074.35
937.41	1078.64
937.71	1078.31
938.01	1078.71
938.31	1081.16
938.61	1080.53
938.91	1078.12
939.21	1078.45
939.51	1078.66
939.81	1077.84
940.11	1078.64
940.41	1080.88
940.71	1079.83
941.01	1080.02
941.31	1079.60
941.61	1074.56
941.91	1071.47
942.21	1071.52
942.51	1071.15
942.81	1069.27
943.11	1072.48
943.41	1075.10
943.71	1076.06
944.01	1076.88
944.31	1079.78
944.61	1080.51
944.90	1080.93
945.20	1080.06
945.50	1077.75
945.80	1074.66
946.10	1073.21
946.40	1070.42
946.70	1069.06
947.00	1070.89
947.30	1071.64
947.60	1070.51
947.89	1068.78
948.19	1070.44
948.49	1073.65
948.79	1076.41
949.09	1077.68
949.39	1083.29
949.69	1082.54
949.98	1080.11
950.28	1080.27
950.58	1081.70
950.88	1078.12
951.18	1076.81
951.48	1075.64
951.77	1074.21
952.07	1069.72
952.37	1069.91
952.67	1071.12
952.97	1068.78
953.26	1070.68
953.56	1072.39
953.86	1069.09
954.16	1069.84
954.45	1073.44
954.75	1072.08
955.05	1073.00
955.35	1076.39
955.64	1076.86
955.94	1078.75
956.24	1079.99
956.54	1082.52
956.83	1083.29
957.13	1080.86
957.43	1077.82
957.72	1074.52
958.02	1071.52
958.32	1071.87
958.61	1073.63
958.91	1073.53
959.21	1073.21
959.50	1079.53
959.80	1079.97
960.10	1082.17
960.39	1085.07
960.69	1088.07
960.99	1084.16
961.28	1084.23
961.58	1083.69
961.87	1078.71
962.17	1074.49
962.47	1075.45
962.76	1074.24
963.06	1073.72
963.36	1076.97
963.65	1079.46
963.95	1077.98
964.24	1077.58
964.54	1079.22
964.83	1078.66
965.13	1080.77
965.42	1081.00
965.72	1081.98
966.02	1079.90
966.31	1076.83
966.61	1072.76
966.90	1072.90
967.20	1070.37
967.49	1069.23
967.79	1071.75
968.08	1073.56
968.38	1073.88
968.67	1076.67
968.97	1077.58
969.26	1077.65
969.56	1080.81
969.85	1082.05
970.15	1082.59
970.44	1082.94
970.74	1085.35
971.03	1085.14
971.32	1083.27
971.62	1081.49
971.91	1081.82
972.21	1081.91
972.50	1081.21
972.80	1080.79
973.09	1081.44
973.38	1084.21
973.68	1078.54
973.97	1073.81
974.27	1075.36
974.56	1075.73
974.85	1074.14
975.15	1079.38
975.44	1082.54
975.73	1084.70
976.03	1082.87
976.32	1082.85
976.61	1078.82
976.91	1079.36
977.20	1075.73
977.49	1077.37
977.79	1076.27
978.08	1077.11
978.37	1077.79
978.67	1077.86
978.96	1074.68
979.25	1076.04
979.55	1076.74
979.84	1077.75
980.13	1079.43
980.42	1083.88
980.72	1080.86
981.01	1081.47
981.30	1079.50
981.59	1073.91
981.89	1071.40
982.18	1077.86
982.47	1077.47
982.76	1075.50
983.06	1078.87
983.35	1081.16
983.64	1076.83
983.93	1079.83
984.22	1082.54
984.52	1083.46
984.81	1082.29
985.10	1084.51
985.39	1079.74
985.68	1076.72
985.97	1076.83
986.27	1079.48
986.56	1076.46
986.85	1079.74
987.14	1082.78
987.43	1079.99
987.72	1079.41
988.01	1078.50
988.31	1078.47
988.60	1076.53
988.89	1078.64
989.18	1077.56
989.47	1076.37
989.76	1073.07
990.05	1071.47
990.34	1071.50
990.63	1070.14
990.92	1072.62
991.21	1076.60
991.51	1077.35
991.80	1074.26
992.09	1076.25
992.38	1077.61
992.67	1075.71
992.96	1077.68
993.25	1081.16
993.54	1080.60
993.83	1078.19
994.12	1080.23
994.41	1078.43
994.70	1079.90
994.99	1076.20
995.28	1077.89
995.57	1077.18
995.86	1080.27
996.15	1079.74
996.44	1084.96
996.73	1083.25
997.02	1081.63
997.31	1080.72
997.59	1078.21
997.88	1075.85
998.17	1080.13
998.46	1082.71
998.75	1084.53
999.04	1089.22
999.33	1083.25
999.62	1079.15
999.91	1075.99
1000.20	1074.45
1000.49	1074.42
1000.77	1079.92
1001.06	1081.70
1001.35	1084.70
1001.64	1085.10
1001.93	1082.90
1002.22	1081.00
1002.51	1078.47
1002.79	1075.99
1003.08	1075.10
1003.37	1073.21
1003.66	1075.90
1003.95	1075.24
1004.23	1074.61
1004.52	1073.04
1004.81	1073.79
1005.10	1073.81
1005.39	1075.34
1005.67	1077.75
1005.96	1076.67
1006.25	1078.33
1006.54	1076.74
1006.83	1079.67
1007.11	1079.78
1007.40	1082.90
1007.69	1081.26
1007.97	1083.48
1008.26	1077.56
1008.55	1078.19
1008.84	1078.40
1009.12	1078.52
1009.41	1074.98
1009.70	1079.97
1009.98	1079.10
1010.27	1076.13
1010.56	1075.29
1010.85	1077.33
1011.13	1075.03
1011.42	1074.94
1011.71	1077.33
1011.99	1076.95
1012.28	1077.49
1012.56	1078.87
1012.85	1077.82
1013.14	1074.17
1013.42	1076.58
1013.71	1072.95
1014.00	1072.83
1014.28	1074.21
1014.57	1075.78
1014.85	1075.73
1015.14	1081.96
1015.43	1083.22
1015.71	1083.43
1016.00	1085.28
1016.28	1084.25
1016.57	1082.54
1016.85	1079.43
1017.14	1076.48
1017.43	1076.04
1017.71	1078.00
1018.00	1078.24
1018.28	1079.46
1018.57	1079.17
1018.85	1077.82
1019.14	1075.97
1019.42	1074.21
1019.71	1072.22
1019.99	1075.13
1020.28	1076.39
1020.56	1074.73
1020.85	1074.24
1021.13	1077.09
1021.42	1074.59
1021.70	1076.37
1021.99	1071.78
1022.27	1072.43
1022.55	1048.56
1022.84	1077.35
>>>>>End Processed Spectral Data<<<<<
