SpectraSuite Data File
++++++++++++++++++++++++++++++++++++
Date: Mon Aug 26 10:21:52 PDT 2019
User: corrico
Dark Spectrum Present: No
Reference Spectrum Present: No
Number of Sampled Component Spectra: 1
Spectrometers: USB2+H06089
Integration Time (usec): 2000 (USB2+H06089)
Spectra Averaged: 20 (USB2+H06089)
Boxcar Smoothing: 2 (USB2+H06089)
Correct for Electrical Dark: No (USB2+H06089)
Strobe/Lamp Enabled: No (USB2+H06089)
Correct for Detector Non-linearity: No (USB2+H06089)
Correct for Stray Light: No (USB2+H06089)
Number of Pixels in Processed Spectrum: 2048
>>>>>Begin Processed Spectral Data<<<<<
339.70	1032.18
340.07	1032.18
340.45	997.37
340.82	975.02
341.19	950.56
341.57	921.96
341.94	910.75
342.31	900.83
342.69	892.68
343.06	890.85
343.43	895.98
343.81	895.98
344.18	897.76
344.55	906.16
344.93	911.69
345.30	914.07
345.67	922.69
346.04	929.80
346.42	937.34
346.79	943.87
347.16	954.07
347.54	961.38
347.91	970.39
348.28	978.81
348.65	990.63
349.03	996.67
349.40	1006.10
349.77	1012.82
350.14	1017.57
350.52	1020.85
350.89	1026.32
351.26	1031.33
351.63	1038.80
352.01	1046.38
352.38	1049.82
352.75	1053.83
353.12	1055.70
353.50	1059.02
353.87	1059.70
354.24	1061.55
354.61	1067.12
354.98	1071.15
355.36	1068.38
355.73	1068.59
356.10	1070.65
356.47	1070.51
356.84	1073.63
357.22	1076.27
357.59	1079.71
357.96	1079.24
358.33	1077.49
358.70	1073.84
359.08	1072.39
359.45	1071.80
359.82	1073.07
360.19	1073.32
360.56	1072.78
360.94	1071.24
361.31	1067.73
361.68	1064.41
362.05	1061.95
362.42	1065.06
362.79	1071.05
363.16	1070.51
363.54	1070.91
363.91	1071.31
364.28	1068.13
364.65	1064.59
365.02	1065.25
365.39	1065.25
365.76	1067.59
366.14	1067.85
366.51	1063.82
366.88	1065.13
367.25	1066.04
367.62	1062.04
367.99	1059.75
368.36	1060.12
368.73	1055.28
369.10	1053.15
369.48	1055.51
369.85	1058.55
370.22	1063.52
370.59	1062.74
370.96	1061.50
371.33	1063.16
371.70	1062.06
372.07	1061.11
372.44	1064.94
372.81	1067.52
373.18	1064.97
373.55	1066.68
373.93	1062.39
374.30	1061.57
374.67	1063.45
375.04	1065.13
375.41	1064.36
375.78	1064.36
376.15	1064.78
376.52	1063.09
376.89	1062.63
377.26	1062.53
377.63	1066.98
378.00	1070.56
378.37	1071.33
378.74	1071.78
379.11	1071.36
379.48	1068.50
379.85	1070.94
380.22	1069.98
380.59	1069.34
380.96	1067.12
381.33	1068.99
381.70	1062.98
382.07	1063.33
382.44	1065.34
382.81	1068.55
383.18	1069.23
383.55	1069.23
383.92	1071.26
384.29	1071.10
384.66	1072.06
385.03	1070.07
385.40	1072.13
385.77	1072.04
386.14	1068.99
386.51	1070.40
386.88	1073.07
387.25	1073.35
387.62	1072.04
387.99	1072.78
388.36	1070.40
388.73	1070.02
389.10	1068.55
389.46	1067.71
389.83	1069.02
390.20	1068.22
390.57	1068.57
390.94	1069.88
391.31	1072.74
391.68	1070.65
392.05	1070.37
392.42	1069.84
392.79	1069.77
393.16	1068.43
393.53	1068.64
393.89	1068.78
394.26	1068.50
394.63	1069.41
395.00	1071.03
395.37	1071.15
395.74	1073.04
396.11	1073.98
396.48	1070.51
396.84	1067.24
397.21	1070.21
397.58	1068.08
397.95	1068.31
398.32	1070.37
398.69	1073.86
399.06	1070.30
399.42	1070.37
399.79	1069.37
400.16	1071.03
400.53	1070.72
400.90	1072.95
401.27	1073.53
401.64	1074.73
402.00	1072.18
402.37	1071.47
402.74	1071.68
403.11	1074.94
403.48	1074.66
403.84	1078.71
404.21	1078.24
404.58	1075.55
404.95	1075.22
405.32	1074.40
405.68	1073.32
406.05	1072.69
406.42	1075.52
406.79	1072.69
407.16	1071.82
407.52	1070.68
407.89	1070.14
408.26	1072.78
408.63	1070.68
408.99	1074.66
409.36	1075.10
409.73	1075.69
410.10	1074.03
410.47	1076.58
410.83	1074.17
411.20	1075.41
411.57	1075.64
411.94	1076.37
412.30	1077.40
412.67	1076.41
413.04	1073.98
413.40	1075.03
413.77	1072.22
414.14	1071.71
414.51	1074.38
414.87	1075.38
415.24	1075.10
415.61	1078.33
415.97	1078.40
416.34	1076.48
416.71	1077.02
417.08	1077.72
417.44	1077.82
417.81	1078.50
418.18	1079.48
418.54	1082.29
418.91	1084.21
419.28	1083.32
419.64	1081.14
420.01	1078.94
420.38	1076.60
420.74	1073.67
421.11	1073.51
421.48	1078.33
421.84	1081.58
422.21	1081.94
422.58	1083.67
422.94	1083.36
423.31	1082.57
423.68	1083.86
424.04	1083.13
424.41	1083.60
424.77	1083.34
425.14	1083.11
425.51	1084.16
425.87	1086.43
426.24	1087.02
426.61	1089.59
426.97	1091.72
427.34	1092.47
427.70	1091.81
428.07	1091.98
428.44	1092.26
428.80	1092.42
429.17	1091.65
429.53	1094.69
429.90	1099.91
430.27	1099.14
430.63	1099.42
431.00	1102.44
431.36	1103.68
431.73	1102.02
432.09	1108.90
432.46	1109.77
432.83	1110.40
433.19	1112.15
433.56	1118.54
433.92	1118.50
434.29	1127.01
434.65	1131.18
435.02	1136.35
435.38	1137.97
435.75	1140.85
436.11	1140.96
436.48	1145.97
436.84	1149.72
437.21	1153.91
437.57	1158.94
437.94	1164.09
438.30	1168.25
438.67	1174.04
439.03	1182.09
439.40	1190.19
439.76	1199.48
440.13	1208.61
440.49	1216.12
440.86	1223.40
441.22	1234.35
441.59	1245.28
441.95	1260.59
442.32	1272.57
442.68	1284.79
443.05	1296.19
443.41	1308.78
443.78	1320.86
444.14	1338.29
444.51	1352.85
444.87	1370.50
445.24	1388.01
445.60	1404.91
445.96	1424.36
446.33	1446.08
446.69	1464.54
447.06	1489.26
447.42	1514.42
447.79	1539.42
448.15	1571.23
448.51	1601.98
448.88	1633.46
449.24	1661.73
449.61	1699.88
449.97	1732.93
450.33	1774.48
450.70	1810.36
451.06	1853.52
451.43	1889.91
451.79	1938.01
452.15	1990.53
452.52	2048.62
452.88	2106.18
453.24	2169.89
453.61	2235.94
453.97	2300.21
454.34	2369.04
454.70	2443.40
455.06	2521.48
455.43	2596.99
455.79	2664.56
456.15	2742.03
456.52	2822.83
456.88	2914.46
457.24	3009.91
457.61	3128.20
457.97	3230.34
458.33	3332.27
458.70	3431.62
459.06	3523.86
459.42	3621.28
459.79	3723.16
460.15	3839.16
460.51	3942.70
460.88	4055.38
461.24	4153.40
461.60	4260.31
461.96	4360.09
462.33	4465.84
462.69	4563.41
463.05	4672.67
463.42	4760.79
463.78	4849.61
464.14	4921.63
464.50	5020.96
464.87	5088.77
465.23	5147.59
465.59	5192.10
465.95	5238.80
466.32	5263.05
466.68	5290.83
467.04	5326.31
467.40	5354.56
467.77	5369.52
468.13	5358.33
468.49	5352.81
468.85	5344.85
469.22	5336.87
469.58	5323.60
469.94	5313.65
470.30	5276.48
470.66	5223.35
471.03	5161.82
471.39	5115.12
471.75	5045.98
472.11	4982.11
472.47	4940.22
472.84	4882.31
473.20	4802.33
473.56	4750.84
473.92	4686.50
474.28	4627.89
474.65	4581.74
475.01	4542.11
475.37	4475.06
475.73	4420.24
476.09	4348.95
476.45	4273.21
476.81	4206.72
477.18	4148.67
477.54	4101.51
477.90	4058.40
478.26	4007.47
478.62	3954.57
478.98	3910.94
479.34	3875.65
479.71	3828.58
480.07	3796.47
480.43	3764.59
480.79	3729.60
481.15	3680.00
481.51	3630.50
481.87	3581.56
482.23	3534.63
482.59	3497.51
482.96	3460.79
483.32	3436.75
483.68	3400.35
484.04	3367.47
484.40	3326.63
484.76	3293.32
485.12	3248.83
485.48	3213.60
485.84	3178.85
486.20	3151.06
486.56	3102.78
486.92	3060.81
487.28	3021.14
487.64	2974.14
488.00	2921.06
488.37	2876.75
488.73	2832.89
489.09	2784.63
489.45	2737.07
489.81	2690.31
490.17	2645.86
490.53	2605.65
490.89	2567.73
491.25	2527.64
491.61	2485.04
491.97	2454.78
492.33	2418.41
492.69	2380.16
493.05	2346.53
493.41	2311.12
493.77	2272.33
494.13	2236.24
494.49	2199.07
494.85	2163.43
495.21	2138.97
495.57	2110.53
495.93	2082.80
496.29	2057.47
496.64	2034.21
497.00	1999.50
497.36	1969.51
497.72	1941.03
498.08	1919.05
498.44	1891.39
498.80	1869.64
499.16	1847.81
499.52	1829.27
499.88	1807.22
500.24	1788.99
500.60	1771.43
500.96	1755.66
501.32	1734.73
501.68	1715.45
502.03	1692.79
502.39	1674.33
502.75	1650.10
503.11	1629.29
503.47	1610.22
503.83	1597.79
504.19	1580.73
504.55	1567.78
504.91	1555.64
505.26	1540.45
505.62	1526.22
505.98	1512.27
506.34	1504.73
506.70	1491.13
507.06	1481.84
507.42	1464.82
507.78	1454.39
508.13	1437.30
508.49	1424.71
508.85	1413.38
509.21	1403.60
509.57	1388.85
509.93	1379.00
510.28	1368.14
510.64	1358.61
511.00	1350.84
511.36	1344.52
511.72	1336.80
512.07	1327.18
512.43	1315.52
512.79	1307.66
513.15	1300.45
513.51	1292.16
513.86	1289.68
514.22	1286.31
514.58	1274.70
514.94	1268.52
515.30	1261.83
515.65	1252.89
516.01	1243.48
516.37	1244.16
516.73	1238.45
517.08	1235.66
517.44	1230.65
517.80	1225.72
518.16	1221.17
518.51	1219.65
518.87	1215.16
519.23	1212.40
519.59	1209.64
519.94	1198.92
520.30	1194.42
520.66	1193.65
521.01	1189.34
521.37	1185.41
521.73	1188.13
522.09	1182.06
522.44	1173.57
522.80	1170.55
523.16	1170.85
523.51	1165.35
523.87	1163.06
524.23	1161.12
524.58	1156.53
524.94	1150.07
525.30	1148.03
525.65	1144.64
526.01	1142.86
526.37	1143.21
526.72	1141.76
527.08	1138.23
527.44	1140.92
527.79	1138.72
528.15	1136.21
528.51	1132.35
528.86	1131.02
529.22	1125.14
529.58	1124.86
529.93	1123.48
530.29	1124.81
530.65	1124.07
531.00	1124.98
531.36	1122.38
531.71	1120.77
532.07	1119.34
532.43	1120.48
532.78	1117.25
533.14	1113.28
533.49	1111.10
533.85	1113.16
534.21	1112.48
534.56	1110.63
534.92	1111.15
535.27	1109.11
535.63	1105.04
535.98	1101.57
536.34	1100.99
536.69	1101.46
537.05	1099.33
537.41	1098.39
537.76	1098.44
538.12	1097.17
538.47	1095.18
538.83	1101.11
539.18	1100.75
539.54	1101.41
539.89	1103.52
540.25	1104.36
540.60	1101.81
540.96	1101.06
541.31	1100.08
541.67	1098.44
542.02	1098.76
542.38	1098.88
542.73	1099.89
543.09	1100.36
543.44	1100.71
543.80	1099.47
544.15	1099.68
544.51	1095.00
544.86	1093.26
545.22	1088.93
545.57	1093.24
545.93	1089.50
546.28	1091.58
546.64	1094.08
546.99	1099.33
547.35	1093.76
547.70	1095.44
548.05	1092.19
548.41	1090.64
548.76	1091.02
549.12	1089.36
549.47	1090.36
549.83	1092.42
550.18	1091.23
550.53	1084.60
550.89	1084.39
551.24	1081.19
551.60	1085.28
551.95	1085.87
552.30	1089.12
552.66	1087.72
553.01	1088.02
553.37	1082.97
553.72	1082.57
554.07	1085.14
554.43	1086.15
554.78	1084.49
555.13	1086.73
555.49	1085.47
555.84	1080.25
556.19	1078.78
556.55	1079.71
556.90	1077.35
557.26	1074.17
557.61	1078.82
557.96	1078.24
558.32	1077.07
558.67	1077.21
559.02	1080.39
559.37	1075.66
559.73	1077.04
560.08	1077.51
560.43	1079.60
560.79	1080.11
561.14	1080.72
561.49	1082.31
561.85	1083.13
562.20	1080.86
562.55	1079.60
562.90	1077.28
563.26	1074.56
563.61	1074.38
563.96	1077.04
564.32	1079.71
564.67	1084.32
565.02	1084.09
565.37	1085.47
565.73	1082.50
566.08	1083.76
566.43	1078.61
566.78	1078.12
567.14	1078.85
567.49	1079.13
567.84	1074.68
568.19	1076.44
568.54	1079.69
568.90	1076.81
569.25	1076.37
569.60	1078.10
569.95	1079.20
570.31	1079.53
570.66	1077.37
571.01	1078.82
571.36	1076.95
571.71	1076.88
572.06	1075.17
572.42	1076.20
572.77	1073.58
573.12	1073.51
573.47	1075.85
573.82	1073.86
574.18	1071.26
574.53	1072.64
574.88	1072.55
575.23	1071.75
575.58	1073.70
575.93	1077.02
576.28	1081.19
576.64	1081.98
576.99	1081.05
577.34	1082.19
577.69	1081.07
578.04	1076.34
578.39	1079.03
578.74	1078.03
579.09	1077.23
579.44	1079.08
579.80	1076.72
580.15	1075.41
580.50	1075.50
580.85	1078.07
581.20	1077.14
581.55	1079.31
581.90	1078.24
582.25	1079.50
582.60	1076.60
582.95	1075.05
583.30	1073.65
583.65	1072.34
584.00	1071.05
584.35	1070.87
584.71	1071.92
585.06	1072.92
585.41	1073.81
585.76	1075.38
586.11	1077.91
586.46	1080.30
586.81	1082.43
587.16	1082.97
587.51	1079.24
587.86	1075.97
588.21	1075.55
588.56	1073.81
588.91	1071.54
589.26	1070.09
589.61	1068.74
589.96	1069.18
590.31	1072.50
590.66	1072.43
591.01	1076.55
591.36	1076.15
591.71	1076.20
592.06	1075.20
592.41	1074.49
592.76	1074.05
593.10	1077.00
593.45	1076.34
593.80	1075.34
594.15	1073.91
594.50	1075.36
594.85	1075.34
595.20	1077.21
595.55	1077.23
595.90	1082.69
596.25	1080.79
596.60	1080.30
596.95	1077.61
597.30	1076.44
597.64	1083.11
597.99	1085.00
598.34	1085.10
598.69	1083.67
599.04	1085.10
599.39	1078.52
599.74	1079.69
600.09	1078.17
600.44	1078.47
600.78	1076.62
601.13	1074.59
601.48	1075.27
601.83	1079.20
602.18	1081.37
602.53	1082.40
602.88	1081.94
603.22	1079.20
603.57	1074.42
603.92	1071.66
604.27	1071.97
604.62	1069.13
604.97	1069.44
605.31	1072.55
605.66	1076.46
606.01	1077.14
606.36	1078.89
606.71	1076.01
607.05	1078.45
607.40	1077.68
607.75	1076.53
608.10	1077.54
608.44	1081.35
608.79	1082.59
609.14	1080.81
609.49	1081.21
609.84	1083.55
610.18	1081.33
610.53	1075.29
610.88	1078.17
611.23	1081.58
611.57	1081.73
611.92	1084.04
612.27	1087.51
612.62	1083.27
612.96	1079.20
613.31	1078.33
613.66	1077.47
614.00	1073.72
614.35	1074.89
614.70	1075.43
615.05	1072.32
615.39	1068.76
615.74	1070.35
616.09	1068.85
616.43	1069.09
616.78	1071.24
617.13	1075.57
617.47	1074.49
617.82	1076.23
618.17	1074.21
618.51	1071.87
618.86	1069.86
619.21	1071.54
619.55	1072.20
619.90	1075.31
620.25	1079.27
620.59	1078.68
620.94	1078.78
621.29	1079.46
621.63	1081.21
621.98	1076.20
622.32	1076.46
622.67	1078.21
623.02	1078.05
623.36	1076.44
623.71	1080.20
624.05	1080.27
624.40	1076.25
624.75	1075.50
625.09	1074.66
625.44	1073.28
625.78	1073.11
626.13	1071.97
626.48	1072.88
626.82	1074.96
627.17	1075.27
627.51	1074.59
627.86	1076.53
628.20	1077.42
628.55	1074.96
628.89	1074.73
629.24	1073.58
629.58	1072.13
629.93	1070.19
630.28	1070.51
630.62	1070.14
630.97	1075.31
631.31	1075.83
631.66	1072.34
632.00	1071.03
632.35	1073.74
632.69	1069.60
633.04	1073.88
633.38	1076.06
633.73	1076.44
634.07	1075.97
634.42	1077.51
634.76	1075.97
635.11	1075.24
635.45	1075.78
635.79	1075.15
636.14	1077.33
636.48	1075.41
636.83	1077.79
637.17	1077.14
637.52	1077.47
637.86	1075.73
638.21	1077.70
638.55	1076.58
638.89	1075.66
639.24	1073.28
639.58	1072.01
639.93	1072.95
640.27	1073.04
640.61	1071.82
640.96	1075.38
641.30	1075.69
641.65	1073.72
641.99	1076.37
642.33	1079.15
642.68	1076.37
643.02	1075.97
643.37	1076.37
643.71	1072.08
644.05	1071.15
644.40	1070.44
644.74	1071.15
645.08	1071.22
645.43	1074.28
645.77	1072.60
646.11	1076.34
646.46	1077.70
646.80	1077.93
647.14	1077.30
647.49	1076.93
647.83	1075.27
648.17	1075.62
648.52	1074.26
648.86	1074.10
649.20	1076.48
649.55	1074.12
649.89	1073.84
650.23	1074.28
650.57	1074.05
650.92	1075.73
651.26	1076.48
651.60	1074.17
651.95	1075.27
652.29	1072.78
652.63	1069.23
652.97	1070.44
653.32	1073.98
653.66	1072.13
654.00	1078.36
654.34	1079.36
654.69	1078.75
655.03	1078.28
655.37	1078.31
655.71	1076.72
656.05	1074.77
656.40	1073.09
656.74	1067.96
657.08	1070.00
657.42	1068.69
657.76	1074.56
658.11	1077.63
658.45	1079.38
658.79	1074.14
659.13	1071.29
659.47	1066.72
659.82	1064.41
660.16	1066.51
660.50	1070.42
660.84	1072.76
661.18	1072.34
661.52	1073.07
661.87	1072.62
662.21	1073.74
662.55	1072.64
662.89	1073.58
663.23	1074.73
663.57	1073.88
663.91	1072.06
664.25	1073.95
664.60	1074.31
664.94	1071.10
665.28	1072.50
665.62	1074.31
665.96	1074.98
666.30	1076.48
666.64	1076.44
666.98	1076.51
667.32	1075.31
667.66	1073.60
668.01	1072.90
668.35	1075.43
668.69	1073.67
669.03	1074.59
669.37	1072.43
669.71	1070.51
670.05	1067.92
670.39	1068.95
670.73	1066.32
671.07	1070.23
671.41	1072.36
671.75	1073.77
672.09	1072.90
672.43	1075.22
672.77	1073.93
673.11	1076.32
673.45	1075.34
673.79	1076.55
674.13	1075.90
674.47	1076.51
674.81	1077.00
675.15	1078.73
675.49	1078.82
675.83	1078.36
676.17	1078.12
676.51	1076.62
676.85	1075.85
677.19	1076.20
677.53	1078.26
677.87	1078.85
678.21	1077.25
678.55	1077.09
678.89	1075.29
679.23	1074.89
679.57	1071.47
679.90	1072.04
680.24	1074.96
680.58	1074.89
680.92	1075.15
681.26	1079.50
681.60	1080.56
681.94	1075.73
682.28	1076.30
682.62	1071.71
682.96	1071.85
683.29	1073.53
683.63	1076.81
683.97	1080.11
684.31	1083.81
684.65	1081.75
684.99	1077.16
685.33	1075.90
685.67	1071.99
686.00	1074.14
686.34	1074.47
686.68	1074.82
687.02	1074.26
687.36	1074.12
687.70	1071.19
688.03	1069.30
688.37	1073.49
688.71	1073.56
689.05	1073.16
689.39	1073.21
689.72	1074.47
690.06	1072.69
690.40	1074.73
690.74	1075.80
691.08	1075.97
691.41	1077.96
691.75	1077.02
692.09	1074.59
692.43	1073.77
692.76	1075.43
693.10	1072.34
693.44	1070.61
693.78	1072.39
694.11	1073.46
694.45	1070.40
694.79	1071.82
695.13	1073.30
695.46	1070.63
695.80	1072.81
696.14	1074.87
696.48	1072.01
696.81	1073.95
697.15	1078.07
697.49	1077.42
697.82	1075.66
698.16	1080.58
698.50	1081.26
698.83	1081.00
699.17	1078.71
699.51	1078.99
699.84	1071.45
700.18	1066.79
700.52	1065.25
700.85	1066.32
701.19	1069.13
701.53	1076.15
701.86	1079.06
702.20	1080.77
702.54	1082.19
702.87	1081.61
703.21	1078.36
703.55	1076.95
703.88	1075.80
704.22	1072.97
704.55	1072.39
704.89	1072.15
705.23	1070.72
705.56	1071.29
705.90	1072.20
706.23	1072.27
706.57	1074.12
706.91	1074.82
707.24	1074.56
707.58	1078.19
707.91	1075.17
708.25	1072.41
708.58	1074.80
708.92	1073.18
709.26	1067.00
709.59	1071.75
709.93	1074.68
710.26	1076.06
710.60	1078.24
710.93	1080.25
711.27	1076.44
711.60	1073.72
711.94	1068.27
712.27	1067.61
712.61	1068.24
712.94	1071.29
713.28	1073.42
713.61	1075.85
713.95	1074.89
714.28	1073.86
714.62	1071.26
714.95	1073.72
715.29	1074.84
715.62	1076.27
715.96	1079.83
716.29	1080.41
716.63	1079.50
716.96	1081.30
717.29	1078.59
717.63	1076.62
717.96	1080.11
718.30	1078.47
718.63	1077.98
718.97	1076.51
719.30	1074.35
719.63	1071.66
719.97	1068.95
720.30	1065.51
720.64	1068.62
720.97	1070.35
721.30	1072.83
721.64	1075.71
721.97	1075.48
722.31	1074.54
722.64	1073.63
722.97	1074.40
723.31	1073.46
723.64	1073.86
723.97	1073.88
724.31	1074.03
724.64	1072.18
724.98	1074.45
725.31	1075.66
725.64	1074.66
725.98	1073.86
726.31	1072.55
726.64	1071.68
726.97	1072.29
727.31	1074.42
727.64	1077.30
727.97	1076.30
728.31	1078.82
728.64	1078.05
728.97	1076.53
729.31	1075.08
729.64	1075.94
729.97	1073.81
730.30	1075.31
730.64	1078.05
730.97	1077.35
731.30	1076.95
731.63	1076.65
731.97	1080.23
732.30	1078.45
732.63	1080.86
732.96	1080.44
733.30	1078.99
733.63	1072.27
733.96	1074.52
734.29	1074.70
734.63	1071.24
734.96	1072.01
735.29	1073.84
735.62	1072.15
735.95	1071.47
736.29	1076.67
736.62	1078.92
736.95	1080.95
737.28	1081.35
737.61	1079.50
737.94	1078.28
738.28	1075.99
738.61	1072.11
738.94	1071.01
739.27	1074.05
739.60	1075.80
739.93	1077.42
740.27	1079.50
740.60	1079.99
740.93	1075.66
741.26	1073.56
741.59	1073.95
741.92	1073.04
742.25	1072.92
742.58	1074.03
742.91	1074.35
743.25	1072.57
743.58	1068.71
743.91	1068.52
744.24	1070.61
744.57	1070.16
744.90	1071.03
745.23	1074.40
745.56	1071.90
745.89	1069.79
746.22	1067.73
746.55	1066.54
746.88	1067.12
747.21	1070.87
747.54	1071.73
747.87	1073.18
748.20	1071.82
748.53	1073.14
748.87	1072.60
749.20	1074.70
749.53	1075.97
749.86	1078.43
750.19	1076.65
750.52	1079.97
750.85	1077.56
751.18	1076.93
751.51	1078.24
751.84	1080.70
752.16	1078.31
752.49	1080.37
752.82	1082.76
753.15	1080.44
753.48	1078.96
753.81	1076.23
754.14	1073.49
754.47	1072.46
754.80	1072.18
755.13	1072.22
755.46	1072.67
755.79	1075.41
756.12	1076.37
756.45	1080.04
756.78	1078.68
757.11	1081.98
757.43	1080.30
757.76	1081.05
758.09	1076.27
758.42	1079.53
758.75	1077.79
759.08	1076.20
759.41	1070.84
759.74	1071.10
760.07	1066.72
760.39	1064.55
760.72	1070.65
761.05	1071.94
761.38	1074.42
761.71	1074.77
762.04	1075.64
762.36	1069.86
762.69	1070.70
763.02	1069.48
763.35	1071.33
763.68	1073.00
764.01	1074.91
764.33	1074.49
764.66	1073.84
764.99	1073.46
765.32	1071.47
765.65	1072.34
765.97	1072.76
766.30	1074.52
766.63	1074.70
766.96	1076.46
767.28	1075.45
767.61	1077.07
767.94	1074.56
768.27	1073.25
768.59	1072.53
768.92	1072.92
769.25	1071.47
769.58	1073.11
769.90	1074.05
770.23	1072.11
770.56	1069.86
770.89	1070.98
771.21	1070.80
771.54	1070.37
771.87	1073.00
772.19	1075.80
772.52	1072.64
772.85	1073.72
773.17	1075.38
773.50	1074.42
773.83	1072.27
774.15	1071.36
774.48	1069.09
774.81	1068.34
775.13	1067.07
775.46	1067.80
775.79	1072.57
776.11	1073.95
776.44	1076.67
776.77	1078.57
777.09	1077.61
777.42	1074.84
777.74	1075.71
778.07	1075.99
778.40	1074.80
778.72	1076.53
779.05	1078.61
779.37	1077.37
779.70	1072.29
780.03	1073.49
780.35	1070.51
780.68	1069.23
781.00	1071.52
781.33	1074.54
781.65	1072.62
781.98	1074.21
782.31	1074.89
782.63	1074.00
782.96	1071.85
783.28	1074.70
783.61	1071.57
783.93	1072.76
784.26	1072.76
784.58	1077.35
784.91	1076.69
785.23	1077.14
785.56	1076.60
785.88	1072.53
786.21	1067.28
786.53	1069.48
786.86	1071.33
787.18	1070.07
787.51	1073.00
787.83	1074.42
788.16	1070.02
788.48	1071.29
788.81	1070.30
789.13	1072.71
789.46	1074.49
789.78	1075.90
790.10	1077.98
790.43	1078.14
790.75	1075.69
791.08	1075.94
791.40	1075.92
791.73	1074.00
792.05	1075.71
792.37	1073.11
792.70	1072.83
793.02	1066.93
793.35	1068.64
793.67	1068.52
793.99	1069.77
794.32	1070.09
794.64	1074.47
794.96	1073.74
795.29	1075.87
795.61	1081.70
795.93	1081.40
796.26	1083.01
796.58	1081.98
796.91	1080.60
797.23	1077.02
797.55	1075.43
797.87	1075.05
798.20	1074.21
798.52	1073.07
798.84	1072.69
799.17	1071.87
799.49	1073.44
799.81	1075.15
800.14	1072.67
800.46	1075.48
800.78	1078.50
801.10	1078.19
801.43	1078.89
801.75	1082.83
802.07	1080.20
802.40	1079.85
802.72	1079.81
803.04	1077.65
803.36	1075.76
803.69	1076.51
804.01	1076.90
804.33	1080.88
804.65	1083.36
804.97	1084.39
805.30	1083.20
805.62	1081.33
805.94	1076.06
806.26	1073.14
806.58	1073.21
806.91	1075.43
807.23	1074.24
807.55	1071.38
807.87	1074.94
808.19	1073.74
808.52	1070.65
808.84	1072.62
809.16	1077.04
809.48	1075.10
809.80	1074.05
810.12	1076.30
810.44	1074.94
810.77	1072.67
811.09	1073.84
811.41	1075.24
811.73	1071.03
812.05	1069.30
812.37	1070.12
812.69	1066.56
813.01	1066.21
813.33	1071.87
813.66	1073.72
813.98	1074.03
814.30	1075.80
814.62	1078.17
814.94	1077.84
815.26	1077.33
815.58	1080.25
815.90	1079.90
816.22	1081.96
816.54	1077.28
816.86	1076.62
817.18	1076.04
817.50	1077.51
817.82	1074.56
818.14	1074.98
818.46	1077.84
818.78	1077.18
819.10	1074.14
819.42	1071.73
819.74	1071.80
820.06	1071.05
820.38	1068.62
820.70	1067.64
821.02	1073.32
821.34	1074.96
821.66	1075.03
821.98	1075.80
822.30	1078.52
822.62	1073.70
822.94	1075.03
823.26	1074.52
823.58	1076.32
823.90	1075.92
824.22	1073.95
824.54	1072.92
824.86	1072.81
825.18	1071.78
825.50	1072.71
825.81	1073.60
826.13	1073.09
826.45	1074.89
826.77	1075.85
827.09	1076.06
827.41	1077.44
827.73	1076.13
828.05	1077.00
828.36	1073.77
828.68	1073.60
829.00	1072.11
829.32	1073.53
829.64	1069.41
829.96	1070.49
830.28	1072.71
830.59	1076.18
830.91	1076.01
831.23	1077.42
831.55	1075.59
831.87	1071.12
832.19	1069.86
832.50	1069.30
832.82	1072.11
833.14	1075.66
833.46	1079.08
833.78	1078.12
834.09	1080.27
834.41	1076.86
834.73	1075.52
835.05	1076.44
835.36	1079.24
835.68	1077.04
836.00	1078.38
836.32	1077.18
836.63	1075.55
836.95	1072.78
837.27	1073.46
837.59	1074.31
837.90	1077.70
838.22	1074.52
838.54	1072.55
838.85	1071.85
839.17	1069.53
839.49	1067.31
839.80	1070.58
840.12	1073.63
840.44	1076.25
840.76	1077.93
841.07	1075.99
841.39	1073.51
841.71	1073.95
842.02	1071.94
842.34	1071.01
842.65	1071.80
842.97	1075.80
843.29	1073.39
843.60	1075.10
843.92	1077.68
844.24	1079.41
844.55	1074.82
844.87	1078.64
845.18	1077.47
845.50	1073.70
845.82	1074.38
846.13	1077.58
846.45	1073.30
846.76	1072.71
847.08	1070.33
847.40	1066.65
847.71	1063.05
848.03	1065.62
848.34	1064.83
848.66	1067.82
848.97	1069.95
849.29	1073.46
849.60	1074.10
849.92	1074.38
850.24	1075.83
850.55	1075.24
850.87	1072.67
851.18	1071.31
851.50	1074.00
851.81	1072.39
852.13	1071.47
852.44	1071.12
852.76	1070.65
853.07	1066.84
853.39	1066.65
853.70	1068.76
854.01	1070.30
854.33	1068.17
854.64	1067.38
854.96	1067.12
855.27	1068.10
855.59	1065.55
855.90	1069.70
856.22	1072.46
856.53	1073.98
856.84	1071.01
857.16	1076.11
857.47	1074.84
857.79	1074.82
858.10	1076.13
858.41	1076.20
858.73	1073.23
859.04	1072.90
859.36	1070.05
859.67	1067.26
859.98	1067.71
860.30	1069.95
860.61	1067.54
860.92	1072.67
861.24	1075.10
861.55	1074.33
861.87	1073.30
862.18	1075.38
862.49	1073.25
862.81	1073.18
863.12	1076.46
863.43	1075.43
863.74	1075.97
864.06	1075.38
864.37	1071.85
864.68	1071.80
865.00	1074.96
865.31	1074.07
865.62	1072.83
865.94	1076.06
866.25	1076.76
866.56	1075.80
866.87	1077.51
867.19	1077.42
867.50	1078.00
867.81	1076.46
868.12	1074.26
868.44	1077.75
868.75	1080.04
869.06	1078.96
869.37	1080.48
869.68	1081.89
870.00	1078.03
870.31	1080.39
870.62	1077.44
870.93	1075.87
871.24	1072.76
871.56	1070.42
871.87	1065.95
872.18	1068.03
872.49	1065.04
872.80	1066.68
873.12	1070.72
873.43	1072.57
873.74	1074.28
874.05	1075.45
874.36	1078.07
874.67	1073.88
874.98	1073.14
875.29	1072.46
875.61	1074.63
875.92	1071.64
876.23	1071.85
876.54	1070.30
876.85	1070.68
877.16	1071.22
877.47	1074.59
877.78	1076.65
878.09	1078.43
878.40	1074.33
878.72	1072.18
879.03	1067.78
879.34	1070.54
879.65	1070.63
879.96	1075.20
880.27	1074.54
880.58	1077.98
880.89	1073.39
881.20	1072.15
881.51	1072.01
881.82	1073.84
882.13	1071.24
882.44	1071.26
882.75	1071.45
883.06	1069.37
883.37	1073.21
883.68	1073.63
883.99	1074.10
884.30	1073.84
884.61	1075.36
884.92	1072.78
885.23	1075.08
885.54	1078.52
885.85	1081.07
886.16	1081.21
886.47	1081.05
886.78	1077.70
887.08	1073.86
887.39	1072.76
887.70	1072.67
888.01	1068.92
888.32	1070.09
888.63	1070.65
888.94	1070.37
889.25	1067.99
889.56	1071.97
889.87	1073.95
890.17	1074.38
890.48	1073.07
890.79	1074.10
891.10	1072.06
891.41	1071.97
891.72	1071.15
892.03	1073.07
892.34	1074.17
892.64	1076.08
892.95	1073.11
893.26	1073.53
893.57	1073.98
893.88	1072.20
894.18	1073.86
894.49	1076.48
894.80	1078.87
895.11	1077.72
895.42	1077.42
895.72	1071.52
896.03	1070.33
896.34	1068.03
896.65	1068.67
896.96	1070.47
897.26	1072.71
897.57	1075.13
897.88	1076.32
898.19	1075.03
898.49	1072.95
898.80	1073.67
899.11	1072.25
899.41	1073.44
899.72	1076.83
900.03	1076.90
900.34	1075.15
900.64	1073.04
900.95	1074.35
901.26	1070.58
901.56	1073.72
901.87	1075.52
902.18	1077.49
902.48	1075.66
902.79	1077.68
903.10	1076.20
903.40	1075.10
903.71	1073.44
904.02	1071.43
904.32	1071.03
904.63	1066.65
904.94	1066.42
905.24	1068.22
905.55	1072.57
905.85	1070.77
906.16	1075.41
906.47	1074.42
906.77	1075.48
907.08	1073.02
907.38	1074.45
907.69	1076.79
908.00	1080.18
908.30	1080.13
908.61	1081.44
908.91	1082.50
909.22	1076.48
909.52	1074.00
909.83	1072.46
910.14	1070.56
910.44	1071.19
910.75	1074.47
911.05	1076.48
911.36	1078.12
911.66	1078.40
911.97	1075.80
912.27	1076.69
912.58	1074.63
912.88	1070.23
913.19	1071.22
913.49	1073.49
913.80	1073.16
914.10	1072.92
914.41	1077.61
914.71	1076.15
915.01	1076.25
915.32	1072.95
915.62	1073.46
915.93	1071.52
916.23	1069.41
916.54	1068.31
916.84	1070.82
917.15	1072.11
917.45	1073.09
917.75	1072.81
918.06	1072.04
918.36	1073.81
918.67	1073.11
918.97	1070.63
919.27	1073.30
919.58	1074.07
919.88	1071.94
920.18	1070.54
920.49	1070.35
920.79	1071.15
921.10	1071.50
921.40	1071.12
921.70	1068.71
922.01	1070.89
922.31	1069.51
922.61	1065.15
922.92	1066.89
923.22	1071.52
923.52	1070.91
923.82	1069.81
924.13	1072.41
924.43	1070.49
924.73	1070.02
925.04	1072.25
925.34	1075.10
925.64	1076.20
925.94	1082.90
926.25	1085.07
926.55	1082.78
926.85	1080.39
927.15	1078.78
927.46	1073.09
927.76	1068.74
928.06	1069.53
928.36	1071.52
928.67	1073.21
928.97	1075.66
929.27	1080.25
929.57	1078.50
929.87	1074.70
930.18	1073.81
930.48	1072.48
930.78	1070.19
931.08	1072.64
931.38	1077.72
931.69	1078.21
931.99	1077.84
932.29	1077.89
932.59	1074.14
932.89	1071.05
933.19	1071.22
933.49	1069.60
933.80	1069.32
934.10	1071.05
934.40	1071.05
934.70	1073.09
935.00	1072.36
935.30	1074.61
935.60	1076.06
935.90	1078.66
936.20	1074.28
936.50	1076.53
936.81	1074.77
937.11	1071.03
937.41	1070.21
937.71	1071.45
938.01	1070.96
938.31	1071.08
938.61	1071.66
938.91	1070.84
939.21	1071.61
939.51	1074.49
939.81	1074.61
940.11	1074.49
940.41	1076.72
940.71	1076.25
941.01	1073.72
941.31	1075.31
941.61	1078.14
941.91	1075.31
942.21	1072.55
942.51	1072.78
942.81	1071.03
943.11	1071.26
943.41	1069.37
943.71	1072.92
944.01	1072.39
944.31	1070.89
944.61	1068.85
944.90	1068.38
945.20	1068.41
945.50	1068.41
945.80	1071.38
946.10	1072.85
946.40	1077.28
946.70	1075.66
947.00	1078.31
947.30	1074.89
947.60	1072.64
947.89	1068.85
948.19	1070.61
948.49	1067.71
948.79	1069.86
949.09	1076.08
949.39	1080.23
949.69	1083.20
949.98	1083.20
950.28	1085.89
950.58	1081.14
950.88	1076.53
951.18	1075.87
951.48	1078.78
951.77	1076.81
952.07	1078.54
952.37	1081.54
952.67	1079.53
952.97	1076.58
953.26	1073.16
953.56	1073.79
953.86	1076.69
954.16	1075.41
954.45	1076.34
954.75	1078.66
955.05	1076.04
955.35	1072.01
955.64	1073.25
955.94	1073.95
956.24	1074.14
956.54	1074.91
956.83	1075.92
957.13	1075.59
957.43	1072.85
957.72	1071.43
958.02	1067.47
958.32	1067.24
958.61	1067.52
958.91	1069.25
959.21	1070.91
959.50	1077.61
959.80	1076.93
960.10	1078.07
960.39	1077.86
960.69	1078.19
960.99	1077.33
961.28	1080.81
961.58	1080.32
961.87	1079.57
962.17	1076.60
962.47	1073.77
962.76	1069.06
963.06	1068.24
963.36	1069.25
963.65	1072.04
963.95	1075.15
964.24	1078.38
964.54	1078.43
964.83	1080.34
965.13	1079.13
965.42	1075.99
965.72	1076.81
966.02	1073.72
966.31	1070.91
966.61	1069.84
966.90	1071.87
967.20	1070.02
967.49	1073.65
967.79	1072.53
968.08	1074.94
968.38	1073.11
968.67	1072.22
968.97	1073.91
969.26	1074.59
969.56	1074.19
969.85	1077.23
970.15	1076.86
970.44	1075.05
970.74	1074.80
971.03	1071.99
971.32	1071.99
971.62	1074.91
971.91	1074.84
972.21	1079.57
972.50	1084.60
972.80	1081.12
973.09	1080.63
973.38	1080.32
973.68	1073.35
973.97	1067.99
974.27	1065.06
974.56	1065.46
974.85	1065.44
975.15	1068.55
975.44	1074.10
975.73	1075.34
976.03	1073.07
976.32	1074.98
976.61	1077.63
976.91	1076.74
977.20	1081.77
977.49	1081.23
977.79	1078.94
978.08	1075.36
978.37	1073.67
978.67	1070.28
978.96	1071.90
979.25	1074.28
979.55	1074.80
979.84	1074.66
980.13	1075.66
980.42	1073.46
980.72	1071.24
981.01	1072.13
981.30	1073.86
981.59	1073.53
981.89	1076.04
982.18	1076.83
982.47	1078.50
982.76	1076.65
983.06	1075.76
983.35	1072.74
983.64	1075.03
983.93	1072.74
984.22	1073.09
984.52	1075.01
984.81	1075.62
985.10	1070.68
985.39	1070.05
985.68	1067.54
985.97	1067.85
986.27	1066.93
986.56	1067.26
986.85	1069.67
987.14	1071.78
987.43	1073.00
987.72	1074.05
988.01	1078.21
988.31	1075.73
988.60	1073.60
988.89	1073.25
989.18	1074.21
989.47	1069.79
989.76	1068.29
990.05	1071.73
990.34	1070.00
990.63	1072.53
990.92	1072.29
991.21	1079.20
991.51	1078.82
991.80	1078.05
992.09	1075.13
992.38	1078.80
992.67	1074.42
992.96	1070.77
993.25	1072.50
993.54	1073.72
993.83	1073.09
994.12	1073.91
994.41	1076.79
994.70	1074.89
994.99	1074.35
995.28	1073.00
995.57	1075.92
995.86	1077.16
996.15	1080.04
996.44	1078.19
996.73	1079.01
997.02	1075.69
997.31	1074.12
997.59	1075.17
997.88	1076.08
998.17	1076.08
998.46	1077.44
998.75	1075.87
999.04	1075.76
999.33	1076.76
999.62	1075.71
999.91	1075.27
1000.20	1079.29
1000.49	1078.87
1000.77	1080.63
1001.06	1079.22
1001.35	1079.83
1001.64	1077.68
1001.93	1077.23
1002.22	1077.82
1002.51	1079.22
1002.79	1078.00
1003.08	1077.16
1003.37	1075.27
1003.66	1074.96
1003.95	1076.41
1004.23	1076.51
1004.52	1074.66
1004.81	1073.07
1005.10	1070.44
1005.39	1071.10
1005.67	1071.82
1005.96	1073.91
1006.25	1074.14
1006.54	1072.90
1006.83	1071.68
1007.11	1072.71
1007.40	1070.47
1007.69	1073.77
1007.97	1074.94
1008.26	1072.41
1008.55	1069.55
1008.84	1072.74
1009.12	1073.09
1009.41	1074.14
1009.70	1073.02
1009.98	1075.45
1010.27	1077.09
1010.56	1077.79
1010.85	1079.69
1011.13	1082.47
1011.42	1081.26
1011.71	1080.98
1011.99	1078.33
1012.28	1077.02
1012.56	1077.51
1012.85	1077.30
1013.14	1076.62
1013.42	1077.79
1013.71	1076.93
1014.00	1076.67
1014.28	1077.40
1014.57	1074.70
1014.85	1073.42
1015.14	1073.74
1015.43	1074.49
1015.71	1074.87
1016.00	1077.28
1016.28	1074.42
1016.57	1072.48
1016.85	1073.63
1017.14	1073.04
1017.43	1069.91
1017.71	1069.25
1018.00	1068.81
1018.28	1067.96
1018.57	1067.99
1018.85	1071.40
1019.14	1071.87
1019.42	1069.77
1019.71	1067.47
1019.99	1067.12
1020.28	1066.02
1020.56	1068.43
1020.85	1070.05
1021.13	1070.23
1021.42	1073.72
1021.70	1074.33
1021.99	1075.52
1022.27	1076.30
1022.55	1077.47
1022.84	1066.47
>>>>>End Processed Spectral Data<<<<<
