SpectraSuite Data File
++++++++++++++++++++++++++++++++++++
Date: Mon Aug 26 10:22:34 PDT 2019
User: corrico
Dark Spectrum Present: No
Reference Spectrum Present: No
Number of Sampled Component Spectra: 1
Spectrometers: USB2+H06089
Integration Time (usec): 2000 (USB2+H06089)
Spectra Averaged: 20 (USB2+H06089)
Boxcar Smoothing: 2 (USB2+H06089)
Correct for Electrical Dark: No (USB2+H06089)
Strobe/Lamp Enabled: No (USB2+H06089)
Correct for Detector Non-linearity: No (USB2+H06089)
Correct for Stray Light: No (USB2+H06089)
Number of Pixels in Processed Spectrum: 2048
>>>>>Begin Processed Spectral Data<<<<<
339.70	1028.78
340.07	1028.78
340.45	995.41
340.82	974.86
341.19	952.01
341.57	925.59
341.94	914.75
342.31	906.11
342.69	899.61
343.06	893.59
343.43	894.72
343.81	891.09
344.18	894.97
344.55	899.75
344.93	907.24
345.30	910.75
345.67	918.87
346.04	923.53
346.42	927.41
346.79	935.02
347.16	945.62
347.54	957.42
347.91	967.69
348.28	980.52
348.65	988.64
349.03	998.59
349.40	1007.11
349.77	1016.73
350.14	1024.94
350.52	1034.28
350.89	1043.48
351.26	1048.14
351.63	1054.50
352.01	1055.00
352.38	1056.99
352.75	1057.17
353.12	1063.82
353.50	1068.24
353.87	1073.44
354.24	1077.40
354.61	1080.04
354.98	1080.37
355.36	1081.23
355.73	1082.80
356.10	1085.99
356.47	1086.80
356.84	1089.82
357.22	1089.59
357.59	1091.04
357.96	1089.19
358.33	1088.40
358.70	1085.03
359.08	1086.10
359.45	1085.14
359.82	1084.96
360.19	1082.97
360.56	1079.99
360.94	1078.66
361.31	1082.10
361.68	1080.72
362.05	1080.98
362.42	1082.01
362.79	1079.57
363.16	1072.92
363.54	1073.32
363.91	1071.19
364.28	1072.11
364.65	1073.77
365.02	1079.55
365.39	1078.78
365.76	1077.84
366.14	1074.59
366.51	1072.60
366.88	1067.47
367.25	1066.61
367.62	1068.81
367.99	1073.70
368.36	1073.14
368.73	1073.14
369.10	1074.05
369.48	1073.84
369.85	1070.35
370.22	1071.66
370.59	1073.53
370.96	1072.20
371.33	1073.88
371.70	1072.32
372.07	1071.68
372.44	1072.06
372.81	1073.95
373.18	1073.58
373.55	1076.23
373.93	1075.94
374.30	1074.33
374.67	1075.59
375.04	1077.70
375.41	1078.40
375.78	1078.05
376.15	1079.81
376.52	1076.37
376.89	1074.28
377.26	1073.53
377.63	1076.72
378.00	1076.20
378.37	1075.52
378.74	1075.38
379.11	1074.87
379.48	1070.49
379.85	1071.33
380.22	1075.36
380.59	1076.39
380.96	1077.49
381.33	1079.50
381.70	1077.21
382.07	1077.18
382.44	1076.01
382.81	1074.47
383.18	1075.92
383.55	1078.73
383.92	1081.42
384.29	1084.42
384.66	1089.10
385.03	1089.00
385.40	1087.74
385.77	1084.14
386.14	1084.77
386.51	1083.18
386.88	1084.98
387.25	1086.20
387.62	1086.73
387.99	1085.77
388.36	1084.35
388.73	1082.52
389.10	1083.46
389.46	1085.61
389.83	1085.33
390.20	1087.81
390.57	1085.38
390.94	1083.18
391.31	1081.82
391.68	1081.07
392.05	1079.85
392.42	1083.50
392.79	1086.57
393.16	1086.34
393.53	1087.60
393.89	1087.58
394.26	1086.94
394.63	1087.25
395.00	1087.67
395.37	1089.40
395.74	1088.33
396.11	1091.44
396.48	1089.19
396.84	1091.84
397.21	1089.92
397.58	1091.63
397.95	1089.26
398.32	1089.24
398.69	1084.46
399.06	1084.21
399.42	1083.93
399.79	1082.80
400.16	1083.36
400.53	1083.55
400.90	1084.39
401.27	1084.98
401.64	1085.00
402.00	1087.02
402.37	1089.12
402.74	1088.79
403.11	1088.89
403.48	1090.95
403.84	1092.09
404.21	1091.63
404.58	1094.74
404.95	1091.06
405.32	1090.90
405.68	1089.31
406.05	1094.04
406.42	1091.39
406.79	1094.69
407.16	1095.91
407.52	1096.96
407.89	1095.25
408.26	1095.02
408.63	1097.13
408.99	1096.24
409.36	1094.11
409.73	1095.44
410.10	1098.23
410.47	1097.06
410.83	1096.96
411.20	1099.82
411.57	1096.26
411.94	1096.17
412.30	1098.09
412.67	1100.10
413.04	1098.83
413.40	1098.18
413.77	1096.40
414.14	1094.62
414.51	1093.94
414.87	1095.07
415.24	1095.86
415.61	1099.19
415.97	1102.49
416.34	1101.11
416.71	1098.16
417.08	1099.33
417.44	1098.34
417.81	1097.29
418.18	1100.61
418.54	1106.00
418.91	1111.40
419.28	1113.16
419.64	1113.63
420.01	1114.63
420.38	1115.76
420.74	1113.65
421.11	1114.70
421.48	1114.98
421.84	1115.10
422.21	1118.73
422.58	1120.27
422.94	1121.00
423.31	1124.77
423.68	1128.11
424.04	1129.26
424.41	1132.09
424.77	1135.04
425.14	1139.77
425.51	1145.90
425.87	1145.08
426.24	1150.70
426.61	1158.38
426.97	1164.07
427.34	1169.73
427.70	1177.64
428.07	1181.64
428.44	1189.41
428.80	1193.74
429.17	1201.70
429.53	1209.00
429.90	1220.82
430.27	1225.86
430.63	1237.49
431.00	1246.66
431.36	1260.92
431.73	1270.47
432.09	1283.69
432.46	1299.84
432.83	1313.65
433.19	1330.52
433.56	1350.72
433.92	1373.99
434.29	1394.68
434.65	1415.02
435.02	1438.26
435.38	1467.52
435.75	1493.71
436.11	1523.69
436.48	1559.94
436.84	1596.90
437.21	1630.82
437.57	1664.85
437.94	1705.01
438.30	1750.00
438.67	1793.83
439.03	1844.37
439.40	1899.46
439.76	1955.59
440.13	2012.35
440.49	2079.87
440.86	2144.00
441.22	2221.96
441.59	2297.21
441.95	2380.28
442.32	2461.54
442.68	2557.43
443.05	2645.67
443.41	2737.14
443.78	2834.95
444.14	2941.05
444.51	3049.30
444.87	3190.24
445.24	3336.36
445.60	3488.24
445.96	3645.17
446.33	3812.12
446.69	3974.30
447.06	4150.45
447.42	4333.10
447.79	4524.35
448.15	4755.59
448.51	4986.32
448.88	5252.30
449.24	5495.86
449.61	5777.82
449.97	6049.93
450.33	6333.44
450.70	6585.28
451.06	6907.95
451.43	7214.56
451.79	7571.33
452.15	7967.28
452.52	8431.10
452.88	8901.88
453.24	9432.15
453.61	10008.95
453.97	10579.83
454.34	11119.07
454.70	11770.98
455.06	12428.10
455.43	13045.65
455.79	13642.16
456.15	14371.38
456.52	15028.74
456.88	15788.88
457.24	16528.32
457.61	17391.89
457.97	18143.06
458.33	18921.73
458.70	19687.88
459.06	20461.06
459.42	21284.57
459.79	22070.53
460.15	22970.63
460.51	23821.81
460.88	24749.76
461.24	25541.24
461.60	26519.30
461.96	27398.19
462.33	28240.79
462.69	29020.82
463.05	29849.37
463.42	30537.46
463.78	31187.85
464.14	31750.72
464.50	32350.18
464.87	32835.54
465.23	33220.00
465.59	33576.81
465.95	33871.20
466.32	34121.71
466.68	34370.81
467.04	34488.59
467.40	34604.75
467.77	34786.68
468.13	34772.57
468.49	34673.40
468.85	34592.04
469.22	34433.42
469.58	34051.17
469.94	33768.55
470.30	33432.33
470.66	33019.29
471.03	32406.36
471.39	32015.77
471.75	31387.45
472.11	30773.50
472.47	30383.90
472.84	30065.16
473.20	29568.46
473.56	29291.20
473.92	28877.23
474.28	28390.60
474.65	27912.64
475.01	27443.69
475.37	26880.75
475.73	26428.16
476.09	25881.46
476.45	25348.33
476.81	24829.15
477.18	24300.12
477.54	23846.36
477.90	23491.65
478.26	23086.74
478.62	22747.83
478.98	22468.18
479.34	22169.55
479.71	21759.80
480.07	21413.40
480.43	21052.91
480.79	20651.30
481.15	20284.58
481.51	19992.36
481.87	19739.59
482.23	19465.09
482.59	19211.94
482.96	18929.95
483.32	18631.34
483.68	18261.98
484.04	17926.30
484.40	17562.75
484.76	17196.83
485.12	16827.61
485.48	16495.60
485.84	16142.16
486.20	15788.65
486.56	15423.33
486.92	15109.16
487.28	14776.69
487.64	14428.93
488.00	14108.49
488.37	13798.21
488.73	13445.00
489.09	13075.99
489.45	12749.67
489.81	12412.38
490.17	12097.62
490.53	11796.79
490.89	11494.46
491.25	11189.91
491.61	10893.18
491.97	10579.71
492.33	10270.83
492.69	9985.99
493.05	9686.17
493.41	9408.44
493.77	9135.42
494.13	8878.24
494.49	8630.00
494.85	8388.95
495.21	8159.39
495.57	7941.84
495.93	7727.00
496.29	7522.62
496.64	7346.31
497.00	7158.51
497.36	6972.20
497.72	6784.84
498.08	6602.14
498.44	6413.82
498.80	6242.42
499.16	6080.17
499.52	5934.73
499.88	5801.16
500.24	5682.84
500.60	5560.27
500.96	5445.37
501.32	5322.64
501.68	5209.33
502.03	5080.37
502.39	4957.40
502.75	4822.28
503.11	4699.40
503.47	4571.37
503.83	4448.16
504.19	4330.23
504.55	4224.64
504.91	4127.96
505.26	4035.55
505.62	3948.86
505.98	3865.39
506.34	3775.47
506.70	3679.77
507.06	3593.26
507.42	3506.66
507.78	3419.29
508.13	3339.71
508.49	3271.58
508.85	3196.89
509.21	3127.85
509.57	3065.82
509.93	3001.67
510.28	2931.66
510.64	2872.47
511.00	2810.23
511.36	2751.84
511.72	2697.65
512.07	2653.44
512.43	2604.95
512.79	2558.44
513.15	2507.16
513.51	2458.99
513.86	2410.31
514.22	2364.20
514.58	2324.71
514.94	2291.45
515.30	2260.86
515.65	2226.20
516.01	2193.39
516.37	2165.21
516.73	2132.86
517.08	2098.76
517.44	2070.70
517.80	2042.23
518.16	2011.22
518.51	1987.54
518.87	1963.66
519.23	1933.80
519.59	1911.38
519.94	1886.85
520.30	1858.46
520.66	1829.41
521.01	1811.01
521.37	1785.17
521.73	1765.00
522.09	1745.92
522.44	1726.92
522.80	1702.97
523.16	1681.49
523.51	1661.20
523.87	1640.81
524.23	1623.70
524.58	1605.96
524.94	1587.82
525.30	1569.07
525.65	1551.31
526.01	1537.45
526.37	1523.17
526.72	1515.71
527.08	1500.77
527.44	1493.80
527.79	1475.87
528.15	1462.95
528.51	1450.15
528.86	1439.48
529.22	1421.50
529.58	1414.36
529.93	1406.33
530.29	1393.27
530.65	1381.88
531.00	1375.58
531.36	1368.72
531.71	1358.31
532.07	1350.75
532.43	1343.84
532.78	1335.18
533.14	1325.00
533.49	1318.96
533.85	1312.43
534.21	1305.69
534.56	1299.16
534.92	1297.55
535.27	1288.91
535.63	1279.59
535.98	1271.54
536.34	1263.54
536.69	1253.71
537.05	1250.95
537.41	1252.12
537.76	1250.64
538.12	1246.90
538.47	1243.43
538.83	1235.99
539.18	1230.28
539.54	1228.85
539.89	1226.86
540.25	1222.86
540.60	1224.24
540.96	1218.44
541.31	1212.73
541.67	1207.48
542.02	1203.32
542.38	1197.70
542.73	1194.00
543.09	1191.17
543.44	1188.71
543.80	1188.95
544.15	1185.53
544.51	1183.68
544.86	1181.22
545.22	1177.73
545.57	1174.06
545.93	1173.59
546.28	1170.76
546.64	1168.44
546.99	1169.14
547.35	1167.15
547.70	1166.76
548.05	1166.36
548.41	1165.73
548.76	1164.18
549.12	1159.71
549.47	1151.99
549.83	1148.92
550.18	1145.22
550.53	1141.81
550.89	1140.99
551.24	1137.13
551.60	1135.82
551.95	1134.20
552.30	1134.25
552.66	1134.69
553.01	1136.42
553.37	1138.93
553.72	1139.37
554.07	1134.83
554.43	1132.14
554.78	1131.60
555.13	1127.16
555.49	1125.49
555.84	1127.76
556.19	1125.75
556.55	1125.89
556.90	1125.07
557.26	1123.25
557.61	1122.19
557.96	1125.87
558.32	1126.06
558.67	1122.90
559.02	1122.78
559.37	1121.00
559.73	1115.36
560.08	1114.00
560.43	1115.48
560.79	1111.92
561.14	1110.35
561.49	1111.45
561.85	1111.87
562.20	1110.68
562.55	1113.04
562.90	1113.98
563.26	1113.42
563.61	1109.27
563.96	1106.63
564.32	1104.12
564.67	1100.96
565.02	1100.92
565.37	1101.99
565.73	1102.81
566.08	1104.38
566.43	1104.85
566.78	1103.61
567.14	1104.10
567.49	1104.97
567.84	1105.81
568.19	1105.97
568.54	1105.44
568.90	1106.23
569.25	1104.17
569.60	1101.18
569.95	1102.06
570.31	1101.34
570.66	1096.59
571.01	1097.69
571.36	1096.07
571.71	1097.20
572.06	1098.51
572.42	1100.82
572.77	1102.79
573.12	1105.69
573.47	1103.33
573.82	1105.06
574.18	1103.16
574.53	1102.13
574.88	1101.69
575.23	1101.08
575.58	1094.97
575.93	1094.69
576.28	1091.30
576.64	1091.70
576.99	1089.07
577.34	1090.74
577.69	1092.45
578.04	1091.09
578.39	1088.68
578.74	1088.70
579.09	1089.99
579.44	1086.66
579.80	1087.76
580.15	1088.75
580.50	1087.83
580.85	1087.76
581.20	1089.38
581.55	1088.54
581.90	1086.45
582.25	1090.81
582.60	1087.93
582.95	1087.58
583.30	1090.03
583.65	1091.23
584.00	1087.86
584.35	1092.35
584.71	1093.47
585.06	1092.77
585.41	1090.55
585.76	1092.84
586.11	1091.11
586.46	1091.09
586.81	1092.30
587.16	1094.79
587.51	1094.22
587.86	1093.17
588.21	1092.73
588.56	1093.03
588.91	1091.77
589.26	1089.92
589.61	1089.59
589.96	1085.75
590.31	1085.24
590.66	1087.58
591.01	1086.52
591.36	1085.17
591.71	1088.75
592.06	1088.33
592.41	1083.48
592.76	1083.48
593.10	1085.82
593.45	1085.77
593.80	1086.03
594.15	1089.36
594.50	1092.23
594.85	1088.89
595.20	1087.25
595.55	1085.87
595.90	1085.84
596.25	1083.90
596.60	1085.05
596.95	1082.17
597.30	1081.05
597.64	1089.05
597.99	1088.35
598.34	1089.82
598.69	1092.89
599.04	1093.52
599.39	1085.35
599.74	1087.25
600.09	1087.86
600.44	1089.99
600.78	1089.75
601.13	1088.96
601.48	1087.30
601.83	1086.71
602.18	1084.51
602.53	1085.99
602.88	1083.71
603.22	1084.02
603.57	1085.28
603.92	1087.30
604.27	1087.88
604.62	1087.76
604.97	1088.75
605.31	1086.24
605.66	1084.79
606.01	1083.53
606.36	1085.07
606.71	1085.07
607.05	1083.79
607.40	1084.23
607.75	1081.26
608.10	1078.54
608.44	1080.84
608.79	1082.15
609.14	1082.50
609.49	1082.94
609.84	1088.58
610.18	1087.09
610.53	1088.30
610.88	1087.93
611.23	1090.17
611.57	1087.44
611.92	1085.84
612.27	1084.77
612.62	1085.40
612.96	1082.01
613.31	1078.17
613.66	1075.48
614.00	1076.30
614.35	1074.12
614.70	1079.43
615.05	1084.49
615.39	1088.14
615.74	1090.20
616.09	1091.70
616.43	1089.17
616.78	1088.16
617.13	1087.13
617.47	1085.82
617.82	1082.78
618.17	1083.50
618.51	1082.97
618.86	1082.76
619.21	1078.80
619.55	1082.97
619.90	1083.15
620.25	1082.73
620.59	1083.18
620.94	1085.63
621.29	1083.79
621.63	1084.00
621.98	1084.35
622.32	1084.16
622.67	1084.81
623.02	1084.11
623.36	1085.63
623.71	1085.33
624.05	1082.92
624.40	1082.40
624.75	1084.00
625.09	1082.52
625.44	1082.97
625.78	1084.35
626.13	1087.06
626.48	1087.32
626.82	1084.32
627.17	1086.01
627.51	1087.74
627.86	1085.66
628.20	1084.37
628.55	1082.99
628.89	1080.95
629.24	1081.40
629.58	1079.46
629.93	1076.86
630.28	1079.06
630.62	1078.61
630.97	1077.07
631.31	1078.47
631.66	1081.68
632.00	1080.58
632.35	1084.39
632.69	1085.19
633.04	1086.87
633.38	1085.10
633.73	1084.28
634.07	1080.23
634.42	1079.81
634.76	1076.34
635.11	1079.60
635.45	1082.05
635.79	1084.28
636.14	1082.94
636.48	1082.92
636.83	1078.96
637.17	1079.36
637.52	1080.27
637.86	1083.62
638.21	1083.86
638.55	1084.25
638.89	1082.38
639.24	1083.22
639.58	1083.32
639.93	1083.43
640.27	1085.26
640.61	1085.38
640.96	1082.47
641.30	1079.36
641.65	1080.16
641.99	1080.88
642.33	1081.09
642.68	1082.24
643.02	1080.34
643.37	1080.58
643.71	1079.43
644.05	1082.43
644.40	1082.94
644.74	1087.93
645.08	1088.07
645.43	1085.70
645.77	1084.21
646.11	1083.08
646.46	1081.80
646.80	1082.85
647.14	1084.25
647.49	1084.91
647.83	1083.93
648.17	1082.15
648.52	1081.80
648.86	1081.44
649.20	1078.59
649.55	1081.42
649.89	1082.10
650.23	1076.93
650.57	1077.11
650.92	1079.67
651.26	1079.38
651.60	1081.37
651.95	1087.74
652.29	1086.48
652.63	1084.72
652.97	1083.46
653.32	1081.37
653.66	1077.49
654.00	1080.56
654.34	1084.91
654.69	1083.18
655.03	1081.73
655.37	1081.94
655.71	1082.76
656.05	1077.93
656.40	1078.80
656.74	1080.13
657.08	1081.00
657.42	1078.54
657.76	1080.88
658.11	1080.48
658.45	1080.48
658.79	1081.42
659.13	1083.76
659.47	1082.61
659.82	1084.89
660.16	1089.82
660.50	1090.67
660.84	1090.24
661.18	1090.27
661.52	1088.04
661.87	1083.04
662.21	1082.99
662.55	1078.36
662.89	1078.33
663.23	1079.31
663.57	1077.63
663.91	1076.76
664.25	1079.31
664.60	1079.43
664.94	1081.16
665.28	1082.61
665.62	1080.91
665.96	1082.76
666.30	1085.73
666.64	1082.24
666.98	1082.54
667.32	1085.19
667.66	1083.32
668.01	1081.51
668.35	1082.03
668.69	1084.04
669.03	1081.68
669.37	1083.79
669.71	1083.97
670.05	1083.18
670.39	1081.80
670.73	1083.50
671.07	1083.97
671.41	1081.80
671.75	1081.47
672.09	1079.69
672.43	1078.33
672.77	1075.27
673.11	1077.04
673.45	1080.65
673.79	1081.82
674.13	1081.51
674.47	1082.24
674.81	1081.19
675.15	1079.67
675.49	1077.61
675.83	1079.78
676.17	1082.59
676.51	1084.37
676.85	1084.28
677.19	1087.02
677.53	1085.89
677.87	1081.56
678.21	1080.81
678.55	1080.58
678.89	1082.78
679.23	1082.24
679.57	1084.32
679.90	1084.14
680.24	1083.34
680.58	1080.86
680.92	1076.60
681.26	1076.15
681.60	1075.62
681.94	1076.72
682.28	1074.45
682.62	1080.11
682.96	1077.51
683.29	1077.98
683.63	1073.60
683.97	1076.34
684.31	1075.87
684.65	1077.75
684.99	1077.86
685.33	1082.24
685.67	1081.07
686.00	1080.79
686.34	1082.64
686.68	1084.63
687.02	1083.11
687.36	1084.98
687.70	1081.73
688.03	1084.93
688.37	1080.88
688.71	1083.55
689.05	1080.27
689.39	1080.88
689.72	1075.43
690.06	1077.77
690.40	1077.18
690.74	1079.41
691.08	1082.08
691.41	1085.56
691.75	1085.21
692.09	1082.97
692.43	1082.92
692.76	1082.31
693.10	1084.84
693.44	1082.05
693.78	1081.98
694.11	1080.06
694.45	1078.00
694.79	1076.08
695.13	1076.25
695.46	1078.12
695.80	1075.66
696.14	1078.45
696.48	1075.52
696.81	1075.76
697.15	1073.18
697.49	1076.25
697.82	1076.48
698.16	1077.47
698.50	1079.27
698.83	1082.10
699.17	1081.82
699.51	1080.37
699.84	1077.37
700.18	1076.32
700.52	1076.27
700.85	1078.68
701.19	1078.10
701.53	1079.27
701.86	1079.50
702.20	1080.20
702.54	1079.20
702.87	1079.38
703.21	1079.67
703.55	1077.84
703.88	1073.23
704.22	1071.45
704.55	1073.42
704.89	1075.05
705.23	1079.01
705.56	1081.16
705.90	1083.93
706.23	1081.28
706.57	1079.53
706.91	1078.26
707.24	1080.46
707.58	1079.03
707.91	1082.03
708.25	1081.12
708.58	1082.01
708.92	1078.00
709.26	1078.99
709.59	1075.99
709.93	1076.37
710.26	1074.84
710.60	1078.52
710.93	1077.09
711.27	1079.71
711.60	1081.33
711.94	1083.22
712.27	1080.13
712.61	1079.31
712.94	1075.80
713.28	1075.41
713.61	1072.64
713.95	1074.26
714.28	1075.62
714.62	1077.47
714.95	1078.68
715.29	1078.82
715.62	1081.73
715.96	1084.00
716.29	1083.06
716.63	1081.80
716.96	1081.89
717.29	1076.04
717.63	1071.99
717.96	1074.26
718.30	1074.63
718.63	1074.84
718.97	1077.04
719.30	1077.09
719.63	1076.48
719.97	1074.03
720.30	1073.93
720.64	1072.83
720.97	1074.87
721.30	1076.65
721.64	1079.03
721.97	1077.86
722.31	1080.16
722.64	1082.31
722.97	1079.90
723.31	1080.44
723.64	1081.73
723.97	1081.09
724.31	1080.16
724.64	1081.05
724.98	1080.04
725.31	1078.59
725.64	1079.88
725.98	1078.78
726.31	1077.35
726.64	1076.97
726.97	1081.35
727.31	1080.23
727.64	1080.93
727.97	1080.60
728.31	1082.19
728.64	1080.18
728.97	1079.55
729.31	1077.37
729.64	1077.89
729.97	1076.81
730.30	1075.69
730.64	1075.41
730.97	1075.17
731.30	1075.85
731.63	1074.98
731.97	1075.31
732.30	1076.06
732.63	1077.09
732.96	1077.58
733.30	1080.41
733.63	1081.19
733.96	1081.63
734.29	1082.97
734.63	1081.44
734.96	1080.25
735.29	1078.12
735.62	1076.48
735.95	1074.96
736.29	1075.80
736.62	1076.04
736.95	1074.77
737.28	1073.16
737.61	1072.88
737.94	1073.93
738.28	1073.63
738.61	1074.98
738.94	1080.41
739.27	1081.91
739.60	1080.63
739.93	1080.30
740.27	1084.39
740.60	1083.64
740.93	1084.35
741.26	1083.81
741.59	1082.83
741.92	1078.07
742.25	1076.69
742.58	1078.00
742.91	1081.26
743.25	1079.03
743.58	1081.47
743.91	1080.63
744.24	1080.46
744.57	1078.24
744.90	1083.76
745.23	1082.66
745.56	1084.51
745.89	1081.33
746.22	1079.71
746.55	1077.77
746.88	1082.90
747.21	1081.94
747.54	1079.38
747.87	1079.24
748.20	1078.05
748.53	1074.94
748.87	1074.00
749.20	1077.09
749.53	1081.56
749.86	1083.88
750.19	1083.46
750.52	1084.30
750.85	1084.53
751.18	1079.53
751.51	1077.72
751.84	1077.33
752.16	1078.24
752.49	1076.48
752.82	1077.04
753.15	1074.45
753.48	1075.24
753.81	1074.10
754.14	1074.73
754.47	1078.71
754.80	1080.93
755.13	1079.22
755.46	1076.81
755.79	1075.87
756.12	1074.33
756.45	1074.49
756.78	1073.35
757.11	1076.34
757.43	1075.97
757.76	1074.82
758.09	1074.98
758.42	1076.20
758.75	1076.04
759.08	1077.00
759.41	1076.08
759.74	1075.24
760.07	1073.39
760.39	1073.44
760.72	1076.48
761.05	1078.24
761.38	1079.38
761.71	1080.60
762.04	1081.40
762.36	1079.27
762.69	1078.71
763.02	1078.66
763.35	1080.67
763.68	1076.93
764.01	1076.08
764.33	1075.99
764.66	1074.68
764.99	1075.41
765.32	1079.64
765.65	1082.61
765.97	1083.22
766.30	1085.00
766.63	1084.39
766.96	1081.82
767.28	1079.67
767.61	1076.08
767.94	1075.76
768.27	1075.66
768.59	1076.01
768.92	1078.45
769.25	1080.02
769.58	1081.05
769.90	1079.76
770.23	1079.97
770.56	1076.32
770.89	1078.78
771.21	1078.12
771.54	1077.33
771.87	1079.38
772.19	1082.12
772.52	1080.32
772.85	1079.08
773.17	1078.66
773.50	1079.57
773.83	1080.34
774.15	1081.12
774.48	1080.63
774.81	1081.66
775.13	1078.36
775.46	1074.68
775.79	1076.04
776.11	1073.91
776.44	1076.11
776.77	1073.88
777.09	1073.74
777.42	1072.08
777.74	1076.69
778.07	1075.50
778.40	1078.68
778.72	1078.54
779.05	1076.46
779.37	1074.68
779.70	1072.20
780.03	1072.43
780.35	1075.10
780.68	1076.15
781.00	1071.61
781.33	1073.25
781.65	1073.95
781.98	1073.00
782.31	1073.56
782.63	1080.11
782.96	1080.88
783.28	1081.33
783.61	1078.61
783.93	1078.85
784.26	1079.15
784.58	1079.62
784.91	1078.87
785.23	1082.97
785.56	1083.41
785.88	1081.84
786.21	1082.73
786.53	1081.54
786.86	1081.12
787.18	1082.59
787.51	1082.17
787.83	1077.89
788.16	1078.54
788.48	1075.73
788.81	1072.60
789.13	1070.35
789.46	1071.24
789.78	1072.13
790.10	1074.80
790.43	1077.56
790.75	1078.59
791.08	1080.09
791.40	1077.68
791.73	1078.82
792.05	1078.89
792.37	1081.05
792.70	1081.44
793.02	1083.27
793.35	1081.33
793.67	1080.65
793.99	1079.10
794.32	1078.07
794.64	1077.77
794.96	1076.04
795.29	1073.51
795.61	1071.31
795.93	1071.99
796.26	1071.45
796.58	1073.88
796.91	1073.00
797.23	1075.83
797.55	1076.01
797.87	1077.18
798.20	1076.04
798.52	1079.34
798.84	1077.58
799.17	1077.37
799.49	1073.72
799.81	1075.52
800.14	1077.28
800.46	1076.06
800.78	1073.91
801.10	1080.44
801.43	1079.08
801.75	1076.58
802.07	1080.11
802.40	1083.74
802.72	1077.84
803.04	1079.48
803.36	1080.88
803.69	1079.83
804.01	1078.40
804.33	1081.26
804.65	1079.06
804.97	1077.72
805.30	1076.58
805.62	1075.03
805.94	1073.51
806.26	1072.20
806.58	1075.78
806.91	1076.39
807.23	1077.33
807.55	1078.92
807.87	1077.98
808.19	1073.28
808.52	1072.04
808.84	1073.70
809.16	1070.42
809.48	1070.14
809.80	1072.62
810.12	1073.60
810.44	1071.50
810.77	1072.67
811.09	1074.28
811.41	1071.61
811.73	1070.70
812.05	1074.19
812.37	1073.44
812.69	1073.65
813.01	1074.87
813.33	1075.22
813.66	1073.63
813.98	1075.69
814.30	1077.25
814.62	1080.44
814.94	1081.82
815.26	1082.43
815.58	1080.63
815.90	1079.74
816.22	1077.04
816.54	1075.90
816.86	1073.49
817.18	1072.55
817.50	1073.60
817.82	1071.36
818.14	1074.31
818.46	1073.18
818.78	1076.83
819.10	1075.24
819.42	1075.97
819.74	1074.10
820.06	1076.79
820.38	1072.69
820.70	1070.16
821.02	1072.53
821.34	1072.62
821.66	1072.90
821.98	1075.57
822.30	1081.70
822.62	1081.35
822.94	1082.19
823.26	1083.36
823.58	1083.22
823.90	1081.09
824.22	1080.58
824.54	1080.32
824.86	1078.57
825.18	1078.94
825.50	1080.11
825.81	1081.12
826.13	1079.62
826.45	1079.74
826.77	1079.97
827.09	1075.08
827.41	1071.68
827.73	1072.88
828.05	1071.22
828.36	1068.83
828.68	1074.31
829.00	1075.94
829.32	1078.61
829.64	1080.11
829.96	1080.84
830.28	1080.79
830.59	1079.50
830.91	1078.10
831.23	1077.14
831.55	1078.96
831.87	1075.05
832.19	1079.85
832.50	1080.41
832.82	1082.54
833.14	1080.39
833.46	1083.69
833.78	1079.67
834.09	1078.87
834.41	1077.77
834.73	1079.17
835.05	1078.24
835.36	1077.79
835.68	1077.16
836.00	1075.15
836.32	1075.99
836.63	1073.35
836.95	1078.38
837.27	1077.56
837.59	1076.62
837.90	1077.51
838.22	1080.60
838.54	1078.36
838.85	1077.61
839.17	1079.92
839.49	1078.50
839.80	1077.61
840.12	1075.94
840.44	1076.86
840.76	1077.86
841.07	1078.03
841.39	1078.99
841.71	1080.41
842.02	1079.78
842.34	1078.71
842.65	1078.17
842.97	1078.66
843.29	1076.04
843.60	1079.60
843.92	1076.04
844.24	1074.63
844.55	1070.84
844.87	1072.43
845.18	1070.30
845.50	1076.76
845.82	1080.25
846.13	1080.34
846.45	1077.33
846.76	1077.33
847.08	1075.78
847.40	1074.91
847.71	1076.55
848.03	1080.02
848.34	1077.98
848.66	1076.83
848.97	1074.77
849.29	1073.79
849.60	1072.62
849.92	1072.88
850.24	1074.00
850.55	1072.60
850.87	1073.37
851.18	1074.26
851.50	1075.71
851.81	1073.98
852.13	1079.62
852.44	1080.72
852.76	1082.19
853.07	1082.73
853.39	1083.53
853.70	1082.22
854.01	1084.21
854.33	1084.11
854.64	1082.52
854.96	1083.81
855.27	1082.05
855.59	1079.13
855.90	1076.95
856.22	1080.91
856.53	1079.22
856.84	1079.71
857.16	1076.48
857.47	1076.79
857.79	1073.79
858.10	1074.82
858.41	1071.82
858.73	1076.67
859.04	1078.07
859.36	1077.14
859.67	1076.20
859.98	1079.15
860.30	1078.21
860.61	1075.52
860.92	1075.34
861.24	1075.36
861.55	1077.11
861.87	1077.96
862.18	1081.68
862.49	1081.16
862.81	1081.49
863.12	1078.82
863.43	1079.62
863.74	1076.37
864.06	1076.95
864.37	1076.37
864.68	1074.49
865.00	1071.90
865.31	1074.63
865.62	1076.53
865.94	1077.68
866.25	1077.44
866.56	1075.69
866.87	1072.69
867.19	1070.98
867.50	1070.42
867.81	1072.34
868.12	1075.43
868.44	1078.78
868.75	1077.93
869.06	1076.60
869.37	1075.92
869.68	1074.54
870.00	1073.79
870.31	1074.82
870.62	1076.72
870.93	1076.41
871.24	1076.27
871.56	1075.03
871.87	1077.65
872.18	1074.80
872.49	1077.82
872.80	1080.53
873.12	1079.34
873.43	1077.16
873.74	1078.31
874.05	1077.11
874.36	1074.35
874.67	1075.45
874.98	1076.01
875.29	1076.27
875.61	1076.58
875.92	1077.07
876.23	1077.28
876.54	1080.02
876.85	1080.11
877.16	1079.10
877.47	1079.38
877.78	1080.13
878.09	1077.77
878.40	1075.38
878.72	1077.33
879.03	1076.65
879.34	1073.79
879.65	1072.69
879.96	1074.63
880.27	1073.04
880.58	1074.96
880.89	1077.18
881.20	1075.52
881.51	1074.77
881.82	1076.37
882.13	1074.61
882.44	1074.31
882.75	1073.60
883.06	1075.71
883.37	1074.73
883.68	1076.39
883.99	1076.55
884.30	1076.06
884.61	1075.69
884.92	1075.08
885.23	1073.44
885.54	1071.90
885.85	1076.76
886.16	1078.03
886.47	1076.72
886.78	1076.81
887.08	1079.95
887.39	1078.75
887.70	1079.17
888.01	1078.64
888.32	1080.06
888.63	1079.13
888.94	1079.53
889.25	1076.32
889.56	1079.10
889.87	1079.13
890.17	1077.70
890.48	1073.77
890.79	1076.62
891.10	1074.00
891.41	1072.25
891.72	1074.31
892.03	1074.63
892.34	1072.27
892.64	1074.26
892.95	1071.90
893.26	1072.64
893.57	1074.70
893.88	1074.89
894.18	1074.28
894.49	1076.76
894.80	1075.57
895.11	1076.69
895.42	1077.79
895.72	1075.55
896.03	1074.00
896.34	1072.20
896.65	1068.90
896.96	1068.83
897.26	1073.46
897.57	1072.13
897.88	1073.98
898.19	1077.42
898.49	1075.99
898.80	1073.14
899.11	1077.70
899.41	1077.47
899.72	1075.41
900.03	1077.61
900.34	1077.98
900.64	1077.04
900.95	1077.68
901.26	1081.68
901.56	1081.26
901.87	1081.26
902.18	1083.27
902.48	1082.15
902.79	1076.95
903.10	1076.48
903.40	1076.48
903.71	1077.96
904.02	1079.31
904.32	1080.86
904.63	1080.65
904.94	1078.99
905.24	1073.67
905.55	1073.72
905.85	1073.21
906.16	1073.84
906.47	1075.20
906.77	1076.90
907.08	1076.23
907.38	1076.55
907.69	1078.87
908.00	1080.30
908.30	1080.32
908.61	1079.38
908.91	1079.57
909.22	1076.97
909.52	1075.94
909.83	1074.28
910.14	1073.72
910.44	1073.18
910.75	1073.91
911.05	1073.74
911.36	1074.91
911.66	1074.87
911.97	1075.57
912.27	1072.85
912.58	1073.91
912.88	1077.04
913.19	1075.99
913.49	1076.37
913.80	1077.84
914.10	1076.81
914.41	1076.76
914.71	1078.00
915.01	1079.22
915.32	1078.64
915.62	1079.55
915.93	1077.16
916.23	1078.47
916.54	1077.21
916.84	1079.34
917.15	1078.26
917.45	1074.47
917.75	1073.88
918.06	1075.17
918.36	1075.64
918.67	1078.40
918.97	1082.10
919.27	1080.74
919.58	1082.71
919.88	1079.74
920.18	1078.94
920.49	1075.73
920.79	1073.30
921.10	1068.03
921.40	1068.01
921.70	1065.97
922.01	1068.17
922.31	1071.87
922.61	1071.90
922.92	1070.35
923.22	1070.47
923.52	1070.87
923.82	1071.10
924.13	1073.11
924.43	1076.88
924.73	1077.84
925.04	1077.70
925.34	1077.68
925.64	1077.98
925.94	1074.91
926.25	1075.76
926.55	1074.94
926.85	1072.04
927.15	1072.69
927.46	1074.03
927.76	1072.06
928.06	1071.03
928.36	1071.82
928.67	1073.44
928.97	1074.70
929.27	1075.22
929.57	1078.66
929.87	1079.62
930.18	1076.62
930.48	1076.41
930.78	1076.55
931.08	1074.63
931.38	1072.32
931.69	1074.70
931.99	1071.24
932.29	1069.93
932.59	1072.15
932.89	1070.77
933.19	1067.87
933.49	1068.62
933.80	1068.13
934.10	1065.13
934.40	1069.98
934.70	1071.85
935.00	1074.00
935.30	1074.38
935.60	1076.34
935.90	1075.24
936.20	1073.65
936.50	1073.93
936.81	1076.37
937.11	1076.76
937.41	1077.89
937.71	1079.43
938.01	1079.38
938.31	1078.89
938.61	1081.21
938.91	1080.86
939.21	1081.30
939.51	1081.07
939.81	1079.64
940.11	1075.24
940.41	1076.51
940.71	1077.42
941.01	1075.38
941.31	1078.21
941.61	1078.38
941.91	1079.27
942.21	1078.07
942.51	1079.17
942.81	1076.06
943.11	1074.54
943.41	1077.49
943.71	1076.67
944.01	1077.37
944.31	1078.50
944.61	1081.80
944.90	1073.98
945.20	1075.48
945.50	1079.46
945.80	1077.04
946.10	1078.28
946.40	1081.56
946.70	1078.99
947.00	1074.91
947.30	1078.17
947.60	1078.66
947.89	1077.96
948.19	1081.56
948.49	1082.29
948.79	1080.30
949.09	1077.44
949.39	1076.51
949.69	1072.32
949.98	1072.27
950.28	1071.97
950.58	1071.33
950.88	1071.73
951.18	1075.45
951.48	1075.15
951.77	1080.20
952.07	1080.34
952.37	1081.35
952.67	1082.03
952.97	1081.02
953.26	1077.40
953.56	1081.19
953.86	1081.19
954.16	1080.06
954.45	1081.96
954.75	1082.17
955.05	1078.54
955.35	1078.14
955.64	1076.32
955.94	1078.61
956.24	1079.10
956.54	1080.86
956.83	1083.86
957.13	1083.22
957.43	1080.91
957.72	1081.47
958.02	1082.10
958.32	1078.85
958.61	1080.02
958.91	1079.50
959.21	1081.56
959.50	1080.72
959.80	1082.36
960.10	1083.53
960.39	1082.43
960.69	1080.56
960.99	1079.55
961.28	1078.12
961.58	1075.55
961.87	1077.86
962.17	1077.00
962.47	1078.59
962.76	1078.33
963.06	1081.26
963.36	1081.28
963.65	1079.74
963.95	1081.54
964.24	1081.75
964.54	1082.01
964.83	1080.65
965.13	1082.31
965.42	1079.85
965.72	1076.67
966.02	1074.31
966.31	1072.36
966.61	1067.73
966.90	1070.02
967.20	1071.80
967.49	1072.95
967.79	1074.68
968.08	1078.17
968.38	1073.32
968.67	1076.06
968.97	1076.23
969.26	1074.35
969.56	1077.23
969.85	1079.38
970.15	1081.87
970.44	1080.11
970.74	1081.42
971.03	1079.57
971.32	1075.69
971.62	1069.98
971.91	1071.08
972.21	1073.28
972.50	1072.29
972.80	1077.00
973.09	1078.57
973.38	1080.32
973.68	1075.71
973.97	1075.92
974.27	1077.37
974.56	1080.60
974.85	1078.57
975.15	1081.63
975.44	1080.11
975.73	1077.93
976.03	1074.26
976.32	1076.34
976.61	1074.96
976.91	1078.52
977.20	1078.50
977.49	1080.34
977.79	1077.61
978.08	1076.83
978.37	1077.11
978.67	1078.07
978.96	1075.69
979.25	1076.65
979.55	1076.79
979.84	1077.07
980.13	1075.76
980.42	1076.88
980.72	1076.97
981.01	1077.04
981.30	1075.83
981.59	1075.43
981.89	1078.14
982.18	1077.72
982.47	1076.90
982.76	1072.57
983.06	1073.37
983.35	1071.19
983.64	1070.94
983.93	1074.14
984.22	1077.02
984.52	1074.47
984.81	1071.24
985.10	1071.40
985.39	1069.55
985.68	1071.82
985.97	1077.25
986.27	1079.90
986.56	1081.35
986.85	1081.77
987.14	1077.84
987.43	1075.34
987.72	1076.46
988.01	1072.57
988.31	1073.07
988.60	1074.82
988.89	1076.51
989.18	1075.08
989.47	1080.74
989.76	1082.03
990.05	1083.79
990.34	1083.97
990.63	1084.67
990.92	1082.85
991.21	1082.92
991.51	1084.07
991.80	1083.79
992.09	1084.74
992.38	1084.23
992.67	1082.99
992.96	1081.05
993.25	1075.99
993.54	1072.55
993.83	1071.47
994.12	1068.81
994.41	1070.63
994.70	1074.94
994.99	1078.47
995.28	1077.58
995.57	1081.63
995.86	1076.46
996.15	1075.36
996.44	1072.34
996.73	1073.44
997.02	1074.98
997.31	1078.19
997.59	1079.06
997.88	1079.36
998.17	1079.03
998.46	1077.40
998.75	1078.73
999.04	1078.03
999.33	1078.99
999.62	1081.73
999.91	1082.40
1000.20	1080.72
1000.49	1084.46
1000.77	1085.80
1001.06	1083.62
1001.35	1079.36
1001.64	1081.56
1001.93	1078.26
1002.22	1077.30
1002.51	1078.43
1002.79	1082.03
1003.08	1081.33
1003.37	1081.73
1003.66	1083.90
1003.95	1081.49
1004.23	1082.36
1004.52	1080.32
1004.81	1077.79
1005.10	1072.46
1005.39	1070.96
1005.67	1068.59
1005.96	1068.36
1006.25	1067.31
1006.54	1069.34
1006.83	1075.17
1007.11	1074.38
1007.40	1077.82
1007.69	1079.67
1007.97	1081.56
1008.26	1078.99
1008.55	1081.66
1008.84	1079.08
1009.12	1080.58
1009.41	1080.46
1009.70	1079.95
1009.98	1078.26
1010.27	1079.57
1010.56	1078.85
1010.85	1077.16
1011.13	1076.72
1011.42	1075.85
1011.71	1074.77
1011.99	1073.86
1012.28	1077.98
1012.56	1078.52
1012.85	1076.83
1013.14	1077.77
1013.42	1076.88
1013.71	1074.31
1014.00	1075.36
1014.28	1080.20
1014.57	1078.14
1014.85	1079.71
1015.14	1079.92
1015.43	1080.65
1015.71	1078.75
1016.00	1078.33
1016.28	1079.38
1016.57	1077.70
1016.85	1077.98
1017.14	1078.52
1017.43	1077.44
1017.71	1075.62
1018.00	1077.54
1018.28	1075.64
1018.57	1072.64
1018.85	1073.81
1019.14	1073.18
1019.42	1074.77
1019.71	1076.60
1019.99	1078.19
1020.28	1077.65
1020.56	1078.45
1020.85	1076.46
1021.13	1075.08
1021.42	1076.41
1021.70	1078.19
1021.99	1081.54
1022.27	1080.44
1022.55	1091.63
1022.84	1073.49
>>>>>End Processed Spectral Data<<<<<
