SpectraSuite Data File
++++++++++++++++++++++++++++++++++++
Date: Mon Aug 26 10:22:03 PDT 2019
User: corrico
Dark Spectrum Present: No
Reference Spectrum Present: No
Number of Sampled Component Spectra: 1
Spectrometers: USB2+H06089
Integration Time (usec): 2000 (USB2+H06089)
Spectra Averaged: 20 (USB2+H06089)
Boxcar Smoothing: 2 (USB2+H06089)
Correct for Electrical Dark: No (USB2+H06089)
Strobe/Lamp Enabled: No (USB2+H06089)
Correct for Detector Non-linearity: No (USB2+H06089)
Correct for Stray Light: No (USB2+H06089)
Number of Pixels in Processed Spectrum: 2048
>>>>>Begin Processed Spectral Data<<<<<
339.70	1029.25
340.07	1029.25
340.45	994.21
340.82	971.98
341.19	947.40
341.57	922.10
341.94	913.60
342.31	902.07
342.69	895.79
343.06	893.80
343.43	892.96
343.81	894.67
344.18	900.57
344.55	907.50
344.93	912.81
345.30	916.39
345.67	921.61
346.04	926.62
346.42	930.92
346.79	939.16
347.16	947.92
347.54	958.17
347.91	969.24
348.28	982.88
348.65	991.03
349.03	1003.01
349.40	1012.52
349.77	1021.25
350.14	1028.95
350.52	1038.45
350.89	1043.53
351.26	1050.46
351.63	1055.49
352.01	1059.72
352.38	1064.76
352.75	1069.65
353.12	1072.60
353.50	1074.73
353.87	1076.51
354.24	1077.09
354.61	1078.64
354.98	1083.06
355.36	1082.03
355.73	1080.81
356.10	1079.20
356.47	1076.13
356.84	1073.25
357.22	1077.98
357.59	1079.74
357.96	1080.86
358.33	1085.47
358.70	1083.90
359.08	1080.65
359.45	1079.78
359.82	1082.78
360.19	1082.01
360.56	1080.95
360.94	1080.13
361.31	1083.46
361.68	1079.90
362.05	1078.45
362.42	1077.37
362.79	1077.65
363.16	1073.53
363.54	1072.64
363.91	1072.32
364.28	1075.48
364.65	1074.84
365.02	1075.69
365.39	1074.26
365.76	1074.12
366.14	1072.41
366.51	1074.56
366.88	1073.11
367.25	1077.72
367.62	1079.10
367.99	1078.89
368.36	1077.21
368.73	1077.65
369.10	1077.58
369.48	1078.57
369.85	1083.79
370.22	1085.77
370.59	1085.68
370.96	1084.44
371.33	1085.17
371.70	1077.23
372.07	1074.75
372.44	1077.75
372.81	1078.03
373.18	1078.31
373.55	1081.61
373.93	1083.93
374.30	1081.70
374.67	1081.58
375.04	1079.10
375.41	1079.97
375.78	1080.48
376.15	1083.11
376.52	1083.18
376.89	1079.76
377.26	1078.17
377.63	1075.05
378.00	1072.76
378.37	1073.86
378.74	1077.37
379.11	1078.89
379.48	1083.20
379.85	1081.02
380.22	1081.73
380.59	1083.04
380.96	1079.99
381.33	1077.02
381.70	1080.72
382.07	1077.44
382.44	1077.68
382.81	1079.46
383.18	1079.20
383.55	1079.06
383.92	1081.21
384.29	1077.77
384.66	1080.74
385.03	1087.34
385.40	1087.11
385.77	1086.57
386.14	1090.48
386.51	1090.17
386.88	1085.00
387.25	1085.26
387.62	1084.14
387.99	1083.32
388.36	1080.44
388.73	1080.06
389.10	1079.06
389.46	1081.09
389.83	1084.70
390.20	1088.91
390.57	1092.30
390.94	1091.06
391.31	1091.81
391.68	1090.22
392.05	1089.38
392.42	1087.27
392.79	1091.25
393.16	1091.04
393.53	1088.93
393.89	1089.26
394.26	1090.29
394.63	1087.51
395.00	1085.49
395.37	1088.02
395.74	1086.76
396.11	1086.71
396.48	1087.90
396.84	1092.75
397.21	1091.74
397.58	1090.55
397.95	1091.58
398.32	1090.22
398.69	1088.82
399.06	1089.75
399.42	1091.58
399.79	1093.92
400.16	1099.44
400.53	1099.86
400.90	1098.46
401.27	1097.78
401.64	1093.69
402.00	1092.28
402.37	1091.34
402.74	1093.33
403.11	1093.85
403.48	1095.53
403.84	1093.29
404.21	1095.07
404.58	1094.46
404.95	1095.96
405.32	1095.35
405.68	1098.04
406.05	1095.46
406.42	1093.78
406.79	1092.77
407.16	1090.69
407.52	1090.55
407.89	1091.88
408.26	1093.87
408.63	1098.60
408.99	1102.30
409.36	1101.88
409.73	1102.60
410.10	1103.91
410.47	1102.23
410.83	1103.84
411.20	1107.07
411.57	1106.68
411.94	1103.54
412.30	1102.32
412.67	1100.71
413.04	1098.98
413.40	1099.56
413.77	1099.19
414.14	1096.68
414.51	1096.92
414.87	1095.96
415.24	1097.90
415.61	1102.35
415.97	1107.61
416.34	1107.31
416.71	1107.17
417.08	1105.88
417.44	1106.44
417.81	1104.90
418.18	1107.92
418.54	1109.23
418.91	1109.91
419.28	1110.12
419.64	1110.82
420.01	1110.21
420.38	1114.49
420.74	1117.30
421.11	1121.19
421.48	1127.13
421.84	1130.95
422.21	1130.10
422.58	1135.37
422.94	1136.47
423.31	1137.03
423.68	1140.87
424.04	1147.31
424.41	1150.51
424.77	1154.09
425.14	1158.82
425.51	1163.46
425.87	1167.72
426.24	1167.62
426.61	1174.64
426.97	1181.32
427.34	1186.07
427.70	1193.86
428.07	1206.66
428.44	1213.29
428.80	1220.00
429.17	1230.68
429.53	1237.86
429.90	1248.47
430.27	1261.06
430.63	1275.22
431.00	1291.18
431.36	1310.63
431.73	1325.52
432.09	1341.67
432.46	1362.03
432.83	1379.46
433.19	1399.59
433.56	1424.01
433.92	1451.62
434.29	1475.90
434.65	1501.69
435.02	1529.73
435.38	1562.54
435.75	1592.20
436.11	1629.67
436.48	1674.07
436.84	1719.52
437.21	1761.96
437.57	1811.76
437.94	1867.49
438.30	1921.88
438.67	1980.40
439.03	2044.76
439.40	2116.15
439.76	2182.55
440.13	2257.17
440.49	2334.99
440.86	2411.43
441.22	2497.77
441.59	2589.52
441.95	2688.99
442.32	2795.21
442.68	2918.74
443.05	3035.07
443.41	3167.03
443.78	3303.64
444.14	3445.10
444.51	3586.99
444.87	3762.60
445.24	3926.20
445.60	4106.21
445.96	4290.41
446.33	4500.76
446.69	4697.03
447.06	4922.87
447.42	5145.55
447.79	5386.09
448.15	5665.92
448.51	5954.37
448.88	6272.80
449.24	6587.51
449.61	6947.06
449.97	7307.74
450.33	7694.53
450.70	8061.09
451.06	8507.45
451.43	8918.12
451.79	9370.94
452.15	9868.35
452.52	10413.11
452.88	10960.56
453.24	11602.04
453.61	12320.14
453.97	13025.62
454.34	13728.15
454.70	14551.79
455.06	15349.40
455.43	16112.67
455.79	16826.04
456.15	17676.03
456.52	18451.17
456.88	19416.87
457.24	20342.49
457.61	21446.31
457.97	22482.95
458.33	23548.60
458.70	24543.72
459.06	25539.27
459.42	26585.44
459.79	27539.40
460.15	28636.81
460.51	29679.49
460.88	30783.26
461.24	31771.91
461.60	32940.65
461.96	34006.49
462.33	35076.16
462.69	36180.07
463.05	37329.13
463.42	38347.08
463.78	39276.86
464.14	40010.08
464.50	40687.97
464.87	41196.05
465.23	41526.02
465.59	41917.99
465.95	42286.34
466.32	42591.48
466.68	42931.74
467.04	43165.07
467.40	43233.18
467.77	43340.24
468.13	43249.73
468.49	43013.45
468.85	42889.47
469.22	42768.12
469.58	42485.85
469.94	42298.04
470.30	42102.00
470.66	41720.05
471.03	41163.54
471.39	40753.34
471.75	40012.79
472.11	39205.99
472.47	38595.79
472.84	37996.37
473.20	37255.20
473.56	36862.50
473.92	36348.24
474.28	35822.86
474.65	35253.69
475.01	34630.66
475.37	33807.47
475.73	33119.26
476.09	32364.58
476.45	31689.59
476.81	31128.61
477.18	30576.99
477.54	30117.19
477.90	29684.22
478.26	29104.49
478.62	28570.33
478.98	28135.91
479.34	27668.46
479.71	27105.70
480.07	26685.45
480.43	26258.66
480.79	25754.44
481.15	25274.74
481.51	24873.69
481.87	24509.27
482.23	24110.33
482.59	23762.73
482.96	23399.44
483.32	23066.85
483.68	22678.32
484.04	22309.33
484.40	21910.97
484.76	21502.43
485.12	21067.33
485.48	20653.82
485.84	20184.34
486.20	19753.58
486.56	19313.75
486.92	18912.30
487.28	18478.58
487.64	18046.07
488.00	17641.32
488.37	17215.65
488.73	16733.47
489.09	16251.70
489.45	15812.33
489.81	15346.87
490.17	14931.31
490.53	14568.62
490.89	14191.42
491.25	13811.01
491.61	13430.23
491.97	13026.88
492.33	12622.65
492.69	12270.56
493.05	11931.68
493.41	11597.35
493.77	11277.38
494.13	10963.30
494.49	10644.08
494.85	10332.93
495.21	10038.96
495.57	9764.67
495.93	9493.31
496.29	9239.90
496.64	9019.23
497.00	8762.50
497.36	8501.22
497.72	8259.02
498.08	8032.60
498.44	7791.97
498.80	7593.75
499.16	7405.43
499.52	7207.38
499.88	7034.13
500.24	6868.35
500.60	6711.32
500.96	6566.58
501.32	6422.69
501.68	6255.95
502.03	6078.28
502.39	5912.22
502.75	5739.37
503.11	5585.06
503.47	5441.96
503.83	5312.85
504.19	5180.38
504.55	5061.41
504.91	4944.92
505.26	4829.88
505.62	4708.57
505.98	4598.10
506.34	4473.04
506.70	4345.23
507.06	4229.35
507.42	4125.40
507.78	4022.30
508.13	3932.97
508.49	3850.56
508.85	3767.16
509.21	3683.16
509.57	3594.13
509.93	3506.92
510.28	3419.64
510.64	3336.39
511.00	3260.39
511.36	3189.57
511.72	3118.23
512.07	3053.04
512.43	2995.02
512.79	2936.39
513.15	2877.43
513.51	2821.16
513.86	2763.26
514.22	2702.85
514.58	2645.23
514.94	2597.71
515.30	2552.85
515.65	2512.33
516.01	2474.48
516.37	2439.33
516.73	2402.68
517.08	2365.88
517.44	2325.35
517.80	2285.74
518.16	2245.46
518.51	2206.61
518.87	2170.36
519.23	2139.76
519.59	2107.04
519.94	2071.14
520.30	2042.49
520.66	2008.30
521.01	1975.25
521.37	1946.58
521.73	1922.89
522.09	1894.50
522.44	1874.23
522.80	1851.18
523.16	1830.23
523.51	1807.62
523.87	1788.17
524.23	1769.02
524.58	1746.84
524.94	1728.25
525.30	1707.28
525.65	1684.88
526.01	1663.16
526.37	1645.02
526.72	1626.49
527.08	1607.36
527.44	1590.93
527.79	1575.70
528.15	1565.00
528.51	1549.69
528.86	1539.91
529.22	1527.64
529.58	1513.72
529.93	1496.21
530.29	1484.77
530.65	1469.88
531.00	1452.40
531.36	1439.22
531.71	1431.89
532.07	1417.92
532.43	1408.25
532.78	1402.00
533.14	1393.23
533.49	1379.79
533.85	1371.13
534.21	1365.63
534.56	1363.95
534.92	1355.45
535.27	1350.00
535.63	1345.43
535.98	1333.36
536.34	1318.96
536.69	1313.46
537.05	1307.07
537.41	1297.55
537.76	1294.11
538.12	1286.45
538.47	1279.80
538.83	1274.73
539.18	1269.74
539.54	1261.41
539.89	1261.78
540.25	1257.20
540.60	1251.02
540.96	1246.08
541.31	1245.33
541.67	1237.65
542.02	1233.84
542.38	1230.89
542.73	1229.90
543.09	1226.14
543.44	1224.90
543.80	1218.25
544.15	1218.30
544.51	1214.13
544.86	1212.12
545.22	1209.89
545.57	1211.63
545.93	1202.99
546.28	1197.82
546.64	1192.27
546.99	1185.72
547.35	1179.65
547.70	1179.79
548.05	1179.40
548.41	1176.35
548.76	1173.33
549.12	1170.43
549.47	1163.62
549.83	1160.74
550.18	1161.30
550.53	1162.38
550.89	1160.53
551.24	1160.13
551.60	1157.37
551.95	1154.33
552.30	1149.91
552.66	1150.65
553.01	1148.24
553.37	1148.76
553.72	1144.94
554.07	1142.72
554.43	1142.04
554.78	1141.55
555.13	1136.33
555.49	1137.06
555.84	1139.98
556.19	1133.90
556.55	1133.45
556.90	1133.73
557.26	1127.60
557.61	1123.88
557.96	1124.88
558.32	1125.17
558.67	1124.81
559.02	1128.16
559.37	1127.25
559.73	1126.01
560.08	1128.09
560.43	1124.46
560.79	1123.90
561.14	1121.89
561.49	1122.33
561.85	1119.20
562.20	1118.71
562.55	1114.75
562.90	1113.21
563.26	1111.82
563.61	1107.92
563.96	1110.47
564.32	1111.01
564.67	1112.18
565.02	1110.42
565.37	1109.84
565.73	1108.99
566.08	1109.06
566.43	1107.49
566.78	1106.65
567.14	1104.59
567.49	1102.16
567.84	1104.66
568.19	1103.94
568.54	1104.64
568.90	1110.44
569.25	1106.63
569.60	1103.35
569.95	1106.68
570.31	1107.21
570.66	1103.49
571.01	1108.95
571.36	1109.84
571.71	1105.74
572.06	1106.56
572.42	1105.97
572.77	1103.61
573.12	1103.84
573.47	1103.45
573.82	1101.43
574.18	1099.26
574.53	1098.86
574.88	1099.28
575.23	1100.26
575.58	1101.36
575.93	1102.79
576.28	1103.61
576.64	1104.80
576.99	1102.44
577.34	1100.87
577.69	1099.07
578.04	1098.25
578.39	1092.63
578.74	1095.21
579.09	1094.46
579.44	1096.56
579.80	1096.33
580.15	1097.52
580.50	1094.36
580.85	1096.05
581.20	1094.67
581.55	1093.08
581.90	1095.89
582.25	1098.27
582.60	1095.00
582.95	1094.25
583.30	1094.55
583.65	1093.85
584.00	1093.26
584.35	1096.40
584.71	1097.03
585.06	1099.00
585.41	1095.79
585.76	1092.77
586.11	1089.59
586.46	1091.91
586.81	1086.34
587.16	1086.01
587.51	1088.00
587.86	1089.03
588.21	1084.28
588.56	1088.84
588.91	1089.33
589.26	1090.43
589.61	1090.90
589.96	1093.24
590.31	1093.38
590.66	1093.26
591.01	1092.73
591.36	1093.29
591.71	1092.40
592.06	1092.70
592.41	1094.11
592.76	1093.19
593.10	1089.59
593.45	1091.93
593.80	1094.43
594.15	1093.69
594.50	1097.03
594.85	1099.33
595.20	1097.97
595.55	1096.82
595.90	1093.57
596.25	1088.19
596.60	1086.41
596.95	1084.84
597.30	1080.23
597.64	1095.07
597.99	1098.74
598.34	1099.79
598.69	1102.13
599.04	1105.81
599.39	1094.69
599.74	1093.99
600.09	1092.26
600.44	1091.16
600.78	1089.26
601.13	1084.23
601.48	1083.53
601.83	1085.77
602.18	1086.15
602.53	1084.84
602.88	1085.35
603.22	1085.24
603.57	1084.25
603.92	1082.85
604.27	1083.36
604.62	1087.20
604.97	1090.55
605.31	1091.02
605.66	1089.43
606.01	1091.56
606.36	1091.32
606.71	1089.89
607.05	1088.77
607.40	1087.04
607.75	1085.00
608.10	1083.43
608.44	1083.46
608.79	1084.21
609.14	1087.37
609.49	1087.76
609.84	1088.44
610.18	1084.77
610.53	1085.73
610.88	1085.42
611.23	1086.08
611.57	1088.02
611.92	1091.39
612.27	1090.17
612.62	1089.96
612.96	1085.70
613.31	1083.20
613.66	1079.15
614.00	1076.55
614.35	1077.18
614.70	1080.39
615.05	1084.35
615.39	1086.99
615.74	1090.69
616.09	1089.03
616.43	1088.28
616.78	1085.07
617.13	1086.29
617.47	1085.54
617.82	1087.30
618.17	1086.03
618.51	1083.22
618.86	1080.41
619.21	1080.63
619.55	1080.98
619.90	1082.52
620.25	1085.96
620.59	1087.65
620.94	1088.02
621.29	1087.65
621.63	1087.06
621.98	1086.22
622.32	1087.25
622.67	1085.96
623.02	1084.86
623.36	1085.21
623.71	1084.07
624.05	1082.78
624.40	1083.83
624.75	1085.54
625.09	1084.04
625.44	1089.00
625.78	1088.70
626.13	1087.18
626.48	1088.51
626.82	1091.79
627.17	1084.53
627.51	1086.15
627.86	1085.00
628.20	1080.02
628.55	1078.71
628.89	1083.95
629.24	1081.35
629.58	1082.97
629.93	1087.39
630.28	1087.58
630.62	1085.45
630.97	1086.85
631.31	1088.07
631.66	1085.28
632.00	1083.76
632.35	1087.69
632.69	1087.81
633.04	1086.55
633.38	1086.45
633.73	1086.94
634.07	1082.47
634.42	1082.45
634.76	1083.15
635.11	1085.28
635.45	1082.40
635.79	1087.90
636.14	1088.75
636.48	1087.44
636.83	1086.94
637.17	1088.12
637.52	1081.70
637.86	1083.60
638.21	1084.86
638.55	1084.84
638.89	1087.02
639.24	1088.16
639.58	1084.42
639.93	1084.23
640.27	1083.86
640.61	1084.02
640.96	1087.86
641.30	1084.67
641.65	1080.46
641.99	1081.09
642.33	1075.73
642.68	1071.57
643.02	1073.00
643.37	1077.14
643.71	1077.42
644.05	1080.51
644.40	1079.99
644.74	1081.16
645.08	1081.35
645.43	1080.02
645.77	1081.02
646.11	1086.36
646.46	1086.06
646.80	1086.38
647.14	1086.01
647.49	1086.97
647.83	1084.42
648.17	1085.82
648.52	1085.70
648.86	1087.58
649.20	1086.80
649.55	1088.47
649.89	1090.57
650.23	1089.71
650.57	1088.42
650.92	1085.42
651.26	1085.87
651.60	1083.81
651.95	1083.11
652.29	1082.78
652.63	1084.14
652.97	1083.27
653.32	1083.20
653.66	1082.83
654.00	1081.51
654.34	1083.69
654.69	1079.76
655.03	1080.53
655.37	1077.07
655.71	1078.64
656.05	1079.69
656.40	1077.75
656.74	1076.25
657.08	1081.30
657.42	1082.01
657.76	1077.84
658.11	1082.40
658.45	1082.78
658.79	1082.17
659.13	1080.65
659.47	1083.79
659.82	1081.07
660.16	1080.81
660.50	1078.07
660.84	1078.43
661.18	1079.22
661.52	1079.74
661.87	1079.24
662.21	1081.26
662.55	1081.16
662.89	1075.48
663.23	1075.41
663.57	1078.57
663.91	1081.09
664.25	1080.74
664.60	1087.20
664.94	1087.04
665.28	1086.90
665.62	1087.09
665.96	1087.69
666.30	1084.56
666.64	1088.61
666.98	1086.87
667.32	1084.11
667.66	1086.76
668.01	1087.16
668.35	1086.45
668.69	1084.72
669.03	1085.17
669.37	1083.81
669.71	1085.33
670.05	1083.81
670.39	1083.88
670.73	1084.91
671.07	1083.93
671.41	1079.57
671.75	1078.94
672.09	1081.98
672.43	1082.10
672.77	1083.27
673.11	1087.97
673.45	1089.99
673.79	1088.89
674.13	1089.87
674.47	1087.62
674.81	1087.04
675.15	1087.27
675.49	1088.49
675.83	1085.33
676.17	1088.61
676.51	1089.59
676.85	1085.59
677.19	1082.83
677.53	1081.58
677.87	1079.27
678.21	1078.57
678.55	1081.84
678.89	1081.37
679.23	1082.26
679.57	1084.02
679.90	1083.06
680.24	1080.27
680.58	1079.24
680.92	1080.51
681.26	1081.56
681.60	1079.01
681.94	1081.49
682.28	1083.08
682.62	1083.69
682.96	1079.92
683.29	1082.78
683.63	1078.36
683.97	1076.55
684.31	1076.69
684.65	1076.60
684.99	1078.10
685.33	1081.35
685.67	1086.69
686.00	1086.94
686.34	1088.16
686.68	1087.48
687.02	1088.54
687.36	1082.71
687.70	1080.72
688.03	1080.11
688.37	1081.12
688.71	1081.75
689.05	1085.21
689.39	1087.25
689.72	1086.87
690.06	1085.17
690.40	1084.70
690.74	1085.38
691.08	1084.00
691.41	1084.37
691.75	1084.49
692.09	1081.98
692.43	1082.76
692.76	1083.53
693.10	1083.57
693.44	1084.86
693.78	1087.20
694.11	1085.80
694.45	1084.32
694.79	1083.79
695.13	1082.40
695.46	1083.69
695.80	1083.74
696.14	1085.31
696.48	1084.81
696.81	1083.06
697.15	1082.66
697.49	1082.92
697.82	1081.09
698.16	1083.53
698.50	1084.96
698.83	1084.37
699.17	1083.48
699.51	1084.86
699.84	1082.61
700.18	1082.45
700.52	1079.97
700.85	1081.84
701.19	1079.55
701.53	1079.29
701.86	1079.46
702.20	1079.53
702.54	1078.75
702.87	1082.87
703.21	1082.78
703.55	1080.91
703.88	1083.79
704.22	1082.83
704.55	1080.41
704.89	1080.93
705.23	1082.29
705.56	1077.79
705.90	1079.48
706.23	1081.51
706.57	1082.87
706.91	1082.24
707.24	1085.68
707.58	1083.76
707.91	1082.29
708.25	1082.61
708.58	1082.76
708.92	1082.78
709.26	1082.85
709.59	1085.19
709.93	1086.52
710.26	1088.07
710.60	1087.65
710.93	1086.66
711.27	1086.36
711.60	1084.81
711.94	1083.50
712.27	1080.88
712.61	1084.07
712.94	1083.74
713.28	1081.23
713.61	1082.29
713.95	1079.50
714.28	1077.82
714.62	1076.90
714.95	1080.39
715.29	1079.36
715.62	1083.15
715.96	1080.72
716.29	1077.72
716.63	1077.77
716.96	1078.64
717.29	1081.66
717.63	1081.16
717.96	1079.99
718.30	1078.38
718.63	1079.41
718.97	1075.27
719.30	1076.72
719.63	1082.52
719.97	1080.09
720.30	1076.72
720.64	1078.85
720.97	1079.29
721.30	1076.04
721.64	1075.01
721.97	1079.34
722.31	1079.08
722.64	1077.37
722.97	1075.69
723.31	1079.97
723.64	1075.03
723.97	1076.15
724.31	1074.47
724.64	1077.25
724.98	1073.39
725.31	1078.31
725.64	1073.60
725.98	1075.48
726.31	1075.57
726.64	1077.68
726.97	1074.94
727.31	1078.28
727.64	1082.19
727.97	1083.29
728.31	1084.07
728.64	1085.26
728.97	1087.09
729.31	1084.96
729.64	1083.43
729.97	1086.57
730.30	1086.57
730.64	1083.97
730.97	1084.04
731.30	1083.74
731.63	1081.21
731.97	1081.87
732.30	1081.16
732.63	1079.78
732.96	1079.90
733.30	1079.99
733.63	1078.68
733.96	1078.26
734.29	1077.70
734.63	1078.03
734.96	1077.51
735.29	1077.63
735.62	1078.78
735.95	1078.59
736.29	1076.90
736.62	1074.66
736.95	1075.22
737.28	1073.67
737.61	1074.33
737.94	1076.58
738.28	1079.20
738.61	1078.10
738.94	1077.07
739.27	1079.17
739.60	1081.77
739.93	1080.27
740.27	1078.96
740.60	1080.70
740.93	1077.84
741.26	1072.34
741.59	1073.42
741.92	1075.36
742.25	1077.68
742.58	1081.63
742.91	1083.22
743.25	1083.67
743.58	1081.77
743.91	1079.67
744.24	1079.97
744.57	1079.92
744.90	1074.70
745.23	1078.05
745.56	1081.28
745.89	1080.60
746.22	1084.79
746.55	1090.78
746.88	1088.09
747.21	1082.71
747.54	1080.65
747.87	1077.75
748.20	1077.18
748.53	1077.23
748.87	1079.57
749.20	1083.27
749.53	1081.19
749.86	1080.20
750.19	1081.98
750.52	1081.54
750.85	1077.82
751.18	1078.75
751.51	1079.55
751.84	1082.19
752.16	1084.09
752.49	1083.79
752.82	1086.48
753.15	1085.40
753.48	1085.05
753.81	1084.18
754.14	1086.29
754.47	1084.65
754.80	1085.77
755.13	1083.90
755.46	1085.56
755.79	1083.88
756.12	1085.03
756.45	1085.10
756.78	1083.11
757.11	1080.67
757.43	1080.98
757.76	1077.23
758.09	1078.94
758.42	1081.42
758.75	1083.20
759.08	1080.88
759.41	1083.43
759.74	1078.75
760.07	1081.07
760.39	1080.48
760.72	1082.29
761.05	1083.81
761.38	1085.87
761.71	1081.07
762.04	1079.83
762.36	1078.73
762.69	1079.64
763.02	1079.71
763.35	1080.27
763.68	1082.12
764.01	1081.28
764.33	1079.83
764.66	1079.29
764.99	1081.84
765.32	1080.70
765.65	1083.86
765.97	1083.20
766.30	1083.08
766.63	1080.65
766.96	1080.81
767.28	1079.22
767.61	1079.06
767.94	1080.77
768.27	1080.79
768.59	1081.96
768.92	1084.77
769.25	1086.08
769.58	1083.93
769.90	1084.74
770.23	1087.06
770.56	1085.73
770.89	1080.95
771.21	1078.75
771.54	1080.27
771.87	1074.47
772.19	1073.07
772.52	1073.60
772.85	1078.38
773.17	1078.03
773.50	1081.42
773.83	1080.81
774.15	1081.42
774.48	1083.11
774.81	1080.74
775.13	1079.60
775.46	1078.85
775.79	1080.95
776.11	1076.48
776.44	1075.20
776.77	1073.46
777.09	1072.85
777.42	1072.29
777.74	1072.46
778.07	1071.24
778.40	1071.66
778.72	1072.48
779.05	1073.95
779.37	1073.44
779.70	1076.97
780.03	1079.41
780.35	1080.98
780.68	1080.72
781.00	1078.57
781.33	1078.68
781.65	1076.48
781.98	1077.44
782.31	1077.84
782.63	1081.54
782.96	1083.18
783.28	1084.81
783.61	1083.01
783.93	1083.29
784.26	1079.57
784.58	1077.86
784.91	1077.00
785.23	1077.00
785.56	1072.62
785.88	1074.96
786.21	1070.70
786.53	1072.95
786.86	1074.54
787.18	1077.79
787.51	1080.79
787.83	1082.61
788.16	1080.18
788.48	1081.02
788.81	1080.74
789.13	1079.31
789.46	1080.02
789.78	1079.34
790.10	1080.72
790.43	1082.05
790.75	1079.83
791.08	1079.34
791.40	1081.14
791.73	1081.61
792.05	1082.22
792.37	1084.39
792.70	1084.32
793.02	1084.96
793.35	1080.91
793.67	1079.27
793.99	1079.99
794.32	1079.62
794.64	1078.07
794.96	1079.55
795.29	1080.58
795.61	1076.13
795.93	1077.61
796.26	1079.22
796.58	1080.51
796.91	1081.68
797.23	1088.14
797.55	1086.27
797.87	1081.89
798.20	1078.80
798.52	1077.79
798.84	1074.24
799.17	1078.57
799.49	1082.40
799.81	1083.55
800.14	1079.10
800.46	1080.09
800.78	1080.60
801.10	1078.54
801.43	1081.54
801.75	1085.47
802.07	1082.54
802.40	1083.29
802.72	1086.92
803.04	1082.12
803.36	1080.41
803.69	1087.02
804.01	1087.37
804.33	1085.52
804.65	1092.33
804.97	1090.64
805.30	1085.45
805.62	1082.19
805.94	1083.18
806.26	1081.07
806.58	1081.54
806.91	1081.07
807.23	1078.64
807.55	1078.87
807.87	1077.30
808.19	1078.00
808.52	1076.72
808.84	1078.87
809.16	1076.90
809.48	1077.09
809.80	1078.57
810.12	1081.73
810.44	1079.76
810.77	1082.59
811.09	1080.04
811.41	1078.43
811.73	1080.56
812.05	1081.44
812.37	1080.11
812.69	1083.71
813.01	1086.24
813.33	1083.04
813.66	1083.88
813.98	1081.75
814.30	1080.65
814.62	1077.47
814.94	1080.27
815.26	1080.13
815.58	1083.71
815.90	1081.89
816.22	1084.81
816.54	1082.12
816.86	1082.87
817.18	1080.72
817.50	1079.88
817.82	1079.71
818.14	1079.24
818.46	1080.27
818.78	1081.09
819.10	1082.94
819.42	1082.26
819.74	1081.94
820.06	1081.14
820.38	1080.74
820.70	1076.58
821.02	1076.25
821.34	1076.95
821.66	1076.65
821.98	1075.52
822.30	1078.94
822.62	1080.44
822.94	1081.42
823.26	1083.11
823.58	1083.46
823.90	1082.80
824.22	1079.67
824.54	1082.17
824.86	1079.08
825.18	1078.52
825.50	1079.76
825.81	1082.90
826.13	1080.18
826.45	1080.74
826.77	1081.12
827.09	1078.38
827.41	1077.18
827.73	1079.50
828.05	1078.03
828.36	1079.24
828.68	1081.63
829.00	1080.60
829.32	1079.76
829.64	1081.00
829.96	1079.10
830.28	1079.01
830.59	1078.78
830.91	1079.85
831.23	1082.17
831.55	1085.28
831.87	1086.03
832.19	1085.70
832.50	1083.01
832.82	1080.02
833.14	1076.15
833.46	1078.36
833.78	1080.32
834.09	1081.00
834.41	1080.13
834.73	1081.19
835.05	1077.93
835.36	1078.61
835.68	1078.66
836.00	1079.29
836.32	1077.61
836.63	1076.30
836.95	1077.09
837.27	1076.04
837.59	1076.97
837.90	1080.30
838.22	1080.70
838.54	1076.23
838.85	1076.20
839.17	1078.47
839.49	1076.58
839.80	1075.05
840.12	1075.48
840.44	1073.63
840.76	1071.54
841.07	1070.82
841.39	1072.78
841.71	1070.58
842.02	1068.43
842.34	1068.83
842.65	1071.57
842.97	1073.32
843.29	1075.73
843.60	1075.57
843.92	1073.74
844.24	1072.90
844.55	1071.87
844.87	1071.43
845.18	1078.45
845.50	1081.82
845.82	1082.15
846.13	1082.64
846.45	1083.36
846.76	1079.60
847.08	1075.13
847.40	1075.64
847.71	1073.39
848.03	1075.55
848.34	1075.50
848.66	1079.85
848.97	1078.82
849.29	1080.60
849.60	1080.13
849.92	1081.00
850.24	1078.38
850.55	1078.45
850.87	1081.05
851.18	1079.10
851.50	1080.23
851.81	1081.70
852.13	1084.11
852.44	1082.33
852.76	1085.84
853.07	1085.42
853.39	1085.77
853.70	1079.48
854.01	1080.63
854.33	1079.53
854.64	1077.77
854.96	1075.45
855.27	1077.70
855.59	1078.66
855.90	1079.06
856.22	1080.58
856.53	1083.64
856.84	1083.50
857.16	1081.63
857.47	1080.18
857.79	1081.07
858.10	1081.30
858.41	1080.04
858.73	1078.68
859.04	1079.22
859.36	1074.80
859.67	1072.85
859.98	1079.60
860.30	1077.98
860.61	1075.78
860.92	1078.10
861.24	1079.74
861.55	1075.41
861.87	1074.26
862.18	1076.11
862.49	1078.03
862.81	1078.92
863.12	1078.45
863.43	1079.99
863.74	1076.67
864.06	1073.37
864.37	1068.36
864.68	1070.16
865.00	1073.11
865.31	1075.80
865.62	1080.44
865.94	1081.09
866.25	1076.60
866.56	1073.74
866.87	1074.77
867.19	1071.29
867.50	1073.09
867.81	1076.34
868.12	1075.99
868.44	1073.60
868.75	1075.41
869.06	1076.48
869.37	1078.03
869.68	1079.55
870.00	1081.35
870.31	1080.81
870.62	1079.38
870.93	1075.99
871.24	1075.76
871.56	1073.44
871.87	1074.07
872.18	1072.39
872.49	1075.08
872.80	1077.63
873.12	1080.79
873.43	1083.69
873.74	1085.56
874.05	1083.62
874.36	1082.69
874.67	1084.35
874.98	1081.47
875.29	1080.70
875.61	1080.11
875.92	1081.30
876.23	1078.99
876.54	1079.41
876.85	1082.01
877.16	1081.56
877.47	1078.96
877.78	1078.47
878.09	1077.58
878.40	1076.25
878.72	1075.92
879.03	1075.90
879.34	1076.79
879.65	1074.94
879.96	1076.11
880.27	1081.09
880.58	1082.69
880.89	1083.36
881.20	1083.71
881.51	1082.85
881.82	1082.59
882.13	1081.89
882.44	1081.82
882.75	1081.07
883.06	1082.71
883.37	1080.23
883.68	1074.89
883.99	1076.11
884.30	1077.25
884.61	1074.31
884.92	1075.71
885.23	1081.75
885.54	1080.46
885.85	1082.45
886.16	1082.87
886.47	1082.64
886.78	1082.85
887.08	1082.64
887.39	1079.43
887.70	1080.51
888.01	1079.27
888.32	1075.99
888.63	1076.67
888.94	1081.07
889.25	1082.17
889.56	1084.49
889.87	1085.77
890.17	1082.57
890.48	1077.25
890.79	1072.67
891.10	1071.03
891.41	1071.10
891.72	1069.93
892.03	1071.15
892.34	1073.07
892.64	1073.60
892.95	1072.78
893.26	1074.24
893.57	1075.87
893.88	1079.67
894.18	1079.81
894.49	1082.64
894.80	1083.32
895.11	1080.95
895.42	1076.13
895.72	1072.76
896.03	1069.53
896.34	1067.14
896.65	1070.07
896.96	1071.99
897.26	1074.59
897.57	1072.97
897.88	1074.63
898.19	1073.72
898.49	1076.60
898.80	1079.31
899.11	1082.73
899.41	1082.15
899.72	1082.43
900.03	1078.80
900.34	1078.26
900.64	1077.16
900.95	1078.87
901.26	1078.24
901.56	1078.12
901.87	1077.75
902.18	1078.71
902.48	1077.11
902.79	1077.21
903.10	1078.85
903.40	1079.13
903.71	1078.54
904.02	1078.85
904.32	1079.03
904.63	1076.88
904.94	1072.34
905.24	1074.26
905.55	1073.79
905.85	1073.39
906.16	1075.50
906.47	1079.67
906.77	1076.67
907.08	1077.70
907.38	1079.67
907.69	1081.26
908.00	1078.10
908.30	1080.84
908.61	1082.76
908.91	1079.43
909.22	1077.84
909.52	1080.18
909.83	1080.20
910.14	1080.51
910.44	1080.20
910.75	1076.76
911.05	1077.07
911.36	1076.53
911.66	1074.84
911.97	1072.04
912.27	1073.35
912.58	1069.86
912.88	1073.63
913.19	1073.16
913.49	1078.03
913.80	1079.53
914.10	1080.32
914.41	1074.45
914.71	1073.95
915.01	1072.62
915.32	1074.61
915.62	1078.36
915.93	1079.29
916.23	1078.50
916.54	1080.41
916.84	1077.37
917.15	1074.17
917.45	1074.40
917.75	1076.20
918.06	1078.66
918.36	1078.96
918.67	1075.17
918.97	1075.76
919.27	1076.74
919.58	1072.01
919.88	1069.41
920.18	1072.50
920.49	1072.85
920.79	1073.04
921.10	1076.39
921.40	1081.23
921.70	1080.11
922.01	1080.56
922.31	1078.75
922.61	1077.96
922.92	1075.92
923.22	1079.41
923.52	1083.15
923.82	1086.10
924.13	1086.01
924.43	1086.06
924.73	1084.72
925.04	1079.10
925.34	1077.37
925.64	1077.09
925.94	1079.55
926.25	1079.43
926.55	1079.81
926.85	1079.83
927.15	1083.74
927.46	1079.46
927.76	1077.93
928.06	1078.99
928.36	1080.06
928.67	1077.00
928.97	1077.70
929.27	1080.98
929.57	1077.58
929.87	1076.69
930.18	1077.51
930.48	1077.18
930.78	1077.82
931.08	1080.79
931.38	1080.91
931.69	1079.41
931.99	1081.40
932.29	1080.41
932.59	1082.59
932.89	1081.63
933.19	1080.98
933.49	1079.92
933.80	1079.17
934.10	1076.15
934.40	1077.49
934.70	1078.26
935.00	1076.55
935.30	1075.34
935.60	1076.65
935.90	1077.49
936.20	1076.55
936.50	1082.24
936.81	1082.36
937.11	1082.40
937.41	1081.58
937.71	1080.27
938.01	1075.27
938.31	1077.35
938.61	1074.00
938.91	1073.46
939.21	1073.58
939.51	1074.89
939.81	1074.91
940.11	1079.43
940.41	1077.96
940.71	1078.85
941.01	1082.94
941.31	1082.38
941.61	1081.09
941.91	1079.62
942.21	1077.28
942.51	1070.77
942.81	1069.25
943.11	1069.70
943.41	1071.97
943.71	1075.55
944.01	1078.54
944.31	1078.33
944.61	1075.85
944.90	1075.01
945.20	1074.66
945.50	1075.80
945.80	1077.28
946.10	1077.61
946.40	1080.20
946.70	1082.15
947.00	1080.65
947.30	1081.94
947.60	1084.25
947.89	1082.59
948.19	1082.87
948.49	1085.91
948.79	1085.28
949.09	1088.12
949.39	1086.36
949.69	1082.24
949.98	1077.93
950.28	1078.59
950.58	1072.04
950.88	1072.64
951.18	1074.61
951.48	1076.93
951.77	1074.38
952.07	1075.94
952.37	1078.07
952.67	1075.57
952.97	1074.38
953.26	1076.41
953.56	1078.87
953.86	1078.40
954.16	1081.96
954.45	1080.58
954.75	1081.91
955.05	1082.05
955.35	1079.36
955.64	1078.43
955.94	1082.33
956.24	1079.69
956.54	1076.79
956.83	1080.44
957.13	1077.54
957.43	1073.39
957.72	1073.32
958.02	1075.43
958.32	1075.03
958.61	1077.37
958.91	1080.77
959.21	1081.30
959.50	1079.53
959.80	1079.08
960.10	1082.40
960.39	1080.46
960.69	1081.07
960.99	1083.29
961.28	1082.64
961.58	1080.06
961.87	1080.84
962.17	1081.58
962.47	1079.99
962.76	1081.70
963.06	1082.29
963.36	1081.84
963.65	1080.25
963.95	1076.01
964.24	1073.86
964.54	1072.13
964.83	1072.27
965.13	1073.70
965.42	1075.31
965.72	1074.56
966.02	1075.87
966.31	1075.59
966.61	1075.05
966.90	1074.42
967.20	1074.03
967.49	1074.38
967.79	1074.68
968.08	1073.77
968.38	1075.76
968.67	1079.74
968.97	1079.17
969.26	1080.91
969.56	1077.40
969.85	1079.55
970.15	1078.99
970.44	1074.89
970.74	1075.27
971.03	1079.06
971.32	1078.36
971.62	1079.62
971.91	1081.66
972.21	1081.51
972.50	1082.80
972.80	1083.60
973.09	1082.47
973.38	1082.36
973.68	1078.61
973.97	1076.01
974.27	1073.11
974.56	1069.30
974.85	1072.67
975.15	1075.92
975.44	1075.27
975.73	1077.16
976.03	1078.50
976.32	1077.82
976.61	1074.75
976.91	1078.00
977.20	1075.90
977.49	1077.47
977.79	1075.59
978.08	1075.29
978.37	1075.10
978.67	1076.58
978.96	1073.93
979.25	1072.71
979.55	1073.51
979.84	1071.66
980.13	1073.02
980.42	1074.98
980.72	1076.86
981.01	1080.48
981.30	1082.12
981.59	1082.64
981.89	1081.56
982.18	1079.36
982.47	1072.74
982.76	1071.94
983.06	1072.06
983.35	1070.56
983.64	1074.40
983.93	1077.58
984.22	1075.83
984.52	1072.18
984.81	1075.05
985.10	1072.13
985.39	1072.08
985.68	1073.72
985.97	1078.54
986.27	1076.11
986.56	1076.39
986.85	1077.91
987.14	1078.78
987.43	1077.65
987.72	1080.81
988.01	1077.84
988.31	1079.92
988.60	1076.13
988.89	1076.60
989.18	1074.03
989.47	1075.78
989.76	1075.03
990.05	1076.67
990.34	1070.91
990.63	1074.03
990.92	1076.86
991.21	1073.81
991.51	1073.49
991.80	1078.12
992.09	1076.27
992.38	1075.43
992.67	1075.94
992.96	1076.27
993.25	1075.64
993.54	1077.21
993.83	1074.35
994.12	1072.97
994.41	1073.44
994.70	1073.28
994.99	1070.12
995.28	1074.68
995.57	1076.58
995.86	1076.06
996.15	1076.93
996.44	1079.85
996.73	1081.49
997.02	1082.12
997.31	1081.12
997.59	1081.63
997.88	1082.15
998.17	1079.20
998.46	1080.37
998.75	1080.51
999.04	1078.43
999.33	1078.03
999.62	1078.68
999.91	1077.40
1000.20	1076.51
1000.49	1077.40
1000.77	1077.40
1001.06	1077.37
1001.35	1077.68
1001.64	1080.56
1001.93	1082.03
1002.22	1080.51
1002.51	1083.15
1002.79	1083.74
1003.08	1085.19
1003.37	1088.84
1003.66	1090.81
1003.95	1090.27
1004.23	1088.28
1004.52	1086.94
1004.81	1081.37
1005.10	1078.80
1005.39	1078.50
1005.67	1080.30
1005.96	1081.63
1006.25	1082.90
1006.54	1084.86
1006.83	1081.02
1007.11	1079.34
1007.40	1078.40
1007.69	1077.70
1007.97	1079.31
1008.26	1081.42
1008.55	1083.39
1008.84	1081.91
1009.12	1083.39
1009.41	1083.39
1009.70	1082.54
1009.98	1084.14
1010.27	1085.14
1010.56	1083.97
1010.85	1083.67
1011.13	1081.84
1011.42	1083.29
1011.71	1083.06
1011.99	1077.37
1012.28	1073.42
1012.56	1077.02
1012.85	1070.51
1013.14	1067.24
1013.42	1071.68
1013.71	1073.42
1014.00	1070.91
1014.28	1074.61
1014.57	1077.86
1014.85	1076.69
1015.14	1075.38
1015.43	1077.54
1015.71	1074.61
1016.00	1074.91
1016.28	1075.62
1016.57	1077.30
1016.85	1075.94
1017.14	1075.10
1017.43	1075.52
1017.71	1079.64
1018.00	1077.79
1018.28	1076.60
1018.57	1079.08
1018.85	1078.21
1019.14	1074.98
1019.42	1074.96
1019.71	1075.50
1019.99	1074.68
1020.28	1074.26
1020.56	1072.13
1020.85	1076.58
1021.13	1078.96
1021.42	1078.75
1021.70	1080.58
1021.99	1084.49
1022.27	1080.53
1022.55	1084.37
1022.84	1075.24
>>>>>End Processed Spectral Data<<<<<
