SpectraSuite Data File
++++++++++++++++++++++++++++++++++++
Date: Mon Aug 26 10:21:55 PDT 2019
User: corrico
Dark Spectrum Present: No
Reference Spectrum Present: No
Number of Sampled Component Spectra: 1
Spectrometers: USB2+H06089
Integration Time (usec): 2000 (USB2+H06089)
Spectra Averaged: 20 (USB2+H06089)
Boxcar Smoothing: 2 (USB2+H06089)
Correct for Electrical Dark: No (USB2+H06089)
Strobe/Lamp Enabled: No (USB2+H06089)
Correct for Detector Non-linearity: No (USB2+H06089)
Correct for Stray Light: No (USB2+H06089)
Number of Pixels in Processed Spectrum: 2048
>>>>>Begin Processed Spectral Data<<<<<
339.70	1021.88
340.07	1021.88
340.45	988.50
340.82	967.27
341.19	944.15
341.57	916.81
341.94	907.66
342.31	902.74
342.69	899.09
343.06	898.84
343.43	899.94
343.81	898.79
344.18	896.80
344.55	897.24
344.93	899.58
345.30	904.71
345.67	911.36
346.04	921.14
346.42	932.75
346.79	942.84
347.16	951.87
347.54	962.08
347.91	972.54
348.28	978.04
348.65	985.62
349.03	999.29
349.40	1008.70
349.77	1012.42
350.14	1020.36
350.52	1026.63
350.89	1026.98
351.26	1030.30
351.63	1038.21
352.01	1045.17
352.38	1049.43
352.75	1054.20
353.12	1058.39
353.50	1062.70
353.87	1061.67
354.24	1062.16
354.61	1065.79
354.98	1070.37
355.36	1071.31
355.73	1076.30
356.10	1079.46
356.47	1080.44
356.84	1078.96
357.22	1078.00
357.59	1082.54
357.96	1083.01
358.33	1080.25
358.70	1078.26
359.08	1078.43
359.45	1071.47
359.82	1070.44
360.19	1070.12
360.56	1068.34
360.94	1065.41
361.31	1064.10
361.68	1064.85
362.05	1064.59
362.42	1063.82
362.79	1063.28
363.16	1065.97
363.54	1064.15
363.91	1065.65
364.28	1065.97
364.65	1068.03
365.02	1064.85
365.39	1063.70
365.76	1064.10
366.14	1062.84
366.51	1062.02
366.88	1064.73
367.25	1067.52
367.62	1066.63
367.99	1069.60
368.36	1071.64
368.73	1071.50
369.10	1071.45
369.48	1071.03
369.85	1069.98
370.22	1067.64
370.59	1066.93
370.96	1063.94
371.33	1062.70
371.70	1062.37
372.07	1063.14
372.44	1061.71
372.81	1065.08
373.18	1066.30
373.55	1069.46
373.93	1069.98
374.30	1071.40
374.67	1069.44
375.04	1068.31
375.41	1066.82
375.78	1065.18
376.15	1066.04
376.52	1064.69
376.89	1066.28
377.26	1064.62
377.63	1065.72
378.00	1065.11
378.37	1065.83
378.74	1063.54
379.11	1067.00
379.48	1067.96
379.85	1068.41
380.22	1068.13
380.59	1071.31
380.96	1070.94
381.33	1072.32
381.70	1069.20
382.07	1070.33
382.44	1072.39
382.81	1067.94
383.18	1065.65
383.55	1069.06
383.92	1070.96
384.29	1067.31
384.66	1071.57
385.03	1071.24
385.40	1070.70
385.77	1069.51
386.14	1068.78
386.51	1068.01
386.88	1068.48
387.25	1070.23
387.62	1066.89
387.99	1069.41
388.36	1070.05
388.73	1070.28
389.10	1069.20
389.46	1072.83
389.83	1071.54
390.20	1068.38
390.57	1070.40
390.94	1069.70
391.31	1068.81
391.68	1071.90
392.05	1072.08
392.42	1072.55
392.79	1072.62
393.16	1071.59
393.53	1071.57
393.89	1073.37
394.26	1071.45
394.63	1071.10
395.00	1071.10
395.37	1071.64
395.74	1072.11
396.11	1074.70
396.48	1078.43
396.84	1078.40
397.21	1074.35
397.58	1071.26
397.95	1069.77
398.32	1067.82
398.69	1070.19
399.06	1074.54
399.42	1077.44
399.79	1075.99
400.16	1076.60
400.53	1075.57
400.90	1072.27
401.27	1073.51
401.64	1075.64
402.00	1073.37
402.37	1074.77
402.74	1075.24
403.11	1078.17
403.48	1076.27
403.84	1078.78
404.21	1081.35
404.58	1082.45
404.95	1078.99
405.32	1082.36
405.68	1079.29
406.05	1074.59
406.42	1075.43
406.79	1076.62
407.16	1071.73
407.52	1073.35
407.89	1076.97
408.26	1077.42
408.63	1078.64
408.99	1082.71
409.36	1081.14
409.73	1077.84
410.10	1074.56
410.47	1072.27
410.83	1068.57
411.20	1069.44
411.57	1071.22
411.94	1071.94
412.30	1073.51
412.67	1078.14
413.04	1079.46
413.40	1079.85
413.77	1081.35
414.14	1078.10
414.51	1077.30
414.87	1077.68
415.24	1080.58
415.61	1081.87
415.97	1083.88
416.34	1084.30
416.71	1080.77
417.08	1079.95
417.44	1079.48
417.81	1081.42
418.18	1079.48
418.54	1084.11
418.91	1083.18
419.28	1083.76
419.64	1084.70
420.01	1086.73
420.38	1086.83
420.74	1085.07
421.11	1084.96
421.48	1082.01
421.84	1080.04
422.21	1080.37
422.58	1082.90
422.94	1085.42
423.31	1085.87
423.68	1088.75
424.04	1091.02
424.41	1092.63
424.77	1089.75
425.14	1091.53
425.51	1093.97
425.87	1092.73
426.24	1092.33
426.61	1095.32
426.97	1101.18
427.34	1102.74
427.70	1106.28
428.07	1109.20
428.44	1110.35
428.80	1108.31
429.17	1108.99
429.53	1110.26
429.90	1111.29
430.27	1114.66
430.63	1119.13
431.00	1123.27
431.36	1129.14
431.73	1132.40
432.09	1134.53
432.46	1136.85
432.83	1139.70
433.19	1141.99
433.56	1146.21
433.92	1151.15
434.29	1157.91
434.65	1162.61
435.02	1169.38
435.38	1178.25
435.75	1187.68
436.11	1196.08
436.48	1206.66
436.84	1214.86
437.21	1222.77
437.57	1232.10
437.94	1243.90
438.30	1256.77
438.67	1266.89
439.03	1280.58
439.40	1296.10
439.76	1309.51
440.13	1324.42
440.49	1347.91
440.86	1366.29
441.22	1384.36
441.59	1402.82
441.95	1425.74
442.32	1448.44
442.68	1471.21
443.05	1500.87
443.41	1526.87
443.78	1553.20
444.14	1578.50
444.51	1612.47
444.87	1646.64
445.24	1685.12
445.60	1726.73
445.96	1765.63
446.33	1815.27
446.69	1855.79
447.06	1903.14
447.42	1948.61
447.79	2004.11
448.15	2057.00
448.51	2122.98
448.88	2191.35
449.24	2255.13
449.61	2331.88
449.97	2407.55
450.33	2481.27
450.70	2550.15
451.06	2637.25
451.43	2718.74
451.79	2811.24
452.15	2912.28
452.52	3025.87
452.88	3141.86
453.24	3268.30
453.61	3401.24
453.97	3542.05
454.34	3681.10
454.70	3830.31
455.06	3976.36
455.43	4131.54
455.79	4269.96
456.15	4443.83
456.52	4613.64
456.88	4814.27
457.24	4998.78
457.61	5228.12
457.97	5437.20
458.33	5651.46
458.70	5862.67
459.06	6088.32
459.42	6315.96
459.79	6531.19
460.15	6782.57
460.51	7020.95
460.88	7245.36
461.24	7445.29
461.60	7670.12
461.96	7866.31
462.33	8050.18
462.69	8266.26
463.05	8511.48
463.42	8746.49
463.78	8980.64
464.14	9189.86
464.50	9371.18
464.87	9492.98
465.23	9560.29
465.59	9619.13
465.95	9691.64
466.32	9776.28
466.68	9876.62
467.04	9955.73
467.40	10001.81
467.77	10028.73
468.13	10028.00
468.49	10020.75
468.85	10046.70
469.22	10063.81
469.58	10052.93
469.94	10037.08
470.30	9979.06
470.66	9867.16
471.03	9737.40
471.39	9643.76
471.75	9481.70
472.11	9335.27
472.47	9195.45
472.84	9058.29
473.20	8889.71
473.56	8790.37
473.92	8656.00
474.28	8575.91
474.65	8492.52
475.01	8414.34
475.37	8279.39
475.73	8169.94
476.09	8036.23
476.45	7889.55
476.81	7750.15
477.18	7625.79
477.54	7497.34
477.90	7377.58
478.26	7274.34
478.62	7161.81
478.98	7066.01
479.34	6996.80
479.71	6904.72
480.07	6821.28
480.43	6753.85
480.79	6675.65
481.15	6580.74
481.51	6524.50
481.87	6451.41
482.23	6353.83
482.59	6262.34
482.96	6172.95
483.32	6071.51
483.68	5976.58
484.04	5884.76
484.40	5791.77
484.76	5717.27
485.12	5639.80
485.48	5555.57
485.84	5470.60
486.20	5388.92
486.56	5283.78
486.92	5186.86
487.28	5093.59
487.64	5003.01
488.00	4917.28
488.37	4825.48
488.73	4717.16
489.09	4611.32
489.45	4512.93
489.81	4411.68
490.17	4330.60
490.53	4258.44
490.89	4184.85
491.25	4106.91
491.61	4035.76
491.97	3947.36
492.33	3853.88
492.69	3767.89
493.05	3695.94
493.41	3616.67
493.77	3537.18
494.13	3462.52
494.49	3383.24
494.85	3303.48
495.21	3231.98
495.57	3173.79
495.93	3114.46
496.29	3061.37
496.64	3009.34
497.00	2947.34
497.36	2885.08
497.72	2831.79
498.08	2783.13
498.44	2734.24
498.80	2685.51
499.16	2636.66
499.52	2590.93
499.88	2541.40
500.24	2491.22
500.60	2452.13
500.96	2413.98
501.32	2368.15
501.68	2328.88
502.03	2287.19
502.39	2247.83
502.75	2208.25
503.11	2177.14
503.47	2145.69
503.83	2123.78
504.19	2096.46
504.55	2072.64
504.91	2040.60
505.26	2009.84
505.62	1972.56
505.98	1941.22
506.34	1911.28
506.70	1885.28
507.06	1862.36
507.42	1840.53
507.78	1816.70
508.13	1791.21
508.49	1767.71
508.85	1749.06
509.21	1727.90
509.57	1710.00
509.93	1690.73
510.28	1675.50
510.64	1651.62
511.00	1633.83
511.36	1616.68
511.72	1601.21
512.07	1584.73
512.43	1564.46
512.79	1551.78
513.15	1528.95
513.51	1512.69
513.86	1494.36
514.22	1482.50
514.58	1464.78
514.94	1452.91
515.30	1437.58
515.65	1425.71
516.01	1415.67
516.37	1406.40
516.73	1398.91
517.08	1394.07
517.44	1383.47
517.80	1375.49
518.16	1364.49
518.51	1353.53
518.87	1345.01
519.23	1335.63
519.59	1327.27
519.94	1321.61
520.30	1316.25
520.66	1308.31
521.01	1304.61
521.37	1296.75
521.73	1286.83
522.09	1280.27
522.44	1271.82
522.80	1264.94
523.16	1259.51
523.51	1253.10
523.87	1248.16
524.23	1240.98
524.58	1234.23
524.94	1229.62
525.30	1224.78
525.65	1218.88
526.01	1214.53
526.37	1210.90
526.72	1204.14
527.08	1203.04
527.44	1199.43
527.79	1199.01
528.15	1194.12
528.51	1192.81
528.86	1186.25
529.22	1183.61
529.58	1178.23
529.93	1177.52
530.29	1175.02
530.65	1175.44
531.00	1171.74
531.36	1169.92
531.71	1167.79
532.07	1164.88
532.43	1159.48
532.78	1158.26
533.14	1153.21
533.49	1148.66
533.85	1149.09
534.21	1152.34
534.56	1150.91
534.92	1148.64
535.27	1146.46
535.63	1142.11
535.98	1134.48
536.34	1131.58
536.69	1135.30
537.05	1135.51
537.41	1131.88
537.76	1133.03
538.12	1130.34
538.47	1125.47
538.83	1123.36
539.18	1124.16
539.54	1122.71
539.89	1120.09
540.25	1118.99
540.60	1116.08
540.96	1114.40
541.31	1113.70
541.67	1115.90
542.02	1114.42
542.38	1116.20
542.73	1119.83
543.09	1119.38
543.44	1121.00
543.80	1123.34
544.15	1121.73
544.51	1116.46
544.86	1115.66
545.22	1114.94
545.57	1113.49
545.93	1109.41
546.28	1105.27
546.64	1104.08
546.99	1098.04
547.35	1094.11
547.70	1096.03
548.05	1100.24
548.41	1099.82
548.76	1100.89
549.12	1104.43
549.47	1104.66
549.83	1102.72
550.18	1100.08
550.53	1100.71
550.89	1101.25
551.24	1100.99
551.60	1103.00
551.95	1103.12
552.30	1098.90
552.66	1096.73
553.01	1092.45
553.37	1091.60
553.72	1092.63
554.07	1095.35
554.43	1092.26
554.78	1095.35
555.13	1090.85
555.49	1090.88
555.84	1089.82
556.19	1087.93
556.55	1084.37
556.90	1086.83
557.26	1087.53
557.61	1090.22
557.96	1091.93
558.32	1095.75
558.67	1094.29
559.02	1090.55
559.37	1088.82
559.73	1089.22
560.08	1085.84
560.43	1087.90
560.79	1090.27
561.14	1089.00
561.49	1086.66
561.85	1085.59
562.20	1082.61
562.55	1081.75
562.90	1080.56
563.26	1083.18
563.61	1086.78
563.96	1086.78
564.32	1084.35
564.67	1088.02
565.02	1084.77
565.37	1081.91
565.73	1080.95
566.08	1083.01
566.43	1081.26
566.78	1082.45
567.14	1084.02
567.49	1085.70
567.84	1082.47
568.19	1082.73
568.54	1084.44
568.90	1084.11
569.25	1081.98
569.60	1083.60
569.95	1081.87
570.31	1082.22
570.66	1084.28
571.01	1087.37
571.36	1088.86
571.71	1087.46
572.06	1085.80
572.42	1082.15
572.77	1080.27
573.12	1079.20
573.47	1078.47
573.82	1077.28
574.18	1077.18
574.53	1078.59
574.88	1078.87
575.23	1079.57
575.58	1080.04
575.93	1083.34
576.28	1082.45
576.64	1081.98
576.99	1082.71
577.34	1080.27
577.69	1081.84
578.04	1079.27
578.39	1079.22
578.74	1080.06
579.09	1085.12
579.44	1080.70
579.80	1081.51
580.15	1080.30
580.50	1078.40
580.85	1076.69
581.20	1079.13
581.55	1080.25
581.90	1078.47
582.25	1077.18
582.60	1078.05
582.95	1077.28
583.30	1076.39
583.65	1079.15
584.00	1079.67
584.35	1077.51
584.71	1074.61
585.06	1076.27
585.41	1075.29
585.76	1076.79
586.11	1078.17
586.46	1079.76
586.81	1078.71
587.16	1078.40
587.51	1081.26
587.86	1082.12
588.21	1082.45
588.56	1080.51
588.91	1081.44
589.26	1074.87
589.61	1071.38
589.96	1071.61
590.31	1073.95
590.66	1072.78
591.01	1075.83
591.36	1077.25
591.71	1077.21
592.06	1075.80
592.41	1078.19
592.76	1081.30
593.10	1080.58
593.45	1076.13
593.80	1074.26
594.15	1070.89
594.50	1067.96
594.85	1067.64
595.20	1073.39
595.55	1074.07
595.90	1074.82
596.25	1073.56
596.60	1072.15
596.95	1070.26
597.30	1074.10
597.64	1085.33
597.99	1088.63
598.34	1089.64
598.69	1093.36
599.04	1091.81
599.39	1083.64
599.74	1083.39
600.09	1082.10
600.44	1080.70
600.78	1081.30
601.13	1080.70
601.48	1079.95
601.83	1084.79
602.18	1082.33
602.53	1082.47
602.88	1081.12
603.22	1079.36
603.57	1079.22
603.92	1079.43
604.27	1076.67
604.62	1079.20
604.97	1078.28
605.31	1074.52
605.66	1072.46
606.01	1070.35
606.36	1069.74
606.71	1071.85
607.05	1073.21
607.40	1074.84
607.75	1074.75
608.10	1073.21
608.44	1071.22
608.79	1069.91
609.14	1067.61
609.49	1071.31
609.84	1071.82
610.18	1075.43
610.53	1078.50
610.88	1080.02
611.23	1080.23
611.57	1080.32
611.92	1081.44
612.27	1083.83
612.62	1085.66
612.96	1083.76
613.31	1084.86
613.66	1080.44
614.00	1078.73
614.35	1079.85
614.70	1081.84
615.05	1080.02
615.39	1083.18
615.74	1084.77
616.09	1081.23
616.43	1078.59
616.78	1079.46
617.13	1073.25
617.47	1070.98
617.82	1072.67
618.17	1074.94
618.51	1074.21
618.86	1076.55
619.21	1074.07
619.55	1073.23
619.90	1073.70
620.25	1070.61
620.59	1072.64
620.94	1073.49
621.29	1075.73
621.63	1075.64
621.98	1079.29
622.32	1077.86
622.67	1076.74
623.02	1074.56
623.36	1075.27
623.71	1073.91
624.05	1075.97
624.40	1073.93
624.75	1075.76
625.09	1075.15
625.44	1075.90
625.78	1074.54
626.13	1076.01
626.48	1074.70
626.82	1074.94
627.17	1074.59
627.51	1074.54
627.86	1080.25
628.20	1081.16
628.55	1080.13
628.89	1078.54
629.24	1080.41
629.58	1077.33
629.93	1077.63
630.28	1077.63
630.62	1079.62
630.97	1076.79
631.31	1075.15
631.66	1070.70
632.00	1070.96
632.35	1070.37
632.69	1072.41
633.04	1076.53
633.38	1081.68
633.73	1080.56
634.07	1077.14
634.42	1077.23
634.76	1075.20
635.11	1073.18
635.45	1071.80
635.79	1074.24
636.14	1072.76
636.48	1071.57
636.83	1069.55
637.17	1072.15
637.52	1073.49
637.86	1073.11
638.21	1074.63
638.55	1073.63
638.89	1072.55
639.24	1072.43
639.58	1073.39
639.93	1074.54
640.27	1075.45
640.61	1078.73
640.96	1081.49
641.30	1084.07
641.65	1082.47
641.99	1086.13
642.33	1085.59
642.68	1086.45
643.02	1079.41
643.37	1079.99
643.71	1078.31
644.05	1077.04
644.40	1076.72
644.74	1083.20
645.08	1079.69
645.43	1082.01
645.77	1080.30
646.11	1077.02
646.46	1077.51
646.80	1078.64
647.14	1074.19
647.49	1072.11
647.83	1069.39
648.17	1067.71
648.52	1069.60
648.86	1072.50
649.20	1078.43
649.55	1080.37
649.89	1078.03
650.23	1076.23
650.57	1076.76
650.92	1075.43
651.26	1074.49
651.60	1078.24
651.95	1080.25
652.29	1080.30
652.63	1079.22
652.97	1079.67
653.32	1077.65
653.66	1076.60
654.00	1076.65
654.34	1075.85
654.69	1077.44
655.03	1076.55
655.37	1075.62
655.71	1071.15
656.05	1073.32
656.40	1071.82
656.74	1076.04
657.08	1076.30
657.42	1079.76
657.76	1080.98
658.11	1077.89
658.45	1073.23
658.79	1072.41
659.13	1070.91
659.47	1069.58
659.82	1073.72
660.16	1078.07
660.50	1080.09
660.84	1081.14
661.18	1076.44
661.52	1075.64
661.87	1072.74
662.21	1071.64
662.55	1075.17
662.89	1077.04
663.23	1077.37
663.57	1079.20
663.91	1083.01
664.25	1075.92
664.60	1077.37
664.94	1079.20
665.28	1077.16
665.62	1073.02
665.96	1076.34
666.30	1075.83
666.64	1075.76
666.98	1077.30
667.32	1076.18
667.66	1077.82
668.01	1077.49
668.35	1074.87
668.69	1073.51
669.03	1074.42
669.37	1071.73
669.71	1070.94
670.05	1071.10
670.39	1069.86
670.73	1069.53
671.07	1068.92
671.41	1070.91
671.75	1073.14
672.09	1074.12
672.43	1073.91
672.77	1075.31
673.11	1075.66
673.45	1073.07
673.79	1071.19
674.13	1071.15
674.47	1069.46
674.81	1068.59
675.15	1072.74
675.49	1073.30
675.83	1076.08
676.17	1079.92
676.51	1080.27
676.85	1076.81
677.19	1076.08
677.53	1075.59
677.87	1073.65
678.21	1073.35
678.55	1074.26
678.89	1077.77
679.23	1075.20
679.57	1075.41
679.90	1075.57
680.24	1075.20
680.58	1073.46
680.92	1076.86
681.26	1077.44
681.60	1077.93
681.94	1079.88
682.28	1080.09
682.62	1078.17
682.96	1075.73
683.29	1076.20
683.63	1072.85
683.97	1073.35
684.31	1075.76
684.65	1074.80
684.99	1073.63
685.33	1074.89
685.67	1075.05
686.00	1073.37
686.34	1077.28
686.68	1074.35
687.02	1075.10
687.36	1076.76
687.70	1077.37
688.03	1075.36
688.37	1079.88
688.71	1077.77
689.05	1073.63
689.39	1072.92
689.72	1072.22
690.06	1070.72
690.40	1072.08
690.74	1076.65
691.08	1077.51
691.41	1077.04
691.75	1076.27
692.09	1076.51
692.43	1073.09
692.76	1070.02
693.10	1071.17
693.44	1073.16
693.78	1071.97
694.11	1072.67
694.45	1077.37
694.79	1078.47
695.13	1077.84
695.46	1078.12
695.80	1078.00
696.14	1074.42
696.48	1074.59
696.81	1073.18
697.15	1073.46
697.49	1074.59
697.82	1075.05
698.16	1075.36
698.50	1076.48
698.83	1077.96
699.17	1076.23
699.51	1075.97
699.84	1073.93
700.18	1074.61
700.52	1073.44
700.85	1075.17
701.19	1075.08
701.53	1079.15
701.86	1077.72
702.20	1079.36
702.54	1074.77
702.87	1075.57
703.21	1070.61
703.55	1069.81
703.88	1068.59
704.22	1070.47
704.55	1068.95
704.89	1069.11
705.23	1069.70
705.56	1070.70
705.90	1073.98
706.23	1075.43
706.57	1077.65
706.91	1077.23
707.24	1075.66
707.58	1072.90
707.91	1071.94
708.25	1073.23
708.58	1074.49
708.92	1074.49
709.26	1075.50
709.59	1075.66
709.93	1074.52
710.26	1075.05
710.60	1074.14
710.93	1072.29
711.27	1071.73
711.60	1071.38
711.94	1071.26
712.27	1072.83
712.61	1077.00
712.94	1080.27
713.28	1081.87
713.61	1080.65
713.95	1082.61
714.28	1081.33
714.62	1080.16
714.95	1080.06
715.29	1077.44
715.62	1076.58
715.96	1076.41
716.29	1076.65
716.63	1075.64
716.96	1076.69
717.29	1075.01
717.63	1072.50
717.96	1070.47
718.30	1069.95
718.63	1071.90
718.97	1072.18
719.30	1073.53
719.63	1072.01
719.97	1072.08
720.30	1076.11
720.64	1076.62
720.97	1078.05
721.30	1079.29
721.64	1080.67
721.97	1077.63
722.31	1076.41
722.64	1076.58
722.97	1077.25
723.31	1075.41
723.64	1073.98
723.97	1073.93
724.31	1072.62
724.64	1073.09
724.98	1072.67
725.31	1070.49
725.64	1070.07
725.98	1069.55
726.31	1071.10
726.64	1072.11
726.97	1074.31
727.31	1077.33
727.64	1078.96
727.97	1077.68
728.31	1078.82
728.64	1079.85
728.97	1077.61
729.31	1076.18
729.64	1072.43
729.97	1075.13
730.30	1075.27
730.64	1075.90
730.97	1075.57
731.30	1079.27
731.63	1075.64
731.97	1072.41
732.30	1073.91
732.63	1077.07
732.96	1074.98
733.30	1073.44
733.63	1076.65
733.96	1075.22
734.29	1073.39
734.63	1074.54
734.96	1075.13
735.29	1076.74
735.62	1075.45
735.95	1075.62
736.29	1076.18
736.62	1077.11
736.95	1070.77
737.28	1069.23
737.61	1067.61
737.94	1066.93
738.28	1066.93
738.61	1073.42
738.94	1076.15
739.27	1076.95
739.60	1078.14
739.93	1078.73
740.27	1075.85
740.60	1076.44
740.93	1074.33
741.26	1073.23
741.59	1072.08
741.92	1073.65
742.25	1069.53
742.58	1072.62
742.91	1072.83
743.25	1071.15
743.58	1070.47
743.91	1073.79
744.24	1069.67
744.57	1071.10
744.90	1074.49
745.23	1074.35
745.56	1075.71
745.89	1078.89
746.22	1077.40
746.55	1075.48
746.88	1073.63
747.21	1072.83
747.54	1073.37
747.87	1073.58
748.20	1075.36
748.53	1075.62
748.87	1074.31
749.20	1075.64
749.53	1075.69
749.86	1076.08
750.19	1079.99
750.52	1080.53
750.85	1080.48
751.18	1082.59
751.51	1079.57
751.84	1076.06
752.16	1076.34
752.49	1074.73
752.82	1073.63
753.15	1075.97
753.48	1074.70
753.81	1071.97
754.14	1070.28
754.47	1070.94
754.80	1066.96
755.13	1068.13
755.46	1071.92
755.79	1075.31
756.12	1073.88
756.45	1075.59
756.78	1077.18
757.11	1077.89
757.43	1078.68
757.76	1077.16
758.09	1079.78
758.42	1079.34
758.75	1075.59
759.08	1070.89
759.41	1074.28
759.74	1074.75
760.07	1076.04
760.39	1077.09
760.72	1077.54
761.05	1077.61
761.38	1075.73
761.71	1075.13
762.04	1074.54
762.36	1075.62
762.69	1073.14
763.02	1075.05
763.35	1075.57
763.68	1077.79
764.01	1079.67
764.33	1080.70
764.66	1079.43
764.99	1081.02
765.32	1081.40
765.65	1078.94
765.97	1079.20
766.30	1076.76
766.63	1072.62
766.96	1072.39
767.28	1074.54
767.61	1076.81
767.94	1078.47
768.27	1081.05
768.59	1079.06
768.92	1078.45
769.25	1075.41
769.58	1076.25
769.90	1073.93
770.23	1076.15
770.56	1075.03
770.89	1075.83
771.21	1074.17
771.54	1075.13
771.87	1073.51
772.19	1074.52
772.52	1074.42
772.85	1074.03
773.17	1074.63
773.50	1072.27
773.83	1069.79
774.15	1069.77
774.48	1070.70
774.81	1072.60
775.13	1075.41
775.46	1077.98
775.79	1076.65
776.11	1075.99
776.44	1074.63
776.77	1070.96
777.09	1068.88
777.42	1072.71
777.74	1075.22
778.07	1073.14
778.40	1077.23
778.72	1078.94
779.05	1077.86
779.37	1076.25
779.70	1078.26
780.03	1079.01
780.35	1078.80
780.68	1075.43
781.00	1077.44
781.33	1078.85
781.65	1078.26
781.98	1075.90
782.31	1078.47
782.63	1077.77
782.96	1076.08
783.28	1077.04
783.61	1080.32
783.93	1079.46
784.26	1079.34
784.58	1078.12
784.91	1076.20
785.23	1075.85
785.56	1076.48
785.88	1077.82
786.21	1079.15
786.53	1083.62
786.86	1085.94
787.18	1086.66
787.51	1084.39
787.83	1084.86
788.16	1080.91
788.48	1075.57
788.81	1072.95
789.13	1075.24
789.46	1073.07
789.78	1071.29
790.10	1075.22
790.43	1075.62
790.75	1072.36
791.08	1074.91
791.40	1076.72
791.73	1077.16
792.05	1078.57
792.37	1077.35
792.70	1073.42
793.02	1073.58
793.35	1071.29
793.67	1072.04
793.99	1074.70
794.32	1077.18
794.64	1079.13
794.96	1082.01
795.29	1081.00
795.61	1079.36
795.93	1078.21
796.26	1072.92
796.58	1069.09
796.91	1068.85
797.23	1069.30
797.55	1070.42
797.87	1069.62
798.20	1069.65
798.52	1070.16
798.84	1071.17
799.17	1072.08
799.49	1077.30
799.81	1077.11
800.14	1075.97
800.46	1073.21
800.78	1072.57
801.10	1071.08
801.43	1072.25
801.75	1073.30
802.07	1073.25
802.40	1073.18
802.72	1074.03
803.04	1075.15
803.36	1073.86
803.69	1072.50
804.01	1071.22
804.33	1071.29
804.65	1071.40
804.97	1069.70
805.30	1071.40
805.62	1071.80
805.94	1069.55
806.26	1069.70
806.58	1072.85
806.91	1074.03
807.23	1075.15
807.55	1074.89
807.87	1074.61
808.19	1073.49
808.52	1073.53
808.84	1071.97
809.16	1072.95
809.48	1072.48
809.80	1071.92
810.12	1074.59
810.44	1074.77
810.77	1075.57
811.09	1076.58
811.41	1076.76
811.73	1071.10
812.05	1073.42
812.37	1072.62
812.69	1071.31
813.01	1070.68
813.33	1073.39
813.66	1072.29
813.98	1072.88
814.30	1070.72
814.62	1072.18
814.94	1073.60
815.26	1070.98
815.58	1071.19
815.90	1068.64
816.22	1069.93
816.54	1067.96
816.86	1070.40
817.18	1071.45
817.50	1073.46
817.82	1069.93
818.14	1068.36
818.46	1067.99
818.78	1064.73
819.10	1067.49
819.42	1070.23
819.74	1071.43
820.06	1071.78
820.38	1074.61
820.70	1073.09
821.02	1068.85
821.34	1072.74
821.66	1070.68
821.98	1069.25
822.30	1071.22
822.62	1076.18
822.94	1073.63
823.26	1077.56
823.58	1078.38
823.90	1077.44
824.22	1070.19
824.54	1069.58
824.86	1065.48
825.18	1066.21
825.50	1064.85
825.81	1068.24
826.13	1071.26
826.45	1076.04
826.77	1075.80
827.09	1079.71
827.41	1084.04
827.73	1080.93
828.05	1077.54
828.36	1076.69
828.68	1074.77
829.00	1071.38
829.32	1073.86
829.64	1078.21
829.96	1080.23
830.28	1080.04
830.59	1081.68
830.91	1078.21
831.23	1072.85
831.55	1070.98
831.87	1071.66
832.19	1071.43
832.50	1073.02
832.82	1074.33
833.14	1073.32
833.46	1073.56
833.78	1073.35
834.09	1077.40
834.41	1078.03
834.73	1078.14
835.05	1076.83
835.36	1076.65
835.68	1073.86
836.00	1075.29
836.32	1076.79
836.63	1077.18
836.95	1079.01
837.27	1077.02
837.59	1075.97
837.90	1076.55
838.22	1077.07
838.54	1077.07
838.85	1077.96
839.17	1078.94
839.49	1079.22
839.80	1078.85
840.12	1075.64
840.44	1075.22
840.76	1073.23
841.07	1070.42
841.39	1071.78
841.71	1071.92
842.02	1073.21
842.34	1075.13
842.65	1077.04
842.97	1074.52
843.29	1073.63
843.60	1072.57
843.92	1072.34
844.24	1071.36
844.55	1072.01
844.87	1075.59
845.18	1078.61
845.50	1077.35
845.82	1075.13
846.13	1077.33
846.45	1077.61
846.76	1076.55
847.08	1075.71
847.40	1078.45
847.71	1078.43
848.03	1076.18
848.34	1073.44
848.66	1073.81
848.97	1074.59
849.29	1073.77
849.60	1075.20
849.92	1079.22
850.24	1078.75
850.55	1079.34
850.87	1078.28
851.18	1074.49
851.50	1072.69
851.81	1073.39
852.13	1073.21
852.44	1071.61
852.76	1075.22
853.07	1073.32
853.39	1072.85
853.70	1069.84
854.01	1068.92
854.33	1066.37
854.64	1066.32
854.96	1064.99
855.27	1068.45
855.59	1069.86
855.90	1071.17
856.22	1068.62
856.53	1070.70
856.84	1068.85
857.16	1070.23
857.47	1071.73
857.79	1073.79
858.10	1073.79
858.41	1072.48
858.73	1072.78
859.04	1069.32
859.36	1068.83
859.67	1065.83
859.98	1064.48
860.30	1065.39
860.61	1066.09
860.92	1068.69
861.24	1070.47
861.55	1072.85
861.87	1072.04
862.18	1073.23
862.49	1075.20
862.81	1076.18
863.12	1074.61
863.43	1074.21
863.74	1075.03
864.06	1074.59
864.37	1074.87
864.68	1078.94
865.00	1078.73
865.31	1078.85
865.62	1078.10
865.94	1078.89
866.25	1076.93
866.56	1076.76
866.87	1075.64
867.19	1075.76
867.50	1076.46
867.81	1078.26
868.12	1077.82
868.44	1080.74
868.75	1081.70
869.06	1077.93
869.37	1076.81
869.68	1079.88
870.00	1079.69
870.31	1076.81
870.62	1078.31
870.93	1078.87
871.24	1079.95
871.56	1079.10
871.87	1082.05
872.18	1081.09
872.49	1078.50
872.80	1076.06
873.12	1073.14
873.43	1073.91
873.74	1073.67
874.05	1074.49
874.36	1074.21
874.67	1077.37
874.98	1074.54
875.29	1074.96
875.61	1074.00
875.92	1075.36
876.23	1073.30
876.54	1072.34
876.85	1074.42
877.16	1077.04
877.47	1074.35
877.78	1075.27
878.09	1076.27
878.40	1076.65
878.72	1076.46
879.03	1077.51
879.34	1079.29
879.65	1080.81
879.96	1078.54
880.27	1077.54
880.58	1078.50
880.89	1078.38
881.20	1077.98
881.51	1079.46
881.82	1079.36
882.13	1077.47
882.44	1075.62
882.75	1074.45
883.06	1072.81
883.37	1069.86
883.68	1069.55
883.99	1069.46
884.30	1070.51
884.61	1074.66
884.92	1076.23
885.23	1079.76
885.54	1079.85
885.85	1076.76
886.16	1073.60
886.47	1076.69
886.78	1074.87
887.08	1074.77
887.39	1077.79
887.70	1078.99
888.01	1076.79
888.32	1073.35
888.63	1073.60
888.94	1070.26
889.25	1067.26
889.56	1067.82
889.87	1071.61
890.17	1069.91
890.48	1072.43
890.79	1076.67
891.10	1076.13
891.41	1075.78
891.72	1075.87
892.03	1077.11
892.34	1075.76
892.64	1076.93
892.95	1076.30
893.26	1078.17
893.57	1076.55
893.88	1073.02
894.18	1071.05
894.49	1069.70
894.80	1069.25
895.11	1071.31
895.42	1073.53
895.72	1075.83
896.03	1077.51
896.34	1075.87
896.65	1072.55
896.96	1072.08
897.26	1072.11
897.57	1071.94
897.88	1074.77
898.19	1077.21
898.49	1079.43
898.80	1077.16
899.11	1075.92
899.41	1075.43
899.72	1075.38
900.03	1074.05
900.34	1077.89
900.64	1077.49
900.95	1075.83
901.26	1072.90
901.56	1071.97
901.87	1068.48
902.18	1071.99
902.48	1072.83
902.79	1072.92
903.10	1075.83
903.40	1076.95
903.71	1073.95
904.02	1074.61
904.32	1077.82
904.63	1079.36
904.94	1077.51
905.24	1079.46
905.55	1079.17
905.85	1077.09
906.16	1076.27
906.47	1079.48
906.77	1079.10
907.08	1076.18
907.38	1077.00
907.69	1076.88
908.00	1075.31
908.30	1073.70
908.61	1073.91
908.91	1073.67
909.22	1069.84
909.52	1067.10
909.83	1066.93
910.14	1069.70
910.44	1069.84
910.75	1072.11
911.05	1076.65
911.36	1077.42
911.66	1077.86
911.97	1076.44
912.27	1075.34
912.58	1075.13
912.88	1074.94
913.19	1074.26
913.49	1075.50
913.80	1075.03
914.10	1074.00
914.41	1073.70
914.71	1074.38
915.01	1075.24
915.32	1074.40
915.62	1074.26
915.93	1075.43
916.23	1076.32
916.54	1075.57
916.84	1075.87
917.15	1074.24
917.45	1071.80
917.75	1071.92
918.06	1071.12
918.36	1071.66
918.67	1071.19
918.97	1074.31
919.27	1074.52
919.58	1074.03
919.88	1073.79
920.18	1075.85
920.49	1072.57
920.79	1070.68
921.10	1072.78
921.40	1072.67
921.70	1072.04
922.01	1073.04
922.31	1074.35
922.61	1073.88
922.92	1078.05
923.22	1079.69
923.52	1080.58
923.82	1077.63
924.13	1077.56
924.43	1073.14
924.73	1071.24
925.04	1072.64
925.34	1073.86
925.64	1072.01
925.94	1073.67
926.25	1072.95
926.55	1069.34
926.85	1071.47
927.15	1073.60
927.46	1072.90
927.76	1074.96
928.06	1076.76
928.36	1073.39
928.67	1075.15
928.97	1077.91
929.27	1076.11
929.57	1076.48
929.87	1080.27
930.18	1075.62
930.48	1074.63
930.78	1075.64
931.08	1073.86
931.38	1073.46
931.69	1076.51
931.99	1077.82
932.29	1077.28
932.59	1079.01
932.89	1079.31
933.19	1077.93
933.49	1074.17
933.80	1072.20
934.10	1070.05
934.40	1067.12
934.70	1065.25
935.00	1067.35
935.30	1070.16
935.60	1072.43
935.90	1075.24
936.20	1077.54
936.50	1076.58
936.81	1077.63
937.11	1078.28
937.41	1075.20
937.71	1077.00
938.01	1077.89
938.31	1079.15
938.61	1078.50
938.91	1079.34
939.21	1077.11
939.51	1075.57
939.81	1071.68
940.11	1075.13
940.41	1075.38
940.71	1074.35
941.01	1072.67
941.31	1074.35
941.61	1070.09
941.91	1073.23
942.21	1074.47
942.51	1078.03
942.81	1078.31
943.11	1077.47
943.41	1073.11
943.71	1073.58
944.01	1070.94
944.31	1072.36
944.61	1077.37
944.90	1079.36
945.20	1080.44
945.50	1083.53
945.80	1081.77
946.10	1078.80
946.40	1076.67
946.70	1074.73
947.00	1072.64
947.30	1072.69
947.60	1072.22
947.89	1073.67
948.19	1073.07
948.49	1072.22
948.79	1072.90
949.09	1072.36
949.39	1071.66
949.69	1074.98
949.98	1075.92
950.28	1075.78
950.58	1075.31
950.88	1074.66
951.18	1070.09
951.48	1068.71
951.77	1067.85
952.07	1071.10
952.37	1073.77
952.67	1079.55
952.97	1083.62
953.26	1082.97
953.56	1084.37
953.86	1083.27
954.16	1080.84
954.45	1074.96
954.75	1074.75
955.05	1071.45
955.35	1071.47
955.64	1070.09
955.94	1073.14
956.24	1075.43
956.54	1078.57
956.83	1079.95
957.13	1080.25
957.43	1082.85
957.72	1081.89
958.02	1079.62
958.32	1076.11
958.61	1073.98
958.91	1070.33
959.21	1068.92
959.50	1067.78
959.80	1067.42
960.10	1068.41
960.39	1067.61
960.69	1068.88
960.99	1071.05
961.28	1073.30
961.58	1076.01
961.87	1076.06
962.17	1075.66
962.47	1076.01
962.76	1074.91
963.06	1072.06
963.36	1074.14
963.65	1072.48
963.95	1072.88
964.24	1074.42
964.54	1073.98
964.83	1073.25
965.13	1075.80
965.42	1074.59
965.72	1073.49
966.02	1076.20
966.31	1076.23
966.61	1075.64
966.90	1073.35
967.20	1070.84
967.49	1071.22
967.79	1073.51
968.08	1074.07
968.38	1073.60
968.67	1076.81
968.97	1077.63
969.26	1076.88
969.56	1075.64
969.85	1074.19
970.15	1073.16
970.44	1071.64
970.74	1070.89
971.03	1069.72
971.32	1074.70
971.62	1077.33
971.91	1078.50
972.21	1077.82
972.50	1081.87
972.80	1078.31
973.09	1077.02
973.38	1075.71
973.68	1076.25
973.97	1073.00
974.27	1073.30
974.56	1072.01
974.85	1073.93
975.15	1071.85
975.44	1077.14
975.73	1080.06
976.03	1080.32
976.32	1081.84
976.61	1082.10
976.91	1080.86
977.20	1077.40
977.49	1077.82
977.79	1074.03
978.08	1074.89
978.37	1075.29
978.67	1079.01
978.96	1078.10
979.25	1082.73
979.55	1082.54
979.84	1076.74
980.13	1077.09
980.42	1078.75
980.72	1073.98
981.01	1077.65
981.30	1081.26
981.59	1074.98
981.89	1074.38
982.18	1073.35
982.47	1069.88
982.76	1066.84
983.06	1067.85
983.35	1068.90
983.64	1069.60
983.93	1069.30
984.22	1068.95
984.52	1071.36
984.81	1069.44
985.10	1069.06
985.39	1070.65
985.68	1072.69
985.97	1075.20
986.27	1077.28
986.56	1081.80
986.85	1081.87
987.14	1078.36
987.43	1075.29
987.72	1075.55
988.01	1070.77
988.31	1069.67
988.60	1070.37
988.89	1069.06
989.18	1066.32
989.47	1066.56
989.76	1068.50
990.05	1075.69
990.34	1077.75
990.63	1079.01
990.92	1081.40
991.21	1081.89
991.51	1078.24
991.80	1076.32
992.09	1074.31
992.38	1074.35
992.67	1071.61
992.96	1070.16
993.25	1072.48
993.54	1075.78
993.83	1072.81
994.12	1074.26
994.41	1075.03
994.70	1074.35
994.99	1071.90
995.28	1073.63
995.57	1071.38
995.86	1073.88
996.15	1073.21
996.44	1073.23
996.73	1073.56
997.02	1076.01
997.31	1074.70
997.59	1074.03
997.88	1071.08
998.17	1070.77
998.46	1069.27
998.75	1066.44
999.04	1068.36
999.33	1076.46
999.62	1077.93
999.91	1078.14
1000.20	1078.21
1000.49	1077.11
1000.77	1074.05
1001.06	1072.64
1001.35	1075.52
1001.64	1079.10
1001.93	1079.06
1002.22	1078.43
1002.51	1078.26
1002.79	1073.30
1003.08	1068.03
1003.37	1066.98
1003.66	1067.00
1003.95	1067.05
1004.23	1071.01
1004.52	1075.71
1004.81	1080.60
1005.10	1080.34
1005.39	1080.27
1005.67	1079.41
1005.96	1077.82
1006.25	1080.16
1006.54	1082.10
1006.83	1081.14
1007.11	1076.90
1007.40	1075.69
1007.69	1069.91
1007.97	1069.65
1008.26	1071.68
1008.55	1076.46
1008.84	1075.22
1009.12	1074.87
1009.41	1073.56
1009.70	1072.27
1009.98	1072.25
1010.27	1076.65
1010.56	1078.33
1010.85	1078.31
1011.13	1078.73
1011.42	1079.27
1011.71	1078.66
1011.99	1074.87
1012.28	1075.10
1012.56	1073.63
1012.85	1072.71
1013.14	1072.97
1013.42	1076.32
1013.71	1074.19
1014.00	1072.43
1014.28	1072.22
1014.57	1072.29
1014.85	1072.15
1015.14	1074.82
1015.43	1077.54
1015.71	1075.92
1016.00	1072.50
1016.28	1072.62
1016.57	1071.19
1016.85	1075.43
1017.14	1076.51
1017.43	1078.80
1017.71	1081.07
1018.00	1082.50
1018.28	1076.37
1018.57	1076.72
1018.85	1073.98
1019.14	1072.55
1019.42	1071.85
1019.71	1077.02
1019.99	1076.83
1020.28	1078.75
1020.56	1074.45
1020.85	1074.00
1021.13	1072.55
1021.42	1073.79
1021.70	1075.36
1021.99	1078.71
1022.27	1081.23
1022.55	1075.83
1022.84	1086.59
>>>>>End Processed Spectral Data<<<<<
