SpectraSuite Data File
++++++++++++++++++++++++++++++++++++
Date: Mon Aug 26 10:22:30 PDT 2019
User: corrico
Dark Spectrum Present: No
Reference Spectrum Present: No
Number of Sampled Component Spectra: 1
Spectrometers: USB2+H06089
Integration Time (usec): 2000 (USB2+H06089)
Spectra Averaged: 20 (USB2+H06089)
Boxcar Smoothing: 2 (USB2+H06089)
Correct for Electrical Dark: No (USB2+H06089)
Strobe/Lamp Enabled: No (USB2+H06089)
Correct for Detector Non-linearity: No (USB2+H06089)
Correct for Stray Light: No (USB2+H06089)
Number of Pixels in Processed Spectrum: 2048
>>>>>Begin Processed Spectral Data<<<<<
339.70	1031.71
340.07	1031.71
340.45	997.37
340.82	974.29
341.19	950.12
341.57	924.30
341.94	913.39
342.31	903.40
342.69	902.28
343.06	902.46
343.43	900.31
343.81	902.70
344.18	907.17
344.55	908.69
344.93	910.21
345.30	916.98
345.67	922.83
346.04	930.32
346.42	937.92
346.79	946.96
347.16	954.52
347.54	962.22
347.91	973.12
348.28	982.98
348.65	995.59
349.03	1004.93
349.40	1013.10
349.77	1020.64
350.14	1026.37
350.52	1030.21
350.89	1038.12
351.26	1043.43
351.63	1050.62
352.01	1058.55
352.38	1061.90
352.75	1063.84
353.12	1068.24
353.50	1067.85
353.87	1068.01
354.24	1074.49
354.61	1078.26
354.98	1078.45
355.36	1080.74
355.73	1082.57
356.10	1079.90
356.47	1080.53
356.84	1084.21
357.22	1082.33
357.59	1081.47
357.96	1084.30
358.33	1085.19
358.70	1081.35
359.08	1084.21
359.45	1081.94
359.82	1079.74
360.19	1079.83
360.56	1083.76
360.94	1081.35
361.31	1085.54
361.68	1086.97
362.05	1086.57
362.42	1084.81
362.79	1083.36
363.16	1079.67
363.54	1074.82
363.91	1074.63
364.28	1074.47
364.65	1075.71
365.02	1077.47
365.39	1080.44
365.76	1081.37
366.14	1078.31
366.51	1077.02
366.88	1074.24
367.25	1072.64
367.62	1069.32
367.99	1070.82
368.36	1074.03
368.73	1076.79
369.10	1076.04
369.48	1078.05
369.85	1079.83
370.22	1077.93
370.59	1077.54
370.96	1074.21
371.33	1071.78
371.70	1071.82
372.07	1070.21
372.44	1069.62
372.81	1072.36
373.18	1073.04
373.55	1072.64
373.93	1076.58
374.30	1075.92
374.67	1075.85
375.04	1074.14
375.41	1071.75
375.78	1068.83
376.15	1073.00
376.52	1075.34
376.89	1077.04
377.26	1081.23
377.63	1082.57
378.00	1080.72
378.37	1079.06
378.74	1079.78
379.11	1076.95
379.48	1077.93
379.85	1077.51
380.22	1078.45
380.59	1079.22
380.96	1081.21
381.33	1080.70
381.70	1078.50
382.07	1077.68
382.44	1078.00
382.81	1076.62
383.18	1076.06
383.55	1079.48
383.92	1081.84
384.29	1081.44
384.66	1080.46
385.03	1078.68
385.40	1077.54
385.77	1075.52
386.14	1075.10
386.51	1080.58
386.88	1082.78
387.25	1082.99
387.62	1084.74
387.99	1084.53
388.36	1080.74
388.73	1083.50
389.10	1084.18
389.46	1083.81
389.83	1085.05
390.20	1084.60
390.57	1082.69
390.94	1081.07
391.31	1080.79
391.68	1080.91
392.05	1080.32
392.42	1078.75
392.79	1078.87
393.16	1081.16
393.53	1082.92
393.89	1085.03
394.26	1085.82
394.63	1087.51
395.00	1083.97
395.37	1083.67
395.74	1081.77
396.11	1084.49
396.48	1085.54
396.84	1090.78
397.21	1086.83
397.58	1090.53
397.95	1088.51
398.32	1089.33
398.69	1085.61
399.06	1089.61
399.42	1090.95
399.79	1093.69
400.16	1093.24
400.53	1094.43
400.90	1094.18
401.27	1089.29
401.64	1086.13
402.00	1085.17
402.37	1084.44
402.74	1085.47
403.11	1089.85
403.48	1092.14
403.84	1091.77
404.21	1094.53
404.58	1093.01
404.95	1091.09
405.32	1090.71
405.68	1091.25
406.05	1093.50
406.42	1092.16
406.79	1092.26
407.16	1092.49
407.52	1091.77
407.89	1090.57
408.26	1091.72
408.63	1091.63
408.99	1091.02
409.36	1093.36
409.73	1087.90
410.10	1090.41
410.47	1091.60
410.83	1091.65
411.20	1091.74
411.57	1094.04
411.94	1095.82
412.30	1096.70
412.67	1097.22
413.04	1097.50
413.40	1100.12
413.77	1095.53
414.14	1094.50
414.51	1096.42
414.87	1098.79
415.24	1099.33
415.61	1104.08
415.97	1104.73
416.34	1105.93
416.71	1104.08
417.08	1105.62
417.44	1106.04
417.81	1106.42
418.18	1105.72
418.54	1108.57
418.91	1112.08
419.28	1109.74
419.64	1109.53
420.01	1114.42
420.38	1112.97
420.74	1109.11
421.11	1113.93
421.48	1117.42
421.84	1115.80
422.21	1118.45
422.58	1123.20
422.94	1124.81
423.31	1126.22
423.68	1127.58
424.04	1130.06
424.41	1129.82
424.77	1130.08
425.14	1134.43
425.51	1140.66
425.87	1146.44
426.24	1150.35
426.61	1157.11
426.97	1165.66
427.34	1170.29
427.70	1173.01
428.07	1185.79
428.44	1194.31
428.80	1198.75
429.17	1204.93
429.53	1215.70
429.90	1220.19
430.27	1227.85
430.63	1236.46
431.00	1246.17
431.36	1259.51
431.73	1270.51
432.09	1285.75
432.46	1300.85
432.83	1317.37
433.19	1329.12
433.56	1348.92
433.92	1365.98
434.29	1385.39
434.65	1410.50
435.02	1438.26
435.38	1465.01
435.75	1489.91
436.11	1522.28
436.48	1549.04
436.84	1582.90
437.21	1615.81
437.57	1658.18
437.94	1701.03
438.30	1750.77
438.67	1796.74
439.03	1848.65
439.40	1903.46
439.76	1955.17
440.13	2017.24
440.49	2082.02
440.86	2143.60
441.22	2212.56
441.59	2285.74
441.95	2360.62
442.32	2441.27
442.68	2538.85
443.05	2633.45
443.41	2733.42
443.78	2834.81
444.14	2943.29
444.51	3051.38
444.87	3185.26
445.24	3323.86
445.60	3481.71
445.96	3638.39
446.33	3810.25
446.69	3971.49
447.06	4150.96
447.42	4323.48
447.79	4509.25
448.15	4724.23
448.51	4951.59
448.88	5209.82
449.24	5444.95
449.61	5728.30
449.97	6005.21
450.33	6291.38
450.70	6553.80
451.06	6885.69
451.43	7187.39
451.79	7547.74
452.15	7940.36
452.52	8392.15
452.88	8856.42
453.24	9378.15
453.61	9948.33
453.97	10508.23
454.34	11046.86
454.70	11692.12
455.06	12332.87
455.43	12950.32
455.79	13532.37
456.15	14236.96
456.52	14870.01
456.88	15623.82
457.24	16330.67
457.61	17182.36
457.97	17927.61
458.33	18716.73
458.70	19476.21
459.06	20243.95
459.42	21063.96
459.79	21847.92
460.15	22727.82
460.51	23588.39
460.88	24498.67
461.24	25298.85
461.60	26258.17
461.96	27125.29
462.33	27950.47
462.69	28732.25
463.05	29563.45
463.42	30257.65
463.78	30909.04
464.14	31436.91
464.50	32027.47
464.87	32492.70
465.23	32841.84
465.59	33177.44
465.95	33494.77
466.32	33732.81
466.68	33962.23
467.04	34093.09
467.40	34223.24
467.77	34378.82
468.13	34380.08
468.49	34288.08
468.85	34225.58
469.22	34049.90
469.58	33715.23
469.94	33456.30
470.30	33161.20
470.66	32751.58
471.03	32183.14
471.39	31795.71
471.75	31174.37
472.11	30574.30
472.47	30218.09
472.84	29916.45
473.20	29411.08
473.56	29148.91
473.92	28712.24
474.28	28187.70
474.65	27666.98
475.01	27208.59
475.37	26630.94
475.73	26159.11
476.09	25636.29
476.45	25123.90
476.81	24581.20
477.18	24034.12
477.54	23586.84
477.90	23234.97
478.26	22832.60
478.62	22524.12
478.98	22257.04
479.34	21958.72
479.71	21553.06
480.07	21211.34
480.43	20845.91
480.79	20460.73
481.15	20102.60
481.51	19796.39
481.87	19550.40
482.23	19276.82
482.59	19030.24
482.96	18756.91
483.32	18468.65
483.68	18097.89
484.04	17751.09
484.40	17382.74
484.76	17026.23
485.12	16649.38
485.48	16325.35
485.84	15981.15
486.20	15626.73
486.56	15273.42
486.92	14964.66
487.28	14614.09
487.64	14260.60
488.00	13951.25
488.37	13624.75
488.73	13276.43
489.09	12942.88
489.45	12635.08
489.81	12314.38
490.17	12015.23
490.53	11732.57
490.89	11428.70
491.25	11138.49
491.61	10827.11
491.97	10515.89
492.33	10205.93
492.69	9906.46
493.05	9600.99
493.41	9323.20
493.77	9054.95
494.13	8804.23
494.49	8560.86
494.85	8331.82
495.21	8103.08
495.57	7889.24
495.93	7670.24
496.29	7470.03
496.64	7290.93
497.00	7107.48
497.36	6916.99
497.72	6736.01
498.08	6561.55
498.44	6374.80
498.80	6205.35
499.16	6039.35
499.52	5889.93
499.88	5766.07
500.24	5656.82
500.60	5537.43
500.96	5422.95
501.32	5308.12
501.68	5178.39
502.03	5041.26
502.39	4921.70
502.75	4790.00
503.11	4661.39
503.47	4543.61
503.83	4423.07
504.19	4306.45
504.55	4204.91
504.91	4110.38
505.26	4014.79
505.62	3932.01
505.98	3844.47
506.34	3751.50
506.70	3657.09
507.06	3573.90
507.42	3494.49
507.78	3414.70
508.13	3345.12
508.49	3276.56
508.85	3207.33
509.21	3137.09
509.57	3070.43
509.93	3003.84
510.28	2937.26
510.64	2874.44
511.00	2804.01
511.36	2740.56
511.72	2683.82
512.07	2635.54
512.43	2581.05
512.79	2539.25
513.15	2495.55
513.51	2446.05
513.86	2399.80
514.22	2357.46
514.58	2316.76
514.94	2283.61
515.30	2249.21
515.65	2212.44
516.01	2181.96
516.37	2145.85
516.73	2113.97
517.08	2091.62
517.44	2066.04
517.80	2039.45
518.16	2018.74
518.51	1991.82
518.87	1958.07
519.23	1928.16
519.59	1905.76
519.94	1876.88
520.30	1850.47
520.66	1830.02
521.01	1810.90
521.37	1791.21
521.73	1770.29
522.09	1750.11
522.44	1729.23
522.80	1706.46
523.16	1678.56
523.51	1660.38
523.87	1642.38
524.23	1625.95
524.58	1610.27
524.94	1595.96
525.30	1574.45
525.65	1559.80
526.01	1542.48
526.37	1528.09
526.72	1513.39
527.08	1500.35
527.44	1486.92
527.79	1474.07
528.15	1462.11
528.51	1449.61
528.86	1441.51
529.22	1429.51
529.58	1419.42
529.93	1408.07
530.29	1400.76
530.65	1389.86
531.00	1378.25
531.36	1369.92
531.71	1361.84
532.07	1347.84
532.43	1341.36
532.78	1334.97
533.14	1325.45
533.49	1316.15
533.85	1312.36
534.21	1306.96
534.56	1301.34
534.92	1298.11
535.27	1293.71
535.63	1288.46
535.98	1279.52
536.34	1274.49
536.69	1266.58
537.05	1259.89
537.41	1256.40
537.76	1247.37
538.12	1240.88
538.47	1237.49
538.83	1234.02
539.18	1225.01
539.54	1226.30
539.89	1221.10
540.25	1219.35
540.60	1215.00
540.96	1215.60
541.31	1215.84
541.67	1214.64
542.02	1211.67
542.38	1210.83
542.73	1205.98
543.09	1198.99
543.44	1197.18
543.80	1194.09
544.15	1189.25
544.51	1187.96
544.86	1185.01
545.22	1180.64
545.57	1176.00
545.93	1173.99
546.28	1169.89
546.64	1168.89
546.99	1167.32
547.35	1166.41
547.70	1163.78
548.05	1163.13
548.41	1161.26
548.76	1159.06
549.12	1154.68
549.47	1151.94
549.83	1147.73
550.18	1144.29
550.53	1143.21
550.89	1141.88
551.24	1141.01
551.60	1142.86
551.95	1142.58
552.30	1139.58
552.66	1139.30
553.01	1137.73
553.37	1136.49
553.72	1134.25
554.07	1136.56
554.43	1133.47
554.78	1130.90
555.13	1127.53
555.49	1125.49
555.84	1122.24
556.19	1124.02
556.55	1127.51
556.90	1125.14
557.26	1126.24
557.61	1125.56
557.96	1122.90
558.32	1118.31
558.67	1117.51
559.02	1115.48
559.37	1114.28
559.73	1116.27
560.08	1116.39
560.43	1120.91
560.79	1120.98
561.14	1120.44
561.49	1119.53
561.85	1118.50
562.20	1114.35
562.55	1111.45
562.90	1107.38
563.26	1103.91
563.61	1103.63
563.96	1103.59
564.32	1104.36
564.67	1103.98
565.02	1106.32
565.37	1104.57
565.73	1103.73
566.08	1101.57
566.43	1104.71
566.78	1099.05
567.14	1101.78
567.49	1101.06
567.84	1104.90
568.19	1102.93
568.54	1108.31
568.90	1104.64
569.25	1103.91
569.60	1101.03
569.95	1101.67
570.31	1099.02
570.66	1101.20
571.01	1101.99
571.36	1104.26
571.71	1104.03
572.06	1105.13
572.42	1102.04
572.77	1100.40
573.12	1098.04
573.47	1098.16
573.82	1094.93
574.18	1096.10
574.53	1094.69
574.88	1094.25
575.23	1094.18
575.58	1095.11
575.93	1097.10
576.28	1097.95
576.64	1095.65
576.99	1094.34
577.34	1096.78
577.69	1095.46
578.04	1096.92
578.39	1101.03
578.74	1099.00
579.09	1097.41
579.44	1100.03
579.80	1100.43
580.15	1096.78
580.50	1096.40
580.85	1094.46
581.20	1089.43
581.55	1086.59
581.90	1087.44
582.25	1087.95
582.60	1085.87
582.95	1087.79
583.30	1087.83
583.65	1088.63
584.00	1089.52
584.35	1091.93
584.71	1089.00
585.06	1092.40
585.41	1089.82
585.76	1091.86
586.11	1092.91
586.46	1095.60
586.81	1092.28
587.16	1093.90
587.51	1092.56
587.86	1090.17
588.21	1087.30
588.56	1087.46
588.91	1085.63
589.26	1086.52
589.61	1087.23
589.96	1089.78
590.31	1091.88
590.66	1094.15
591.01	1094.04
591.36	1095.72
591.71	1094.13
592.06	1090.41
592.41	1089.29
592.76	1089.36
593.10	1084.89
593.45	1084.74
593.80	1087.69
594.15	1086.31
594.50	1082.22
594.85	1083.18
595.20	1084.18
595.55	1078.54
595.90	1080.11
596.25	1084.58
596.60	1088.12
596.95	1087.76
597.30	1090.34
597.64	1101.46
597.99	1102.39
598.34	1101.92
598.69	1101.53
599.04	1103.00
599.39	1090.92
599.74	1087.27
600.09	1087.04
600.44	1088.65
600.78	1087.72
601.13	1087.72
601.48	1086.62
601.83	1087.46
602.18	1087.18
602.53	1085.87
602.88	1088.75
603.22	1088.58
603.57	1085.91
603.92	1086.92
604.27	1088.91
604.62	1089.00
604.97	1090.76
605.31	1094.57
605.66	1091.30
606.01	1088.30
606.36	1085.31
606.71	1085.31
607.05	1082.15
607.40	1083.67
607.75	1085.47
608.10	1084.32
608.44	1082.33
608.79	1083.53
609.14	1081.14
609.49	1081.91
609.84	1085.05
610.18	1089.31
610.53	1087.74
610.88	1094.60
611.23	1094.15
611.57	1094.65
611.92	1087.18
612.27	1087.20
612.62	1083.50
612.96	1082.66
613.31	1078.10
613.66	1085.10
614.00	1086.31
614.35	1084.44
614.70	1085.12
615.05	1087.41
615.39	1086.24
615.74	1083.64
616.09	1085.31
616.43	1086.29
616.78	1086.13
617.13	1085.99
617.47	1087.58
617.82	1085.87
618.17	1085.10
618.51	1085.28
618.86	1084.79
619.21	1087.37
619.55	1087.04
619.90	1090.71
620.25	1091.20
620.59	1091.86
620.94	1089.22
621.29	1087.86
621.63	1084.77
621.98	1083.41
622.32	1083.13
622.67	1083.64
623.02	1086.03
623.36	1084.74
623.71	1085.12
624.05	1084.53
624.40	1081.35
624.75	1085.87
625.09	1084.77
625.44	1083.39
625.78	1080.79
626.13	1085.52
626.48	1080.67
626.82	1081.23
627.17	1083.08
627.51	1085.73
627.86	1085.49
628.20	1085.19
628.55	1087.23
628.89	1086.99
629.24	1083.90
629.58	1080.18
629.93	1077.70
630.28	1077.33
630.62	1075.92
630.97	1077.75
631.31	1075.97
631.66	1075.90
632.00	1074.89
632.35	1074.05
632.69	1073.77
633.04	1076.01
633.38	1079.57
633.73	1079.71
634.07	1085.21
634.42	1086.24
634.76	1086.73
635.11	1087.32
635.45	1086.69
635.79	1080.37
636.14	1079.41
636.48	1081.05
636.83	1079.36
637.17	1079.31
637.52	1083.43
637.86	1082.38
638.21	1079.67
638.55	1079.38
638.89	1081.94
639.24	1081.26
639.58	1079.74
639.93	1081.56
640.27	1080.39
640.61	1077.07
640.96	1076.95
641.30	1084.11
641.65	1082.03
641.99	1084.00
642.33	1085.66
642.68	1083.32
643.02	1080.58
643.37	1082.83
643.71	1083.39
644.05	1084.49
644.40	1087.34
644.74	1089.33
645.08	1086.31
645.43	1083.60
645.77	1082.59
646.11	1082.19
646.46	1080.09
646.80	1083.83
647.14	1082.52
647.49	1082.64
647.83	1083.32
648.17	1082.45
648.52	1081.19
648.86	1082.22
649.20	1081.89
649.55	1079.01
649.89	1076.72
650.23	1076.20
650.57	1078.85
650.92	1078.45
651.26	1077.42
651.60	1079.20
651.95	1080.81
652.29	1080.67
652.63	1083.95
652.97	1085.66
653.32	1083.83
653.66	1081.84
654.00	1080.16
654.34	1079.34
654.69	1079.43
655.03	1078.26
655.37	1075.83
655.71	1076.95
656.05	1076.34
656.40	1076.72
656.74	1080.16
657.08	1085.84
657.42	1085.96
657.76	1083.93
658.11	1085.19
658.45	1083.36
658.79	1080.67
659.13	1078.87
659.47	1076.32
659.82	1074.94
660.16	1075.73
660.50	1079.64
660.84	1079.31
661.18	1079.34
661.52	1078.33
661.87	1081.30
662.21	1079.24
662.55	1079.13
662.89	1083.25
663.23	1087.02
663.57	1085.63
663.91	1082.64
664.25	1083.81
664.60	1082.69
664.94	1080.04
665.28	1077.75
665.62	1080.04
665.96	1082.99
666.30	1084.14
666.64	1086.52
666.98	1086.38
667.32	1084.72
667.66	1082.92
668.01	1081.58
668.35	1080.63
668.69	1078.24
669.03	1079.95
669.37	1080.74
669.71	1080.95
670.05	1083.55
670.39	1085.84
670.73	1084.07
671.07	1081.37
671.41	1083.08
671.75	1080.51
672.09	1081.19
672.43	1082.19
672.77	1081.75
673.11	1077.75
673.45	1077.23
673.79	1076.65
674.13	1079.29
674.47	1081.02
674.81	1081.61
675.15	1083.48
675.49	1087.65
675.83	1082.66
676.17	1081.51
676.51	1082.29
676.85	1078.26
677.19	1076.04
677.53	1079.22
677.87	1079.50
678.21	1079.88
678.55	1082.36
678.89	1080.95
679.23	1077.30
679.57	1077.70
679.90	1078.43
680.24	1076.65
680.58	1075.01
680.92	1078.50
681.26	1078.96
681.60	1079.46
681.94	1081.58
682.28	1085.00
682.62	1085.17
682.96	1088.07
683.29	1089.54
683.63	1088.77
683.97	1088.02
684.31	1086.20
684.65	1083.97
684.99	1083.60
685.33	1082.97
685.67	1084.70
686.00	1085.47
686.34	1082.40
686.68	1080.77
687.02	1081.51
687.36	1078.07
687.70	1077.89
688.03	1082.17
688.37	1082.80
688.71	1080.06
689.05	1080.95
689.39	1079.85
689.72	1076.20
690.06	1075.83
690.40	1078.03
690.74	1078.12
691.08	1080.09
691.41	1085.70
691.75	1087.04
692.09	1087.97
692.43	1086.55
692.76	1085.91
693.10	1081.00
693.44	1079.85
693.78	1077.77
694.11	1080.98
694.45	1080.44
694.79	1080.93
695.13	1083.15
695.46	1083.62
695.80	1082.15
696.14	1083.81
696.48	1085.89
696.81	1082.59
697.15	1084.98
697.49	1086.50
697.82	1082.97
698.16	1080.81
698.50	1081.87
698.83	1079.60
699.17	1074.75
699.51	1080.04
699.84	1079.29
700.18	1078.19
700.52	1077.33
700.85	1082.99
701.19	1080.51
701.53	1081.12
701.86	1082.94
702.20	1085.19
702.54	1083.57
702.87	1083.25
703.21	1083.74
703.55	1083.20
703.88	1081.91
704.22	1080.95
704.55	1080.16
704.89	1081.35
705.23	1082.19
705.56	1083.60
705.90	1086.15
706.23	1086.29
706.57	1086.17
706.91	1083.01
707.24	1083.74
707.58	1081.42
707.91	1082.92
708.25	1083.22
708.58	1085.19
708.92	1084.74
709.26	1086.90
709.59	1083.67
709.93	1079.38
710.26	1076.95
710.60	1073.88
710.93	1072.46
711.27	1074.31
711.60	1076.32
711.94	1079.43
712.27	1081.14
712.61	1079.69
712.94	1080.60
713.28	1082.61
713.61	1081.94
713.95	1082.71
714.28	1082.85
714.62	1083.39
714.95	1083.57
715.29	1085.52
715.62	1084.67
715.96	1084.14
716.29	1083.32
716.63	1081.66
716.96	1078.75
717.29	1077.96
717.63	1080.77
717.96	1080.65
718.30	1083.69
718.63	1083.20
718.97	1084.25
719.30	1079.27
719.63	1080.20
719.97	1074.14
720.30	1074.82
720.64	1077.63
720.97	1080.44
721.30	1081.96
721.64	1084.81
721.97	1085.28
722.31	1083.32
722.64	1085.40
722.97	1083.83
723.31	1086.15
723.64	1085.42
723.97	1084.53
724.31	1085.70
724.64	1083.20
724.98	1082.92
725.31	1083.36
725.64	1082.38
725.98	1079.08
726.31	1082.45
726.64	1080.27
726.97	1081.70
727.31	1082.15
727.64	1082.31
727.97	1079.60
728.31	1081.30
728.64	1079.55
728.97	1079.20
729.31	1079.67
729.64	1084.44
729.97	1083.60
730.30	1083.76
730.64	1087.93
730.97	1088.07
731.30	1083.41
731.63	1080.04
731.97	1082.50
732.30	1079.01
732.63	1077.21
732.96	1077.68
733.30	1080.32
733.63	1080.74
733.96	1080.81
734.29	1083.08
734.63	1083.18
734.96	1084.60
735.29	1082.85
735.62	1082.57
735.95	1084.49
736.29	1082.73
736.62	1085.12
736.95	1081.77
737.28	1085.05
737.61	1085.96
737.94	1086.13
738.28	1080.79
738.61	1084.00
738.94	1078.59
739.27	1074.19
739.60	1074.05
739.93	1075.45
740.27	1077.56
740.60	1076.32
740.93	1076.44
741.26	1076.79
741.59	1077.25
741.92	1075.55
742.25	1079.53
742.58	1081.98
742.91	1082.22
743.25	1083.67
743.58	1082.99
743.91	1081.89
744.24	1079.74
744.57	1078.82
744.90	1079.71
745.23	1077.61
745.56	1078.07
745.89	1080.16
746.22	1080.81
746.55	1078.14
746.88	1078.45
747.21	1077.77
747.54	1077.58
747.87	1079.85
748.20	1080.95
748.53	1082.22
748.87	1083.13
749.20	1082.10
749.53	1079.62
749.86	1079.55
750.19	1078.75
750.52	1079.06
750.85	1079.78
751.18	1079.92
751.51	1078.31
751.84	1078.43
752.16	1076.60
752.49	1074.35
752.82	1074.63
753.15	1075.43
753.48	1077.28
753.81	1080.11
754.14	1080.67
754.47	1081.12
754.80	1079.38
755.13	1080.13
755.46	1081.12
755.79	1079.60
756.12	1079.85
756.45	1084.79
756.78	1082.12
757.11	1080.81
757.43	1081.73
757.76	1080.18
758.09	1076.01
758.42	1074.82
758.75	1073.63
759.08	1074.05
759.41	1075.78
759.74	1077.21
760.07	1080.56
760.39	1081.00
760.72	1080.48
761.05	1077.56
761.38	1076.58
761.71	1073.58
762.04	1074.26
762.36	1074.07
762.69	1078.05
763.02	1078.31
763.35	1079.53
763.68	1077.07
764.01	1078.47
764.33	1078.19
764.66	1078.82
764.99	1077.91
765.32	1079.92
765.65	1075.97
765.97	1074.77
766.30	1072.15
766.63	1074.31
766.96	1072.83
767.28	1076.25
767.61	1078.45
767.94	1080.53
768.27	1080.30
768.59	1082.19
768.92	1080.81
769.25	1078.96
769.58	1076.30
769.90	1077.09
770.23	1074.49
770.56	1075.78
770.89	1075.87
771.21	1080.11
771.54	1081.68
771.87	1080.98
772.19	1082.69
772.52	1083.25
772.85	1083.39
773.17	1081.80
773.50	1084.21
773.83	1082.36
774.15	1078.26
774.48	1076.62
774.81	1076.08
775.13	1074.61
775.46	1074.54
775.79	1080.51
776.11	1079.34
776.44	1077.79
776.77	1079.60
777.09	1078.52
777.42	1074.52
777.74	1076.11
778.07	1077.75
778.40	1074.82
778.72	1075.36
779.05	1075.41
779.37	1075.99
779.70	1075.38
780.03	1076.23
780.35	1078.24
780.68	1079.81
781.00	1078.61
781.33	1077.42
781.65	1076.34
781.98	1076.30
782.31	1076.90
782.63	1079.46
782.96	1078.21
783.28	1080.77
783.61	1081.73
783.93	1081.58
784.26	1082.78
784.58	1084.93
784.91	1085.77
785.23	1083.29
785.56	1081.75
785.88	1079.83
786.21	1078.89
786.53	1077.58
786.86	1079.36
787.18	1080.41
787.51	1080.63
787.83	1081.51
788.16	1083.41
788.48	1081.84
788.81	1083.95
789.13	1082.64
789.46	1084.56
789.78	1084.28
790.10	1082.66
790.43	1079.06
790.75	1081.91
791.08	1078.10
791.40	1077.11
791.73	1080.34
792.05	1083.27
792.37	1080.06
792.70	1077.09
793.02	1076.86
793.35	1074.94
793.67	1073.88
793.99	1072.83
794.32	1079.31
794.64	1078.19
794.96	1077.44
795.29	1076.72
795.61	1077.18
795.93	1076.34
796.26	1077.98
796.58	1081.47
796.91	1081.98
797.23	1082.50
797.55	1083.95
797.87	1084.02
798.20	1082.22
798.52	1079.81
798.84	1078.52
799.17	1074.38
799.49	1075.94
799.81	1077.07
800.14	1080.53
800.46	1081.26
800.78	1084.86
801.10	1083.83
801.43	1082.50
801.75	1081.28
802.07	1082.78
802.40	1080.34
802.72	1078.31
803.04	1077.49
803.36	1077.30
803.69	1076.65
804.01	1077.75
804.33	1078.21
804.65	1077.68
804.97	1075.55
805.30	1077.23
805.62	1077.09
805.94	1076.62
806.26	1077.04
806.58	1077.35
806.91	1080.46
807.23	1078.75
807.55	1080.48
807.87	1080.18
808.19	1083.32
808.52	1078.47
808.84	1080.06
809.16	1080.56
809.48	1079.36
809.80	1078.45
810.12	1075.80
810.44	1073.51
810.77	1072.55
811.09	1072.50
811.41	1072.13
811.73	1075.99
812.05	1077.89
812.37	1078.17
812.69	1080.32
813.01	1078.38
813.33	1081.02
813.66	1082.54
813.98	1082.69
814.30	1079.76
814.62	1080.27
814.94	1075.64
815.26	1072.97
815.58	1071.50
815.90	1074.54
816.22	1078.19
816.54	1080.60
816.86	1078.54
817.18	1080.11
817.50	1082.45
817.82	1080.39
818.14	1079.46
818.46	1085.07
818.78	1085.05
819.10	1082.64
819.42	1079.85
819.74	1077.21
820.06	1073.88
820.38	1073.35
820.70	1076.27
821.02	1077.40
821.34	1079.15
821.66	1080.04
821.98	1079.15
822.30	1077.40
822.62	1081.02
822.94	1079.55
823.26	1080.04
823.58	1081.47
823.90	1080.91
824.22	1077.51
824.54	1079.13
824.86	1079.99
825.18	1078.57
825.50	1076.46
825.81	1075.38
826.13	1075.71
826.45	1075.64
826.77	1073.56
827.09	1073.77
827.41	1078.10
827.73	1079.55
828.05	1081.80
828.36	1083.41
828.68	1082.29
829.00	1078.89
829.32	1077.16
829.64	1075.10
829.96	1075.69
830.28	1077.58
830.59	1077.02
830.91	1079.95
831.23	1077.82
831.55	1076.88
831.87	1077.79
832.19	1078.71
832.50	1072.90
832.82	1071.36
833.14	1071.57
833.46	1071.75
833.78	1071.80
834.09	1071.54
834.41	1073.67
834.73	1074.77
835.05	1074.38
835.36	1073.37
835.68	1077.63
836.00	1078.38
836.32	1079.69
836.63	1080.72
836.95	1084.49
837.27	1084.04
837.59	1083.43
837.90	1081.77
838.22	1080.25
838.54	1077.18
838.85	1076.01
839.17	1074.87
839.49	1075.69
839.80	1075.69
840.12	1077.70
840.44	1074.91
840.76	1076.46
841.07	1075.29
841.39	1074.80
841.71	1072.01
842.02	1075.57
842.34	1074.03
842.65	1075.15
842.97	1076.01
843.29	1078.80
843.60	1079.15
843.92	1080.95
844.24	1080.93
844.55	1080.93
844.87	1079.36
845.18	1078.71
845.50	1076.15
845.82	1075.71
846.13	1074.42
846.45	1075.03
846.76	1073.44
847.08	1077.91
847.40	1079.13
847.71	1079.20
848.03	1080.30
848.34	1080.77
848.66	1077.04
848.97	1075.10
849.29	1078.03
849.60	1076.97
849.92	1077.72
850.24	1078.36
850.55	1080.04
850.87	1076.48
851.18	1080.67
851.50	1079.99
851.81	1082.26
852.13	1083.29
852.44	1084.00
852.76	1081.23
853.07	1082.97
853.39	1083.62
853.70	1081.58
854.01	1081.87
854.33	1077.00
854.64	1078.75
854.96	1078.12
855.27	1078.52
855.59	1075.73
855.90	1076.90
856.22	1076.60
856.53	1075.69
856.84	1073.56
857.16	1077.07
857.47	1082.76
857.79	1080.74
858.10	1078.47
858.41	1080.25
858.73	1079.76
859.04	1073.18
859.36	1071.73
859.67	1072.11
859.98	1073.46
860.30	1073.84
860.61	1074.70
860.92	1076.15
861.24	1078.99
861.55	1075.94
861.87	1075.45
862.18	1076.08
862.49	1076.18
862.81	1075.45
863.12	1078.71
863.43	1080.30
863.74	1080.13
864.06	1079.57
864.37	1079.13
864.68	1075.78
865.00	1073.70
865.31	1074.82
865.62	1075.41
865.94	1073.32
866.25	1075.31
866.56	1075.66
866.87	1075.36
867.19	1071.85
867.50	1074.75
867.81	1075.29
868.12	1074.68
868.44	1075.31
868.75	1077.28
869.06	1078.89
869.37	1076.60
869.68	1079.64
870.00	1080.58
870.31	1082.83
870.62	1077.58
870.93	1080.34
871.24	1077.37
871.56	1075.10
871.87	1072.20
872.18	1075.01
872.49	1072.11
872.80	1072.69
873.12	1071.68
873.43	1074.38
873.74	1074.98
874.05	1076.65
874.36	1077.47
874.67	1080.11
874.98	1079.38
875.29	1077.58
875.61	1077.75
875.92	1077.77
876.23	1079.08
876.54	1079.88
876.85	1082.43
877.16	1083.81
877.47	1083.86
877.78	1082.90
878.09	1083.18
878.40	1078.89
878.72	1075.50
879.03	1075.24
879.34	1074.96
879.65	1072.62
879.96	1073.53
880.27	1075.01
880.58	1076.37
880.89	1076.53
881.20	1078.85
881.51	1082.71
881.82	1085.52
882.13	1086.03
882.44	1083.22
882.75	1082.24
883.06	1082.26
883.37	1081.30
883.68	1077.68
883.99	1080.95
884.30	1082.78
884.61	1079.62
884.92	1077.23
885.23	1080.18
885.54	1080.20
885.85	1080.63
886.16	1080.51
886.47	1080.13
886.78	1078.19
887.08	1077.04
887.39	1074.42
887.70	1075.85
888.01	1075.29
888.32	1074.98
888.63	1074.33
888.94	1073.21
889.25	1070.70
889.56	1073.98
889.87	1076.81
890.17	1076.60
890.48	1075.85
890.79	1075.27
891.10	1073.84
891.41	1073.49
891.72	1074.63
892.03	1076.15
892.34	1079.78
892.64	1082.43
892.95	1081.75
893.26	1084.07
893.57	1084.28
893.88	1079.81
894.18	1079.57
894.49	1078.03
894.80	1075.13
895.11	1076.20
895.42	1079.64
895.72	1078.38
896.03	1078.31
896.34	1079.88
896.65	1077.58
896.96	1077.89
897.26	1076.11
897.57	1075.59
897.88	1073.60
898.19	1074.94
898.49	1077.28
898.80	1078.99
899.11	1078.07
899.41	1076.97
899.72	1078.47
900.03	1074.12
900.34	1072.67
900.64	1076.30
900.95	1079.85
901.26	1079.74
901.56	1081.70
901.87	1083.11
902.18	1082.61
902.48	1080.84
902.79	1078.85
903.10	1078.10
903.40	1076.81
903.71	1076.32
904.02	1074.96
904.32	1078.03
904.63	1076.67
904.94	1075.76
905.24	1075.87
905.55	1075.55
905.85	1072.39
906.16	1074.66
906.47	1078.00
906.77	1078.45
907.08	1082.59
907.38	1086.94
907.69	1088.02
908.00	1086.52
908.30	1086.08
908.61	1084.58
908.91	1079.55
909.22	1076.48
909.52	1076.34
909.83	1074.82
910.14	1073.07
910.44	1075.78
910.75	1072.81
911.05	1070.00
911.36	1070.58
911.66	1073.46
911.97	1071.22
912.27	1075.43
912.58	1075.73
912.88	1072.46
913.19	1070.98
913.49	1071.78
913.80	1070.56
914.10	1071.85
914.41	1077.25
914.71	1077.84
915.01	1077.40
915.32	1076.20
915.62	1074.35
915.93	1073.95
916.23	1071.05
916.54	1072.97
916.84	1075.15
917.15	1077.91
917.45	1075.01
917.75	1077.84
918.06	1077.96
918.36	1078.40
918.67	1076.83
918.97	1078.82
919.27	1076.79
919.58	1077.25
919.88	1076.60
920.18	1078.54
920.49	1078.36
920.79	1080.13
921.10	1077.00
921.40	1077.49
921.70	1077.70
922.01	1078.94
922.31	1078.03
922.61	1078.33
922.92	1076.90
923.22	1075.55
923.52	1076.88
923.82	1074.73
924.13	1075.83
924.43	1079.48
924.73	1080.41
925.04	1076.76
925.34	1079.13
925.64	1077.33
925.94	1074.94
926.25	1075.17
926.55	1074.12
926.85	1071.75
927.15	1075.36
927.46	1076.30
927.76	1077.93
928.06	1081.51
928.36	1083.20
928.67	1081.89
928.97	1082.15
929.27	1081.09
929.57	1079.88
929.87	1080.41
930.18	1083.18
930.48	1085.75
930.78	1084.56
931.08	1087.79
931.38	1085.05
931.69	1080.84
931.99	1075.36
932.29	1076.51
932.59	1074.28
932.89	1077.02
933.19	1078.59
933.49	1078.85
933.80	1078.00
934.10	1073.93
934.40	1074.24
934.70	1071.71
935.00	1071.97
935.30	1071.50
935.60	1072.13
935.90	1071.01
936.20	1071.94
936.50	1072.78
936.81	1073.77
937.11	1076.62
937.41	1077.07
937.71	1076.53
938.01	1079.29
938.31	1080.09
938.61	1079.62
938.91	1080.91
939.21	1079.62
939.51	1077.16
939.81	1075.87
940.11	1075.38
940.41	1074.91
940.71	1075.55
941.01	1074.75
941.31	1073.30
941.61	1075.34
941.91	1073.21
942.21	1073.02
942.51	1072.97
942.81	1075.05
943.11	1071.52
943.41	1072.74
943.71	1074.96
944.01	1075.52
944.31	1072.78
944.61	1073.35
944.90	1071.75
945.20	1071.45
945.50	1072.43
945.80	1070.42
946.10	1073.35
946.40	1075.85
946.70	1076.58
947.00	1076.48
947.30	1080.48
947.60	1077.61
947.89	1076.60
948.19	1076.15
948.49	1076.06
948.79	1078.99
949.09	1079.95
949.39	1081.61
949.69	1083.53
949.98	1082.71
950.28	1079.62
950.58	1081.21
950.88	1080.30
951.18	1077.93
951.48	1079.64
951.77	1079.88
952.07	1076.53
952.37	1079.03
952.67	1081.96
952.97	1083.20
953.26	1080.91
953.56	1080.72
953.86	1078.73
954.16	1074.96
954.45	1070.77
954.75	1072.39
955.05	1069.18
955.35	1069.41
955.64	1072.62
955.94	1074.40
956.24	1075.34
956.54	1080.25
956.83	1081.87
957.13	1080.27
957.43	1082.08
957.72	1079.43
958.02	1081.37
958.32	1078.45
958.61	1076.86
958.91	1077.09
959.21	1080.11
959.50	1078.07
959.80	1078.00
960.10	1080.53
960.39	1079.48
960.69	1080.77
960.99	1079.95
961.28	1082.43
961.58	1081.21
961.87	1079.76
962.17	1078.96
962.47	1080.77
962.76	1079.53
963.06	1081.77
963.36	1083.97
963.65	1082.87
963.95	1080.98
964.24	1081.21
964.54	1080.09
964.83	1077.96
965.13	1077.58
965.42	1080.37
965.72	1078.85
966.02	1077.82
966.31	1077.28
966.61	1074.38
966.90	1073.21
967.20	1074.77
967.49	1071.59
967.79	1070.75
968.08	1072.62
968.38	1074.17
968.67	1073.93
968.97	1077.93
969.26	1079.24
969.56	1077.56
969.85	1075.36
970.15	1076.08
970.44	1077.25
970.74	1077.79
971.03	1080.93
971.32	1081.00
971.62	1082.59
971.91	1079.20
972.21	1081.70
972.50	1084.56
972.80	1085.38
973.09	1083.29
973.38	1083.95
973.68	1080.04
973.97	1077.68
974.27	1078.61
974.56	1075.66
974.85	1077.44
975.15	1076.13
975.44	1072.90
975.73	1071.17
976.03	1073.70
976.32	1071.52
976.61	1073.60
976.91	1077.49
977.20	1078.99
977.49	1077.18
977.79	1081.09
978.08	1083.43
978.37	1082.17
978.67	1082.26
978.96	1082.43
979.25	1080.04
979.55	1078.68
979.84	1079.29
980.13	1076.48
980.42	1077.56
980.72	1075.62
981.01	1076.34
981.30	1075.83
981.59	1076.60
981.89	1078.14
982.18	1079.31
982.47	1078.59
982.76	1080.88
983.06	1078.82
983.35	1075.73
983.64	1077.40
983.93	1077.79
984.22	1075.69
984.52	1078.03
984.81	1080.51
985.10	1078.94
985.39	1076.74
985.68	1078.00
985.97	1078.87
986.27	1078.24
986.56	1078.57
986.85	1078.52
987.14	1077.30
987.43	1074.54
987.72	1075.87
988.01	1074.70
988.31	1074.66
988.60	1071.61
988.89	1073.58
989.18	1069.62
989.47	1069.55
989.76	1071.45
990.05	1077.40
990.34	1080.34
990.63	1082.03
990.92	1084.86
991.21	1085.89
991.51	1081.84
991.80	1078.89
992.09	1080.65
992.38	1077.00
992.67	1077.49
992.96	1079.78
993.25	1082.54
993.54	1083.64
993.83	1086.20
994.12	1082.94
994.41	1084.18
994.70	1084.93
994.99	1083.69
995.28	1081.75
995.57	1081.66
995.86	1079.85
996.15	1076.32
996.44	1078.36
996.73	1080.30
997.02	1082.92
997.31	1078.75
997.59	1076.65
997.88	1074.89
998.17	1072.55
998.46	1071.57
998.75	1076.30
999.04	1078.78
999.33	1077.25
999.62	1078.24
999.91	1077.42
1000.20	1074.82
1000.49	1076.04
1000.77	1077.68
1001.06	1078.78
1001.35	1077.56
1001.64	1078.26
1001.93	1074.98
1002.22	1075.69
1002.51	1076.25
1002.79	1076.67
1003.08	1078.21
1003.37	1080.70
1003.66	1076.69
1003.95	1076.74
1004.23	1078.26
1004.52	1077.44
1004.81	1074.21
1005.10	1078.54
1005.39	1076.51
1005.67	1075.85
1005.96	1077.25
1006.25	1079.88
1006.54	1079.81
1006.83	1082.26
1007.11	1081.21
1007.40	1078.99
1007.69	1079.57
1007.97	1075.31
1008.26	1072.90
1008.55	1074.07
1008.84	1077.35
1009.12	1074.52
1009.41	1076.41
1009.70	1074.59
1009.98	1073.58
1010.27	1067.78
1010.56	1072.71
1010.85	1071.22
1011.13	1076.37
1011.42	1076.48
1011.71	1080.04
1011.99	1076.58
1012.28	1079.76
1012.56	1078.05
1012.85	1080.98
1013.14	1079.38
1013.42	1079.97
1013.71	1079.74
1014.00	1080.56
1014.28	1080.95
1014.57	1080.67
1014.85	1082.80
1015.14	1079.88
1015.43	1078.05
1015.71	1078.99
1016.00	1078.24
1016.28	1074.66
1016.57	1077.63
1016.85	1077.82
1017.14	1075.31
1017.43	1077.96
1017.71	1079.60
1018.00	1078.78
1018.28	1079.62
1018.57	1080.74
1018.85	1082.71
1019.14	1080.34
1019.42	1079.38
1019.71	1079.67
1019.99	1076.18
1020.28	1074.26
1020.56	1075.87
1020.85	1081.23
1021.13	1080.41
1021.42	1082.01
1021.70	1080.37
1021.99	1079.27
1022.27	1075.10
1022.55	1068.10
1022.84	1080.16
>>>>>End Processed Spectral Data<<<<<
