SpectraSuite Data File
++++++++++++++++++++++++++++++++++++
Date: Mon Aug 26 10:22:05 PDT 2019
User: corrico
Dark Spectrum Present: No
Reference Spectrum Present: No
Number of Sampled Component Spectra: 1
Spectrometers: USB2+H06089
Integration Time (usec): 2000 (USB2+H06089)
Spectra Averaged: 20 (USB2+H06089)
Boxcar Smoothing: 2 (USB2+H06089)
Correct for Electrical Dark: No (USB2+H06089)
Strobe/Lamp Enabled: No (USB2+H06089)
Correct for Detector Non-linearity: No (USB2+H06089)
Correct for Stray Light: No (USB2+H06089)
Number of Pixels in Processed Spectrum: 2048
>>>>>Begin Processed Spectral Data<<<<<
339.70	1031.01
340.07	1031.01
340.45	997.35
340.82	974.62
341.19	953.63
341.57	929.36
341.94	918.10
342.31	909.88
342.69	905.09
343.06	901.27
343.43	899.82
343.81	902.39
344.18	906.77
344.55	909.20
344.93	912.08
345.30	917.86
345.67	923.06
346.04	931.02
346.42	941.11
346.79	948.60
347.16	959.76
347.54	967.74
347.91	974.95
348.28	983.61
348.65	994.61
349.03	1001.70
349.40	1011.88
349.77	1018.04
350.14	1030.56
350.52	1039.10
350.89	1047.48
351.26	1054.58
351.63	1060.61
352.01	1063.94
352.38	1066.00
352.75	1067.17
353.12	1067.68
353.50	1073.42
353.87	1074.75
354.24	1080.25
354.61	1085.45
354.98	1086.06
355.36	1084.56
355.73	1084.42
356.10	1079.64
356.47	1077.09
356.84	1082.80
357.22	1082.87
357.59	1082.66
357.96	1086.62
358.33	1087.76
358.70	1083.83
359.08	1086.15
359.45	1087.60
359.82	1088.04
360.19	1086.85
360.56	1089.43
360.94	1089.05
361.31	1087.60
361.68	1083.81
362.05	1081.66
362.42	1081.84
362.79	1078.07
363.16	1077.02
363.54	1081.35
363.91	1082.87
364.28	1079.78
364.65	1083.76
365.02	1083.69
365.39	1079.85
365.76	1078.47
366.14	1079.17
366.51	1075.73
366.88	1074.35
367.25	1069.30
367.62	1069.67
367.99	1068.64
368.36	1071.22
368.73	1071.31
369.10	1076.13
369.48	1074.26
369.85	1075.36
370.22	1073.53
370.59	1071.68
370.96	1073.09
371.33	1076.67
371.70	1073.65
372.07	1073.21
372.44	1075.85
372.81	1072.97
373.18	1072.04
373.55	1075.05
373.93	1076.88
374.30	1077.28
374.67	1077.33
375.04	1077.54
375.41	1078.05
375.78	1075.99
376.15	1077.63
376.52	1080.18
376.89	1079.78
377.26	1079.55
377.63	1080.13
378.00	1076.44
378.37	1074.56
378.74	1075.27
379.11	1072.90
379.48	1071.90
379.85	1074.56
380.22	1076.55
380.59	1078.19
380.96	1082.85
381.33	1081.63
381.70	1082.61
382.07	1082.61
382.44	1080.37
382.81	1076.27
383.18	1081.44
383.55	1077.96
383.92	1077.16
384.29	1077.00
384.66	1077.68
385.03	1077.82
385.40	1082.69
385.77	1084.79
386.14	1085.42
386.51	1086.64
386.88	1084.72
387.25	1083.43
387.62	1082.29
387.99	1083.55
388.36	1082.78
388.73	1082.61
389.10	1083.55
389.46	1086.38
389.83	1084.21
390.20	1084.09
390.57	1081.37
390.94	1078.96
391.31	1076.25
391.68	1076.93
392.05	1076.25
392.42	1077.21
392.79	1081.19
393.16	1080.39
393.53	1084.42
393.89	1086.20
394.26	1091.46
394.63	1087.69
395.00	1092.14
395.37	1089.80
395.74	1086.85
396.11	1086.90
396.48	1089.05
396.84	1086.78
397.21	1088.54
397.58	1094.90
397.95	1093.24
398.32	1094.53
398.69	1096.49
399.06	1094.46
399.42	1091.84
399.79	1090.46
400.16	1090.60
400.53	1087.83
400.90	1089.43
401.27	1089.71
401.64	1092.09
402.00	1088.93
402.37	1088.09
402.74	1087.11
403.11	1089.52
403.48	1088.28
403.84	1091.77
404.21	1093.47
404.58	1094.86
404.95	1094.34
405.32	1097.13
405.68	1096.03
406.05	1097.17
406.42	1095.82
406.79	1096.24
407.16	1094.04
407.52	1093.12
407.89	1091.95
408.26	1093.71
408.63	1092.42
408.99	1094.88
409.36	1094.34
409.73	1095.14
410.10	1094.29
410.47	1093.52
410.83	1091.84
411.20	1094.32
411.57	1096.42
411.94	1097.78
412.30	1101.34
412.67	1101.22
413.04	1102.56
413.40	1102.58
413.77	1103.05
414.14	1101.85
414.51	1104.36
414.87	1105.39
415.24	1104.05
415.61	1104.01
415.97	1104.99
416.34	1106.72
416.71	1106.93
417.08	1111.31
417.44	1116.74
417.81	1113.63
418.18	1117.25
418.54	1119.08
418.91	1119.69
419.28	1119.76
419.64	1124.84
420.01	1123.36
420.38	1123.32
420.74	1122.78
421.11	1120.70
421.48	1124.00
421.84	1122.57
422.21	1125.80
422.58	1131.91
422.94	1137.52
423.31	1136.77
423.68	1141.34
424.04	1144.31
424.41	1142.91
424.77	1143.98
425.14	1150.72
425.51	1154.47
425.87	1160.25
426.24	1162.99
426.61	1168.42
426.97	1178.23
427.34	1185.48
427.70	1191.75
428.07	1206.50
428.44	1217.78
428.80	1222.98
429.17	1237.23
429.53	1248.07
429.90	1257.45
430.27	1267.52
430.63	1280.13
431.00	1291.84
431.36	1306.67
431.73	1319.80
432.09	1338.67
432.46	1354.94
432.83	1371.79
433.19	1393.93
433.56	1419.09
433.92	1444.34
434.29	1475.66
434.65	1505.55
435.02	1529.61
435.38	1559.08
435.75	1588.45
436.11	1620.45
436.48	1662.55
436.84	1707.37
437.21	1754.98
437.57	1803.20
437.94	1857.96
438.30	1907.37
438.67	1969.65
439.03	2031.70
439.40	2102.85
439.76	2170.75
440.13	2248.06
440.49	2325.02
440.86	2399.49
441.22	2486.00
441.59	2575.83
441.95	2677.85
442.32	2781.52
442.68	2906.24
443.05	3026.34
443.41	3156.70
443.78	3286.11
444.14	3425.82
444.51	3567.35
444.87	3737.46
445.24	3902.89
445.60	4077.19
445.96	4260.62
446.33	4467.38
446.69	4660.83
447.06	4879.29
447.42	5109.32
447.79	5348.26
448.15	5624.66
448.51	5911.73
448.88	6240.97
449.24	6551.70
449.61	6916.26
449.97	7265.44
450.33	7638.46
450.70	7989.72
451.06	8427.17
451.43	8824.99
451.79	9295.93
452.15	9780.49
452.52	10322.75
452.88	10865.21
453.24	11500.57
453.61	12202.76
453.97	12922.89
454.34	13620.98
454.70	14452.08
455.06	15256.81
455.43	16011.37
455.79	16697.41
456.15	17521.23
456.52	18251.78
456.88	19177.41
457.24	20083.83
457.61	21205.89
457.97	22274.60
458.33	23389.32
458.70	24428.45
459.06	25423.41
459.42	26447.21
459.79	27362.92
460.15	28415.16
460.51	29417.26
460.88	30505.86
461.24	31489.19
461.60	32628.96
461.96	33671.51
462.33	34708.90
462.69	35783.70
463.05	36925.60
463.42	37992.04
463.78	38955.24
464.14	39708.43
464.50	40430.67
464.87	40937.23
465.23	41244.90
465.59	41611.94
465.95	41936.92
466.32	42182.80
466.68	42459.54
467.04	42643.88
467.40	42690.58
467.77	42814.44
468.13	42720.49
468.49	42541.53
468.85	42421.23
469.22	42291.07
469.58	42051.96
469.94	41935.28
470.30	41728.48
470.66	41377.75
471.03	40871.44
471.39	40475.91
471.75	39750.65
472.11	39027.38
472.47	38500.08
472.84	37965.95
473.20	37266.95
473.56	36884.74
473.92	36331.53
474.28	35728.28
474.65	35078.47
475.01	34374.00
475.37	33504.93
475.73	32812.51
476.09	32098.60
476.45	31461.34
476.81	30924.82
477.18	30385.09
477.54	29913.97
477.90	29468.40
478.26	28881.65
478.62	28353.69
478.98	27939.21
479.34	27507.61
479.71	26955.86
480.07	26541.46
480.43	26110.48
480.79	25629.87
481.15	25131.17
481.51	24729.66
481.87	24404.53
482.23	24045.99
482.59	23706.07
482.96	23386.96
483.32	23082.50
483.68	22676.05
484.04	22316.42
484.40	21897.70
484.76	21473.24
485.12	21020.09
485.48	20586.09
485.84	20091.93
486.20	19662.70
486.56	19218.30
486.92	18833.33
487.28	18425.02
487.64	18027.41
488.00	17640.50
488.37	17236.50
488.73	16780.00
489.09	16308.64
489.45	15860.66
489.81	15394.66
490.17	14956.75
490.53	14556.42
490.89	14158.88
491.25	13742.71
491.61	13333.49
491.97	12936.61
492.33	12536.28
492.69	12190.68
493.05	11871.85
493.41	11555.44
493.77	11238.92
494.13	10937.53
494.49	10633.19
494.85	10335.78
495.21	10054.96
495.57	9782.92
495.93	9503.07
496.29	9231.94
496.64	8995.12
497.00	8739.35
497.36	8489.08
497.72	8248.63
498.08	8038.36
498.44	7810.65
498.80	7614.23
499.16	7414.84
499.52	7219.52
499.88	7039.70
500.24	6868.33
500.60	6699.97
500.96	6548.19
501.32	6396.43
501.68	6225.43
502.03	6047.87
502.39	5879.71
502.75	5701.50
503.11	5540.63
503.47	5389.11
503.83	5260.14
504.19	5133.43
504.55	5020.75
504.91	4912.71
505.26	4804.58
505.62	4686.81
505.98	4576.57
506.34	4454.41
506.70	4329.99
507.06	4214.60
507.42	4110.57
507.78	4010.20
508.13	3919.62
508.49	3843.44
508.85	3769.62
509.21	3691.77
509.57	3607.68
509.93	3521.59
510.28	3425.63
510.64	3339.10
511.00	3253.65
511.36	3174.63
511.72	3107.20
512.07	3050.14
512.43	2986.43
512.79	2927.35
513.15	2869.08
513.51	2808.32
513.86	2751.07
514.22	2698.43
514.58	2649.30
514.94	2601.67
515.30	2557.06
515.65	2505.73
516.01	2462.10
516.37	2421.38
516.73	2381.19
517.08	2344.56
517.44	2312.31
517.80	2271.49
518.16	2233.83
518.51	2201.48
518.87	2170.05
519.23	2138.06
519.59	2110.53
519.94	2079.07
520.30	2048.83
520.66	2018.85
521.01	1984.33
521.37	1956.01
521.73	1929.40
522.09	1899.51
522.44	1874.82
522.80	1854.48
523.16	1830.32
523.51	1806.33
523.87	1784.42
524.23	1762.54
524.58	1741.94
524.94	1725.65
525.30	1703.11
525.65	1683.41
526.01	1665.06
526.37	1646.89
526.72	1627.16
527.08	1612.02
527.44	1596.78
527.79	1580.54
528.15	1563.57
528.51	1545.81
528.86	1531.58
529.22	1519.78
529.58	1506.16
529.93	1495.20
530.29	1484.63
530.65	1473.13
531.00	1459.49
531.36	1445.44
531.71	1433.70
532.07	1423.40
532.43	1413.24
532.78	1400.37
533.14	1388.78
533.49	1378.90
533.85	1369.85
534.21	1360.34
534.56	1355.80
534.92	1349.72
535.27	1343.58
535.63	1334.81
535.98	1325.45
536.34	1316.62
536.69	1311.12
537.05	1302.53
537.41	1293.87
537.76	1287.29
538.12	1280.48
538.47	1270.35
538.83	1263.77
539.18	1257.10
539.54	1253.26
539.89	1248.98
540.25	1248.72
540.60	1246.97
540.96	1248.47
541.31	1245.02
541.67	1240.34
542.02	1235.64
542.38	1228.57
542.73	1223.44
543.09	1219.00
543.44	1214.48
543.80	1213.94
544.15	1212.51
544.51	1206.34
544.86	1204.39
545.22	1202.94
545.57	1196.69
545.93	1192.78
546.28	1188.69
546.64	1185.08
546.99	1181.67
547.35	1176.91
547.70	1174.39
548.05	1175.49
548.41	1171.79
548.76	1172.42
549.12	1171.06
549.47	1170.27
549.83	1165.14
550.18	1164.70
550.53	1160.41
550.89	1159.52
551.24	1155.69
551.60	1157.63
551.95	1153.93
552.30	1152.57
552.66	1151.17
553.01	1150.02
553.37	1148.06
553.72	1147.40
554.07	1146.53
554.43	1146.23
554.78	1145.55
555.13	1143.02
555.49	1144.45
555.84	1145.13
556.19	1140.26
556.55	1143.40
556.90	1140.94
557.26	1139.07
557.61	1134.79
557.96	1134.95
558.32	1126.66
558.67	1127.16
559.02	1126.76
559.37	1126.71
559.73	1126.78
560.08	1130.48
560.43	1129.87
560.79	1127.37
561.14	1126.24
561.49	1123.95
561.85	1121.00
562.20	1117.54
562.55	1118.35
562.90	1116.39
563.26	1117.75
563.61	1117.93
563.96	1122.66
564.32	1119.36
564.67	1117.21
565.02	1115.29
565.37	1115.50
565.73	1112.11
566.08	1112.60
566.43	1113.04
566.78	1115.50
567.14	1112.81
567.49	1113.25
567.84	1112.13
568.19	1110.16
568.54	1107.33
568.90	1107.71
569.25	1106.02
569.60	1106.00
569.95	1110.23
570.31	1109.88
570.66	1107.19
571.01	1106.84
571.36	1109.09
571.71	1106.14
572.06	1104.62
572.42	1108.76
572.77	1108.34
573.12	1106.00
573.47	1103.68
573.82	1105.15
574.18	1103.19
574.53	1104.22
574.88	1104.76
575.23	1107.80
575.58	1106.91
575.93	1106.25
576.28	1105.90
576.64	1103.89
576.99	1104.26
577.34	1103.89
577.69	1103.38
578.04	1101.85
578.39	1102.16
578.74	1099.14
579.09	1097.69
579.44	1096.59
579.80	1093.99
580.15	1092.02
580.50	1092.33
580.85	1093.31
581.20	1091.91
581.55	1092.07
581.90	1092.84
582.25	1092.89
582.60	1091.65
582.95	1094.50
583.30	1095.30
583.65	1094.81
584.00	1094.74
584.35	1095.56
584.71	1092.63
585.06	1092.94
585.41	1091.67
585.76	1091.86
586.11	1091.93
586.46	1092.21
586.81	1094.67
587.16	1095.11
587.51	1095.25
587.86	1095.42
588.21	1095.70
588.56	1095.25
588.91	1094.60
589.26	1092.00
589.61	1090.99
589.96	1091.23
590.31	1088.77
590.66	1088.02
591.01	1088.65
591.36	1087.58
591.71	1090.08
592.06	1090.48
592.41	1092.40
592.76	1090.17
593.10	1090.60
593.45	1087.79
593.80	1089.85
594.15	1089.89
594.50	1090.74
594.85	1090.24
595.20	1087.04
595.55	1086.45
595.90	1084.89
596.25	1087.20
596.60	1086.31
596.95	1090.60
597.30	1088.58
597.64	1097.48
597.99	1098.88
598.34	1100.19
598.69	1098.74
599.04	1098.48
599.39	1090.88
599.74	1088.58
600.09	1087.27
600.44	1085.73
600.78	1083.62
601.13	1082.17
601.48	1082.26
601.83	1081.61
602.18	1083.04
602.53	1086.31
602.88	1086.78
603.22	1087.81
603.57	1089.40
603.92	1088.75
604.27	1087.37
604.62	1088.49
604.97	1087.11
605.31	1086.01
605.66	1087.88
606.01	1089.64
606.36	1087.86
606.71	1088.37
607.05	1087.18
607.40	1087.09
607.75	1083.13
608.10	1082.90
608.44	1080.41
608.79	1081.61
609.14	1080.25
609.49	1083.69
609.84	1087.48
610.18	1085.68
610.53	1086.85
610.88	1085.31
611.23	1081.51
611.57	1081.54
611.92	1081.82
612.27	1079.10
612.62	1080.20
612.96	1081.61
613.31	1077.63
613.66	1080.84
614.00	1082.87
614.35	1084.49
614.70	1084.25
615.05	1085.91
615.39	1084.86
615.74	1085.54
616.09	1085.45
616.43	1085.63
616.78	1084.18
617.13	1087.41
617.47	1086.08
617.82	1085.35
618.17	1086.87
618.51	1087.67
618.86	1084.86
619.21	1084.14
619.55	1079.67
619.90	1079.31
620.25	1080.53
620.59	1078.45
620.94	1079.22
621.29	1085.07
621.63	1083.62
621.98	1080.70
622.32	1082.54
622.67	1081.73
623.02	1080.79
623.36	1084.98
623.71	1084.42
624.05	1083.88
624.40	1087.58
624.75	1087.06
625.09	1084.84
625.44	1084.25
625.78	1083.32
626.13	1082.50
626.48	1083.76
626.82	1080.23
627.17	1080.77
627.51	1083.76
627.86	1079.50
628.20	1076.13
628.55	1077.47
628.89	1080.32
629.24	1080.56
629.58	1082.73
629.93	1084.37
630.28	1084.79
630.62	1082.15
630.97	1079.08
631.31	1078.36
631.66	1077.47
632.00	1076.88
632.35	1079.90
632.69	1079.36
633.04	1079.97
633.38	1080.09
633.73	1082.24
634.07	1079.64
634.42	1078.43
634.76	1078.19
635.11	1076.48
635.45	1073.16
635.79	1078.07
636.14	1082.99
636.48	1083.29
636.83	1085.94
637.17	1089.10
637.52	1084.02
637.86	1083.64
638.21	1083.27
638.55	1081.91
638.89	1081.70
639.24	1081.87
639.58	1079.81
639.93	1080.16
640.27	1080.84
640.61	1079.69
640.96	1081.82
641.30	1083.48
641.65	1082.83
641.99	1082.73
642.33	1084.04
642.68	1084.53
643.02	1085.07
643.37	1086.20
643.71	1086.24
644.05	1084.91
644.40	1084.28
644.74	1083.22
645.08	1083.15
645.43	1081.40
645.77	1080.95
646.11	1076.39
646.46	1074.47
646.80	1074.33
647.14	1075.13
647.49	1076.44
647.83	1077.56
648.17	1078.68
648.52	1077.63
648.86	1079.29
649.20	1080.56
649.55	1081.82
649.89	1081.98
650.23	1083.74
650.57	1084.21
650.92	1080.98
651.26	1085.82
651.60	1086.34
651.95	1088.42
652.29	1086.78
652.63	1087.81
652.97	1084.79
653.32	1085.31
653.66	1082.19
654.00	1084.39
654.34	1086.01
654.69	1085.47
655.03	1082.01
655.37	1082.59
655.71	1081.23
656.05	1081.49
656.40	1082.24
656.74	1081.56
657.08	1081.09
657.42	1077.77
657.76	1078.05
658.11	1077.51
658.45	1080.77
658.79	1080.67
659.13	1083.08
659.47	1082.33
659.82	1082.71
660.16	1083.04
660.50	1083.06
660.84	1084.65
661.18	1083.39
661.52	1082.94
661.87	1085.07
662.21	1084.53
662.55	1086.36
662.89	1089.82
663.23	1090.13
663.57	1088.58
663.91	1091.30
664.25	1091.11
664.60	1087.65
664.94	1089.75
665.28	1089.40
665.62	1090.55
665.96	1085.42
666.30	1085.40
666.64	1082.50
666.98	1082.33
667.32	1077.70
667.66	1081.26
668.01	1080.20
668.35	1079.81
668.69	1078.61
669.03	1079.95
669.37	1079.34
669.71	1081.98
670.05	1084.18
670.39	1085.12
670.73	1085.49
671.07	1085.70
671.41	1082.90
671.75	1082.22
672.09	1080.72
672.43	1079.95
672.77	1081.96
673.11	1079.67
673.45	1079.67
673.79	1078.47
674.13	1077.14
674.47	1071.75
674.81	1074.66
675.15	1074.40
675.49	1075.45
675.83	1080.53
676.17	1088.16
676.51	1091.46
676.85	1092.42
677.19	1093.97
677.53	1091.56
677.87	1085.87
678.21	1085.12
678.55	1081.21
678.89	1081.40
679.23	1078.80
679.57	1078.45
679.90	1075.24
680.24	1078.73
680.58	1074.96
680.92	1077.44
681.26	1076.69
681.60	1079.81
681.94	1080.65
682.28	1085.03
682.62	1086.50
682.96	1086.03
683.29	1084.84
683.63	1082.43
683.97	1080.34
684.31	1076.79
684.65	1081.14
684.99	1082.61
685.33	1083.34
685.67	1079.99
686.00	1080.91
686.34	1077.21
686.68	1076.18
687.02	1076.79
687.36	1084.07
687.70	1082.69
688.03	1084.42
688.37	1082.64
688.71	1082.76
689.05	1081.23
689.39	1083.55
689.72	1084.04
690.06	1084.16
690.40	1085.38
690.74	1084.58
691.08	1084.77
691.41	1085.70
691.75	1085.66
692.09	1085.33
692.43	1083.34
692.76	1080.67
693.10	1078.92
693.44	1082.17
693.78	1083.76
694.11	1086.69
694.45	1087.39
694.79	1087.39
695.13	1083.48
695.46	1080.20
695.80	1076.81
696.14	1077.51
696.48	1077.63
696.81	1080.67
697.15	1080.86
697.49	1081.54
697.82	1081.84
698.16	1081.75
698.50	1079.53
698.83	1081.91
699.17	1085.40
699.51	1086.27
699.84	1085.94
700.18	1084.42
700.52	1083.95
700.85	1085.47
701.19	1084.81
701.53	1084.44
701.86	1086.10
702.20	1082.15
702.54	1077.86
702.87	1079.13
703.21	1080.60
703.55	1082.61
703.88	1084.11
704.22	1085.19
704.55	1084.79
704.89	1084.39
705.23	1080.39
705.56	1079.48
705.90	1078.80
706.23	1079.41
706.57	1078.68
706.91	1080.25
707.24	1082.10
707.58	1080.72
707.91	1080.84
708.25	1081.05
708.58	1082.31
708.92	1083.90
709.26	1084.25
709.59	1083.43
709.93	1084.25
710.26	1084.32
710.60	1080.37
710.93	1080.63
711.27	1082.12
711.60	1081.35
711.94	1081.05
712.27	1082.61
712.61	1083.55
712.94	1081.00
713.28	1081.56
713.61	1082.69
713.95	1084.25
714.28	1082.38
714.62	1083.93
714.95	1083.46
715.29	1082.26
715.62	1081.23
715.96	1081.89
716.29	1081.84
716.63	1080.58
716.96	1079.27
717.29	1079.48
717.63	1084.16
717.96	1081.84
718.30	1087.25
718.63	1092.28
718.97	1091.02
719.30	1086.55
719.63	1090.90
719.97	1087.06
720.30	1085.14
720.64	1085.47
720.97	1089.38
721.30	1085.89
721.64	1084.98
721.97	1086.73
722.31	1087.79
722.64	1085.14
722.97	1084.81
723.31	1087.13
723.64	1084.70
723.97	1085.82
724.31	1085.05
724.64	1086.45
724.98	1083.43
725.31	1083.88
725.64	1079.85
725.98	1078.94
726.31	1077.77
726.64	1081.21
726.97	1077.96
727.31	1077.35
727.64	1077.23
727.97	1076.44
728.31	1077.09
728.64	1079.60
728.97	1081.05
729.31	1081.89
729.64	1081.33
729.97	1079.10
730.30	1078.85
730.64	1079.55
730.97	1078.03
731.30	1080.32
731.63	1080.56
731.97	1080.27
732.30	1079.67
732.63	1081.66
732.96	1079.55
733.30	1078.61
733.63	1079.48
733.96	1080.48
734.29	1078.99
734.63	1080.79
734.96	1080.16
735.29	1079.24
735.62	1076.44
735.95	1078.85
736.29	1077.02
736.62	1076.97
736.95	1078.24
737.28	1081.49
737.61	1080.63
737.94	1083.32
738.28	1084.28
738.61	1081.37
738.94	1083.18
739.27	1085.35
739.60	1081.49
739.93	1085.38
740.27	1085.89
740.60	1082.26
740.93	1081.07
741.26	1083.90
741.59	1079.97
741.92	1082.17
742.25	1082.80
742.58	1079.67
742.91	1076.11
743.25	1075.59
743.58	1070.72
743.91	1069.86
744.24	1072.46
744.57	1076.76
744.90	1076.20
745.23	1074.77
745.56	1076.76
745.89	1075.01
746.22	1074.03
746.55	1074.89
746.88	1080.18
747.21	1078.78
747.54	1081.21
747.87	1080.06
748.20	1082.97
748.53	1080.25
748.87	1083.36
749.20	1082.24
749.53	1080.84
749.86	1079.50
750.19	1082.50
750.52	1079.64
750.85	1080.53
751.18	1081.96
751.51	1080.60
751.84	1080.46
752.16	1082.50
752.49	1082.73
752.82	1084.44
753.15	1085.56
753.48	1084.16
753.81	1083.64
754.14	1082.66
754.47	1080.11
754.80	1078.14
755.13	1077.37
755.46	1077.98
755.79	1078.47
756.12	1082.31
756.45	1083.71
756.78	1086.62
757.11	1085.00
757.43	1082.31
757.76	1081.16
758.09	1079.74
758.42	1076.74
758.75	1075.13
759.08	1077.96
759.41	1081.14
759.74	1082.90
760.07	1084.39
760.39	1087.88
760.72	1087.69
761.05	1082.83
761.38	1083.20
761.71	1080.81
762.04	1079.83
762.36	1078.80
762.69	1077.37
763.02	1076.20
763.35	1076.83
763.68	1075.83
764.01	1077.47
764.33	1082.36
764.66	1080.70
764.99	1082.80
765.32	1081.77
765.65	1080.98
765.97	1079.78
766.30	1081.66
766.63	1082.54
766.96	1083.57
767.28	1084.44
767.61	1083.67
767.94	1083.36
768.27	1080.18
768.59	1078.94
768.92	1077.72
769.25	1076.79
769.58	1077.91
769.90	1080.06
770.23	1082.10
770.56	1082.78
770.89	1085.35
771.21	1085.80
771.54	1085.91
771.87	1084.96
772.19	1081.56
772.52	1079.06
772.85	1077.77
773.17	1079.29
773.50	1078.94
773.83	1081.14
774.15	1082.99
774.48	1081.05
774.81	1077.89
775.13	1077.93
775.46	1077.23
775.79	1074.47
776.11	1072.78
776.44	1071.52
776.77	1072.34
777.09	1071.78
777.42	1071.66
777.74	1072.20
778.07	1075.73
778.40	1075.05
778.72	1076.41
779.05	1080.93
779.37	1080.60
779.70	1080.34
780.03	1078.85
780.35	1076.81
780.68	1072.46
781.00	1071.82
781.33	1071.66
781.65	1072.20
781.98	1074.70
782.31	1075.38
782.63	1077.23
782.96	1073.49
783.28	1077.28
783.61	1077.89
783.93	1077.33
784.26	1080.56
784.58	1080.77
784.91	1079.01
785.23	1077.84
785.56	1078.14
785.88	1076.01
786.21	1079.46
786.53	1079.92
786.86	1079.29
787.18	1079.38
787.51	1081.35
787.83	1079.43
788.16	1079.38
788.48	1081.61
788.81	1082.73
789.13	1082.80
789.46	1083.53
789.78	1083.29
790.10	1079.71
790.43	1079.88
790.75	1076.93
791.08	1074.75
791.40	1073.51
791.73	1077.37
792.05	1076.62
792.37	1078.92
792.70	1078.71
793.02	1078.59
793.35	1077.37
793.67	1076.32
793.99	1075.73
794.32	1078.38
794.64	1076.39
794.96	1075.85
795.29	1073.37
795.61	1070.84
795.93	1071.26
796.26	1072.06
796.58	1070.68
796.91	1074.42
797.23	1076.69
797.55	1074.40
797.87	1075.45
798.20	1076.79
798.52	1077.40
798.84	1075.36
799.17	1079.17
799.49	1077.82
799.81	1073.39
800.14	1072.50
800.46	1073.35
800.78	1070.47
801.10	1073.56
801.43	1078.33
801.75	1074.96
802.07	1074.96
802.40	1075.87
802.72	1077.98
803.04	1077.89
803.36	1081.28
803.69	1080.46
804.01	1081.28
804.33	1078.57
804.65	1079.69
804.97	1079.97
805.30	1083.83
805.62	1082.90
805.94	1084.00
806.26	1084.44
806.58	1084.86
806.91	1082.76
807.23	1080.60
807.55	1079.64
807.87	1076.76
808.19	1078.26
808.52	1076.86
808.84	1077.04
809.16	1078.19
809.48	1076.95
809.80	1074.31
810.12	1076.74
810.44	1079.01
810.77	1076.60
811.09	1077.72
811.41	1080.74
811.73	1080.11
812.05	1079.99
812.37	1081.96
812.69	1085.07
813.01	1083.04
813.33	1084.21
813.66	1084.11
813.98	1081.77
814.30	1077.89
814.62	1074.82
814.94	1072.25
815.26	1071.36
815.58	1074.42
815.90	1077.49
816.22	1081.44
816.54	1081.12
816.86	1080.34
817.18	1077.86
817.50	1075.66
817.82	1074.00
818.14	1075.29
818.46	1077.91
818.78	1077.28
819.10	1077.14
819.42	1076.13
819.74	1077.44
820.06	1078.99
820.38	1078.82
820.70	1080.81
821.02	1081.66
821.34	1081.26
821.66	1080.91
821.98	1084.65
822.30	1082.78
822.62	1081.26
822.94	1079.78
823.26	1077.70
823.58	1076.13
823.90	1077.96
824.22	1081.05
824.54	1080.06
824.86	1078.92
825.18	1076.86
825.50	1074.54
825.81	1071.29
826.13	1074.75
826.45	1075.05
826.77	1077.40
827.09	1081.28
827.41	1082.78
827.73	1080.51
828.05	1080.88
828.36	1080.63
828.68	1077.96
829.00	1076.93
829.32	1076.20
829.64	1078.64
829.96	1078.07
830.28	1078.75
830.59	1078.99
830.91	1080.06
831.23	1077.77
831.55	1078.28
831.87	1081.05
832.19	1081.80
832.50	1078.78
832.82	1079.01
833.14	1076.95
833.46	1074.40
833.78	1073.67
834.09	1072.32
834.41	1072.32
834.73	1073.93
835.05	1071.64
835.36	1070.87
835.68	1073.37
836.00	1072.95
836.32	1074.49
836.63	1075.29
836.95	1077.44
837.27	1078.87
837.59	1079.67
837.90	1080.84
838.22	1080.79
838.54	1078.87
838.85	1082.19
839.17	1083.36
839.49	1077.61
839.80	1079.62
840.12	1085.35
840.44	1084.00
840.76	1083.41
841.07	1084.72
841.39	1082.78
841.71	1078.50
842.02	1076.88
842.34	1073.18
842.65	1073.30
842.97	1075.22
843.29	1072.69
843.60	1071.43
843.92	1072.71
844.24	1069.88
844.55	1070.51
844.87	1075.17
845.18	1078.33
845.50	1078.96
845.82	1083.86
846.13	1084.32
846.45	1083.46
846.76	1081.63
847.08	1079.67
847.40	1079.90
847.71	1076.86
848.03	1074.49
848.34	1075.05
848.66	1078.43
848.97	1076.39
849.29	1079.22
849.60	1080.72
849.92	1080.81
850.24	1080.30
850.55	1080.65
850.87	1077.21
851.18	1077.68
851.50	1074.07
851.81	1072.64
852.13	1071.94
852.44	1073.84
852.76	1072.06
853.07	1075.27
853.39	1076.46
853.70	1079.17
854.01	1078.61
854.33	1079.08
854.64	1077.00
854.96	1076.58
855.27	1077.70
855.59	1079.15
855.90	1079.50
856.22	1082.47
856.53	1083.29
856.84	1078.17
857.16	1075.41
857.47	1077.63
857.79	1075.80
858.10	1074.66
858.41	1076.44
858.73	1079.64
859.04	1074.82
859.36	1072.78
859.67	1074.73
859.98	1073.63
860.30	1066.96
860.61	1067.61
860.92	1071.52
861.24	1069.25
861.55	1072.41
861.87	1077.00
862.18	1078.80
862.49	1079.50
862.81	1081.26
863.12	1081.82
863.43	1083.90
863.74	1085.82
864.06	1085.35
864.37	1084.02
864.68	1078.78
865.00	1079.41
865.31	1076.86
865.62	1073.18
865.94	1072.76
866.25	1078.61
866.56	1077.56
866.87	1077.89
867.19	1076.69
867.50	1078.26
867.81	1077.65
868.12	1077.42
868.44	1079.13
868.75	1085.56
869.06	1086.10
869.37	1083.04
869.68	1082.66
870.00	1081.77
870.31	1078.40
870.62	1078.47
870.93	1079.43
871.24	1080.18
871.56	1078.19
871.87	1077.30
872.18	1076.06
872.49	1074.82
872.80	1073.93
873.12	1074.19
873.43	1074.45
873.74	1075.27
874.05	1075.50
874.36	1075.29
874.67	1077.25
874.98	1080.04
875.29	1081.40
875.61	1084.60
875.92	1085.10
876.23	1087.39
876.54	1085.40
876.85	1085.70
877.16	1081.23
877.47	1079.27
877.78	1077.07
878.09	1078.61
878.40	1075.45
878.72	1075.97
879.03	1078.75
879.34	1080.81
879.65	1080.67
879.96	1082.92
880.27	1086.52
880.58	1084.86
880.89	1082.69
881.20	1078.14
881.51	1076.34
881.82	1073.23
882.13	1075.45
882.44	1075.73
882.75	1078.82
883.06	1076.04
883.37	1079.60
883.68	1074.70
883.99	1072.62
884.30	1072.55
884.61	1076.23
884.92	1074.28
885.23	1079.24
885.54	1080.41
885.85	1078.45
886.16	1077.23
886.47	1074.19
886.78	1072.60
887.08	1072.13
887.39	1078.64
887.70	1077.96
888.01	1080.02
888.32	1078.78
888.63	1079.41
888.94	1075.50
889.25	1075.43
889.56	1075.83
889.87	1075.13
890.17	1075.34
890.48	1072.78
890.79	1076.86
891.10	1078.03
891.41	1077.28
891.72	1078.50
892.03	1079.78
892.34	1074.19
892.64	1074.31
892.95	1075.01
893.26	1073.53
893.57	1076.23
893.88	1081.21
894.18	1081.07
894.49	1082.76
894.80	1080.34
895.11	1076.27
895.42	1074.31
895.72	1074.80
896.03	1073.60
896.34	1075.73
896.65	1079.74
896.96	1081.61
897.26	1080.79
897.57	1080.51
897.88	1081.61
898.19	1077.21
898.49	1073.72
898.80	1074.59
899.11	1076.60
899.41	1078.57
899.72	1083.18
900.03	1086.99
900.34	1084.93
900.64	1084.00
900.95	1081.61
901.26	1076.48
901.56	1074.52
901.87	1073.70
902.18	1072.62
902.48	1073.93
902.79	1075.36
903.10	1073.39
903.40	1073.18
903.71	1074.96
904.02	1076.53
904.32	1081.23
904.63	1083.79
904.94	1085.07
905.24	1082.94
905.55	1078.17
905.85	1073.95
906.16	1072.22
906.47	1074.47
906.77	1074.77
907.08	1075.73
907.38	1076.83
907.69	1077.61
908.00	1077.79
908.30	1079.29
908.61	1079.31
908.91	1081.00
909.22	1082.69
909.52	1079.71
909.83	1079.36
910.14	1080.79
910.44	1077.61
910.75	1075.73
911.05	1077.30
911.36	1076.81
911.66	1073.44
911.97	1075.80
912.27	1076.51
912.58	1078.00
912.88	1078.73
913.19	1079.50
913.49	1078.14
913.80	1078.99
914.10	1075.27
914.41	1074.56
914.71	1077.93
915.01	1079.22
915.32	1077.49
915.62	1078.96
915.93	1079.31
916.23	1076.76
916.54	1078.80
916.84	1079.22
917.15	1079.90
917.45	1080.86
917.75	1081.63
918.06	1080.67
918.36	1081.33
918.67	1079.10
918.97	1076.46
919.27	1074.70
919.58	1073.02
919.88	1072.55
920.18	1075.29
920.49	1078.43
920.79	1081.94
921.10	1082.80
921.40	1082.33
921.70	1083.25
922.01	1082.64
922.31	1081.63
922.61	1080.86
922.92	1083.06
923.22	1080.65
923.52	1079.88
923.82	1080.30
924.13	1082.94
924.43	1079.62
924.73	1081.77
925.04	1081.63
925.34	1080.48
925.64	1078.61
925.94	1080.06
926.25	1078.73
926.55	1077.84
926.85	1076.53
927.15	1074.94
927.46	1074.35
927.76	1071.75
928.06	1072.57
928.36	1075.97
928.67	1079.03
928.97	1078.26
929.27	1079.17
929.57	1076.81
929.87	1073.74
930.18	1069.53
930.48	1069.79
930.78	1069.23
931.08	1069.98
931.38	1072.85
931.69	1074.68
931.99	1075.48
932.29	1076.65
932.59	1078.78
932.89	1076.37
933.19	1079.08
933.49	1078.82
933.80	1078.57
934.10	1075.90
934.40	1076.53
934.70	1075.38
935.00	1078.89
935.30	1078.31
935.60	1080.37
935.90	1079.55
936.20	1077.54
936.50	1072.29
936.81	1071.87
937.11	1072.08
937.41	1070.05
937.71	1073.14
938.01	1077.21
938.31	1080.58
938.61	1079.46
938.91	1079.24
939.21	1075.57
939.51	1072.06
939.81	1070.40
940.11	1072.50
940.41	1076.04
940.71	1076.51
941.01	1080.06
941.31	1083.01
941.61	1083.81
941.91	1085.52
942.21	1083.50
942.51	1083.53
942.81	1081.16
943.11	1080.25
943.41	1076.15
943.71	1080.25
944.01	1078.31
944.31	1077.86
944.61	1078.12
944.90	1080.70
945.20	1082.83
945.50	1081.51
945.80	1083.34
946.10	1080.13
946.40	1079.50
946.70	1074.45
947.00	1076.18
947.30	1074.00
947.60	1077.30
947.89	1078.57
948.19	1080.06
948.49	1077.56
948.79	1078.28
949.09	1076.18
949.39	1073.39
949.69	1070.14
949.98	1073.56
950.28	1073.58
950.58	1076.95
950.88	1080.65
951.18	1084.46
951.48	1082.85
951.77	1078.38
952.07	1079.60
952.37	1078.10
952.67	1080.46
952.97	1080.37
953.26	1085.49
953.56	1081.35
953.86	1078.99
954.16	1075.69
954.45	1076.79
954.75	1073.67
955.05	1074.89
955.35	1077.65
955.64	1076.81
955.94	1075.90
956.24	1076.55
956.54	1076.53
956.83	1077.70
957.13	1077.61
957.43	1075.36
957.72	1078.19
958.02	1078.80
958.32	1076.30
958.61	1078.24
958.91	1083.60
959.21	1083.01
959.50	1082.54
959.80	1083.39
960.10	1083.15
960.39	1081.21
960.69	1080.18
960.99	1080.81
961.28	1079.78
961.58	1077.61
961.87	1074.98
962.17	1074.03
962.47	1073.95
962.76	1072.81
963.06	1073.37
963.36	1075.87
963.65	1073.98
963.95	1071.31
964.24	1074.52
964.54	1079.34
964.83	1078.19
965.13	1080.63
965.42	1083.36
965.72	1081.96
966.02	1078.05
966.31	1080.81
966.61	1081.87
966.90	1078.61
967.20	1078.57
967.49	1077.63
967.79	1077.68
968.08	1079.06
968.38	1080.91
968.67	1079.15
968.97	1081.51
969.26	1079.22
969.56	1075.87
969.85	1078.38
970.15	1080.18
970.44	1078.89
970.74	1078.80
971.03	1081.37
971.32	1077.14
971.62	1075.55
971.91	1076.01
972.21	1075.83
972.50	1074.96
972.80	1077.58
973.09	1078.94
973.38	1078.57
973.68	1080.04
973.97	1078.57
974.27	1078.26
974.56	1076.53
974.85	1074.75
975.15	1073.49
975.44	1073.77
975.73	1073.39
976.03	1074.59
976.32	1077.23
976.61	1076.32
976.91	1077.56
977.20	1075.99
977.49	1072.81
977.79	1070.33
978.08	1073.70
978.37	1071.75
978.67	1072.71
978.96	1075.57
979.25	1078.43
979.55	1076.79
979.84	1077.37
980.13	1080.20
980.42	1080.72
980.72	1081.00
981.01	1080.95
981.30	1082.45
981.59	1080.91
981.89	1080.98
982.18	1080.74
982.47	1077.82
982.76	1080.11
983.06	1080.74
983.35	1082.52
983.64	1082.71
983.93	1081.35
984.22	1080.74
984.52	1079.22
984.81	1080.53
985.10	1078.12
985.39	1083.60
985.68	1080.98
985.97	1078.99
986.27	1076.01
986.56	1076.13
986.85	1072.85
987.14	1073.67
987.43	1075.13
987.72	1075.45
988.01	1074.94
988.31	1078.24
988.60	1079.78
988.89	1080.13
989.18	1077.42
989.47	1078.92
989.76	1075.22
990.05	1072.97
990.34	1072.67
990.63	1076.44
990.92	1078.64
991.21	1080.53
991.51	1083.60
991.80	1082.92
992.09	1082.52
992.38	1080.18
992.67	1083.20
992.96	1080.98
993.25	1083.06
993.54	1084.56
993.83	1084.81
994.12	1081.66
994.41	1080.23
994.70	1081.35
994.99	1078.96
995.28	1081.35
995.57	1083.08
995.86	1083.25
996.15	1078.54
996.44	1079.76
996.73	1076.51
997.02	1074.28
997.31	1076.46
997.59	1080.51
997.88	1076.37
998.17	1078.82
998.46	1080.81
998.75	1080.04
999.04	1082.36
999.33	1085.84
999.62	1083.64
999.91	1082.66
1000.20	1080.70
1000.49	1078.28
1000.77	1079.53
1001.06	1078.45
1001.35	1078.07
1001.64	1078.00
1001.93	1076.81
1002.22	1075.87
1002.51	1077.00
1002.79	1076.79
1003.08	1078.64
1003.37	1079.57
1003.66	1078.45
1003.95	1079.67
1004.23	1079.38
1004.52	1078.68
1004.81	1080.48
1005.10	1078.89
1005.39	1078.21
1005.67	1078.00
1005.96	1080.32
1006.25	1079.27
1006.54	1078.80
1006.83	1075.73
1007.11	1074.84
1007.40	1073.84
1007.69	1072.39
1007.97	1076.72
1008.26	1077.82
1008.55	1078.66
1008.84	1078.47
1009.12	1079.27
1009.41	1078.10
1009.70	1080.11
1009.98	1077.93
1010.27	1078.03
1010.56	1077.18
1010.85	1075.71
1011.13	1075.85
1011.42	1075.83
1011.71	1075.24
1011.99	1077.91
1012.28	1079.69
1012.56	1079.97
1012.85	1083.53
1013.14	1079.90
1013.42	1078.87
1013.71	1079.20
1014.00	1080.88
1014.28	1082.57
1014.57	1084.93
1014.85	1080.20
1015.14	1080.65
1015.43	1077.44
1015.71	1076.97
1016.00	1078.43
1016.28	1079.85
1016.57	1079.50
1016.85	1085.19
1017.14	1083.11
1017.43	1085.19
1017.71	1086.71
1018.00	1084.25
1018.28	1075.99
1018.57	1073.67
1018.85	1070.23
1019.14	1069.04
1019.42	1069.06
1019.71	1070.75
1019.99	1073.98
1020.28	1074.17
1020.56	1076.32
1020.85	1076.11
1021.13	1078.94
1021.42	1077.61
1021.70	1075.83
1021.99	1075.10
1022.27	1075.69
1022.55	1079.92
1022.84	1074.66
>>>>>End Processed Spectral Data<<<<<
