SpectraSuite Data File
++++++++++++++++++++++++++++++++++++
Date: Mon Aug 26 10:22:00 PDT 2019
User: corrico
Dark Spectrum Present: No
Reference Spectrum Present: No
Number of Sampled Component Spectra: 1
Spectrometers: USB2+H06089
Integration Time (usec): 2000 (USB2+H06089)
Spectra Averaged: 20 (USB2+H06089)
Boxcar Smoothing: 2 (USB2+H06089)
Correct for Electrical Dark: No (USB2+H06089)
Strobe/Lamp Enabled: No (USB2+H06089)
Correct for Detector Non-linearity: No (USB2+H06089)
Correct for Stray Light: No (USB2+H06089)
Number of Pixels in Processed Spectrum: 2048
>>>>>Begin Processed Spectral Data<<<<<
339.70	1015.79
340.07	1015.79
340.45	981.88
340.82	961.14
341.19	938.63
341.57	916.20
341.94	908.43
342.31	898.74
342.69	893.08
343.06	892.70
343.43	894.18
343.81	895.37
344.18	902.28
344.55	905.74
344.93	910.02
345.30	911.83
345.67	921.05
346.04	926.27
346.42	941.22
346.79	947.78
347.16	957.56
347.54	965.73
347.91	972.26
348.28	981.04
348.65	992.50
349.03	1003.20
349.40	1010.32
349.77	1021.78
350.14	1027.71
350.52	1034.49
350.89	1043.06
351.26	1051.23
351.63	1052.45
352.01	1053.62
352.38	1056.80
352.75	1059.96
353.12	1063.21
353.50	1070.12
353.87	1072.85
354.24	1074.75
354.61	1073.25
354.98	1076.08
355.36	1075.78
355.73	1077.14
356.10	1078.94
356.47	1081.21
356.84	1081.61
357.22	1085.03
357.59	1087.02
357.96	1085.63
358.33	1085.26
358.70	1086.20
359.08	1082.05
359.45	1080.11
359.82	1082.78
360.19	1080.16
360.56	1078.24
360.94	1082.47
361.31	1080.86
361.68	1078.19
362.05	1077.35
362.42	1077.40
362.79	1076.23
363.16	1077.07
363.54	1077.00
363.91	1078.75
364.28	1077.56
364.65	1076.74
365.02	1077.47
365.39	1079.88
365.76	1081.54
366.14	1080.04
366.51	1075.97
366.88	1074.47
367.25	1071.36
367.62	1068.97
367.99	1068.67
368.36	1072.76
368.73	1074.49
369.10	1075.43
369.48	1078.26
369.85	1078.19
370.22	1076.37
370.59	1074.28
370.96	1075.87
371.33	1074.77
371.70	1074.98
372.07	1074.49
372.44	1078.71
372.81	1077.51
373.18	1072.64
373.55	1070.91
373.93	1072.01
374.30	1067.78
374.67	1067.47
375.04	1071.10
375.41	1073.23
375.78	1073.25
376.15	1074.59
376.52	1073.37
376.89	1072.97
377.26	1072.50
377.63	1070.94
378.00	1072.90
378.37	1073.49
378.74	1074.54
379.11	1075.69
379.48	1080.27
379.85	1077.25
380.22	1077.23
380.59	1074.96
380.96	1074.14
381.33	1070.98
381.70	1071.45
382.07	1071.61
382.44	1072.60
382.81	1077.56
383.18	1075.41
383.55	1078.92
383.92	1077.11
384.29	1078.94
384.66	1076.60
385.03	1077.21
385.40	1072.57
385.77	1074.47
386.14	1073.09
386.51	1068.52
386.88	1069.44
387.25	1072.39
387.62	1076.37
387.99	1075.08
388.36	1079.62
388.73	1082.69
389.10	1081.14
389.46	1080.79
389.83	1080.39
390.20	1080.46
390.57	1080.72
390.94	1081.02
391.31	1080.18
391.68	1084.09
392.05	1085.61
392.42	1085.26
392.79	1087.95
393.16	1086.06
393.53	1085.54
393.89	1081.66
394.26	1077.98
394.63	1075.38
395.00	1076.06
395.37	1078.24
395.74	1079.88
396.11	1081.51
396.48	1081.54
396.84	1082.69
397.21	1082.08
397.58	1084.96
397.95	1085.82
398.32	1092.21
398.69	1091.49
399.06	1093.24
399.42	1088.16
399.79	1089.68
400.16	1086.76
400.53	1085.68
400.90	1083.57
401.27	1085.03
401.64	1087.11
402.00	1085.73
402.37	1088.37
402.74	1090.74
403.11	1094.67
403.48	1092.47
403.84	1094.57
404.21	1094.97
404.58	1093.69
404.95	1091.34
405.32	1088.30
405.68	1085.31
406.05	1085.49
406.42	1086.57
406.79	1086.94
407.16	1092.52
407.52	1093.15
407.89	1094.69
408.26	1090.90
408.63	1092.23
408.99	1088.23
409.36	1091.49
409.73	1089.00
410.10	1092.09
410.47	1091.18
410.83	1090.36
411.20	1089.22
411.57	1085.05
411.94	1083.08
412.30	1083.18
412.67	1082.97
413.04	1082.19
413.40	1087.04
413.77	1089.54
414.14	1093.36
414.51	1098.62
414.87	1098.30
415.24	1098.74
415.61	1098.27
415.97	1098.32
416.34	1096.70
416.71	1100.17
417.08	1100.26
417.44	1101.60
417.81	1098.86
418.18	1100.68
418.54	1097.76
418.91	1100.47
419.28	1102.28
419.64	1105.44
420.01	1102.60
420.38	1106.30
420.74	1105.90
421.11	1107.54
421.48	1108.20
421.84	1114.75
422.21	1118.17
422.58	1121.23
422.94	1122.19
423.31	1124.07
423.68	1126.38
424.04	1126.34
424.41	1129.12
424.77	1131.41
425.14	1133.83
425.51	1132.80
425.87	1134.86
426.24	1136.82
426.61	1141.78
426.97	1145.11
427.34	1149.65
427.70	1154.87
428.07	1162.19
428.44	1164.30
428.80	1171.02
429.17	1180.75
429.53	1187.28
429.90	1192.81
430.27	1204.16
430.63	1212.80
431.00	1223.23
431.36	1235.66
431.73	1246.92
432.09	1257.34
432.46	1271.38
432.83	1281.21
433.19	1293.59
433.56	1311.71
433.92	1330.50
434.29	1348.76
434.65	1369.35
435.02	1390.25
435.38	1406.99
435.75	1425.78
436.11	1452.30
436.48	1479.08
436.84	1508.99
437.21	1537.03
437.57	1568.30
437.94	1597.58
438.30	1631.40
438.67	1669.60
439.03	1714.26
439.40	1765.54
439.76	1812.16
440.13	1865.99
440.49	1918.21
440.86	1971.22
441.22	2025.85
441.59	2090.66
441.95	2158.61
442.32	2226.01
442.68	2307.79
443.05	2391.11
443.41	2480.36
443.78	2567.99
444.14	2666.50
444.51	2756.40
444.87	2869.24
445.24	2974.12
445.60	3093.51
445.96	3211.38
446.33	3357.29
446.69	3488.71
447.06	3630.59
447.42	3777.30
447.79	3939.50
448.15	4115.04
448.51	4300.45
448.88	4509.00
449.24	4704.24
449.61	4935.79
449.97	5178.29
450.33	5421.31
450.70	5653.52
451.06	5940.40
451.43	6211.66
451.79	6499.46
452.15	6824.81
452.52	7189.17
452.88	7559.72
453.24	7969.45
453.61	8411.65
453.97	8834.26
454.34	9252.49
454.70	9725.28
455.06	10190.18
455.43	10647.96
455.79	11115.70
456.15	11681.78
456.52	12227.19
456.88	12882.68
457.24	13538.90
457.61	14279.54
457.97	14938.26
458.33	15644.73
458.70	16351.08
459.06	17032.41
459.42	17758.84
459.79	18446.72
460.15	19199.79
460.51	19835.15
460.88	20505.11
461.24	21127.64
461.60	21887.43
461.96	22501.89
462.33	23122.36
462.69	23730.29
463.05	24391.03
463.42	25001.72
463.78	25568.62
464.14	26088.27
464.50	26673.87
464.87	27118.50
465.23	27353.35
465.59	27645.80
465.95	27917.04
466.32	28108.22
466.68	28275.26
467.04	28433.97
467.40	28540.42
467.77	28629.64
468.13	28592.22
468.49	28407.18
468.85	28286.43
469.22	28169.35
469.58	27974.32
469.94	27814.29
470.30	27634.63
470.66	27300.34
471.03	26809.29
471.39	26426.64
471.75	25858.26
472.11	25338.66
472.47	24958.61
472.84	24577.17
473.20	24045.24
473.56	23689.92
473.92	23206.36
474.28	22715.13
474.65	22286.44
475.01	21883.17
475.37	21420.26
475.73	21085.70
476.09	20703.75
476.45	20353.42
476.81	20024.97
477.18	19682.43
477.54	19374.25
477.90	19115.08
478.26	18732.03
478.62	18408.76
478.98	18174.47
479.34	17977.75
479.71	17729.75
480.07	17517.51
480.43	17254.24
480.79	16893.57
481.15	16501.01
481.51	16181.36
481.87	15936.75
482.23	15658.91
482.59	15413.15
482.96	15166.02
483.32	14922.69
483.68	14642.13
484.04	14409.20
484.40	14172.13
484.76	13950.06
485.12	13686.38
485.48	13459.53
485.84	13220.96
486.20	12987.05
486.56	12717.18
486.92	12459.80
487.28	12157.19
487.64	11867.19
488.00	11581.18
488.37	11296.97
488.73	10991.83
489.09	10709.57
489.45	10450.94
489.81	10184.12
490.17	9934.78
490.53	9681.46
490.89	9404.48
491.25	9112.20
491.61	8840.72
491.97	8571.14
492.33	8333.41
492.69	8138.60
493.05	7930.95
493.41	7739.73
493.77	7550.36
494.13	7361.06
494.49	7161.08
494.85	6995.70
495.21	6816.13
495.57	6643.42
495.93	6475.98
496.29	6301.40
496.64	6123.03
497.00	5955.38
497.36	5806.35
497.72	5661.85
498.08	5530.36
498.44	5406.61
498.80	5279.59
499.16	5141.74
499.52	4997.75
499.88	4866.21
500.24	4738.25
500.60	4619.02
500.96	4506.23
501.32	4404.79
501.68	4307.80
502.03	4208.89
502.39	4116.21
502.75	4028.97
503.11	3945.77
503.47	3858.68
503.83	3771.09
504.19	3681.80
504.55	3601.01
504.91	3515.63
505.26	3436.70
505.62	3361.90
505.98	3290.35
506.34	3214.84
506.70	3146.05
507.06	3080.50
507.42	3013.56
507.78	2954.95
508.13	2895.22
508.49	2837.76
508.85	2780.72
509.21	2728.88
509.57	2673.45
509.93	2622.97
510.28	2570.94
510.64	2526.07
511.00	2475.61
511.36	2428.35
511.72	2379.79
512.07	2337.24
512.43	2295.34
512.79	2259.20
513.15	2219.97
513.51	2184.63
513.86	2153.04
514.22	2116.85
514.58	2076.36
514.94	2042.02
515.30	2008.34
515.65	1973.73
516.01	1941.78
516.37	1918.91
516.73	1896.82
517.08	1872.71
517.44	1850.15
517.80	1831.38
518.16	1807.95
518.51	1784.96
518.87	1760.62
519.23	1739.98
519.59	1716.99
519.94	1698.20
520.30	1680.97
520.66	1667.49
521.01	1649.09
521.37	1631.80
521.73	1612.75
522.09	1594.49
522.44	1571.90
522.80	1557.70
523.16	1542.25
523.51	1530.71
523.87	1516.39
524.23	1506.23
524.58	1489.82
524.94	1477.11
525.30	1464.19
525.65	1452.51
526.01	1441.91
526.37	1433.95
526.72	1426.58
527.08	1414.74
527.44	1403.48
527.79	1395.92
528.15	1382.11
528.51	1371.06
528.86	1365.59
529.22	1357.02
529.58	1346.58
529.93	1343.51
530.29	1334.55
530.65	1325.47
531.00	1319.01
531.36	1316.43
531.71	1305.90
532.07	1299.42
532.43	1292.98
532.78	1281.98
533.14	1273.30
533.49	1265.86
533.85	1259.75
534.21	1253.19
534.56	1251.41
534.92	1244.86
535.27	1244.51
535.63	1243.88
535.98	1237.75
536.34	1233.04
536.69	1229.32
537.05	1222.44
537.41	1214.50
537.76	1212.73
538.12	1208.89
538.47	1202.19
538.83	1199.90
539.18	1198.07
539.54	1193.93
539.89	1193.79
540.25	1193.93
540.60	1192.03
540.96	1186.65
541.31	1185.60
541.67	1184.33
542.02	1183.33
542.38	1182.25
542.73	1180.85
543.09	1177.29
543.44	1172.33
543.80	1168.75
544.15	1164.37
544.51	1165.26
544.86	1162.68
545.22	1158.73
545.57	1156.83
545.93	1155.80
546.28	1150.56
546.64	1150.09
546.99	1149.79
547.35	1144.33
547.70	1142.93
548.05	1140.50
548.41	1138.46
548.76	1137.73
549.12	1139.33
549.47	1135.35
549.83	1136.75
550.18	1134.57
550.53	1131.11
550.89	1129.78
551.24	1131.81
551.60	1129.92
551.95	1128.56
552.30	1126.57
552.66	1123.95
553.01	1121.19
553.37	1119.92
553.72	1118.80
554.07	1119.71
554.43	1120.39
554.78	1118.45
555.13	1115.05
555.49	1115.69
555.84	1113.02
556.19	1107.92
556.55	1108.90
556.90	1110.23
557.26	1107.42
557.61	1108.64
557.96	1111.01
558.32	1110.89
558.67	1111.15
559.02	1111.87
559.37	1110.98
559.73	1108.78
560.08	1106.51
560.43	1104.92
560.79	1103.94
561.14	1103.63
561.49	1104.03
561.85	1103.75
562.20	1105.11
562.55	1106.56
562.90	1106.14
563.26	1108.22
563.61	1107.31
563.96	1104.52
564.32	1103.45
564.67	1101.97
565.02	1100.75
565.37	1096.59
565.73	1096.31
566.08	1095.28
566.43	1094.43
566.78	1093.52
567.14	1099.28
567.49	1098.74
567.84	1100.05
568.19	1102.02
568.54	1098.37
568.90	1093.08
569.25	1093.59
569.60	1092.12
569.95	1091.13
570.31	1091.37
570.66	1092.00
571.01	1093.83
571.36	1091.51
571.71	1090.97
572.06	1093.08
572.42	1093.78
572.77	1093.90
573.12	1095.63
573.47	1096.87
573.82	1097.73
574.18	1100.57
574.53	1096.35
574.88	1095.16
575.23	1094.43
575.58	1092.12
575.93	1090.50
576.28	1090.92
576.64	1088.70
576.99	1086.03
577.34	1087.06
577.69	1084.42
578.04	1084.93
578.39	1085.49
578.74	1088.26
579.09	1091.09
579.44	1093.87
579.80	1093.87
580.15	1094.27
580.50	1093.94
580.85	1090.13
581.20	1088.89
581.55	1089.03
581.90	1090.29
582.25	1091.98
582.60	1093.64
582.95	1094.34
583.30	1096.31
583.65	1095.16
584.00	1091.60
584.35	1088.77
584.71	1089.82
585.06	1086.13
585.41	1086.52
585.76	1085.87
586.11	1088.75
586.46	1086.27
586.81	1088.33
587.16	1087.27
587.51	1089.19
587.86	1085.77
588.21	1085.68
588.56	1084.81
588.91	1085.56
589.26	1086.59
589.61	1088.02
589.96	1085.35
590.31	1083.43
590.66	1086.34
591.01	1085.05
591.36	1086.13
591.71	1088.65
592.06	1089.99
592.41	1084.65
592.76	1082.66
593.10	1081.30
593.45	1079.15
593.80	1084.51
594.15	1086.17
594.50	1088.23
594.85	1087.34
595.20	1090.34
595.55	1086.50
595.90	1087.37
596.25	1086.97
596.60	1090.39
596.95	1088.65
597.30	1084.91
597.64	1093.87
597.99	1090.48
598.34	1089.29
598.69	1089.89
599.04	1091.93
599.39	1079.53
599.74	1079.57
600.09	1077.75
600.44	1077.51
600.78	1076.48
601.13	1079.90
601.48	1078.45
601.83	1080.65
602.18	1081.56
602.53	1081.42
602.88	1080.27
603.22	1086.94
603.57	1088.37
603.92	1088.37
604.27	1089.10
604.62	1087.41
604.97	1085.84
605.31	1084.89
605.66	1084.74
606.01	1083.34
606.36	1085.52
606.71	1083.83
607.05	1081.98
607.40	1078.80
607.75	1081.33
608.10	1082.03
608.44	1084.18
608.79	1084.32
609.14	1086.85
609.49	1085.84
609.84	1083.90
610.18	1078.99
610.53	1079.50
610.88	1078.43
611.23	1082.17
611.57	1083.46
611.92	1086.99
612.27	1085.00
612.62	1088.00
612.96	1088.02
613.31	1089.75
613.66	1085.75
614.00	1085.99
614.35	1084.46
614.70	1081.68
615.05	1079.95
615.39	1081.19
615.74	1081.14
616.09	1079.69
616.43	1078.43
616.78	1079.13
617.13	1081.58
617.47	1081.40
617.82	1085.73
618.17	1086.17
618.51	1085.05
618.86	1086.76
619.21	1084.65
619.55	1080.67
619.90	1079.55
620.25	1079.03
620.59	1075.43
620.94	1080.93
621.29	1078.92
621.63	1081.07
621.98	1084.00
622.32	1086.99
622.67	1082.05
623.02	1084.16
623.36	1083.62
623.71	1080.95
624.05	1078.61
624.40	1082.15
624.75	1083.53
625.09	1084.32
625.44	1085.87
625.78	1085.49
626.13	1081.77
626.48	1081.00
626.82	1081.16
627.17	1080.09
627.51	1078.96
627.86	1081.75
628.20	1081.70
628.55	1077.96
628.89	1077.82
629.24	1081.00
629.58	1080.95
629.93	1080.53
630.28	1081.30
630.62	1079.85
630.97	1079.20
631.31	1079.90
631.66	1077.30
632.00	1077.51
632.35	1079.69
632.69	1079.74
633.04	1078.43
633.38	1080.67
633.73	1079.83
634.07	1081.82
634.42	1080.18
634.76	1081.30
635.11	1082.31
635.45	1082.29
635.79	1078.71
636.14	1079.64
636.48	1078.87
636.83	1080.81
637.17	1083.48
637.52	1083.25
637.86	1081.66
638.21	1083.95
638.55	1081.98
638.89	1081.80
639.24	1079.95
639.58	1080.30
639.93	1081.09
640.27	1080.04
640.61	1080.13
640.96	1082.45
641.30	1084.89
641.65	1081.66
641.99	1083.01
642.33	1081.66
642.68	1082.10
643.02	1084.07
643.37	1085.42
643.71	1083.36
644.05	1084.44
644.40	1084.60
644.74	1082.52
645.08	1083.01
645.43	1082.66
645.77	1080.95
646.11	1079.53
646.46	1080.02
646.80	1078.82
647.14	1079.55
647.49	1080.18
647.83	1082.22
648.17	1080.72
648.52	1080.84
648.86	1079.01
649.20	1079.85
649.55	1080.98
649.89	1080.27
650.23	1080.37
650.57	1080.77
650.92	1082.17
651.26	1079.85
651.60	1078.57
651.95	1075.76
652.29	1077.72
652.63	1076.76
652.97	1077.14
653.32	1079.36
653.66	1080.67
654.00	1082.10
654.34	1079.67
654.69	1082.12
655.03	1083.48
655.37	1084.02
655.71	1082.64
656.05	1083.15
656.40	1079.10
656.74	1077.11
657.08	1077.77
657.42	1077.14
657.76	1081.77
658.11	1083.43
658.45	1083.18
658.79	1083.22
659.13	1083.79
659.47	1081.21
659.82	1081.61
660.16	1081.00
660.50	1081.66
660.84	1079.74
661.18	1078.33
661.52	1077.93
661.87	1077.37
662.21	1075.36
662.55	1075.94
662.89	1076.79
663.23	1075.38
663.57	1077.79
663.91	1079.69
664.25	1078.89
664.60	1078.40
664.94	1078.36
665.28	1078.57
665.62	1077.75
665.96	1079.92
666.30	1080.46
666.64	1079.95
666.98	1077.68
667.32	1077.56
667.66	1079.88
668.01	1078.31
668.35	1078.12
668.69	1076.11
669.03	1077.16
669.37	1075.43
669.71	1077.68
670.05	1081.02
670.39	1082.59
670.73	1079.57
671.07	1078.28
671.41	1075.73
671.75	1073.21
672.09	1073.65
672.43	1071.82
672.77	1074.07
673.11	1076.30
673.45	1077.04
673.79	1077.37
674.13	1081.37
674.47	1079.22
674.81	1075.69
675.15	1073.49
675.49	1075.71
675.83	1076.88
676.17	1077.93
676.51	1081.40
676.85	1083.27
677.19	1081.28
677.53	1081.05
677.87	1077.84
678.21	1075.48
678.55	1077.40
678.89	1076.79
679.23	1070.87
679.57	1072.36
679.90	1070.40
680.24	1070.44
680.58	1071.73
680.92	1071.78
681.26	1072.25
681.60	1076.44
681.94	1072.85
682.28	1071.43
682.62	1075.36
682.96	1078.36
683.29	1076.20
683.63	1077.47
683.97	1080.06
684.31	1080.11
684.65	1079.62
684.99	1077.79
685.33	1081.12
685.67	1079.06
686.00	1077.28
686.34	1072.85
686.68	1077.04
687.02	1076.69
687.36	1074.94
687.70	1075.17
688.03	1077.30
688.37	1074.70
688.71	1072.41
689.05	1073.84
689.39	1074.80
689.72	1075.29
690.06	1076.27
690.40	1076.88
690.74	1077.49
691.08	1079.83
691.41	1077.84
691.75	1078.19
692.09	1078.28
692.43	1076.51
692.76	1073.81
693.10	1075.29
693.44	1075.50
693.78	1078.43
694.11	1077.77
694.45	1080.23
694.79	1082.78
695.13	1083.22
695.46	1079.13
695.80	1079.34
696.14	1075.99
696.48	1073.04
696.81	1070.75
697.15	1073.07
697.49	1078.00
697.82	1081.66
698.16	1082.12
698.50	1082.33
698.83	1082.57
699.17	1083.29
699.51	1079.78
699.84	1080.16
700.18	1082.83
700.52	1082.69
700.85	1078.00
701.19	1076.95
701.53	1078.38
701.86	1079.67
702.20	1078.78
702.54	1079.62
702.87	1082.99
703.21	1081.28
703.55	1078.52
703.88	1077.56
704.22	1076.86
704.55	1078.94
704.89	1079.38
705.23	1079.31
705.56	1080.72
705.90	1080.13
706.23	1077.02
706.57	1076.69
706.91	1077.42
707.24	1077.16
707.58	1077.16
707.91	1077.70
708.25	1075.22
708.58	1075.48
708.92	1073.70
709.26	1075.62
709.59	1078.17
709.93	1079.97
710.26	1079.10
710.60	1081.73
710.93	1083.90
711.27	1082.71
711.60	1085.10
711.94	1083.86
712.27	1081.56
712.61	1082.45
712.94	1082.12
713.28	1079.92
713.61	1081.14
713.95	1081.16
714.28	1079.17
714.62	1077.79
714.95	1081.21
715.29	1083.08
715.62	1082.47
715.96	1082.50
716.29	1085.28
716.63	1083.57
716.96	1082.59
717.29	1084.30
717.63	1083.48
717.96	1083.13
718.30	1083.22
718.63	1080.72
718.97	1082.24
719.30	1086.36
719.63	1084.67
719.97	1082.10
720.30	1084.02
720.64	1080.93
720.97	1077.23
721.30	1079.62
721.64	1080.67
721.97	1080.58
722.31	1081.42
722.64	1079.34
722.97	1077.70
723.31	1078.24
723.64	1077.98
723.97	1078.19
724.31	1079.88
724.64	1079.22
724.98	1078.85
725.31	1082.43
725.64	1081.56
725.98	1081.35
726.31	1081.61
726.64	1081.40
726.97	1080.91
727.31	1083.41
727.64	1083.67
727.97	1083.01
728.31	1085.14
728.64	1082.45
728.97	1080.98
729.31	1082.99
729.64	1083.71
729.97	1082.76
730.30	1082.17
730.64	1082.33
730.97	1078.78
731.30	1079.27
731.63	1076.74
731.97	1078.38
732.30	1076.65
732.63	1078.80
732.96	1078.61
733.30	1079.92
733.63	1081.21
733.96	1084.67
734.29	1083.64
734.63	1081.66
734.96	1083.15
735.29	1081.73
735.62	1079.76
735.95	1081.30
736.29	1084.09
736.62	1082.54
736.95	1083.29
737.28	1080.09
737.61	1079.62
737.94	1075.03
738.28	1074.66
738.61	1073.21
738.94	1075.31
739.27	1071.22
739.60	1074.98
739.93	1074.61
740.27	1075.36
740.60	1075.92
740.93	1081.47
741.26	1081.21
741.59	1082.99
741.92	1081.68
742.25	1081.51
742.58	1079.15
742.91	1079.36
743.25	1077.65
743.58	1076.01
743.91	1077.44
744.24	1076.74
744.57	1074.00
744.90	1075.52
745.23	1076.60
745.56	1076.58
745.89	1077.18
746.22	1076.44
746.55	1076.34
746.88	1077.40
747.21	1074.21
747.54	1070.84
747.87	1071.68
748.20	1073.18
748.53	1073.84
748.87	1075.76
749.20	1079.62
749.53	1079.67
749.86	1079.24
750.19	1081.66
750.52	1084.25
750.85	1084.84
751.18	1086.45
751.51	1088.02
751.84	1084.67
752.16	1081.77
752.49	1082.24
752.82	1081.35
753.15	1078.52
753.48	1078.28
753.81	1078.12
754.14	1074.24
754.47	1073.60
754.80	1073.37
755.13	1072.92
755.46	1074.87
755.79	1078.12
756.12	1079.50
756.45	1079.13
756.78	1081.44
757.11	1080.37
757.43	1078.19
757.76	1078.28
758.09	1078.10
758.42	1075.01
758.75	1075.13
759.08	1078.47
759.41	1080.70
759.74	1080.84
760.07	1081.12
760.39	1081.54
760.72	1078.71
761.05	1074.82
761.38	1070.87
761.71	1071.29
762.04	1070.28
762.36	1069.98
762.69	1073.23
763.02	1079.53
763.35	1081.07
763.68	1084.02
764.01	1087.32
764.33	1084.63
764.66	1083.48
764.99	1083.74
765.32	1081.91
765.65	1081.66
765.97	1082.76
766.30	1081.91
766.63	1082.57
766.96	1079.50
767.28	1078.03
767.61	1079.01
767.94	1079.83
768.27	1079.27
768.59	1081.35
768.92	1083.18
769.25	1085.00
769.58	1083.43
769.90	1085.24
770.23	1084.09
770.56	1081.19
770.89	1074.42
771.21	1077.11
771.54	1072.43
771.87	1073.44
772.19	1072.67
772.52	1075.71
772.85	1073.11
773.17	1075.01
773.50	1075.69
773.83	1075.52
774.15	1078.05
774.48	1077.98
774.81	1077.72
775.13	1078.61
775.46	1077.33
775.79	1073.60
776.11	1072.60
776.44	1074.80
776.77	1071.24
777.09	1074.12
777.42	1075.45
777.74	1075.76
778.07	1073.86
778.40	1073.11
778.72	1070.58
779.05	1074.40
779.37	1077.28
779.70	1076.76
780.03	1080.98
780.35	1082.59
780.68	1081.73
781.00	1078.92
781.33	1078.71
781.65	1076.13
781.98	1075.43
782.31	1074.17
782.63	1076.41
782.96	1074.73
783.28	1076.55
783.61	1079.76
783.93	1080.44
784.26	1077.23
784.58	1079.88
784.91	1079.43
785.23	1075.97
785.56	1075.01
785.88	1077.56
786.21	1077.28
786.53	1075.36
786.86	1078.28
787.18	1077.25
787.51	1078.26
787.83	1079.48
788.16	1079.22
788.48	1077.25
788.81	1075.92
789.13	1072.32
789.46	1069.32
789.78	1070.84
790.10	1073.60
790.43	1074.38
790.75	1077.21
791.08	1080.84
791.40	1086.48
791.73	1084.25
792.05	1086.20
792.37	1085.00
792.70	1082.31
793.02	1077.09
793.35	1077.63
793.67	1075.43
793.99	1077.93
794.32	1078.52
794.64	1076.23
794.96	1075.31
795.29	1075.57
795.61	1073.32
795.93	1075.05
796.26	1077.47
796.58	1078.10
796.91	1078.71
797.23	1078.12
797.55	1076.97
797.87	1078.03
798.20	1075.76
798.52	1075.83
798.84	1075.17
799.17	1075.76
799.49	1075.66
799.81	1076.67
800.14	1074.82
800.46	1078.80
800.78	1079.34
801.10	1078.59
801.43	1078.12
801.75	1081.19
802.07	1080.37
802.40	1078.66
802.72	1077.61
803.04	1080.53
803.36	1077.25
803.69	1072.13
804.01	1073.60
804.33	1071.66
804.65	1071.94
804.97	1073.53
805.30	1076.72
805.62	1072.69
805.94	1072.39
806.26	1069.02
806.58	1070.61
806.91	1068.08
807.23	1071.29
807.55	1073.74
807.87	1075.80
808.19	1075.57
808.52	1077.30
808.84	1076.18
809.16	1076.32
809.48	1073.49
809.80	1073.70
810.12	1071.31
810.44	1071.31
810.77	1072.20
811.09	1075.55
811.41	1075.15
811.73	1080.72
812.05	1078.57
812.37	1077.30
812.69	1075.27
813.01	1073.88
813.33	1073.84
813.66	1076.23
813.98	1077.61
814.30	1083.06
814.62	1082.52
814.94	1081.07
815.26	1081.94
815.58	1081.40
815.90	1076.23
816.22	1075.13
816.54	1075.17
816.86	1072.92
817.18	1071.03
817.50	1073.23
817.82	1075.22
818.14	1076.67
818.46	1079.64
818.78	1080.65
819.10	1077.96
819.42	1077.33
819.74	1075.83
820.06	1076.30
820.38	1073.84
820.70	1074.75
821.02	1077.09
821.34	1075.41
821.66	1075.66
821.98	1080.18
822.30	1080.70
822.62	1077.09
822.94	1075.55
823.26	1073.07
823.58	1072.85
823.90	1075.29
824.22	1079.83
824.54	1080.06
824.86	1080.06
825.18	1076.39
825.50	1072.67
825.81	1071.05
826.13	1074.38
826.45	1073.72
826.77	1073.79
827.09	1075.57
827.41	1072.85
827.73	1070.65
828.05	1070.33
828.36	1069.27
828.68	1071.71
829.00	1074.52
829.32	1072.78
829.64	1076.32
829.96	1079.76
830.28	1075.55
830.59	1077.21
830.91	1080.39
831.23	1078.33
831.55	1076.67
831.87	1076.58
832.19	1073.37
832.50	1071.64
832.82	1068.92
833.14	1068.43
833.46	1070.21
833.78	1071.78
834.09	1075.64
834.41	1078.80
834.73	1077.63
835.05	1077.44
835.36	1080.86
835.68	1075.85
836.00	1076.58
836.32	1081.37
836.63	1082.12
836.95	1078.47
837.27	1080.41
837.59	1078.43
837.90	1076.48
838.22	1075.83
838.54	1076.08
838.85	1076.08
839.17	1078.07
839.49	1078.78
839.80	1078.38
840.12	1077.56
840.44	1077.33
840.76	1076.86
841.07	1074.89
841.39	1073.84
841.71	1076.15
842.02	1076.76
842.34	1075.31
842.65	1076.32
842.97	1080.16
843.29	1076.93
843.60	1077.18
843.92	1076.62
844.24	1075.97
844.55	1071.78
844.87	1071.94
845.18	1072.15
845.50	1073.70
845.82	1072.74
846.13	1074.96
846.45	1073.16
846.76	1073.04
847.08	1072.78
847.40	1074.77
847.71	1071.94
848.03	1073.16
848.34	1071.85
848.66	1070.63
848.97	1069.70
849.29	1072.67
849.60	1075.24
849.92	1076.27
850.24	1076.30
850.55	1080.20
850.87	1079.15
851.18	1080.88
851.50	1082.69
851.81	1083.67
852.13	1079.83
852.44	1079.53
852.76	1077.56
853.07	1077.30
853.39	1075.10
853.70	1074.82
854.01	1075.92
854.33	1073.70
854.64	1072.64
854.96	1076.48
855.27	1079.78
855.59	1077.98
855.90	1075.57
856.22	1076.11
856.53	1077.98
856.84	1074.59
857.16	1078.38
857.47	1082.52
857.79	1080.27
858.10	1077.70
858.41	1081.96
858.73	1080.91
859.04	1079.57
859.36	1079.20
859.67	1081.77
859.98	1078.87
860.30	1076.67
860.61	1074.35
860.92	1075.08
861.24	1070.44
861.55	1071.33
861.87	1070.91
862.18	1075.62
862.49	1079.78
862.81	1081.75
863.12	1081.33
863.43	1079.76
863.74	1078.38
864.06	1073.91
864.37	1070.49
864.68	1071.57
865.00	1071.08
865.31	1071.10
865.62	1072.74
865.94	1077.40
866.25	1077.11
866.56	1078.75
866.87	1079.06
867.19	1075.73
867.50	1074.59
867.81	1073.04
868.12	1075.52
868.44	1075.41
868.75	1079.64
869.06	1077.98
869.37	1079.43
869.68	1078.03
870.00	1076.81
870.31	1073.77
870.62	1074.84
870.93	1072.15
871.24	1073.88
871.56	1073.74
871.87	1074.33
872.18	1073.25
872.49	1077.16
872.80	1077.58
873.12	1078.85
873.43	1079.97
873.74	1079.10
874.05	1075.36
874.36	1073.77
874.67	1074.38
874.98	1072.25
875.29	1070.61
875.61	1073.44
875.92	1072.36
876.23	1069.53
876.54	1072.81
876.85	1076.60
877.16	1074.80
877.47	1076.48
877.78	1078.36
878.09	1079.46
878.40	1079.71
878.72	1079.01
879.03	1077.70
879.34	1077.21
879.65	1076.62
879.96	1076.69
880.27	1078.68
880.58	1077.93
880.89	1076.93
881.20	1075.22
881.51	1072.11
881.82	1072.15
882.13	1075.66
882.44	1077.44
882.75	1077.23
883.06	1076.67
883.37	1079.31
883.68	1077.28
883.99	1080.88
884.30	1081.12
884.61	1083.76
884.92	1083.06
885.23	1082.24
885.54	1077.44
885.85	1077.28
886.16	1079.50
886.47	1075.99
886.78	1079.36
887.08	1078.61
887.39	1081.89
887.70	1080.72
888.01	1081.30
888.32	1079.48
888.63	1083.43
888.94	1081.09
889.25	1080.46
889.56	1079.01
889.87	1079.17
890.17	1077.14
890.48	1072.76
890.79	1073.25
891.10	1072.64
891.41	1072.36
891.72	1071.47
892.03	1076.93
892.34	1077.49
892.64	1078.75
892.95	1076.97
893.26	1079.76
893.57	1076.67
893.88	1075.34
894.18	1078.82
894.49	1077.42
894.80	1074.91
895.11	1076.32
895.42	1077.07
895.72	1074.19
896.03	1076.48
896.34	1079.41
896.65	1078.78
896.96	1077.28
897.26	1075.55
897.57	1075.29
897.88	1072.13
898.19	1072.08
898.49	1074.45
898.80	1078.52
899.11	1076.48
899.41	1078.17
899.72	1077.42
900.03	1075.90
900.34	1074.84
900.64	1075.55
900.95	1074.49
901.26	1075.85
901.56	1076.83
901.87	1076.04
902.18	1074.19
902.48	1073.42
902.79	1075.41
903.10	1075.73
903.40	1077.11
903.71	1079.13
904.02	1079.22
904.32	1078.59
904.63	1077.42
904.94	1077.14
905.24	1079.67
905.55	1079.17
905.85	1078.19
906.16	1076.48
906.47	1077.56
906.77	1078.99
907.08	1080.65
907.38	1081.00
907.69	1084.16
908.00	1081.91
908.30	1078.96
908.61	1080.18
908.91	1081.66
909.22	1081.91
909.52	1081.94
909.83	1083.71
910.14	1084.02
910.44	1082.50
910.75	1082.57
911.05	1084.46
911.36	1079.43
911.66	1079.27
911.97	1076.30
912.27	1074.26
912.58	1073.58
912.88	1075.66
913.19	1074.73
913.49	1077.70
913.80	1076.20
914.10	1075.73
914.41	1078.71
914.71	1078.38
915.01	1077.61
915.32	1078.50
915.62	1075.87
915.93	1071.36
916.23	1070.05
916.54	1069.77
916.84	1070.75
917.15	1074.12
917.45	1078.92
917.75	1078.57
918.06	1080.98
918.36	1081.91
918.67	1080.48
918.97	1079.50
919.27	1083.53
919.58	1083.79
919.88	1086.87
920.18	1086.08
920.49	1083.55
920.79	1080.39
921.10	1074.35
921.40	1069.04
921.70	1070.07
922.01	1073.58
922.31	1076.30
922.61	1080.11
922.92	1080.13
923.22	1080.32
923.52	1077.89
923.82	1075.57
924.13	1077.77
924.43	1082.45
924.73	1083.11
925.04	1085.10
925.34	1085.91
925.64	1082.47
925.94	1076.58
926.25	1073.32
926.55	1072.43
926.85	1072.50
927.15	1073.07
927.46	1072.57
927.76	1071.54
928.06	1071.61
928.36	1071.45
928.67	1071.31
928.97	1075.20
929.27	1076.76
929.57	1076.18
929.87	1076.58
930.18	1080.20
930.48	1081.23
930.78	1079.46
931.08	1077.96
931.38	1074.96
931.69	1072.88
931.99	1069.86
932.29	1072.43
932.59	1073.98
932.89	1076.67
933.19	1074.84
933.49	1076.46
933.80	1074.82
934.10	1074.59
934.40	1070.94
934.70	1073.25
935.00	1073.70
935.30	1074.98
935.60	1076.34
935.90	1078.10
936.20	1074.77
936.50	1070.84
936.81	1069.41
937.11	1066.49
937.41	1068.76
937.71	1070.40
938.01	1073.30
938.31	1077.75
938.61	1080.30
938.91	1078.71
939.21	1082.54
939.51	1084.74
939.81	1081.73
940.11	1081.05
940.41	1081.42
940.71	1078.68
941.01	1075.92
941.31	1074.84
941.61	1077.11
941.91	1078.89
942.21	1080.44
942.51	1084.60
942.81	1086.20
943.11	1087.25
943.41	1086.27
943.71	1082.52
944.01	1078.92
944.31	1079.01
944.61	1075.59
944.90	1076.20
945.20	1077.42
945.50	1076.11
945.80	1080.20
946.10	1077.33
946.40	1073.56
946.70	1076.83
947.00	1077.82
947.30	1073.56
947.60	1074.12
947.89	1077.16
948.19	1073.67
948.49	1074.63
948.79	1076.69
949.09	1078.89
949.39	1078.03
949.69	1077.07
949.98	1077.02
950.28	1074.35
950.58	1074.70
950.88	1076.53
951.18	1078.38
951.48	1078.21
951.77	1079.13
952.07	1077.07
952.37	1075.41
952.67	1076.93
952.97	1073.65
953.26	1076.79
953.56	1080.20
953.86	1080.04
954.16	1078.73
954.45	1079.31
954.75	1078.10
955.05	1077.54
955.35	1077.09
955.64	1077.30
955.94	1079.46
956.24	1077.93
956.54	1074.61
956.83	1076.15
957.13	1077.35
957.43	1075.69
957.72	1074.91
958.02	1077.23
958.32	1075.97
958.61	1070.56
958.91	1072.62
959.21	1071.43
959.50	1073.65
959.80	1073.18
960.10	1077.00
960.39	1075.57
960.69	1075.05
960.99	1072.22
961.28	1073.74
961.58	1073.49
961.87	1074.47
962.17	1077.70
962.47	1079.13
962.76	1077.68
963.06	1072.83
963.36	1072.25
963.65	1071.03
963.95	1072.36
964.24	1073.88
964.54	1077.84
964.83	1079.15
965.13	1079.41
965.42	1075.55
965.72	1073.84
966.02	1074.49
966.31	1072.95
966.61	1074.38
966.90	1078.07
967.20	1080.65
967.49	1084.98
967.79	1086.24
968.08	1082.94
968.38	1082.71
968.67	1083.60
968.97	1081.96
969.26	1078.96
969.56	1080.27
969.85	1077.18
970.15	1075.69
970.44	1074.54
970.74	1076.69
971.03	1075.50
971.32	1074.24
971.62	1077.14
971.91	1077.56
972.21	1077.42
972.50	1079.99
972.80	1082.10
973.09	1076.65
973.38	1072.95
973.68	1078.96
973.97	1078.40
974.27	1076.53
974.56	1078.47
974.85	1077.98
975.15	1070.47
975.44	1069.34
975.73	1072.06
976.03	1071.64
976.32	1073.35
976.61	1076.88
976.91	1077.14
977.20	1079.53
977.49	1081.42
977.79	1082.24
978.08	1081.44
978.37	1084.25
978.67	1081.02
978.96	1076.27
979.25	1073.81
979.55	1074.28
979.84	1070.72
980.13	1071.05
980.42	1078.50
980.72	1078.66
981.01	1078.43
981.30	1079.99
981.59	1079.36
981.89	1078.45
982.18	1081.35
982.47	1079.08
982.76	1078.12
983.06	1078.71
983.35	1075.13
983.64	1073.23
983.93	1076.48
984.22	1076.62
984.52	1078.64
984.81	1080.32
985.10	1081.47
985.39	1080.09
985.68	1079.13
985.97	1076.93
986.27	1076.41
986.56	1074.05
986.85	1072.32
987.14	1075.80
987.43	1077.04
987.72	1076.23
988.01	1076.79
988.31	1075.15
988.60	1070.84
988.89	1070.51
989.18	1070.02
989.47	1074.35
989.76	1075.90
990.05	1077.02
990.34	1076.86
990.63	1075.59
990.92	1074.45
991.21	1076.44
991.51	1081.30
991.80	1079.99
992.09	1080.46
992.38	1080.04
992.67	1079.08
992.96	1075.29
993.25	1078.57
993.54	1081.05
993.83	1080.88
994.12	1079.71
994.41	1082.33
994.70	1081.80
994.99	1079.24
995.28	1078.94
995.57	1077.79
995.86	1074.96
996.15	1073.88
996.44	1073.79
996.73	1072.90
997.02	1076.18
997.31	1076.30
997.59	1075.45
997.88	1076.60
998.17	1077.02
998.46	1076.86
998.75	1079.85
999.04	1079.27
999.33	1080.37
999.62	1080.79
999.91	1080.51
1000.20	1078.05
1000.49	1080.20
1000.77	1078.99
1001.06	1077.35
1001.35	1078.94
1001.64	1079.15
1001.93	1078.28
1002.22	1081.30
1002.51	1084.11
1002.79	1083.43
1003.08	1081.42
1003.37	1081.87
1003.66	1078.52
1003.95	1074.89
1004.23	1073.67
1004.52	1076.01
1004.81	1072.29
1005.10	1072.67
1005.39	1075.08
1005.67	1076.72
1005.96	1078.07
1006.25	1083.83
1006.54	1081.44
1006.83	1081.91
1007.11	1079.55
1007.40	1077.86
1007.69	1078.45
1007.97	1080.41
1008.26	1077.68
1008.55	1079.60
1008.84	1078.26
1009.12	1075.03
1009.41	1077.30
1009.70	1077.65
1009.98	1079.90
1010.27	1082.80
1010.56	1081.80
1010.85	1076.65
1011.13	1078.12
1011.42	1072.83
1011.71	1072.11
1011.99	1071.80
1012.28	1075.10
1012.56	1077.40
1012.85	1081.73
1013.14	1081.56
1013.42	1084.18
1013.71	1081.98
1014.00	1078.99
1014.28	1075.69
1014.57	1072.83
1014.85	1073.21
1015.14	1077.84
1015.43	1076.81
1015.71	1076.48
1016.00	1077.79
1016.28	1076.04
1016.57	1074.68
1016.85	1077.23
1017.14	1079.31
1017.43	1081.28
1017.71	1082.15
1018.00	1080.25
1018.28	1081.05
1018.57	1079.10
1018.85	1077.44
1019.14	1072.06
1019.42	1071.10
1019.71	1071.80
1019.99	1074.45
1020.28	1074.33
1020.56	1078.54
1020.85	1081.23
1021.13	1077.70
1021.42	1076.88
1021.70	1077.91
1021.99	1080.56
1022.27	1079.34
1022.55	1089.52
1022.84	1075.94
>>>>>End Processed Spectral Data<<<<<
