SpectraSuite Data File
++++++++++++++++++++++++++++++++++++
Date: Mon Aug 26 10:21:51 PDT 2019
User: corrico
Dark Spectrum Present: No
Reference Spectrum Present: No
Number of Sampled Component Spectra: 1
Spectrometers: USB2+H06089
Integration Time (usec): 2000 (USB2+H06089)
Spectra Averaged: 20 (USB2+H06089)
Boxcar Smoothing: 2 (USB2+H06089)
Correct for Electrical Dark: No (USB2+H06089)
Strobe/Lamp Enabled: No (USB2+H06089)
Correct for Detector Non-linearity: No (USB2+H06089)
Correct for Stray Light: No (USB2+H06089)
Number of Pixels in Processed Spectrum: 2048
>>>>>Begin Processed Spectral Data<<<<<
339.70	1028.67
340.07	1028.67
340.45	995.85
340.82	974.53
341.19	950.59
341.57	924.30
341.94	910.98
342.31	902.58
342.69	895.51
343.06	891.88
343.43	890.64
343.81	893.57
344.18	894.79
344.55	898.48
344.93	905.55
345.30	913.02
345.67	920.93
346.04	931.30
346.42	942.09
346.79	949.37
347.16	958.54
347.54	963.29
347.91	970.60
348.28	978.55
348.65	988.10
349.03	996.41
349.40	1006.55
349.77	1016.38
350.14	1023.40
350.52	1029.77
350.89	1037.16
351.26	1040.65
351.63	1045.99
352.01	1053.31
352.38	1059.40
352.75	1062.32
353.12	1068.59
353.50	1073.14
353.87	1075.27
354.24	1075.78
354.61	1078.40
354.98	1081.63
355.36	1081.09
355.73	1078.82
356.10	1077.61
356.47	1078.87
356.84	1076.11
357.22	1076.97
357.59	1079.13
357.96	1082.03
358.33	1079.57
358.70	1082.22
359.08	1079.78
359.45	1077.47
359.82	1074.40
360.19	1072.92
360.56	1073.72
360.94	1075.92
361.31	1076.32
361.68	1079.57
362.05	1078.78
362.42	1075.62
362.79	1069.62
363.16	1066.61
363.54	1065.18
363.91	1067.57
364.28	1068.88
364.65	1070.72
365.02	1074.82
365.39	1073.44
365.76	1074.54
366.14	1074.91
366.51	1076.60
366.88	1075.27
367.25	1077.72
367.62	1077.25
367.99	1073.81
368.36	1072.95
368.73	1073.93
369.10	1072.69
369.48	1071.33
369.85	1070.42
370.22	1069.77
370.59	1068.08
370.96	1068.43
371.33	1066.44
371.70	1067.14
372.07	1069.30
372.44	1073.72
372.81	1073.70
373.18	1077.89
373.55	1078.45
373.93	1078.00
374.30	1072.85
374.67	1069.86
375.04	1068.10
375.41	1069.39
375.78	1064.73
376.15	1061.55
376.52	1061.55
376.89	1059.33
377.26	1055.44
377.63	1057.57
378.00	1063.87
378.37	1067.73
378.74	1067.54
379.11	1073.88
379.48	1076.20
379.85	1076.83
380.22	1076.76
380.59	1082.15
380.96	1080.84
381.33	1083.62
381.70	1081.58
382.07	1079.24
382.44	1072.67
382.81	1072.90
383.18	1068.95
383.55	1068.13
383.92	1070.42
384.29	1075.55
384.66	1074.31
385.03	1072.92
385.40	1075.34
385.77	1072.69
386.14	1070.80
386.51	1070.63
386.88	1073.39
387.25	1072.90
387.62	1076.51
387.99	1076.23
388.36	1078.00
388.73	1077.16
389.10	1077.84
389.46	1074.73
389.83	1074.35
390.20	1073.39
390.57	1071.85
390.94	1070.82
391.31	1072.92
391.68	1076.08
392.05	1074.59
392.42	1075.69
392.79	1076.74
393.16	1075.27
393.53	1074.19
393.89	1072.92
394.26	1075.24
394.63	1076.69
395.00	1076.74
395.37	1076.55
395.74	1077.37
396.11	1075.69
396.48	1072.15
396.84	1070.49
397.21	1073.04
397.58	1076.97
397.95	1078.87
398.32	1080.67
398.69	1084.39
399.06	1083.43
399.42	1082.05
399.79	1081.61
400.16	1080.06
400.53	1078.75
400.90	1078.99
401.27	1078.17
401.64	1079.67
402.00	1085.12
402.37	1084.81
402.74	1085.31
403.11	1086.97
403.48	1087.97
403.84	1084.35
404.21	1086.59
404.58	1083.46
404.95	1085.73
405.32	1084.60
405.68	1085.59
406.05	1083.08
406.42	1084.02
406.79	1080.27
407.16	1080.20
407.52	1080.79
407.89	1083.13
408.26	1082.45
408.63	1084.14
408.99	1085.61
409.36	1086.15
409.73	1085.07
410.10	1086.80
410.47	1086.15
410.83	1083.11
411.20	1081.56
411.57	1080.51
411.94	1080.63
412.30	1082.22
412.67	1083.60
413.04	1084.74
413.40	1089.10
413.77	1088.02
414.14	1084.86
414.51	1088.09
414.87	1089.24
415.24	1089.26
415.61	1090.29
415.97	1092.75
416.34	1093.33
416.71	1092.47
417.08	1092.45
417.44	1095.86
417.81	1096.03
418.18	1092.49
418.54	1093.29
418.91	1089.12
419.28	1086.29
419.64	1090.01
420.01	1094.62
420.38	1095.11
420.74	1098.93
421.11	1101.55
421.48	1101.76
421.84	1100.89
422.21	1103.73
422.58	1104.41
422.94	1103.63
423.31	1104.48
423.68	1101.46
424.04	1101.60
424.41	1105.11
424.77	1110.84
425.14	1111.92
425.51	1118.50
425.87	1120.74
426.24	1121.87
426.61	1121.84
426.97	1125.45
427.34	1127.67
427.70	1130.69
428.07	1133.87
428.44	1140.33
428.80	1144.71
429.17	1152.97
429.53	1155.34
429.90	1160.02
430.27	1165.68
430.63	1172.35
431.00	1175.96
431.36	1183.82
431.73	1191.31
432.09	1195.92
432.46	1201.79
432.83	1207.79
433.19	1216.21
433.56	1226.89
433.92	1237.21
434.29	1248.25
434.65	1259.02
435.02	1272.48
435.38	1285.31
435.75	1302.16
436.11	1318.73
436.48	1336.54
436.84	1355.15
437.21	1372.75
437.57	1391.38
437.94	1413.47
438.30	1440.86
438.67	1464.71
439.03	1492.04
439.40	1521.93
439.76	1550.56
440.13	1578.81
440.49	1612.61
440.86	1651.55
441.22	1692.53
441.59	1737.64
441.95	1783.28
442.32	1830.35
442.68	1877.81
443.05	1923.99
443.41	1974.94
443.78	2031.00
444.14	2091.48
444.51	2155.42
444.87	2227.53
445.24	2297.66
445.60	2377.33
445.96	2454.38
446.33	2544.00
446.69	2632.17
447.06	2725.88
447.42	2827.58
447.79	2931.52
448.15	3043.59
448.51	3165.01
448.88	3307.46
449.24	3434.90
449.61	3586.71
449.97	3732.76
450.33	3882.43
450.70	4023.47
451.06	4201.05
451.43	4379.94
451.79	4590.75
452.15	4811.98
452.52	5050.48
452.88	5284.77
453.24	5539.37
453.61	5814.99
453.97	6106.90
454.34	6408.97
454.70	6759.65
455.06	7094.00
455.43	7420.32
455.79	7709.33
456.15	8035.95
456.52	8333.52
456.88	8726.15
457.24	9105.22
457.61	9572.07
457.97	10017.59
458.33	10493.28
458.70	10951.93
459.06	11412.22
459.42	11886.25
459.79	12326.62
460.15	12817.85
460.51	13249.14
460.88	13698.01
461.24	14131.73
461.60	14616.74
461.96	15048.03
462.33	15485.12
462.69	15936.15
463.05	16421.29
463.42	16892.93
463.78	17364.13
464.14	17790.79
464.50	18210.70
464.87	18527.87
465.23	18755.70
465.59	19013.86
465.95	19285.24
466.32	19490.32
466.68	19658.21
467.04	19760.25
467.40	19722.27
467.77	19682.92
468.13	19606.74
468.49	19559.23
468.85	19527.98
469.22	19540.17
469.58	19459.49
469.94	19394.31
470.30	19227.10
470.66	19030.62
471.03	18753.40
471.39	18551.18
471.75	18215.66
472.11	17895.38
472.47	17641.13
472.84	17412.93
473.20	17103.58
473.56	16944.36
473.92	16682.89
474.28	16428.83
474.65	16143.56
475.01	15835.03
475.37	15458.28
475.73	15200.73
476.09	14949.40
476.45	14711.11
476.81	14526.11
477.18	14308.87
477.54	14071.30
477.90	13812.62
478.26	13532.23
478.62	13283.76
478.98	13113.60
479.34	12956.18
479.71	12771.86
480.07	12618.53
480.43	12445.17
480.79	12216.45
481.15	12016.99
481.51	11835.43
481.87	11685.19
482.23	11488.80
482.59	11314.41
482.96	11141.61
483.32	10989.40
483.68	10790.06
484.04	10613.07
484.40	10422.17
484.76	10241.25
485.12	10037.27
485.48	9836.17
485.84	9631.49
486.20	9431.24
486.56	9202.21
486.92	9003.15
487.28	8825.74
487.64	8638.57
488.00	8473.44
488.37	8310.40
488.73	8116.67
489.09	7895.47
489.45	7707.99
489.81	7515.41
490.17	7336.20
490.53	7166.28
490.89	7008.57
491.25	6838.44
491.61	6682.25
491.97	6517.99
492.33	6349.57
492.69	6193.71
493.05	6054.47
493.41	5904.33
493.77	5750.32
494.13	5606.21
494.49	5458.90
494.85	5313.04
495.21	5177.15
495.57	5048.04
495.93	4927.90
496.29	4811.09
496.64	4701.11
497.00	4582.70
497.36	4468.15
497.72	4357.14
498.08	4261.51
498.44	4173.50
498.80	4084.80
499.16	3993.96
499.52	3909.07
499.88	3818.82
500.24	3724.87
500.60	3639.56
500.96	3567.87
501.32	3490.30
501.68	3420.97
502.03	3344.58
502.39	3276.73
502.75	3205.50
503.11	3148.84
503.47	3081.32
503.83	3025.21
504.19	2964.12
504.55	2905.17
504.91	2839.63
505.26	2782.87
505.62	2728.29
505.98	2680.33
506.34	2636.94
506.70	2586.88
507.06	2543.88
507.42	2498.33
507.78	2455.18
508.13	2409.46
508.49	2372.32
508.85	2332.77
509.21	2290.17
509.57	2248.65
509.93	2206.89
510.28	2165.72
510.64	2125.23
511.00	2088.09
511.36	2046.03
511.72	2009.12
512.07	1976.91
512.43	1948.61
512.79	1920.22
513.15	1894.22
513.51	1870.56
513.86	1844.83
514.22	1819.95
514.58	1797.84
514.94	1779.30
515.30	1757.41
515.65	1733.61
516.01	1710.88
516.37	1686.92
516.73	1667.42
517.08	1650.94
517.44	1632.85
517.80	1615.20
518.16	1600.15
518.51	1582.41
518.87	1567.13
519.23	1555.29
519.59	1540.47
519.94	1524.23
520.30	1511.24
520.66	1499.32
521.01	1483.45
521.37	1474.56
521.73	1466.77
522.09	1455.81
522.44	1440.20
522.80	1429.44
523.16	1414.25
523.51	1397.84
523.87	1387.47
524.23	1381.90
524.58	1376.26
524.94	1370.69
525.30	1366.38
525.65	1354.47
526.01	1345.76
526.37	1335.74
526.72	1325.12
527.08	1318.07
527.44	1315.17
527.79	1307.10
528.15	1299.75
528.51	1297.43
528.86	1289.89
529.22	1280.53
529.58	1271.33
529.93	1265.43
530.29	1256.14
530.65	1250.85
531.00	1243.11
531.36	1238.40
531.71	1232.29
532.07	1229.55
532.43	1222.95
532.78	1220.38
533.14	1220.07
533.49	1217.80
533.85	1211.32
534.21	1209.10
534.56	1206.50
534.92	1199.22
535.27	1194.31
535.63	1192.78
535.98	1191.05
536.34	1183.77
536.69	1181.97
537.05	1177.52
537.41	1175.42
537.76	1171.91
538.12	1170.29
538.47	1167.25
538.83	1164.86
539.18	1162.29
539.54	1159.99
539.89	1161.28
540.25	1158.33
540.60	1159.71
540.96	1157.09
541.31	1154.66
541.67	1151.08
542.02	1149.44
542.38	1146.16
542.73	1144.94
543.09	1143.87
543.44	1144.17
543.80	1144.38
544.15	1140.96
544.51	1136.35
544.86	1131.11
545.22	1126.31
545.57	1120.51
545.93	1123.93
546.28	1125.89
546.64	1125.91
546.99	1126.34
547.35	1126.71
547.70	1122.01
548.05	1119.06
548.41	1118.57
548.76	1116.48
549.12	1118.03
549.47	1117.32
549.83	1117.93
550.18	1119.24
550.53	1119.55
550.89	1117.25
551.24	1115.22
551.60	1113.53
551.95	1111.31
552.30	1111.40
552.66	1110.63
553.01	1113.86
553.37	1110.96
553.72	1111.71
554.07	1111.75
554.43	1110.42
554.78	1107.87
555.13	1110.16
555.49	1106.00
555.84	1105.34
556.19	1104.26
556.55	1101.18
556.90	1099.47
557.26	1100.75
557.61	1100.24
557.96	1099.47
558.32	1098.58
558.67	1094.41
559.02	1093.59
559.37	1089.59
559.73	1091.67
560.08	1093.19
560.43	1094.60
560.79	1094.43
561.14	1096.12
561.49	1096.17
561.85	1096.33
562.20	1097.17
562.55	1095.49
562.90	1093.33
563.26	1090.83
563.61	1091.11
563.96	1092.89
564.32	1093.01
564.67	1095.28
565.02	1096.07
565.37	1095.02
565.73	1092.09
566.08	1090.85
566.43	1090.48
566.78	1090.71
567.14	1090.60
567.49	1093.71
567.84	1097.85
568.19	1096.63
568.54	1092.14
568.90	1092.07
569.25	1087.88
569.60	1082.99
569.95	1081.28
570.31	1083.60
570.66	1083.04
571.01	1083.46
571.36	1086.76
571.71	1089.31
572.06	1088.51
572.42	1087.51
572.77	1086.66
573.12	1085.24
573.47	1084.65
573.82	1083.90
574.18	1086.03
574.53	1089.29
574.88	1090.62
575.23	1088.96
575.58	1090.71
575.93	1090.20
576.28	1088.61
576.64	1088.42
576.99	1090.50
577.34	1089.22
577.69	1089.38
578.04	1088.35
578.39	1089.57
578.74	1087.20
579.09	1087.51
579.44	1089.19
579.80	1090.60
580.15	1089.68
580.50	1091.16
580.85	1088.65
581.20	1082.83
581.55	1082.22
581.90	1080.91
582.25	1078.92
582.60	1082.52
582.95	1081.12
583.30	1078.50
583.65	1075.97
584.00	1076.72
584.35	1076.04
584.71	1082.22
585.06	1082.45
585.41	1087.04
585.76	1086.55
586.11	1086.83
586.46	1086.64
586.81	1089.68
587.16	1088.56
587.51	1088.23
587.86	1089.03
588.21	1084.70
588.56	1081.47
588.91	1077.65
589.26	1079.03
589.61	1078.54
589.96	1078.57
590.31	1078.85
590.66	1079.01
591.01	1077.47
591.36	1076.13
591.71	1079.03
592.06	1080.25
592.41	1080.25
592.76	1082.85
593.10	1083.04
593.45	1084.28
593.80	1086.34
594.15	1090.13
594.50	1087.32
594.85	1086.01
595.20	1084.16
595.55	1081.00
595.90	1083.18
596.25	1082.38
596.60	1084.70
596.95	1082.24
597.30	1082.54
597.64	1090.22
597.99	1093.94
598.34	1093.29
598.69	1095.16
599.04	1093.99
599.39	1080.95
599.74	1075.78
600.09	1074.52
600.44	1075.59
600.78	1077.84
601.13	1080.13
601.48	1083.15
601.83	1084.67
602.18	1085.56
602.53	1087.11
602.88	1082.54
603.22	1082.99
603.57	1081.54
603.92	1081.12
604.27	1077.98
604.62	1081.61
604.97	1080.23
605.31	1077.30
605.66	1078.17
606.01	1076.60
606.36	1076.55
606.71	1077.37
607.05	1080.93
607.40	1079.83
607.75	1082.19
608.10	1081.16
608.44	1079.57
608.79	1079.01
609.14	1074.17
609.49	1073.88
609.84	1075.29
610.18	1072.57
610.53	1072.22
610.88	1075.90
611.23	1076.81
611.57	1076.95
611.92	1080.44
612.27	1081.02
612.62	1080.81
612.96	1083.67
613.31	1082.36
613.66	1083.18
614.00	1082.40
614.35	1083.57
614.70	1079.78
615.05	1078.64
615.39	1076.65
615.74	1075.73
616.09	1073.46
616.43	1073.67
616.78	1073.39
617.13	1073.60
617.47	1074.59
617.82	1075.03
618.17	1074.10
618.51	1078.12
618.86	1079.57
619.21	1081.84
619.55	1081.58
619.90	1080.79
620.25	1077.00
620.59	1077.35
620.94	1073.70
621.29	1077.18
621.63	1078.73
621.98	1081.66
622.32	1080.81
622.67	1082.50
623.02	1082.12
623.36	1082.45
623.71	1080.48
624.05	1079.41
624.40	1078.14
624.75	1075.45
625.09	1077.07
625.44	1078.14
625.78	1077.98
626.13	1078.64
626.48	1077.86
626.82	1075.36
627.17	1074.00
627.51	1074.89
627.86	1074.49
628.20	1077.04
628.55	1077.02
628.89	1078.71
629.24	1079.43
629.58	1076.46
629.93	1076.44
630.28	1076.20
630.62	1075.71
630.97	1076.27
631.31	1080.41
631.66	1076.65
632.00	1082.12
632.35	1082.01
632.69	1080.11
633.04	1079.06
633.38	1082.76
633.73	1076.74
634.07	1074.56
634.42	1076.90
634.76	1079.97
635.11	1080.32
635.45	1082.85
635.79	1083.29
636.14	1083.20
636.48	1080.86
636.83	1076.65
637.17	1076.30
637.52	1074.87
637.86	1076.15
638.21	1079.31
638.55	1080.86
638.89	1078.07
639.24	1081.16
639.58	1080.30
639.93	1078.33
640.27	1082.85
640.61	1085.17
640.96	1086.15
641.30	1084.77
641.65	1084.58
641.99	1079.60
642.33	1078.59
642.68	1078.07
643.02	1079.38
643.37	1078.00
643.71	1081.94
644.05	1081.68
644.40	1080.11
644.74	1080.25
645.08	1081.54
645.43	1080.02
645.77	1080.30
646.11	1080.84
646.46	1082.22
646.80	1083.95
647.14	1083.97
647.49	1086.03
647.83	1086.45
648.17	1085.66
648.52	1080.74
648.86	1080.30
649.20	1080.81
649.55	1082.97
649.89	1080.70
650.23	1081.12
650.57	1082.45
650.92	1081.70
651.26	1077.44
651.60	1076.58
651.95	1077.47
652.29	1077.77
652.63	1077.61
652.97	1074.68
653.32	1076.48
653.66	1079.71
654.00	1076.58
654.34	1074.24
654.69	1077.61
655.03	1077.44
655.37	1078.36
655.71	1079.57
656.05	1080.67
656.40	1081.28
656.74	1081.56
657.08	1077.40
657.42	1076.46
657.76	1076.30
658.11	1075.34
658.45	1074.12
658.79	1075.85
659.13	1076.11
659.47	1079.50
659.82	1080.93
660.16	1078.71
660.50	1078.12
660.84	1079.29
661.18	1077.51
661.52	1078.82
661.87	1079.06
662.21	1076.65
662.55	1077.35
662.89	1075.50
663.23	1072.20
663.57	1076.25
663.91	1080.04
664.25	1077.68
664.60	1077.86
664.94	1078.59
665.28	1078.57
665.62	1078.78
665.96	1079.03
666.30	1078.75
666.64	1078.94
666.98	1077.33
667.32	1077.68
667.66	1073.49
668.01	1074.59
668.35	1076.51
668.69	1077.49
669.03	1075.87
669.37	1080.16
669.71	1081.66
670.05	1083.32
670.39	1080.60
670.73	1079.97
671.07	1079.22
671.41	1076.37
671.75	1073.21
672.09	1076.97
672.43	1075.92
672.77	1078.10
673.11	1080.67
673.45	1080.88
673.79	1081.91
674.13	1086.13
674.47	1086.31
674.81	1082.71
675.15	1083.81
675.49	1080.93
675.83	1079.06
676.17	1077.16
676.51	1079.74
676.85	1078.89
677.19	1078.73
677.53	1076.93
677.87	1078.07
678.21	1078.14
678.55	1078.94
678.89	1081.75
679.23	1079.88
679.57	1080.20
679.90	1078.75
680.24	1076.23
680.58	1070.40
680.92	1071.87
681.26	1070.21
681.60	1071.80
681.94	1074.40
682.28	1078.33
682.62	1079.60
682.96	1080.34
683.29	1080.09
683.63	1082.31
683.97	1082.85
684.31	1083.39
684.65	1080.98
684.99	1079.81
685.33	1078.17
685.67	1078.26
686.00	1078.14
686.34	1082.01
686.68	1081.54
687.02	1082.05
687.36	1081.44
687.70	1079.38
688.03	1076.53
688.37	1078.28
688.71	1074.94
689.05	1073.74
689.39	1074.84
689.72	1076.83
690.06	1076.13
690.40	1078.10
690.74	1075.83
691.08	1079.01
691.41	1079.22
691.75	1079.55
692.09	1079.92
692.43	1081.19
692.76	1077.35
693.10	1076.41
693.44	1075.55
693.78	1076.30
694.11	1076.97
694.45	1078.19
694.79	1077.33
695.13	1076.90
695.46	1075.31
695.80	1076.23
696.14	1075.48
696.48	1076.25
696.81	1075.99
697.15	1076.65
697.49	1078.33
697.82	1078.03
698.16	1076.74
698.50	1077.70
698.83	1074.47
699.17	1075.01
699.51	1074.70
699.84	1075.38
700.18	1075.64
700.52	1075.34
700.85	1072.64
701.19	1073.81
701.53	1076.46
701.86	1076.60
702.20	1081.00
702.54	1082.94
702.87	1082.19
703.21	1079.06
703.55	1078.80
703.88	1077.91
704.22	1076.86
704.55	1077.30
704.89	1077.47
705.23	1076.79
705.56	1076.67
705.90	1076.76
706.23	1076.88
706.57	1077.30
706.91	1076.97
707.24	1075.03
707.58	1072.71
707.91	1075.10
708.25	1075.80
708.58	1077.16
708.92	1077.18
709.26	1080.56
709.59	1077.54
709.93	1076.95
710.26	1079.10
710.60	1081.12
710.93	1078.38
711.27	1078.73
711.60	1080.20
711.94	1080.84
712.27	1081.58
712.61	1085.47
712.94	1088.07
713.28	1087.67
713.61	1085.42
713.95	1084.74
714.28	1080.23
714.62	1078.45
714.95	1078.12
715.29	1076.27
715.62	1076.39
715.96	1076.76
716.29	1077.14
716.63	1077.54
716.96	1081.82
717.29	1079.67
717.63	1083.67
717.96	1084.56
718.30	1085.28
718.63	1082.31
718.97	1085.99
719.30	1082.97
719.63	1080.02
719.97	1077.65
720.30	1080.84
720.64	1077.44
720.97	1076.51
721.30	1077.14
721.64	1078.66
721.97	1077.11
722.31	1078.40
722.64	1079.31
722.97	1080.16
723.31	1078.59
723.64	1075.52
723.97	1074.03
724.31	1077.75
724.64	1079.90
724.98	1078.75
725.31	1080.58
725.64	1081.96
725.98	1079.08
726.31	1079.29
726.64	1084.74
726.97	1084.79
727.31	1084.53
727.64	1085.49
727.97	1084.35
728.31	1081.16
728.64	1078.38
728.97	1078.28
729.31	1077.07
729.64	1075.38
729.97	1076.46
730.30	1078.89
730.64	1081.26
730.97	1079.48
731.30	1077.51
731.63	1075.27
731.97	1076.58
732.30	1074.89
732.63	1075.24
732.96	1078.36
733.30	1079.85
733.63	1078.92
733.96	1077.07
734.29	1075.66
734.63	1075.48
734.96	1074.24
735.29	1073.28
735.62	1070.44
735.95	1073.58
736.29	1073.93
736.62	1074.19
736.95	1074.96
737.28	1077.61
737.61	1073.42
737.94	1074.42
738.28	1074.12
738.61	1073.30
738.94	1077.37
739.27	1083.55
739.60	1081.35
739.93	1081.82
740.27	1082.59
740.60	1078.52
740.93	1076.93
741.26	1078.28
741.59	1077.77
741.92	1077.00
742.25	1078.99
742.58	1078.66
742.91	1078.21
743.25	1080.34
743.58	1080.72
743.91	1081.80
744.24	1080.34
744.57	1079.24
744.90	1076.83
745.23	1077.49
745.56	1073.72
745.89	1072.04
746.22	1070.72
746.55	1068.99
746.88	1066.63
747.21	1067.85
747.54	1067.31
747.87	1066.63
748.20	1066.82
748.53	1070.16
748.87	1070.28
749.20	1071.57
749.53	1075.92
749.86	1078.94
750.19	1075.03
750.52	1075.76
750.85	1077.84
751.18	1076.20
751.51	1076.48
751.84	1079.76
752.16	1079.57
752.49	1076.95
752.82	1077.51
753.15	1074.80
753.48	1072.18
753.81	1072.29
754.14	1073.81
754.47	1076.11
754.80	1077.77
755.13	1080.39
755.46	1081.56
755.79	1079.90
756.12	1078.17
756.45	1078.92
756.78	1078.61
757.11	1076.30
757.43	1078.89
757.76	1075.48
758.09	1074.12
758.42	1076.04
758.75	1076.32
759.08	1074.07
759.41	1074.10
759.74	1073.84
760.07	1070.28
760.39	1069.02
760.72	1072.29
761.05	1074.47
761.38	1076.81
761.71	1078.19
762.04	1080.41
762.36	1078.12
762.69	1074.80
763.02	1073.51
763.35	1072.95
763.68	1073.00
764.01	1073.70
764.33	1076.95
764.66	1076.88
764.99	1076.60
765.32	1075.83
765.65	1076.76
765.97	1078.03
766.30	1080.06
766.63	1079.20
766.96	1079.24
767.28	1078.38
767.61	1076.48
767.94	1071.10
768.27	1072.67
768.59	1075.27
768.92	1075.10
769.25	1072.25
769.58	1075.34
769.90	1071.52
770.23	1067.49
770.56	1066.21
770.89	1070.35
771.21	1071.61
771.54	1073.84
771.87	1077.54
772.19	1083.69
772.52	1082.94
772.85	1083.36
773.17	1084.35
773.50	1082.50
773.83	1075.76
774.15	1078.61
774.48	1076.39
774.81	1078.33
775.13	1078.26
775.46	1078.36
775.79	1075.83
776.11	1077.56
776.44	1074.54
776.77	1072.25
777.09	1075.10
777.42	1075.48
777.74	1073.84
778.07	1076.46
778.40	1077.28
778.72	1076.51
779.05	1073.07
779.37	1072.55
779.70	1071.43
780.03	1070.96
780.35	1068.41
780.68	1070.70
781.00	1073.04
781.33	1071.26
781.65	1072.88
781.98	1074.33
782.31	1075.87
782.63	1075.08
782.96	1077.28
783.28	1078.12
783.61	1079.27
783.93	1078.40
784.26	1076.72
784.58	1075.22
784.91	1075.20
785.23	1075.64
785.56	1073.35
785.88	1076.30
786.21	1077.23
786.53	1079.22
786.86	1079.17
787.18	1079.71
787.51	1076.95
787.83	1077.93
788.16	1078.45
788.48	1078.96
788.81	1083.62
789.13	1084.37
789.46	1083.50
789.78	1080.63
790.10	1078.59
790.43	1073.81
790.75	1073.93
791.08	1074.45
791.40	1076.95
791.73	1078.82
792.05	1081.23
792.37	1080.86
792.70	1080.74
793.02	1079.46
793.35	1076.30
793.67	1074.87
793.99	1079.15
794.32	1078.73
794.64	1078.21
794.96	1080.65
795.29	1081.77
795.61	1077.56
795.93	1076.86
796.26	1077.86
796.58	1076.01
796.91	1077.61
797.23	1077.56
797.55	1076.60
797.87	1073.86
798.20	1074.19
798.52	1071.64
798.84	1074.49
799.17	1076.60
799.49	1078.78
799.81	1081.19
800.14	1080.65
800.46	1080.95
800.78	1080.34
801.10	1079.78
801.43	1081.68
801.75	1082.94
802.07	1079.74
802.40	1082.19
802.72	1083.25
803.04	1078.31
803.36	1076.88
803.69	1077.11
804.01	1073.28
804.33	1071.71
804.65	1074.70
804.97	1074.91
805.30	1074.42
805.62	1072.34
805.94	1069.32
806.26	1070.00
806.58	1069.18
806.91	1067.45
807.23	1071.99
807.55	1074.12
807.87	1070.12
808.19	1073.88
808.52	1078.24
808.84	1076.51
809.16	1079.20
809.48	1082.33
809.80	1081.37
810.12	1077.54
810.44	1078.03
810.77	1078.50
811.09	1079.38
811.41	1078.75
811.73	1080.23
812.05	1080.41
812.37	1077.30
812.69	1072.97
813.01	1072.29
813.33	1074.98
813.66	1075.50
813.98	1073.56
814.30	1076.08
814.62	1075.71
814.94	1071.66
815.26	1070.00
815.58	1074.84
815.90	1072.25
816.22	1074.61
816.54	1076.81
816.86	1077.51
817.18	1077.79
817.50	1083.15
817.82	1083.18
818.14	1084.58
818.46	1086.87
818.78	1084.14
819.10	1081.75
819.42	1079.53
819.74	1077.96
820.06	1078.43
820.38	1079.01
820.70	1078.33
821.02	1078.26
821.34	1077.07
821.66	1074.00
821.98	1073.51
822.30	1077.44
822.62	1078.45
822.94	1080.37
823.26	1079.71
823.58	1079.62
823.90	1074.80
824.22	1073.98
824.54	1073.46
824.86	1073.39
825.18	1074.38
825.50	1076.20
825.81	1075.73
826.13	1077.00
826.45	1080.51
826.77	1084.32
827.09	1084.21
827.41	1085.07
827.73	1084.00
828.05	1079.29
828.36	1072.32
828.68	1070.26
829.00	1071.52
829.32	1070.05
829.64	1072.74
829.96	1074.24
830.28	1075.41
830.59	1074.21
830.91	1074.07
831.23	1073.56
831.55	1074.80
831.87	1077.16
832.19	1078.85
832.50	1081.49
832.82	1079.78
833.14	1078.94
833.46	1075.59
833.78	1072.62
834.09	1070.05
834.41	1074.28
834.73	1076.34
835.05	1078.36
835.36	1079.85
835.68	1081.87
836.00	1079.10
836.32	1078.33
836.63	1077.25
836.95	1076.13
837.27	1071.75
837.59	1067.49
837.90	1066.39
838.22	1065.72
838.54	1066.42
838.85	1070.68
839.17	1074.38
839.49	1076.27
839.80	1078.54
840.12	1077.61
840.44	1075.48
840.76	1075.43
841.07	1075.59
841.39	1072.83
841.71	1071.71
842.02	1072.32
842.34	1075.22
842.65	1072.20
842.97	1073.21
843.29	1075.50
843.60	1077.89
843.92	1076.53
844.24	1077.00
844.55	1077.79
844.87	1078.68
845.18	1078.21
845.50	1077.61
845.82	1076.53
846.13	1073.53
846.45	1071.82
846.76	1069.46
847.08	1070.87
847.40	1075.13
847.71	1080.93
848.03	1083.01
848.34	1084.28
848.66	1081.00
848.97	1078.87
849.29	1074.68
849.60	1071.94
849.92	1073.67
850.24	1075.24
850.55	1073.63
850.87	1074.21
851.18	1073.37
851.50	1071.52
851.81	1071.38
852.13	1072.67
852.44	1072.32
852.76	1075.59
853.07	1074.77
853.39	1075.34
853.70	1072.88
854.01	1073.60
854.33	1072.74
854.64	1074.21
854.96	1073.00
855.27	1075.62
855.59	1076.93
855.90	1074.33
856.22	1075.10
856.53	1078.24
856.84	1078.82
857.16	1079.71
857.47	1081.61
857.79	1077.14
858.10	1074.66
858.41	1073.86
858.73	1070.37
859.04	1072.74
859.36	1074.89
859.67	1075.83
859.98	1074.82
860.30	1073.09
860.61	1071.52
860.92	1071.92
861.24	1070.26
861.55	1072.32
861.87	1073.35
862.18	1075.59
862.49	1073.65
862.81	1076.39
863.12	1074.17
863.43	1077.16
863.74	1072.95
864.06	1073.67
864.37	1072.55
864.68	1075.10
865.00	1070.47
865.31	1071.01
865.62	1072.01
865.94	1072.34
866.25	1073.51
866.56	1077.51
866.87	1076.30
867.19	1077.33
867.50	1078.40
867.81	1076.13
868.12	1073.56
868.44	1075.90
868.75	1074.89
869.06	1071.50
869.37	1071.15
869.68	1073.16
870.00	1074.00
870.31	1074.17
870.62	1077.30
870.93	1078.00
871.24	1078.38
871.56	1074.68
871.87	1076.72
872.18	1075.97
872.49	1076.69
872.80	1074.84
873.12	1074.59
873.43	1069.98
873.74	1067.52
874.05	1064.52
874.36	1066.00
874.67	1063.61
874.98	1067.49
875.29	1069.55
875.61	1069.91
875.92	1067.87
876.23	1073.88
876.54	1074.35
876.85	1076.13
877.16	1077.16
877.47	1078.47
877.78	1076.62
878.09	1077.33
878.40	1075.76
878.72	1074.77
879.03	1077.44
879.34	1078.99
879.65	1075.52
879.96	1076.20
880.27	1076.37
880.58	1073.98
880.89	1072.11
881.20	1075.31
881.51	1073.81
881.82	1076.62
882.13	1076.39
882.44	1080.37
882.75	1080.11
883.06	1081.23
883.37	1081.02
883.68	1080.18
883.99	1077.30
884.30	1076.83
884.61	1075.87
884.92	1076.60
885.23	1076.93
885.54	1078.64
885.85	1076.58
886.16	1075.73
886.47	1072.78
886.78	1075.59
887.08	1075.99
887.39	1082.19
887.70	1082.29
888.01	1084.30
888.32	1083.76
888.63	1079.97
888.94	1072.36
889.25	1074.70
889.56	1071.94
889.87	1071.38
890.17	1073.23
890.48	1074.05
890.79	1071.43
891.10	1072.41
891.41	1070.82
891.72	1072.69
892.03	1072.53
892.34	1073.02
892.64	1073.72
892.95	1075.57
893.26	1071.68
893.57	1072.71
893.88	1071.22
894.18	1072.13
894.49	1071.08
894.80	1073.00
895.11	1071.10
895.42	1075.08
895.72	1073.07
896.03	1072.15
896.34	1072.78
896.65	1073.04
896.96	1073.81
897.26	1077.35
897.57	1080.88
897.88	1078.50
898.19	1081.77
898.49	1080.48
898.80	1081.51
899.11	1079.95
899.41	1082.12
899.72	1079.46
900.03	1077.44
900.34	1074.26
900.64	1075.41
900.95	1074.98
901.26	1075.97
901.56	1077.16
901.87	1077.86
902.18	1074.94
902.48	1075.03
902.79	1075.66
903.10	1075.20
903.40	1072.22
903.71	1074.75
904.02	1075.66
904.32	1077.11
904.63	1078.19
904.94	1079.22
905.24	1077.86
905.55	1076.62
905.85	1072.64
906.16	1068.24
906.47	1068.13
906.77	1071.61
907.08	1073.70
907.38	1077.61
907.69	1081.09
908.00	1082.90
908.30	1081.16
908.61	1081.40
908.91	1082.97
909.22	1080.60
909.52	1081.05
909.83	1080.81
910.14	1079.90
910.44	1080.20
910.75	1081.77
911.05	1081.44
911.36	1081.19
911.66	1083.22
911.97	1082.01
912.27	1080.34
912.58	1084.11
912.88	1082.57
913.19	1080.02
913.49	1079.08
913.80	1085.28
914.10	1082.40
914.41	1082.19
914.71	1083.27
915.01	1084.84
915.32	1080.23
915.62	1075.29
915.93	1075.08
916.23	1073.67
916.54	1068.85
916.84	1067.99
917.15	1072.67
917.45	1072.20
917.75	1069.51
918.06	1071.54
918.36	1070.19
918.67	1068.59
918.97	1070.33
919.27	1074.96
919.58	1076.55
919.88	1079.57
920.18	1077.82
920.49	1079.36
920.79	1075.83
921.10	1073.98
921.40	1074.84
921.70	1076.18
922.01	1071.97
922.31	1071.38
922.61	1074.00
922.92	1074.03
923.22	1074.00
923.52	1077.61
923.82	1079.08
924.13	1079.13
924.43	1078.00
924.73	1075.99
925.04	1071.38
925.34	1072.11
925.64	1069.60
925.94	1071.54
926.25	1072.29
926.55	1076.53
926.85	1076.81
927.15	1075.01
927.46	1073.28
927.76	1071.90
928.06	1072.95
928.36	1072.25
928.67	1075.48
928.97	1075.48
929.27	1078.45
929.57	1074.40
929.87	1075.80
930.18	1074.70
930.48	1075.55
930.78	1079.01
931.08	1080.88
931.38	1081.19
931.69	1081.19
931.99	1079.50
932.29	1076.65
932.59	1076.65
932.89	1077.51
933.19	1079.67
933.49	1081.70
933.80	1081.89
934.10	1081.02
934.40	1078.64
934.70	1079.64
935.00	1078.40
935.30	1078.87
935.60	1082.45
935.90	1085.31
936.20	1080.60
936.50	1079.01
936.81	1075.15
937.11	1071.40
937.41	1066.30
937.71	1066.23
938.01	1068.92
938.31	1071.29
938.61	1070.02
938.91	1072.88
939.21	1071.17
939.51	1068.83
939.81	1067.54
940.11	1071.78
940.41	1071.68
940.71	1074.54
941.01	1073.37
941.31	1075.73
941.61	1074.80
941.91	1074.24
942.21	1075.13
942.51	1076.46
942.81	1075.50
943.11	1074.84
943.41	1075.83
943.71	1075.20
944.01	1078.52
944.31	1080.27
944.61	1083.57
944.90	1082.19
945.20	1082.54
945.50	1082.90
945.80	1081.14
946.10	1072.90
946.40	1072.92
946.70	1073.67
947.00	1072.48
947.30	1074.59
947.60	1077.72
947.89	1081.21
948.19	1080.60
948.49	1078.71
948.79	1077.70
949.09	1075.03
949.39	1070.75
949.69	1070.42
949.98	1069.11
950.28	1066.39
950.58	1071.85
950.88	1072.27
951.18	1073.46
951.48	1076.93
951.77	1080.79
952.07	1077.18
952.37	1077.30
952.67	1076.65
952.97	1075.87
953.26	1072.43
953.56	1077.11
953.86	1076.53
954.16	1075.01
954.45	1072.06
954.75	1076.11
955.05	1072.64
955.35	1075.45
955.64	1075.31
955.94	1077.23
956.24	1075.94
956.54	1076.01
956.83	1074.77
957.13	1075.41
957.43	1074.26
957.72	1073.91
958.02	1073.86
958.32	1075.05
958.61	1076.04
958.91	1075.01
959.21	1071.54
959.50	1070.33
959.80	1066.44
960.10	1069.06
960.39	1071.87
960.69	1073.18
960.99	1078.24
961.28	1080.48
961.58	1075.94
961.87	1076.83
962.17	1078.10
962.47	1074.63
962.76	1073.44
963.06	1072.13
963.36	1068.81
963.65	1067.57
963.95	1070.54
964.24	1073.81
964.54	1078.96
964.83	1084.07
965.13	1084.00
965.42	1085.14
965.72	1082.83
966.02	1080.79
966.31	1079.81
966.61	1081.42
966.90	1077.14
967.20	1078.75
967.49	1077.07
967.79	1073.84
968.08	1074.66
968.38	1071.99
968.67	1068.76
968.97	1069.34
969.26	1071.01
969.56	1071.47
969.85	1073.35
970.15	1075.92
970.44	1073.74
970.74	1072.83
971.03	1071.01
971.32	1073.74
971.62	1074.42
971.91	1076.18
972.21	1078.94
972.50	1077.79
972.80	1078.14
973.09	1075.13
973.38	1075.92
973.68	1072.27
973.97	1073.04
974.27	1068.67
974.56	1068.95
974.85	1071.71
975.15	1073.56
975.44	1076.93
975.73	1081.30
976.03	1081.07
976.32	1076.74
976.61	1076.93
976.91	1073.65
977.20	1072.55
977.49	1074.91
977.79	1075.41
978.08	1073.67
978.37	1075.08
978.67	1075.36
978.96	1074.42
979.25	1074.73
979.55	1074.87
979.84	1072.32
980.13	1072.20
980.42	1072.83
980.72	1075.38
981.01	1074.61
981.30	1077.18
981.59	1075.52
981.89	1074.80
982.18	1073.44
982.47	1073.16
982.76	1071.66
983.06	1071.73
983.35	1072.55
983.64	1073.21
983.93	1075.76
984.22	1073.74
984.52	1074.12
984.81	1071.05
985.10	1069.55
985.39	1070.16
985.68	1073.39
985.97	1072.78
986.27	1075.22
986.56	1077.23
986.85	1074.49
987.14	1076.27
987.43	1077.63
987.72	1077.75
988.01	1077.37
988.31	1081.87
988.60	1080.41
988.89	1081.35
989.18	1082.08
989.47	1080.53
989.76	1077.51
990.05	1078.05
990.34	1077.02
990.63	1075.73
990.92	1078.00
991.21	1078.38
991.51	1079.38
991.80	1078.75
992.09	1074.00
992.38	1073.56
992.67	1073.91
992.96	1072.62
993.25	1070.84
993.54	1076.79
993.83	1075.45
994.12	1074.31
994.41	1071.45
994.70	1075.03
994.99	1076.23
995.28	1078.54
995.57	1078.26
995.86	1081.02
996.15	1078.31
996.44	1073.72
996.73	1069.13
997.02	1071.43
997.31	1071.33
997.59	1072.39
997.88	1074.33
998.17	1075.97
998.46	1072.88
998.75	1071.59
999.04	1071.92
999.33	1074.84
999.62	1077.30
999.91	1079.76
1000.20	1077.86
1000.49	1078.68
1000.77	1079.34
1001.06	1078.33
1001.35	1076.62
1001.64	1079.24
1001.93	1077.56
1002.22	1073.84
1002.51	1074.77
1002.79	1074.31
1003.08	1072.50
1003.37	1074.45
1003.66	1076.65
1003.95	1075.50
1004.23	1075.71
1004.52	1078.10
1004.81	1077.72
1005.10	1076.08
1005.39	1076.51
1005.67	1078.80
1005.96	1075.99
1006.25	1076.81
1006.54	1077.63
1006.83	1077.35
1007.11	1075.64
1007.40	1078.40
1007.69	1077.07
1007.97	1079.64
1008.26	1079.06
1008.55	1081.21
1008.84	1084.18
1009.12	1084.84
1009.41	1081.84
1009.70	1080.13
1009.98	1081.16
1010.27	1076.81
1010.56	1077.63
1010.85	1078.21
1011.13	1081.02
1011.42	1078.94
1011.71	1079.90
1011.99	1080.04
1012.28	1080.53
1012.56	1080.81
1012.85	1078.87
1013.14	1077.14
1013.42	1075.59
1013.71	1073.02
1014.00	1070.82
1014.28	1072.92
1014.57	1075.27
1014.85	1073.56
1015.14	1073.18
1015.43	1074.03
1015.71	1075.45
1016.00	1073.70
1016.28	1077.70
1016.57	1082.33
1016.85	1081.44
1017.14	1078.94
1017.43	1078.87
1017.71	1074.84
1018.00	1073.25
1018.28	1074.42
1018.57	1074.19
1018.85	1074.19
1019.14	1074.33
1019.42	1075.41
1019.71	1077.37
1019.99	1076.23
1020.28	1078.28
1020.56	1079.48
1020.85	1076.20
1021.13	1076.15
1021.42	1078.19
1021.70	1079.15
1021.99	1078.38
1022.27	1079.41
1022.55	1069.86
1022.84	1075.71
>>>>>End Processed Spectral Data<<<<<
