SpectraSuite Data File
++++++++++++++++++++++++++++++++++++
Date: Mon Aug 26 10:22:31 PDT 2019
User: corrico
Dark Spectrum Present: No
Reference Spectrum Present: No
Number of Sampled Component Spectra: 1
Spectrometers: USB2+H06089
Integration Time (usec): 2000 (USB2+H06089)
Spectra Averaged: 20 (USB2+H06089)
Boxcar Smoothing: 2 (USB2+H06089)
Correct for Electrical Dark: No (USB2+H06089)
Strobe/Lamp Enabled: No (USB2+H06089)
Correct for Detector Non-linearity: No (USB2+H06089)
Correct for Stray Light: No (USB2+H06089)
Number of Pixels in Processed Spectrum: 2048
>>>>>Begin Processed Spectral Data<<<<<
339.70	1024.80
340.07	1024.80
340.45	991.43
340.82	971.72
341.19	947.36
341.57	923.60
341.94	913.53
342.31	905.97
342.69	898.02
343.06	897.50
343.43	897.17
343.81	900.36
344.18	900.61
344.55	910.16
344.93	915.31
345.30	920.06
345.67	926.48
346.04	937.48
346.42	943.80
346.79	951.54
347.16	963.79
347.54	973.76
347.91	981.62
348.28	989.09
348.65	1000.09
349.03	1005.31
349.40	1014.48
349.77	1023.40
350.14	1030.82
350.52	1033.49
350.89	1038.36
351.26	1039.24
351.63	1041.56
352.01	1045.92
352.38	1050.99
352.75	1057.27
353.12	1063.75
353.50	1068.59
353.87	1070.44
354.24	1074.49
354.61	1076.32
354.98	1078.17
355.36	1079.99
355.73	1082.83
356.10	1083.55
356.47	1084.02
356.84	1083.46
357.22	1085.31
357.59	1084.16
357.96	1083.34
358.33	1083.50
358.70	1083.48
359.08	1082.66
359.45	1083.76
359.82	1083.74
360.19	1086.03
360.56	1085.38
360.94	1082.38
361.31	1082.12
361.68	1079.08
362.05	1073.72
362.42	1076.34
362.79	1076.95
363.16	1074.07
363.54	1077.47
363.91	1077.91
364.28	1077.00
364.65	1076.51
365.02	1078.82
365.39	1081.66
365.76	1081.56
366.14	1081.82
366.51	1083.36
366.88	1078.12
367.25	1072.64
367.62	1075.64
367.99	1076.23
368.36	1074.19
368.73	1081.07
369.10	1085.73
369.48	1084.74
369.85	1080.81
370.22	1080.04
370.59	1076.44
370.96	1073.04
371.33	1072.27
371.70	1074.38
372.07	1076.20
372.44	1077.84
372.81	1079.15
373.18	1081.49
373.55	1080.72
373.93	1080.60
374.30	1079.83
374.67	1080.86
375.04	1077.93
375.41	1074.91
375.78	1076.58
376.15	1076.65
376.52	1075.34
376.89	1075.41
377.26	1078.03
377.63	1075.69
378.00	1080.65
378.37	1080.44
378.74	1086.06
379.11	1088.61
379.48	1089.99
379.85	1085.26
380.22	1081.09
380.59	1074.14
380.96	1073.72
381.33	1073.53
381.70	1074.00
382.07	1078.10
382.44	1082.90
382.81	1081.37
383.18	1082.94
383.55	1083.43
383.92	1084.02
384.29	1083.20
384.66	1081.14
385.03	1078.14
385.40	1078.10
385.77	1077.86
386.14	1075.50
386.51	1076.53
386.88	1080.30
387.25	1080.53
387.62	1082.94
387.99	1087.86
388.36	1089.47
388.73	1087.20
389.10	1086.97
389.46	1083.22
389.83	1082.40
390.20	1081.58
390.57	1079.24
390.94	1081.61
391.31	1085.66
391.68	1083.64
392.05	1088.00
392.42	1090.67
392.79	1090.22
393.16	1086.08
393.53	1089.80
393.89	1086.41
394.26	1085.17
394.63	1083.01
395.00	1088.04
395.37	1085.26
395.74	1084.49
396.11	1086.10
396.48	1084.42
396.84	1081.33
397.21	1080.20
397.58	1081.98
397.95	1081.21
398.32	1082.24
398.69	1084.44
399.06	1082.24
399.42	1078.89
399.79	1079.48
400.16	1081.89
400.53	1080.74
400.90	1085.49
401.27	1088.33
401.64	1089.75
402.00	1090.50
402.37	1090.57
402.74	1088.58
403.11	1091.32
403.48	1092.47
403.84	1092.19
404.21	1093.73
404.58	1097.85
404.95	1097.55
405.32	1093.19
405.68	1091.46
406.05	1094.41
406.42	1091.46
406.79	1091.88
407.16	1095.93
407.52	1097.50
407.89	1097.73
408.26	1098.04
408.63	1096.66
408.99	1097.08
409.36	1096.96
409.73	1093.31
410.10	1091.65
410.47	1089.45
410.83	1087.93
411.20	1087.88
411.57	1090.29
411.94	1093.43
412.30	1095.51
412.67	1096.10
413.04	1096.63
413.40	1094.57
413.77	1093.69
414.14	1094.04
414.51	1093.90
414.87	1093.80
415.24	1095.49
415.61	1093.29
415.97	1095.14
416.34	1098.39
416.71	1101.48
417.08	1102.16
417.44	1107.38
417.81	1109.25
418.18	1106.07
418.54	1103.87
418.91	1102.21
419.28	1102.93
419.64	1101.99
420.01	1106.82
420.38	1110.33
420.74	1113.88
421.11	1114.02
421.48	1116.13
421.84	1118.78
422.21	1118.78
422.58	1118.73
422.94	1121.70
423.31	1124.02
423.68	1126.20
424.04	1131.65
424.41	1134.69
424.77	1134.74
425.14	1138.11
425.51	1140.80
425.87	1145.97
426.24	1152.18
426.61	1158.87
426.97	1165.73
427.34	1170.22
427.70	1174.46
428.07	1180.47
428.44	1184.38
428.80	1192.20
429.17	1203.39
429.53	1214.48
429.90	1227.35
430.27	1241.65
430.63	1249.61
431.00	1259.56
431.36	1270.70
431.73	1280.02
432.09	1292.54
432.46	1307.52
432.83	1323.83
433.19	1335.81
433.56	1354.98
433.92	1376.59
434.29	1397.21
434.65	1421.59
435.02	1449.12
435.38	1475.99
435.75	1500.77
436.11	1532.49
436.48	1559.57
436.84	1595.03
437.21	1630.86
437.57	1669.53
437.94	1710.70
438.30	1756.76
438.67	1801.63
439.03	1848.98
439.40	1901.52
439.76	1960.22
440.13	2020.26
440.49	2085.49
440.86	2157.32
441.22	2231.91
441.59	2302.62
441.95	2384.37
442.32	2470.06
442.68	2562.23
443.05	2654.03
443.41	2754.65
443.78	2852.88
444.14	2961.01
444.51	3076.80
444.87	3219.27
445.24	3360.87
445.60	3519.02
445.96	3673.52
446.33	3839.44
446.69	4003.49
447.06	4181.65
447.42	4356.88
447.79	4552.11
448.15	4780.05
448.51	5004.86
448.88	5275.31
449.24	5528.44
449.61	5808.20
449.97	6076.48
450.33	6368.71
450.70	6626.08
451.06	6956.49
451.43	7261.11
451.79	7625.35
452.15	8028.88
452.52	8477.44
452.88	8948.78
453.24	9486.52
453.61	10065.85
453.97	10630.90
454.34	11197.40
454.70	11850.30
455.06	12495.91
455.43	13123.64
455.79	13721.95
456.15	14438.65
456.52	15093.81
456.88	15863.78
457.24	16576.73
457.61	17450.59
457.97	18209.79
458.33	18977.86
458.70	19756.63
459.06	20531.60
459.42	21362.49
459.79	22145.73
460.15	23062.61
460.51	23916.55
460.88	24865.06
461.24	25663.93
461.60	26637.87
461.96	27528.96
462.33	28366.68
462.69	29142.50
463.05	29961.10
463.42	30665.44
463.78	31292.99
464.14	31840.27
464.50	32434.11
464.87	32931.38
465.23	33296.79
465.59	33630.10
465.95	33932.01
466.32	34201.45
466.68	34424.13
467.04	34548.13
467.40	34702.42
467.77	34858.35
468.13	34841.94
468.49	34742.42
468.85	34661.79
469.22	34482.43
469.58	34138.80
469.94	33873.26
470.30	33561.04
470.66	33155.26
471.03	32561.95
471.39	32180.10
471.75	31520.35
472.11	30913.42
472.47	30523.98
472.84	30208.73
473.20	29702.26
473.56	29434.62
473.92	29017.89
474.28	28525.26
474.65	28037.35
475.01	27577.22
475.37	27011.35
475.73	26545.12
476.09	26002.09
476.45	25457.91
476.81	24923.64
477.18	24398.28
477.54	23944.83
477.90	23604.21
478.26	23205.41
478.62	22876.70
478.98	22596.47
479.34	22268.11
479.71	21844.50
480.07	21499.30
480.43	21133.05
480.79	20723.50
481.15	20370.71
481.51	20077.65
481.87	19814.13
482.23	19534.16
482.59	19292.57
482.96	19022.77
483.32	18704.30
483.68	18332.95
484.04	17998.32
484.40	17617.33
484.76	17240.92
485.12	16891.32
485.48	16574.83
485.84	16203.58
486.20	15862.91
486.56	15492.29
486.92	15180.62
487.28	14830.76
487.64	14488.97
488.00	14156.75
488.37	13837.08
488.73	13459.51
489.09	13095.67
489.45	12771.98
489.81	12459.72
490.17	12158.50
490.53	11865.16
490.89	11564.63
491.25	11257.11
491.61	10950.08
491.97	10637.24
492.33	10313.17
492.69	10019.30
493.05	9717.11
493.41	9421.71
493.77	9137.92
494.13	8882.31
494.49	8635.55
494.85	8401.94
495.21	8172.78
495.57	7958.52
495.93	7754.73
496.29	7549.49
496.64	7366.46
497.00	7172.45
497.36	6978.54
497.72	6786.48
498.08	6604.22
498.44	6412.69
498.80	6248.53
499.16	6091.06
499.52	5943.63
499.88	5817.33
500.24	5707.09
500.60	5583.44
500.96	5467.40
501.32	5345.22
501.68	5221.43
502.03	5087.22
502.39	4959.13
502.75	4823.24
503.11	4695.77
503.47	4576.59
503.83	4454.09
504.19	4335.89
504.55	4229.70
504.91	4139.92
505.26	4041.66
505.62	3957.21
505.98	3869.70
506.34	3779.73
506.70	3688.64
507.06	3602.08
507.42	3518.29
507.78	3440.31
508.13	3363.98
508.49	3291.59
508.85	3224.30
509.21	3151.91
509.57	3081.01
509.93	3015.38
510.28	2948.42
510.64	2880.75
511.00	2822.33
511.36	2767.36
511.72	2715.63
512.07	2662.10
512.43	2613.89
512.79	2560.69
513.15	2514.13
513.51	2466.32
513.86	2423.20
514.22	2378.08
514.58	2338.03
514.94	2304.94
515.30	2272.52
515.65	2234.02
516.01	2203.90
516.37	2172.56
516.73	2137.21
517.08	2107.02
517.44	2081.98
517.80	2054.08
518.16	2031.44
518.51	2004.55
518.87	1973.59
519.23	1943.49
519.59	1917.95
519.94	1886.85
520.30	1863.25
520.66	1838.26
521.01	1812.60
521.37	1790.39
521.73	1773.70
522.09	1750.60
522.44	1732.46
522.80	1715.40
523.16	1691.27
523.51	1666.72
523.87	1649.07
524.23	1635.54
524.58	1614.55
524.94	1595.47
525.30	1578.27
525.65	1563.59
526.01	1543.33
526.37	1531.06
526.72	1520.25
527.08	1507.33
527.44	1496.63
527.79	1486.54
528.15	1473.65
528.51	1459.53
528.86	1448.09
529.22	1434.70
529.58	1420.38
529.93	1410.29
530.29	1403.81
530.65	1393.23
531.00	1381.85
531.36	1373.96
531.71	1363.64
532.07	1353.60
532.43	1346.21
532.78	1337.78
533.14	1327.58
533.49	1316.93
533.85	1311.19
534.21	1305.41
534.56	1299.89
534.92	1295.23
535.27	1292.07
535.63	1285.96
535.98	1281.21
536.34	1275.29
536.69	1270.19
537.05	1266.49
537.41	1263.16
537.76	1256.31
538.12	1249.40
538.47	1243.95
538.83	1238.87
539.18	1232.08
539.54	1225.50
539.89	1221.36
540.25	1220.29
540.60	1219.00
540.96	1216.38
541.31	1215.65
541.67	1214.06
542.02	1211.91
542.38	1205.84
542.73	1202.15
543.09	1200.23
543.44	1198.26
543.80	1189.88
544.15	1187.12
544.51	1184.22
544.86	1180.54
545.22	1175.00
545.57	1175.81
545.93	1178.37
546.28	1175.67
546.64	1174.27
546.99	1173.57
547.35	1171.32
547.70	1168.04
548.05	1164.49
548.41	1160.58
548.76	1157.39
549.12	1154.33
549.47	1150.70
549.83	1146.89
550.18	1143.54
550.53	1144.24
550.89	1146.09
551.24	1142.23
551.60	1144.94
551.95	1146.65
552.30	1145.58
552.66	1139.65
553.01	1139.40
553.37	1136.80
553.72	1135.00
554.07	1134.97
554.43	1133.87
554.78	1134.48
555.13	1133.71
555.49	1132.05
555.84	1129.05
556.19	1128.72
556.55	1123.62
556.90	1124.16
557.26	1123.29
557.61	1118.12
557.96	1119.03
558.32	1121.98
558.67	1122.03
559.02	1123.08
559.37	1125.68
559.73	1123.11
560.08	1117.86
560.43	1113.51
560.79	1112.15
561.14	1112.64
561.49	1110.56
561.85	1112.32
562.20	1112.85
562.55	1113.35
562.90	1111.66
563.26	1113.58
563.61	1111.78
563.96	1111.57
564.32	1106.72
564.67	1106.21
565.02	1103.91
565.37	1105.08
565.73	1105.25
566.08	1105.41
566.43	1102.79
566.78	1104.36
567.14	1107.82
567.49	1104.69
567.84	1104.50
568.19	1104.52
568.54	1104.41
568.90	1102.63
569.25	1101.62
569.60	1102.13
569.95	1101.95
570.31	1100.52
570.66	1097.24
571.01	1098.81
571.36	1097.34
571.71	1097.83
572.06	1096.63
572.42	1092.02
572.77	1093.22
573.12	1091.11
573.47	1093.64
573.82	1092.94
574.18	1097.10
574.53	1095.14
574.88	1100.05
575.23	1098.25
575.58	1100.31
575.93	1100.94
576.28	1098.18
576.64	1100.45
576.99	1100.03
577.34	1098.34
577.69	1098.09
578.04	1101.85
578.39	1096.87
578.74	1097.27
579.09	1096.87
579.44	1097.34
579.80	1096.49
580.15	1095.56
580.50	1096.24
580.85	1098.09
581.20	1097.17
581.55	1094.43
581.90	1090.43
582.25	1088.40
582.60	1086.92
582.95	1087.69
583.30	1086.50
583.65	1090.01
584.00	1089.92
584.35	1086.97
584.71	1087.44
585.06	1087.93
585.41	1087.02
585.76	1086.99
586.11	1087.18
586.46	1086.83
586.81	1088.58
587.16	1091.44
587.51	1092.91
587.86	1093.64
588.21	1092.05
588.56	1090.32
588.91	1089.64
589.26	1089.82
589.61	1091.25
589.96	1089.19
590.31	1091.58
590.66	1089.80
591.01	1088.79
591.36	1088.02
591.71	1087.55
592.06	1085.99
592.41	1088.37
592.76	1084.60
593.10	1086.41
593.45	1086.52
593.80	1089.94
594.15	1088.21
594.50	1091.74
594.85	1089.64
595.20	1090.99
595.55	1087.48
595.90	1085.82
596.25	1084.16
596.60	1083.93
596.95	1081.37
597.30	1081.51
597.64	1094.55
597.99	1098.25
598.34	1098.79
598.69	1100.87
599.04	1102.32
599.39	1090.57
599.74	1084.67
600.09	1085.35
600.44	1087.65
600.78	1087.09
601.13	1088.12
601.48	1091.37
601.83	1088.28
602.18	1089.24
602.53	1089.61
602.88	1086.66
603.22	1084.60
603.57	1085.68
603.92	1086.92
604.27	1086.92
604.62	1089.50
604.97	1090.74
605.31	1091.98
605.66	1083.53
606.01	1084.07
606.36	1085.19
606.71	1080.72
607.05	1082.10
607.40	1087.48
607.75	1085.99
608.10	1083.60
608.44	1086.71
608.79	1083.71
609.14	1084.58
609.49	1084.14
609.84	1086.20
610.18	1089.22
610.53	1090.27
610.88	1089.94
611.23	1091.63
611.57	1090.39
611.92	1089.64
612.27	1089.82
612.62	1086.76
612.96	1086.80
613.31	1087.81
613.66	1082.33
614.00	1082.69
614.35	1084.58
614.70	1082.94
615.05	1078.89
615.39	1083.25
615.74	1082.01
616.09	1080.91
616.43	1079.03
616.78	1082.94
617.13	1079.50
617.47	1079.36
617.82	1077.61
618.17	1079.69
618.51	1078.14
618.86	1083.79
619.21	1081.70
619.55	1084.60
619.90	1084.77
620.25	1085.49
620.59	1084.46
620.94	1087.67
621.29	1089.33
621.63	1088.47
621.98	1090.01
622.32	1087.88
622.67	1086.85
623.02	1083.88
623.36	1086.06
623.71	1083.43
624.05	1087.62
624.40	1087.62
624.75	1086.87
625.09	1084.60
625.44	1086.15
625.78	1078.26
626.13	1081.07
626.48	1081.96
626.82	1080.88
627.17	1076.25
627.51	1078.99
627.86	1075.71
628.20	1074.49
628.55	1077.72
628.89	1081.56
629.24	1082.50
629.58	1081.26
629.93	1080.23
630.28	1079.53
630.62	1079.43
630.97	1081.96
631.31	1081.23
631.66	1081.96
632.00	1078.73
632.35	1079.31
632.69	1078.31
633.04	1082.19
633.38	1085.33
633.73	1084.46
634.07	1082.76
634.42	1081.47
634.76	1080.44
635.11	1079.69
635.45	1081.23
635.79	1082.66
636.14	1084.42
636.48	1086.10
636.83	1086.43
637.17	1086.13
637.52	1084.77
637.86	1083.20
638.21	1081.37
638.55	1077.96
638.89	1079.95
639.24	1078.59
639.58	1079.60
639.93	1080.09
640.27	1080.70
640.61	1078.75
640.96	1080.63
641.30	1078.78
641.65	1080.20
641.99	1083.46
642.33	1081.94
642.68	1080.13
643.02	1081.63
643.37	1080.72
643.71	1078.12
644.05	1084.56
644.40	1085.89
644.74	1088.28
645.08	1084.28
645.43	1084.11
645.77	1082.10
646.11	1080.46
646.46	1075.45
646.80	1078.33
647.14	1080.27
647.49	1079.99
647.83	1084.60
648.17	1085.59
648.52	1084.18
648.86	1082.08
649.20	1080.86
649.55	1076.25
649.89	1078.73
650.23	1078.40
650.57	1084.23
650.92	1085.19
651.26	1085.75
651.60	1086.50
651.95	1088.82
652.29	1080.93
652.63	1079.88
652.97	1081.80
653.32	1077.86
653.66	1078.54
654.00	1082.54
654.34	1081.87
654.69	1081.30
655.03	1084.30
655.37	1085.00
655.71	1085.03
656.05	1085.66
656.40	1088.02
656.74	1088.37
657.08	1083.83
657.42	1080.95
657.76	1082.45
658.11	1081.33
658.45	1081.12
658.79	1082.45
659.13	1083.57
659.47	1081.96
659.82	1082.57
660.16	1080.34
660.50	1081.42
660.84	1081.91
661.18	1082.33
661.52	1082.17
661.87	1082.45
662.21	1083.01
662.55	1084.53
662.89	1084.39
663.23	1080.32
663.57	1081.49
663.91	1084.72
664.25	1085.10
664.60	1086.55
664.94	1088.77
665.28	1085.03
665.62	1083.27
665.96	1081.40
666.30	1081.87
666.64	1079.69
666.98	1083.95
667.32	1082.33
667.66	1082.73
668.01	1082.19
668.35	1084.89
668.69	1084.51
669.03	1084.72
669.37	1084.09
669.71	1081.96
670.05	1083.81
670.39	1083.43
670.73	1084.86
671.07	1083.60
671.41	1086.69
671.75	1088.30
672.09	1089.78
672.43	1090.74
672.77	1092.09
673.11	1088.77
673.45	1087.46
673.79	1084.04
674.13	1081.66
674.47	1084.60
674.81	1084.79
675.15	1083.71
675.49	1084.60
675.83	1082.38
676.17	1082.99
676.51	1085.56
676.85	1082.76
677.19	1081.63
677.53	1085.94
677.87	1082.52
678.21	1083.32
678.55	1084.72
678.89	1085.73
679.23	1084.56
679.57	1083.97
679.90	1082.90
680.24	1082.97
680.58	1084.21
680.92	1081.28
681.26	1082.33
681.60	1082.54
681.94	1080.63
682.28	1078.75
682.62	1080.23
682.96	1080.34
683.29	1080.32
683.63	1081.28
683.97	1083.69
684.31	1082.94
684.65	1083.04
684.99	1079.13
685.33	1079.20
685.67	1076.97
686.00	1076.32
686.34	1075.22
686.68	1081.44
687.02	1082.17
687.36	1082.01
687.70	1085.96
688.03	1085.91
688.37	1082.01
688.71	1081.33
689.05	1083.69
689.39	1079.64
689.72	1080.27
690.06	1083.41
690.40	1083.25
690.74	1082.26
691.08	1082.03
691.41	1083.97
691.75	1081.58
692.09	1081.14
692.43	1080.91
692.76	1085.45
693.10	1083.97
693.44	1085.40
693.78	1088.63
694.11	1087.97
694.45	1082.66
694.79	1079.85
695.13	1075.55
695.46	1073.09
695.80	1072.92
696.14	1075.45
696.48	1077.04
696.81	1079.95
697.15	1079.10
697.49	1080.02
697.82	1080.48
698.16	1081.82
698.50	1082.64
698.83	1081.75
699.17	1081.47
699.51	1080.63
699.84	1077.28
700.18	1071.64
700.52	1075.08
700.85	1074.10
701.19	1074.47
701.53	1077.93
701.86	1080.56
702.20	1077.56
702.54	1078.64
702.87	1077.07
703.21	1075.05
703.55	1075.20
703.88	1075.38
704.22	1074.87
704.55	1076.06
704.89	1078.87
705.23	1078.26
705.56	1079.01
705.90	1078.87
706.23	1081.07
706.57	1078.61
706.91	1082.66
707.24	1084.56
707.58	1085.14
707.91	1081.66
708.25	1080.18
708.58	1078.78
708.92	1077.30
709.26	1079.01
709.59	1080.81
709.93	1082.99
710.26	1078.47
710.60	1079.81
710.93	1078.45
711.27	1077.04
711.60	1075.34
711.94	1077.14
712.27	1074.94
712.61	1075.71
712.94	1075.83
713.28	1077.37
713.61	1078.78
713.95	1079.99
714.28	1079.83
714.62	1081.87
714.95	1084.35
715.29	1084.63
715.62	1084.67
715.96	1081.42
716.29	1080.98
716.63	1078.80
716.96	1079.62
717.29	1079.22
717.63	1082.73
717.96	1082.10
718.30	1081.02
718.63	1079.10
718.97	1080.88
719.30	1078.59
719.63	1074.98
719.97	1079.48
720.30	1083.01
720.64	1080.65
720.97	1083.18
721.30	1086.55
721.64	1082.80
721.97	1079.83
722.31	1082.05
722.64	1081.89
722.97	1082.01
723.31	1083.60
723.64	1086.52
723.97	1086.34
724.31	1082.54
724.64	1079.78
724.98	1078.54
725.31	1074.94
725.64	1070.61
725.98	1072.18
726.31	1074.96
726.64	1075.78
726.97	1079.71
727.31	1085.19
727.64	1082.05
727.97	1079.46
728.31	1079.99
728.64	1076.65
728.97	1072.18
729.31	1076.62
729.64	1077.33
729.97	1075.27
730.30	1076.01
730.64	1076.39
730.97	1075.66
731.30	1075.71
731.63	1076.23
731.97	1073.72
732.30	1075.10
732.63	1075.76
732.96	1078.52
733.30	1080.84
733.63	1083.76
733.96	1083.39
734.29	1083.18
734.63	1083.41
734.96	1083.34
735.29	1084.91
735.62	1087.06
735.95	1089.78
736.29	1091.67
736.62	1091.74
736.95	1090.53
737.28	1091.51
737.61	1089.03
737.94	1087.34
738.28	1084.25
738.61	1084.84
738.94	1083.04
739.27	1080.58
739.60	1079.31
739.93	1079.53
740.27	1080.18
740.60	1079.78
740.93	1083.71
741.26	1084.58
741.59	1089.43
741.92	1086.43
742.25	1084.02
742.58	1083.53
742.91	1079.90
743.25	1075.01
743.58	1077.09
743.91	1081.02
744.24	1076.76
744.57	1078.36
744.90	1078.14
745.23	1078.64
745.56	1077.82
745.89	1080.88
746.22	1083.25
746.55	1086.97
746.88	1084.98
747.21	1086.24
747.54	1084.21
747.87	1082.87
748.20	1078.21
748.53	1075.85
748.87	1074.96
749.20	1076.48
749.53	1075.45
749.86	1076.27
750.19	1076.51
750.52	1074.21
750.85	1074.03
751.18	1075.08
751.51	1077.51
751.84	1081.05
752.16	1081.33
752.49	1081.49
752.82	1081.14
753.15	1079.81
753.48	1080.67
753.81	1083.32
754.14	1082.87
754.47	1082.92
754.80	1082.24
755.13	1079.88
755.46	1078.92
755.79	1078.45
756.12	1077.40
756.45	1077.65
756.78	1078.43
757.11	1077.02
757.43	1078.28
757.76	1078.78
758.09	1078.50
758.42	1076.83
758.75	1076.81
759.08	1076.60
759.41	1078.99
759.74	1082.24
760.07	1087.04
760.39	1087.02
760.72	1088.04
761.05	1083.97
761.38	1081.37
761.71	1078.40
762.04	1079.36
762.36	1078.75
762.69	1082.94
763.02	1086.03
763.35	1087.51
763.68	1085.49
764.01	1081.42
764.33	1079.50
764.66	1076.13
764.99	1075.22
765.32	1075.41
765.65	1082.73
765.97	1082.29
766.30	1083.39
766.63	1081.61
766.96	1081.82
767.28	1078.03
767.61	1074.70
767.94	1073.67
768.27	1073.95
768.59	1071.36
768.92	1071.10
769.25	1076.74
769.58	1080.18
769.90	1080.93
770.23	1085.31
770.56	1087.04
770.89	1084.72
771.21	1081.07
771.54	1081.91
771.87	1078.82
772.19	1077.00
772.52	1080.65
772.85	1081.96
773.17	1083.13
773.50	1084.28
773.83	1084.53
774.15	1082.61
774.48	1080.30
774.81	1077.77
775.13	1079.69
775.46	1078.59
775.79	1076.74
776.11	1077.23
776.44	1075.50
776.77	1074.49
777.09	1075.71
777.42	1076.65
777.74	1079.64
778.07	1081.94
778.40	1083.06
778.72	1082.05
779.05	1080.48
779.37	1076.41
779.70	1075.78
780.03	1073.30
780.35	1071.43
780.68	1074.03
781.00	1074.77
781.33	1075.69
781.65	1079.95
781.98	1085.33
782.31	1086.50
782.63	1086.92
782.96	1086.45
783.28	1081.02
783.61	1078.28
783.93	1075.64
784.26	1074.42
784.58	1073.60
784.91	1076.93
785.23	1078.68
785.56	1077.37
785.88	1079.34
786.21	1076.83
786.53	1078.61
786.86	1077.37
787.18	1080.58
787.51	1081.30
787.83	1083.41
788.16	1078.33
788.48	1077.33
788.81	1075.41
789.13	1075.01
789.46	1077.79
789.78	1081.51
790.10	1083.15
790.43	1082.43
790.75	1080.70
791.08	1078.78
791.40	1075.62
791.73	1073.46
792.05	1072.15
792.37	1073.21
792.70	1074.00
793.02	1076.55
793.35	1080.46
793.67	1081.75
793.99	1082.71
794.32	1081.09
794.64	1081.70
794.96	1078.92
795.29	1077.58
795.61	1075.99
795.93	1078.57
796.26	1077.86
796.58	1079.06
796.91	1080.44
797.23	1081.84
797.55	1078.61
797.87	1078.54
798.20	1077.00
798.52	1079.38
798.84	1077.77
799.17	1076.76
799.49	1076.53
799.81	1075.52
800.14	1074.40
800.46	1074.17
800.78	1077.02
801.10	1075.24
801.43	1076.76
801.75	1075.97
802.07	1077.58
802.40	1077.72
802.72	1079.50
803.04	1078.07
803.36	1078.96
803.69	1081.23
804.01	1081.84
804.33	1078.85
804.65	1080.27
804.97	1076.79
805.30	1071.66
805.62	1068.76
805.94	1072.06
806.26	1068.64
806.58	1069.46
806.91	1072.11
807.23	1076.90
807.55	1077.37
807.87	1082.87
808.19	1086.43
808.52	1086.10
808.84	1082.85
809.16	1082.33
809.48	1077.84
809.80	1075.64
810.12	1076.69
810.44	1073.84
810.77	1072.60
811.09	1076.97
811.41	1078.96
811.73	1078.50
812.05	1080.56
812.37	1082.08
812.69	1080.67
813.01	1080.53
813.33	1078.03
813.66	1078.85
813.98	1078.80
814.30	1080.32
814.62	1080.34
814.94	1080.79
815.26	1082.94
815.58	1081.44
815.90	1079.60
816.22	1076.39
816.54	1077.72
816.86	1077.33
817.18	1078.66
817.50	1078.52
817.82	1079.67
818.14	1080.41
818.46	1079.27
818.78	1079.69
819.10	1079.41
819.42	1081.02
819.74	1081.68
820.06	1080.34
820.38	1078.73
820.70	1077.23
821.02	1076.83
821.34	1078.50
821.66	1080.18
821.98	1080.74
822.30	1084.79
822.62	1084.28
822.94	1079.85
823.26	1077.96
823.58	1076.86
823.90	1076.95
824.22	1078.31
824.54	1079.60
824.86	1079.67
825.18	1082.08
825.50	1080.88
825.81	1078.68
826.13	1082.01
826.45	1085.19
826.77	1085.10
827.09	1084.39
827.41	1085.21
827.73	1081.26
828.05	1079.06
828.36	1082.40
828.68	1081.89
829.00	1082.19
829.32	1084.67
829.64	1085.99
829.96	1081.16
830.28	1081.30
830.59	1079.01
830.91	1078.33
831.23	1075.03
831.55	1073.93
831.87	1074.00
832.19	1076.11
832.50	1076.37
832.82	1078.78
833.14	1080.04
833.46	1077.61
833.78	1078.73
834.09	1077.56
834.41	1079.03
834.73	1078.85
835.05	1081.73
835.36	1081.89
835.68	1081.40
836.00	1079.74
836.32	1081.58
836.63	1080.51
836.95	1080.91
837.27	1081.09
837.59	1082.08
837.90	1081.35
838.22	1079.36
838.54	1077.18
838.85	1080.44
839.17	1079.06
839.49	1077.40
839.80	1081.26
840.12	1080.84
840.44	1079.81
840.76	1081.56
841.07	1079.78
841.39	1080.65
841.71	1080.72
842.02	1079.48
842.34	1076.79
842.65	1080.11
842.97	1074.94
843.29	1074.54
843.60	1075.57
843.92	1074.12
844.24	1072.85
844.55	1076.90
844.87	1076.67
845.18	1078.82
845.50	1080.58
845.82	1082.38
846.13	1082.94
846.45	1083.25
846.76	1079.15
847.08	1080.39
847.40	1076.41
847.71	1075.24
848.03	1076.69
848.34	1075.76
848.66	1076.11
848.97	1078.21
849.29	1075.73
849.60	1075.22
849.92	1076.76
850.24	1075.78
850.55	1076.48
850.87	1077.89
851.18	1078.87
851.50	1078.26
851.81	1077.96
852.13	1078.26
852.44	1079.85
852.76	1079.81
853.07	1082.54
853.39	1083.64
853.70	1080.23
854.01	1079.17
854.33	1078.80
854.64	1074.35
854.96	1074.98
855.27	1074.35
855.59	1074.12
855.90	1074.54
856.22	1076.11
856.53	1075.92
856.84	1083.11
857.16	1081.91
857.47	1080.37
857.79	1077.47
858.10	1076.86
858.41	1073.72
858.73	1074.12
859.04	1070.16
859.36	1073.46
859.67	1075.59
859.98	1077.44
860.30	1078.80
860.61	1080.09
860.92	1080.02
861.24	1077.82
861.55	1074.94
861.87	1071.68
862.18	1073.25
862.49	1071.57
862.81	1068.64
863.12	1067.52
863.43	1070.35
863.74	1070.82
864.06	1070.35
864.37	1070.51
864.68	1072.29
865.00	1071.99
865.31	1074.56
865.62	1079.43
865.94	1084.28
866.25	1086.24
866.56	1086.64
866.87	1086.50
867.19	1083.46
867.50	1080.09
867.81	1077.84
868.12	1078.36
868.44	1077.56
868.75	1077.09
869.06	1078.38
869.37	1079.69
869.68	1078.75
870.00	1079.97
870.31	1081.16
870.62	1083.67
870.93	1081.82
871.24	1084.11
871.56	1080.95
871.87	1079.60
872.18	1076.44
872.49	1075.03
872.80	1073.65
873.12	1076.30
873.43	1077.44
873.74	1077.79
874.05	1080.27
874.36	1081.12
874.67	1079.99
874.98	1080.04
875.29	1082.24
875.61	1083.97
875.92	1081.94
876.23	1082.43
876.54	1085.00
876.85	1084.53
877.16	1082.45
877.47	1084.91
877.78	1084.70
878.09	1081.58
878.40	1078.96
878.72	1081.70
879.03	1080.37
879.34	1082.15
879.65	1078.85
879.96	1078.71
880.27	1072.95
880.58	1074.98
880.89	1073.98
881.20	1078.85
881.51	1079.46
881.82	1082.45
882.13	1078.96
882.44	1077.21
882.75	1076.65
883.06	1077.61
883.37	1076.20
883.68	1077.40
883.99	1075.48
884.30	1075.38
884.61	1074.96
884.92	1072.39
885.23	1070.07
885.54	1071.03
885.85	1071.01
886.16	1071.97
886.47	1074.91
886.78	1077.35
887.08	1075.78
887.39	1076.46
887.70	1075.59
888.01	1076.69
888.32	1075.03
888.63	1079.24
888.94	1080.56
889.25	1078.59
889.56	1077.89
889.87	1078.19
890.17	1077.58
890.48	1075.13
890.79	1075.15
891.10	1075.71
891.41	1075.69
891.72	1075.57
892.03	1076.72
892.34	1076.30
892.64	1078.96
892.95	1079.22
893.26	1079.85
893.57	1081.21
893.88	1083.95
894.18	1081.21
894.49	1079.29
894.80	1079.15
895.11	1077.47
895.42	1075.48
895.72	1076.88
896.03	1080.51
896.34	1081.68
896.65	1081.63
896.96	1084.51
897.26	1082.26
897.57	1079.92
897.88	1078.21
898.19	1078.92
898.49	1076.58
898.80	1079.08
899.11	1078.40
899.41	1080.23
899.72	1082.92
900.03	1083.81
900.34	1079.97
900.64	1083.39
900.95	1085.63
901.26	1081.89
901.56	1079.31
901.87	1080.44
902.18	1081.70
902.48	1077.98
902.79	1077.33
903.10	1078.54
903.40	1080.95
903.71	1075.36
904.02	1071.36
904.32	1072.27
904.63	1071.82
904.94	1071.36
905.24	1076.53
905.55	1080.41
905.85	1081.37
906.16	1082.99
906.47	1082.01
906.77	1079.97
907.08	1082.73
907.38	1081.70
907.69	1084.42
908.00	1084.16
908.30	1082.47
908.61	1075.73
908.91	1076.86
909.22	1075.31
909.52	1077.00
909.83	1078.05
910.14	1081.68
910.44	1078.80
910.75	1076.67
911.05	1076.04
911.36	1076.83
911.66	1076.97
911.97	1077.91
912.27	1080.39
912.58	1077.77
912.88	1077.68
913.19	1078.57
913.49	1081.37
913.80	1078.59
914.10	1083.04
914.41	1078.50
914.71	1076.39
915.01	1072.97
915.32	1073.79
915.62	1072.92
915.93	1076.32
916.23	1077.04
916.54	1079.88
916.84	1080.93
917.15	1077.72
917.45	1077.75
917.75	1078.36
918.06	1075.92
918.36	1074.70
918.67	1076.95
918.97	1078.64
919.27	1080.46
919.58	1079.46
919.88	1080.70
920.18	1080.63
920.49	1079.27
920.79	1078.05
921.10	1077.77
921.40	1078.00
921.70	1074.98
922.01	1071.59
922.31	1070.49
922.61	1072.53
922.92	1070.23
923.22	1073.79
923.52	1079.41
923.82	1079.29
924.13	1078.00
924.43	1076.62
924.73	1077.37
925.04	1077.23
925.34	1075.76
925.64	1075.41
925.94	1077.91
926.25	1074.45
926.55	1073.44
926.85	1074.89
927.15	1073.02
927.46	1073.46
927.76	1073.00
928.06	1072.13
928.36	1074.03
928.67	1076.30
928.97	1074.14
929.27	1074.98
929.57	1076.25
929.87	1076.04
930.18	1077.51
930.48	1079.03
930.78	1079.81
931.08	1077.42
931.38	1074.87
931.69	1075.90
931.99	1079.38
932.29	1077.77
932.59	1081.16
932.89	1081.94
933.19	1080.58
933.49	1076.65
933.80	1081.56
934.10	1079.46
934.40	1079.99
934.70	1080.58
935.00	1084.30
935.30	1083.11
935.60	1082.52
935.90	1082.33
936.20	1079.36
936.50	1079.20
936.81	1079.46
937.11	1081.56
937.41	1083.50
937.71	1086.50
938.01	1081.30
938.31	1081.80
938.61	1078.64
938.91	1075.92
939.21	1074.94
939.51	1078.52
939.81	1075.01
940.11	1075.97
940.41	1073.58
940.71	1071.12
941.01	1068.62
941.31	1069.60
941.61	1070.23
941.91	1074.35
942.21	1078.07
942.51	1080.84
942.81	1082.01
943.11	1081.07
943.41	1080.11
943.71	1077.82
944.01	1077.02
944.31	1076.93
944.61	1079.88
944.90	1078.85
945.20	1080.27
945.50	1077.14
945.80	1077.07
946.10	1075.03
946.40	1071.36
946.70	1069.20
947.00	1071.71
947.30	1072.27
947.60	1070.96
947.89	1077.40
948.19	1081.14
948.49	1083.53
948.79	1082.12
949.09	1085.07
949.39	1084.53
949.69	1082.61
949.98	1079.22
950.28	1078.61
950.58	1074.38
950.88	1074.96
951.18	1075.05
951.48	1078.45
951.77	1080.86
952.07	1083.64
952.37	1080.20
952.67	1080.37
952.97	1077.47
953.26	1076.15
953.56	1076.39
953.86	1074.96
954.16	1075.85
954.45	1074.96
954.75	1076.04
955.05	1077.61
955.35	1082.64
955.64	1080.51
955.94	1084.84
956.24	1084.18
956.54	1081.91
956.83	1080.60
957.13	1080.20
957.43	1078.40
957.72	1077.65
958.02	1079.85
958.32	1080.98
958.61	1080.37
958.91	1079.74
959.21	1075.92
959.50	1072.48
959.80	1070.80
960.10	1073.65
960.39	1073.49
960.69	1077.37
960.99	1077.09
961.28	1076.04
961.58	1074.47
961.87	1075.87
962.17	1076.39
962.47	1078.00
962.76	1078.73
963.06	1081.87
963.36	1082.19
963.65	1080.04
963.95	1079.29
964.24	1077.79
964.54	1078.50
964.83	1073.91
965.13	1074.70
965.42	1075.43
965.72	1076.74
966.02	1073.44
966.31	1077.98
966.61	1080.44
966.90	1081.30
967.20	1080.93
967.49	1083.04
967.79	1083.15
968.08	1080.86
968.38	1080.41
968.67	1084.02
968.97	1085.10
969.26	1082.03
969.56	1081.16
969.85	1081.63
970.15	1080.32
970.44	1078.36
970.74	1079.97
971.03	1080.95
971.32	1079.99
971.62	1079.15
971.91	1076.90
972.21	1077.07
972.50	1078.78
972.80	1079.88
973.09	1079.29
973.38	1081.42
973.68	1079.78
973.97	1078.24
974.27	1078.66
974.56	1079.17
974.85	1079.60
975.15	1081.19
975.44	1079.29
975.73	1076.06
976.03	1076.01
976.32	1074.98
976.61	1074.59
976.91	1076.30
977.20	1078.54
977.49	1078.03
977.79	1077.65
978.08	1081.84
978.37	1080.44
978.67	1079.22
978.96	1077.23
979.25	1076.74
979.55	1073.00
979.84	1072.55
980.13	1075.78
980.42	1078.75
980.72	1079.46
981.01	1079.76
981.30	1085.07
981.59	1083.50
981.89	1081.14
982.18	1080.48
982.47	1081.89
982.76	1080.04
983.06	1079.15
983.35	1079.85
983.64	1079.85
983.93	1076.60
984.22	1072.43
984.52	1071.43
984.81	1071.61
985.10	1073.65
985.39	1075.03
985.68	1074.38
985.97	1073.91
986.27	1074.80
986.56	1073.95
986.85	1073.21
987.14	1079.27
987.43	1080.53
987.72	1078.61
988.01	1078.19
988.31	1076.44
988.60	1073.77
988.89	1072.71
989.18	1073.09
989.47	1073.74
989.76	1074.40
990.05	1073.18
990.34	1075.05
990.63	1078.10
990.92	1078.61
991.21	1080.65
991.51	1083.18
991.80	1082.15
992.09	1079.48
992.38	1078.68
992.67	1080.09
992.96	1079.85
993.25	1080.88
993.54	1083.11
993.83	1082.57
994.12	1080.53
994.41	1079.24
994.70	1077.96
994.99	1079.27
995.28	1079.43
995.57	1080.58
995.86	1078.47
996.15	1078.78
996.44	1077.00
996.73	1076.72
997.02	1074.98
997.31	1076.27
997.59	1076.01
997.88	1075.94
998.17	1074.94
998.46	1074.77
998.75	1074.10
999.04	1075.99
999.33	1077.47
999.62	1078.73
999.91	1079.90
1000.20	1078.05
1000.49	1078.17
1000.77	1072.22
1001.06	1069.27
1001.35	1070.58
1001.64	1072.22
1001.93	1070.05
1002.22	1072.64
1002.51	1075.69
1002.79	1074.96
1003.08	1076.20
1003.37	1077.09
1003.66	1078.36
1003.95	1078.05
1004.23	1077.63
1004.52	1077.91
1004.81	1077.58
1005.10	1077.63
1005.39	1074.35
1005.67	1074.49
1005.96	1073.09
1006.25	1075.87
1006.54	1074.24
1006.83	1075.13
1007.11	1071.75
1007.40	1073.65
1007.69	1071.17
1007.97	1073.16
1008.26	1079.34
1008.55	1078.80
1008.84	1079.83
1009.12	1080.27
1009.41	1080.67
1009.70	1074.68
1009.98	1077.89
1010.27	1075.55
1010.56	1074.98
1010.85	1073.42
1011.13	1076.41
1011.42	1073.93
1011.71	1073.44
1011.99	1076.15
1012.28	1074.68
1012.56	1074.33
1012.85	1076.69
1013.14	1081.42
1013.42	1079.17
1013.71	1083.79
1014.00	1082.61
1014.28	1082.24
1014.57	1077.25
1014.85	1076.15
1015.14	1072.36
1015.43	1073.21
1015.71	1072.76
1016.00	1075.50
1016.28	1071.54
1016.57	1070.12
1016.85	1069.95
1017.14	1070.63
1017.43	1072.32
1017.71	1075.94
1018.00	1077.70
1018.28	1078.99
1018.57	1077.75
1018.85	1074.61
1019.14	1077.40
1019.42	1079.81
1019.71	1080.46
1019.99	1084.35
1020.28	1086.15
1020.56	1082.78
1020.85	1079.74
1021.13	1076.74
1021.42	1078.50
1021.70	1081.58
1021.99	1081.51
1022.27	1081.98
1022.55	1068.57
1022.84	1072.90
>>>>>End Processed Spectral Data<<<<<
