SpectraSuite Data File
++++++++++++++++++++++++++++++++++++
Date: Mon Aug 26 10:22:01 PDT 2019
User: corrico
Dark Spectrum Present: No
Reference Spectrum Present: No
Number of Sampled Component Spectra: 1
Spectrometers: USB2+H06089
Integration Time (usec): 2000 (USB2+H06089)
Spectra Averaged: 20 (USB2+H06089)
Boxcar Smoothing: 2 (USB2+H06089)
Correct for Electrical Dark: No (USB2+H06089)
Strobe/Lamp Enabled: No (USB2+H06089)
Correct for Detector Non-linearity: No (USB2+H06089)
Correct for Stray Light: No (USB2+H06089)
Number of Pixels in Processed Spectrum: 2048
>>>>>Begin Processed Spectral Data<<<<<
339.70	1025.39
340.07	1025.39
340.45	994.21
340.82	972.16
341.19	948.95
341.57	922.52
341.94	908.69
342.31	899.07
342.69	894.13
343.06	890.92
343.43	890.50
343.81	892.87
344.18	894.60
344.55	899.80
344.93	904.48
345.30	910.63
345.67	919.78
346.04	928.14
346.42	936.12
346.79	944.27
347.16	956.41
347.54	964.14
347.91	971.98
348.28	977.29
348.65	986.23
349.03	995.01
349.40	1006.17
349.77	1015.70
350.14	1026.47
350.52	1035.17
350.89	1042.36
351.26	1045.21
351.63	1048.75
352.01	1057.78
352.38	1064.76
352.75	1064.57
353.12	1068.59
353.50	1073.65
353.87	1072.36
354.24	1072.81
354.61	1076.67
354.98	1078.71
355.36	1080.74
355.73	1081.21
356.10	1081.26
356.47	1079.67
356.84	1080.32
357.22	1079.85
357.59	1079.53
357.96	1078.85
358.33	1079.36
358.70	1079.22
359.08	1077.40
359.45	1077.72
359.82	1077.79
360.19	1078.17
360.56	1076.48
360.94	1078.21
361.31	1078.14
361.68	1076.60
362.05	1076.11
362.42	1079.15
362.79	1078.75
363.16	1076.95
363.54	1078.33
363.91	1077.07
364.28	1073.37
364.65	1070.51
365.02	1071.94
365.39	1070.98
365.76	1071.59
366.14	1070.21
366.51	1071.40
366.88	1068.08
367.25	1066.56
367.62	1067.94
367.99	1071.01
368.36	1069.51
368.73	1074.59
369.10	1074.91
369.48	1075.55
369.85	1076.15
370.22	1079.90
370.59	1077.91
370.96	1082.61
371.33	1085.52
371.70	1084.23
372.07	1080.46
372.44	1079.31
372.81	1074.38
373.18	1070.98
373.55	1070.12
373.93	1070.14
374.30	1068.83
374.67	1072.13
375.04	1071.50
375.41	1072.32
375.78	1074.19
376.15	1076.58
376.52	1074.80
376.89	1075.87
377.26	1076.72
377.63	1075.03
378.00	1075.76
378.37	1072.22
378.74	1071.22
379.11	1070.77
379.48	1074.28
379.85	1073.63
380.22	1076.62
380.59	1078.17
380.96	1078.82
381.33	1075.31
381.70	1075.87
382.07	1079.24
382.44	1076.62
382.81	1073.81
383.18	1075.76
383.55	1076.32
383.92	1076.13
384.29	1078.47
384.66	1080.98
385.03	1083.39
385.40	1087.95
385.77	1084.51
386.14	1087.93
386.51	1087.62
386.88	1087.23
387.25	1083.39
387.62	1083.13
387.99	1081.26
388.36	1080.56
388.73	1077.68
389.10	1075.22
389.46	1078.43
389.83	1077.58
390.20	1079.43
390.57	1078.57
390.94	1081.44
391.31	1082.19
391.68	1079.81
392.05	1079.97
392.42	1084.35
392.79	1084.60
393.16	1084.04
393.53	1085.94
393.89	1084.44
394.26	1082.59
394.63	1081.73
395.00	1078.64
395.37	1076.32
395.74	1075.55
396.11	1075.29
396.48	1075.87
396.84	1078.43
397.21	1083.90
397.58	1087.72
397.95	1090.71
398.32	1091.74
398.69	1091.86
399.06	1088.61
399.42	1088.14
399.79	1087.41
400.16	1087.51
400.53	1088.30
400.90	1088.35
401.27	1087.18
401.64	1087.76
402.00	1087.04
402.37	1085.61
402.74	1083.46
403.11	1082.78
403.48	1078.50
403.84	1077.89
404.21	1081.23
404.58	1084.84
404.95	1084.77
405.32	1085.75
405.68	1085.68
406.05	1083.81
406.42	1084.11
406.79	1086.22
407.16	1088.82
407.52	1089.99
407.89	1090.71
408.26	1089.92
408.63	1090.20
408.99	1091.88
409.36	1093.08
409.73	1093.90
410.10	1093.73
410.47	1093.76
410.83	1094.13
411.20	1093.45
411.57	1090.97
411.94	1092.52
412.30	1092.47
412.67	1090.34
413.04	1091.93
413.40	1094.93
413.77	1095.04
414.14	1097.97
414.51	1100.26
414.87	1099.02
415.24	1099.02
415.61	1097.73
415.97	1097.52
416.34	1096.54
416.71	1099.35
417.08	1101.39
417.44	1103.19
417.81	1102.67
418.18	1106.18
418.54	1104.83
418.91	1103.00
419.28	1104.78
419.64	1107.21
420.01	1108.03
420.38	1109.95
420.74	1114.94
421.11	1117.63
421.48	1116.53
421.84	1116.30
422.21	1118.00
422.58	1118.45
422.94	1119.29
423.31	1124.32
423.68	1124.56
424.04	1125.05
424.41	1125.89
424.77	1130.95
425.14	1130.99
425.51	1135.28
425.87	1140.22
426.24	1143.45
426.61	1147.61
426.97	1153.49
427.34	1161.68
427.70	1166.43
428.07	1173.92
428.44	1176.59
428.80	1181.64
429.17	1185.72
429.53	1194.00
429.90	1202.85
430.27	1215.60
430.63	1224.22
431.00	1236.22
431.36	1248.98
431.73	1259.75
432.09	1267.63
432.46	1283.25
432.83	1298.13
433.19	1313.72
433.56	1330.10
433.92	1350.70
434.29	1372.19
434.65	1393.81
435.02	1415.98
435.38	1440.13
435.75	1461.66
436.11	1488.18
436.48	1521.82
436.84	1553.91
437.21	1588.05
437.57	1624.66
437.94	1661.97
438.30	1694.50
438.67	1735.20
439.03	1779.60
439.40	1833.44
439.76	1882.94
440.13	1940.44
440.49	1999.92
440.86	2059.41
441.22	2122.33
441.59	2195.26
441.95	2274.32
442.32	2349.78
442.68	2436.66
443.05	2526.37
443.41	2616.37
443.78	2713.01
444.14	2818.47
444.51	2925.34
444.87	3047.47
445.24	3165.43
445.60	3293.18
445.96	3420.76
446.33	3574.61
446.69	3716.56
447.06	3888.00
447.42	4059.89
447.79	4248.49
448.15	4453.01
448.51	4660.15
448.88	4885.45
449.24	5095.86
449.61	5358.96
449.97	5618.39
450.33	5899.91
450.70	6166.87
451.06	6502.83
451.43	6801.99
451.79	7145.02
452.15	7499.99
452.52	7885.66
452.88	8263.54
453.24	8700.75
453.61	9170.99
453.97	9649.05
454.34	10124.34
454.70	10685.86
455.06	11230.64
455.43	11749.30
455.79	12264.08
456.15	12891.02
456.52	13483.26
456.88	14227.65
457.24	14977.98
457.61	15812.36
457.97	16573.78
458.33	17363.24
458.70	18111.93
459.06	18840.45
459.42	19627.10
459.79	20361.09
460.15	21176.44
460.51	21891.15
460.88	22636.37
461.24	23323.65
461.60	24138.09
461.96	24831.31
462.33	25481.60
462.69	26158.69
463.05	26903.15
463.42	27609.10
463.78	28264.66
464.14	28895.93
464.50	29545.21
464.87	30050.07
465.23	30326.60
465.59	30661.25
465.95	30951.29
466.32	31190.96
466.68	31362.13
467.04	31547.92
467.40	31620.47
467.77	31724.16
468.13	31703.68
468.49	31580.43
468.85	31447.32
469.22	31392.79
469.58	31199.55
469.94	31047.98
470.30	30886.27
470.66	30594.38
471.03	30070.36
471.39	29669.82
471.75	29023.09
472.11	28388.73
472.47	27946.53
472.84	27515.50
473.20	26914.26
473.56	26511.95
473.92	26015.64
474.28	25518.79
474.65	25038.61
475.01	24622.51
475.37	24120.77
475.73	23740.08
476.09	23267.50
476.45	22861.56
476.81	22470.52
477.18	22059.01
477.54	21682.84
477.90	21343.16
478.26	20926.03
478.62	20558.31
478.98	20310.33
479.34	20083.01
479.71	19825.70
480.07	19592.72
480.43	19337.93
480.79	18960.45
481.15	18534.28
481.51	18172.11
481.87	17851.34
482.23	17517.34
482.59	17236.66
482.96	16952.62
483.32	16668.45
483.68	16331.88
484.04	16012.68
484.40	15711.90
484.76	15452.38
485.12	15161.22
485.48	14945.16
485.84	14713.66
486.20	14458.61
486.56	14151.37
486.92	13864.70
487.28	13538.76
487.64	13211.93
488.00	12897.69
488.37	12583.91
488.73	12234.19
489.09	11890.86
489.45	11579.78
489.81	11266.12
490.17	10976.18
490.53	10692.34
490.89	10386.31
491.25	10073.62
491.61	9774.85
491.97	9488.53
492.33	9238.96
492.69	9021.85
493.05	8806.71
493.41	8605.10
493.77	8368.12
494.13	8141.69
494.49	7916.70
494.85	7699.33
495.21	7477.68
495.57	7301.11
495.93	7113.31
496.29	6913.15
496.64	6732.76
497.00	6547.88
497.36	6376.91
497.72	6213.61
498.08	6072.10
498.44	5911.23
498.80	5755.24
499.16	5585.74
499.52	5421.48
499.88	5270.07
500.24	5137.27
500.60	5019.04
500.96	4913.79
501.32	4806.31
501.68	4696.92
502.03	4587.96
502.39	4484.49
502.75	4382.14
503.11	4286.78
503.47	4200.84
503.83	4109.89
504.19	4015.24
504.55	3923.16
504.91	3828.46
505.26	3735.24
505.62	3651.82
505.98	3567.47
506.34	3477.26
506.70	3396.80
507.06	3325.20
507.42	3249.37
507.78	3175.12
508.13	3110.97
508.49	3046.65
508.85	2982.47
509.21	2920.68
509.57	2869.12
509.93	2808.55
510.28	2758.25
510.64	2704.07
511.00	2646.82
511.36	2588.84
511.72	2544.26
512.07	2499.43
512.43	2455.81
512.79	2417.40
513.15	2382.81
513.51	2345.45
513.86	2301.80
514.22	2269.31
514.58	2231.37
514.94	2185.29
515.30	2145.03
515.65	2106.18
516.01	2064.61
516.37	2026.81
516.73	2001.81
517.08	1976.04
517.44	1952.47
517.80	1927.81
518.16	1907.58
518.51	1881.84
518.87	1855.20
519.23	1829.71
519.59	1808.70
519.94	1786.79
520.30	1766.24
520.66	1741.62
521.01	1722.26
521.37	1699.46
521.73	1678.56
522.09	1657.19
522.44	1641.70
522.80	1625.92
523.16	1612.18
523.51	1598.31
523.87	1581.29
524.23	1567.69
524.58	1549.13
524.94	1532.30
525.30	1517.98
525.65	1508.01
526.01	1494.64
526.37	1484.72
526.72	1471.47
527.08	1456.35
527.44	1446.10
527.79	1434.33
528.15	1423.40
528.51	1410.22
528.86	1406.90
529.22	1398.31
529.58	1388.55
529.93	1382.67
530.29	1374.97
530.65	1361.82
531.00	1349.37
531.36	1341.20
531.71	1328.65
532.07	1321.63
532.43	1313.37
532.78	1305.76
533.14	1298.48
533.49	1291.55
533.85	1286.90
534.21	1284.18
534.56	1276.48
534.92	1272.55
535.27	1268.17
535.63	1264.22
535.98	1256.10
536.34	1254.76
536.69	1247.44
537.05	1241.98
537.41	1236.41
537.76	1231.33
538.12	1224.33
538.47	1220.29
538.83	1217.87
539.18	1215.16
539.54	1212.80
539.89	1213.36
540.25	1212.47
540.60	1209.00
540.96	1204.93
541.31	1200.51
541.67	1194.68
542.02	1189.65
542.38	1185.55
542.73	1181.95
543.09	1180.14
543.44	1179.79
543.80	1175.53
544.15	1172.63
544.51	1171.25
544.86	1168.42
545.22	1163.78
545.57	1164.37
545.93	1158.38
546.28	1153.77
546.64	1153.63
546.99	1152.01
547.35	1148.52
547.70	1149.53
548.05	1147.54
548.41	1143.30
548.76	1143.80
549.12	1141.78
549.47	1140.73
549.83	1139.56
550.18	1138.16
550.53	1136.17
550.89	1135.96
551.24	1135.04
551.60	1136.54
551.95	1135.04
552.30	1136.14
552.66	1134.29
553.01	1133.94
553.37	1130.60
553.72	1130.74
554.07	1125.87
554.43	1124.21
554.78	1120.23
555.13	1119.43
555.49	1116.41
555.84	1116.04
556.19	1118.24
556.55	1120.81
556.90	1119.38
557.26	1118.05
557.61	1118.17
557.96	1110.40
558.32	1108.31
558.67	1110.58
559.02	1111.87
559.37	1109.91
559.73	1114.26
560.08	1113.49
560.43	1107.00
560.79	1109.55
561.14	1109.23
561.49	1109.65
561.85	1109.09
562.20	1113.21
562.55	1107.14
562.90	1105.65
563.26	1101.34
563.61	1100.64
563.96	1099.79
564.32	1104.90
564.67	1104.94
565.02	1107.89
565.37	1109.51
565.73	1108.31
566.08	1103.70
566.43	1100.80
566.78	1097.71
567.14	1093.76
567.49	1093.31
567.84	1092.16
568.19	1096.12
568.54	1099.56
568.90	1103.75
569.25	1103.70
569.60	1107.17
569.95	1104.55
570.31	1100.24
570.66	1095.98
571.01	1096.68
571.36	1092.94
571.71	1091.67
572.06	1094.97
572.42	1094.90
572.77	1095.28
573.12	1094.57
573.47	1094.76
573.82	1095.49
574.18	1096.80
574.53	1095.09
574.88	1096.82
575.23	1097.80
575.58	1093.66
575.93	1095.09
576.28	1092.33
576.64	1091.39
576.99	1088.44
577.34	1087.58
577.69	1082.43
578.04	1083.76
578.39	1087.76
578.74	1088.72
579.09	1088.86
579.44	1090.71
579.80	1094.39
580.15	1089.29
580.50	1090.97
580.85	1092.02
581.20	1093.85
581.55	1089.43
581.90	1091.04
582.25	1091.84
582.60	1092.28
582.95	1088.79
583.30	1089.07
583.65	1088.91
584.00	1087.25
584.35	1084.56
584.71	1085.59
585.06	1086.29
585.41	1084.70
585.76	1084.81
586.11	1086.83
586.46	1088.07
586.81	1088.40
587.16	1088.91
587.51	1086.22
587.86	1082.43
588.21	1081.12
588.56	1077.33
588.91	1074.05
589.26	1076.53
589.61	1078.21
589.96	1077.77
590.31	1080.25
590.66	1084.28
591.01	1085.96
591.36	1087.11
591.71	1085.17
592.06	1085.75
592.41	1084.70
592.76	1083.18
593.10	1084.14
593.45	1087.32
593.80	1085.59
594.15	1089.43
594.50	1090.48
594.85	1087.72
595.20	1088.00
595.55	1088.23
595.90	1082.15
596.25	1083.25
596.60	1086.15
596.95	1086.41
597.30	1086.62
597.64	1099.61
597.99	1098.30
598.34	1094.08
598.69	1091.25
599.04	1092.96
599.39	1082.92
599.74	1081.23
600.09	1086.10
600.44	1085.84
600.78	1084.23
601.13	1080.98
601.48	1081.07
601.83	1081.02
602.18	1082.05
602.53	1083.71
602.88	1087.09
603.22	1085.47
603.57	1083.55
603.92	1084.30
604.27	1082.64
604.62	1082.64
604.97	1081.73
605.31	1085.47
605.66	1085.31
606.01	1086.92
606.36	1087.88
606.71	1090.50
607.05	1084.53
607.40	1084.65
607.75	1085.96
608.10	1084.58
608.44	1084.25
608.79	1088.93
609.14	1089.54
609.49	1085.28
609.84	1086.36
610.18	1087.93
610.53	1087.04
610.88	1086.41
611.23	1087.13
611.57	1088.30
611.92	1087.83
612.27	1087.23
612.62	1087.60
612.96	1086.69
613.31	1081.96
613.66	1080.44
614.00	1079.60
614.35	1082.57
614.70	1086.71
615.05	1089.57
615.39	1089.22
615.74	1091.74
616.09	1090.83
616.43	1088.40
616.78	1083.95
617.13	1085.35
617.47	1082.87
617.82	1081.49
618.17	1082.99
618.51	1087.62
618.86	1086.76
619.21	1085.10
619.55	1083.71
619.90	1080.37
620.25	1081.26
620.59	1077.70
620.94	1081.89
621.29	1081.75
621.63	1083.36
621.98	1082.52
622.32	1084.44
622.67	1080.63
623.02	1079.90
623.36	1081.91
623.71	1081.33
624.05	1082.38
624.40	1082.78
624.75	1083.81
625.09	1080.16
625.44	1080.18
625.78	1081.09
626.13	1080.58
626.48	1079.13
626.82	1080.72
627.17	1080.23
627.51	1080.79
627.86	1081.49
628.20	1083.11
628.55	1082.71
628.89	1082.71
629.24	1079.36
629.58	1075.50
629.93	1076.83
630.28	1078.92
630.62	1079.62
630.97	1080.67
631.31	1085.12
631.66	1082.61
632.00	1082.38
632.35	1082.78
632.69	1085.42
633.04	1084.63
633.38	1087.44
633.73	1084.91
634.07	1083.43
634.42	1082.15
634.76	1083.57
635.11	1080.41
635.45	1080.79
635.79	1078.03
636.14	1074.00
636.48	1072.57
636.83	1071.90
637.17	1073.23
637.52	1076.25
637.86	1082.38
638.21	1083.88
638.55	1084.74
638.89	1083.46
639.24	1082.33
639.58	1078.47
639.93	1077.11
640.27	1078.05
640.61	1079.85
640.96	1080.48
641.30	1079.60
641.65	1080.58
641.99	1079.06
642.33	1075.87
642.68	1075.20
643.02	1075.99
643.37	1075.94
643.71	1079.60
644.05	1080.37
644.40	1080.02
644.74	1083.01
645.08	1081.63
645.43	1081.98
645.77	1083.25
646.11	1083.32
646.46	1081.40
646.80	1082.52
647.14	1080.63
647.49	1079.64
647.83	1080.74
648.17	1081.84
648.52	1081.09
648.86	1076.41
649.20	1078.24
649.55	1077.04
649.89	1077.44
650.23	1077.14
650.57	1080.25
650.92	1077.77
651.26	1079.06
651.60	1074.91
651.95	1073.81
652.29	1073.86
652.63	1077.79
652.97	1076.53
653.32	1078.96
653.66	1080.02
654.00	1080.39
654.34	1079.24
654.69	1077.37
655.03	1075.62
655.37	1077.37
655.71	1076.20
656.05	1077.33
656.40	1076.34
656.74	1077.70
657.08	1078.19
657.42	1076.83
657.76	1073.74
658.11	1077.00
658.45	1079.36
658.79	1077.35
659.13	1082.17
659.47	1081.09
659.82	1081.87
660.16	1076.95
660.50	1078.31
660.84	1077.16
661.18	1080.32
661.52	1079.46
661.87	1083.88
662.21	1081.84
662.55	1078.43
662.89	1077.77
663.23	1078.19
663.57	1077.93
663.91	1079.85
664.25	1083.41
664.60	1084.30
664.94	1083.01
665.28	1081.73
665.62	1081.98
665.96	1080.58
666.30	1079.43
666.64	1079.76
666.98	1080.51
667.32	1079.64
667.66	1080.20
668.01	1079.36
668.35	1079.76
668.69	1081.54
669.03	1080.93
669.37	1080.48
669.71	1079.83
670.05	1079.34
670.39	1075.80
670.73	1076.69
671.07	1076.34
671.41	1075.99
671.75	1076.76
672.09	1075.62
672.43	1073.04
672.77	1073.67
673.11	1071.01
673.45	1070.91
673.79	1076.79
674.13	1079.97
674.47	1080.60
674.81	1084.49
675.15	1087.60
675.49	1085.73
675.83	1085.38
676.17	1082.36
676.51	1083.74
676.85	1079.81
677.19	1077.16
677.53	1073.02
677.87	1074.96
678.21	1073.02
678.55	1074.49
678.89	1075.90
679.23	1078.17
679.57	1078.33
679.90	1078.61
680.24	1077.89
680.58	1074.45
680.92	1076.46
681.26	1078.50
681.60	1078.38
681.94	1082.05
682.28	1085.33
682.62	1083.06
682.96	1082.03
683.29	1082.38
683.63	1075.85
683.97	1074.14
684.31	1076.23
684.65	1077.37
684.99	1079.95
685.33	1080.23
685.67	1080.84
686.00	1079.08
686.34	1078.03
686.68	1075.69
687.02	1079.48
687.36	1080.02
687.70	1082.03
688.03	1081.30
688.37	1081.14
688.71	1080.30
689.05	1078.36
689.39	1074.70
689.72	1075.55
690.06	1073.93
690.40	1072.32
690.74	1074.47
691.08	1078.45
691.41	1076.74
691.75	1081.19
692.09	1080.13
692.43	1076.81
692.76	1073.81
693.10	1073.70
693.44	1072.48
693.78	1075.69
694.11	1077.44
694.45	1078.73
694.79	1080.06
695.13	1076.06
695.46	1074.63
695.80	1076.04
696.14	1076.34
696.48	1075.90
696.81	1078.82
697.15	1081.05
697.49	1081.98
697.82	1081.12
698.16	1079.97
698.50	1076.95
698.83	1075.29
699.17	1072.39
699.51	1072.90
699.84	1071.75
700.18	1076.46
700.52	1076.20
700.85	1077.79
701.19	1079.13
701.53	1078.99
701.86	1079.38
702.20	1081.49
702.54	1084.39
702.87	1082.22
703.21	1081.61
703.55	1078.73
703.88	1076.34
704.22	1074.33
704.55	1074.73
704.89	1076.53
705.23	1078.21
705.56	1081.07
705.90	1079.95
706.23	1079.29
706.57	1080.67
706.91	1079.31
707.24	1078.64
707.58	1080.53
707.91	1082.01
708.25	1083.06
708.58	1080.34
708.92	1076.81
709.26	1077.28
709.59	1075.97
709.93	1075.64
710.26	1079.95
710.60	1081.68
710.93	1079.20
711.27	1081.66
711.60	1079.55
711.94	1078.50
712.27	1079.92
712.61	1077.61
712.94	1076.11
713.28	1075.43
713.61	1075.10
713.95	1072.34
714.28	1075.87
714.62	1076.72
714.95	1076.88
715.29	1077.51
715.62	1080.46
715.96	1080.79
716.29	1079.57
716.63	1081.75
716.96	1082.69
717.29	1081.00
717.63	1082.76
717.96	1083.01
718.30	1082.15
718.63	1080.13
718.97	1078.87
719.30	1079.83
719.63	1079.99
719.97	1077.75
720.30	1076.11
720.64	1075.50
720.97	1075.52
721.30	1074.77
721.64	1075.66
721.97	1076.65
722.31	1079.08
722.64	1077.63
722.97	1077.44
723.31	1078.33
723.64	1080.04
723.97	1080.18
724.31	1078.40
724.64	1080.11
724.98	1077.84
725.31	1076.32
725.64	1077.96
725.98	1077.21
726.31	1074.89
726.64	1075.71
726.97	1075.80
727.31	1073.00
727.64	1071.17
727.97	1070.98
728.31	1072.08
728.64	1071.05
728.97	1074.59
729.31	1078.21
729.64	1081.23
729.97	1081.75
730.30	1080.11
730.64	1078.19
730.97	1077.58
731.30	1077.09
731.63	1077.23
731.97	1084.39
732.30	1085.21
732.63	1084.96
732.96	1083.36
733.30	1084.30
733.63	1082.03
733.96	1076.65
734.29	1077.47
734.63	1078.21
734.96	1075.85
735.29	1075.05
735.62	1076.51
735.95	1073.72
736.29	1074.87
736.62	1076.30
736.95	1075.71
737.28	1078.10
737.61	1080.74
737.94	1078.10
738.28	1077.33
738.61	1079.83
738.94	1078.61
739.27	1077.70
739.60	1077.35
739.93	1078.36
740.27	1078.50
740.60	1080.25
740.93	1077.47
741.26	1081.23
741.59	1079.55
741.92	1077.65
742.25	1077.16
742.58	1078.68
742.91	1075.76
743.25	1075.64
743.58	1072.76
743.91	1070.56
744.24	1068.52
744.57	1070.42
744.90	1072.64
745.23	1075.73
745.56	1079.55
745.89	1083.18
746.22	1079.85
746.55	1078.38
746.88	1076.83
747.21	1078.03
747.54	1079.10
747.87	1080.11
748.20	1081.14
748.53	1081.63
748.87	1078.24
749.20	1078.85
749.53	1080.60
749.86	1080.58
750.19	1080.77
750.52	1080.27
750.85	1080.25
751.18	1080.34
751.51	1077.65
751.84	1079.92
752.16	1081.77
752.49	1079.85
752.82	1079.41
753.15	1080.11
753.48	1078.57
753.81	1078.54
754.14	1081.16
754.47	1079.60
754.80	1080.18
755.13	1077.58
755.46	1078.85
755.79	1074.94
756.12	1079.88
756.45	1080.79
756.78	1082.61
757.11	1081.82
757.43	1082.76
757.76	1078.66
758.09	1078.78
758.42	1078.57
758.75	1077.07
759.08	1075.31
759.41	1077.25
759.74	1077.54
760.07	1076.25
760.39	1075.73
760.72	1075.80
761.05	1075.29
761.38	1075.38
761.71	1076.06
762.04	1075.94
762.36	1077.25
762.69	1076.95
763.02	1078.07
763.35	1078.80
763.68	1079.36
764.01	1077.75
764.33	1077.25
764.66	1075.22
764.99	1076.18
765.32	1078.59
765.65	1079.46
765.97	1079.17
766.30	1079.50
766.63	1078.14
766.96	1076.74
767.28	1077.61
767.61	1079.92
767.94	1083.88
768.27	1086.43
768.59	1084.96
768.92	1083.22
769.25	1081.05
769.58	1078.45
769.90	1075.45
770.23	1074.07
770.56	1076.51
770.89	1075.05
771.21	1074.61
771.54	1076.32
771.87	1078.40
772.19	1076.01
772.52	1075.97
772.85	1074.82
773.17	1074.07
773.50	1074.17
773.83	1078.17
774.15	1077.63
774.48	1076.44
774.81	1077.23
775.13	1080.93
775.46	1076.23
775.79	1075.90
776.11	1077.58
776.44	1077.54
776.77	1075.59
777.09	1077.44
777.42	1078.36
777.74	1077.30
778.07	1074.21
778.40	1072.39
778.72	1068.15
779.05	1069.72
779.37	1070.37
779.70	1072.08
780.03	1072.29
780.35	1075.69
780.68	1077.33
781.00	1078.03
781.33	1079.60
781.65	1077.93
781.98	1079.55
782.31	1076.93
782.63	1076.23
782.96	1072.81
783.28	1075.10
783.61	1075.66
783.93	1075.62
784.26	1075.55
784.58	1077.40
784.91	1078.07
785.23	1073.98
785.56	1075.52
785.88	1078.28
786.21	1079.15
786.53	1076.44
786.86	1079.74
787.18	1077.47
787.51	1073.70
787.83	1071.12
788.16	1073.58
788.48	1075.03
788.81	1075.36
789.13	1077.56
789.46	1081.47
789.78	1081.30
790.10	1077.47
790.43	1076.48
790.75	1076.30
791.08	1075.50
791.40	1075.94
791.73	1081.19
792.05	1082.29
792.37	1080.34
792.70	1079.10
793.02	1077.21
793.35	1077.72
793.67	1079.06
793.99	1081.89
794.32	1081.44
794.64	1082.54
794.96	1081.44
795.29	1081.54
795.61	1080.48
795.93	1079.74
796.26	1079.85
796.58	1076.20
796.91	1073.91
797.23	1072.81
797.55	1073.84
797.87	1074.10
798.20	1074.87
798.52	1074.66
798.84	1075.50
799.17	1074.42
799.49	1071.92
799.81	1071.64
800.14	1078.36
800.46	1079.46
800.78	1080.06
801.10	1080.53
801.43	1080.74
801.75	1074.89
802.07	1076.74
802.40	1077.96
802.72	1078.61
803.04	1081.16
803.36	1082.83
803.69	1082.31
804.01	1081.49
804.33	1082.33
804.65	1081.40
804.97	1079.62
805.30	1074.33
805.62	1073.35
805.94	1071.92
806.26	1073.49
806.58	1074.26
806.91	1079.67
807.23	1078.78
807.55	1081.16
807.87	1078.85
808.19	1078.33
808.52	1076.11
808.84	1075.13
809.16	1072.97
809.48	1071.68
809.80	1072.67
810.12	1076.67
810.44	1078.78
810.77	1077.56
811.09	1080.11
811.41	1079.10
811.73	1071.54
812.05	1072.64
812.37	1073.81
812.69	1073.46
813.01	1075.83
813.33	1081.44
813.66	1080.46
813.98	1079.15
814.30	1078.05
814.62	1078.00
814.94	1075.73
815.26	1076.79
815.58	1075.59
815.90	1075.20
816.22	1074.59
816.54	1075.05
816.86	1073.91
817.18	1077.89
817.50	1076.95
817.82	1078.31
818.14	1078.66
818.46	1077.49
818.78	1076.51
819.10	1077.98
819.42	1075.62
819.74	1075.80
820.06	1079.90
820.38	1079.06
820.70	1078.85
821.02	1079.31
821.34	1080.23
821.66	1081.02
821.98	1079.71
822.30	1080.13
822.62	1080.56
822.94	1077.56
823.26	1072.67
823.58	1073.79
823.90	1072.67
824.22	1074.17
824.54	1076.15
824.86	1079.43
825.18	1079.83
825.50	1078.71
825.81	1076.53
826.13	1075.52
826.45	1075.24
826.77	1074.82
827.09	1076.37
827.41	1075.99
827.73	1074.54
828.05	1071.90
828.36	1073.84
828.68	1074.87
829.00	1077.49
829.32	1078.73
829.64	1078.75
829.96	1075.62
830.28	1075.17
830.59	1075.50
830.91	1076.90
831.23	1082.40
831.55	1082.08
831.87	1080.65
832.19	1076.37
832.50	1074.89
832.82	1069.48
833.14	1074.07
833.46	1075.22
833.78	1075.80
834.09	1077.65
834.41	1080.72
834.73	1077.25
835.05	1077.00
835.36	1077.40
835.68	1076.81
836.00	1074.73
836.32	1075.76
836.63	1074.84
836.95	1076.04
837.27	1076.46
837.59	1077.77
837.90	1080.11
838.22	1081.66
838.54	1080.30
838.85	1079.99
839.17	1077.72
839.49	1076.90
839.80	1077.30
840.12	1077.70
840.44	1075.41
840.76	1075.73
841.07	1073.86
841.39	1073.79
841.71	1074.80
842.02	1074.63
842.34	1075.29
842.65	1078.80
842.97	1077.75
843.29	1077.68
843.60	1079.15
843.92	1080.09
844.24	1079.29
844.55	1078.68
844.87	1078.40
845.18	1077.35
845.50	1077.00
845.82	1075.78
846.13	1074.80
846.45	1074.03
846.76	1074.40
847.08	1074.61
847.40	1074.73
847.71	1078.47
848.03	1080.77
848.34	1080.39
848.66	1081.12
848.97	1081.19
849.29	1077.16
849.60	1074.66
849.92	1076.44
850.24	1078.19
850.55	1075.10
850.87	1076.11
851.18	1077.40
851.50	1074.38
851.81	1069.91
852.13	1070.96
852.44	1069.91
852.76	1070.98
853.07	1072.01
853.39	1073.07
853.70	1074.47
854.01	1074.03
854.33	1073.32
854.64	1073.98
854.96	1074.00
855.27	1073.16
855.59	1074.40
855.90	1075.38
856.22	1076.39
856.53	1074.59
856.84	1074.96
857.16	1077.63
857.47	1075.92
857.79	1073.91
858.10	1076.74
858.41	1076.46
858.73	1077.75
859.04	1080.02
859.36	1081.49
859.67	1082.05
859.98	1081.07
860.30	1077.35
860.61	1075.50
860.92	1077.61
861.24	1075.69
861.55	1077.23
861.87	1077.93
862.18	1072.69
862.49	1068.83
862.81	1069.58
863.12	1071.36
863.43	1076.01
863.74	1081.40
864.06	1082.43
864.37	1082.78
864.68	1080.74
865.00	1076.13
865.31	1075.31
865.62	1074.77
865.94	1078.07
866.25	1077.49
866.56	1078.73
866.87	1079.43
867.19	1081.56
867.50	1076.95
867.81	1077.35
868.12	1077.79
868.44	1078.50
868.75	1077.93
869.06	1078.24
869.37	1077.51
869.68	1074.87
870.00	1072.78
870.31	1072.32
870.62	1070.87
870.93	1070.65
871.24	1071.22
871.56	1072.48
871.87	1074.14
872.18	1078.24
872.49	1078.50
872.80	1078.75
873.12	1077.65
873.43	1077.96
873.74	1075.50
874.05	1075.94
874.36	1078.31
874.67	1079.78
874.98	1078.68
875.29	1079.03
875.61	1078.36
875.92	1077.23
876.23	1075.15
876.54	1072.78
876.85	1073.25
877.16	1071.78
877.47	1069.77
877.78	1071.12
878.09	1072.32
878.40	1069.77
878.72	1071.92
879.03	1077.93
879.34	1078.26
879.65	1077.82
879.96	1079.24
880.27	1077.91
880.58	1074.54
880.89	1074.98
881.20	1074.52
881.51	1074.38
881.82	1078.57
882.13	1077.56
882.44	1075.08
882.75	1074.59
883.06	1075.17
883.37	1074.91
883.68	1075.99
883.99	1075.92
884.30	1077.89
884.61	1079.71
884.92	1079.62
885.23	1078.52
885.54	1082.59
885.85	1083.50
886.16	1083.39
886.47	1079.64
886.78	1080.56
887.08	1076.88
887.39	1075.27
887.70	1071.05
888.01	1072.95
888.32	1072.67
888.63	1076.37
888.94	1074.19
889.25	1077.82
889.56	1075.05
889.87	1075.22
890.17	1072.74
890.48	1075.43
890.79	1074.56
891.10	1075.57
891.41	1075.38
891.72	1077.47
892.03	1076.46
892.34	1076.30
892.64	1077.37
892.95	1076.97
893.26	1076.55
893.57	1075.78
893.88	1077.89
894.18	1078.87
894.49	1079.81
894.80	1077.56
895.11	1075.80
895.42	1073.60
895.72	1071.80
896.03	1071.71
896.34	1072.39
896.65	1078.36
896.96	1079.55
897.26	1079.69
897.57	1079.71
897.88	1077.21
898.19	1076.69
898.49	1075.99
898.80	1074.70
899.11	1072.78
899.41	1078.03
899.72	1075.10
900.03	1075.01
900.34	1077.44
900.64	1078.28
900.95	1075.10
901.26	1075.52
901.56	1074.84
901.87	1075.36
902.18	1075.78
902.48	1075.41
902.79	1074.05
903.10	1073.30
903.40	1075.78
903.71	1076.65
904.02	1077.61
904.32	1078.85
904.63	1081.40
904.94	1080.16
905.24	1078.24
905.55	1076.46
905.85	1077.11
906.16	1078.52
906.47	1076.67
906.77	1080.11
907.08	1081.68
907.38	1081.58
907.69	1079.41
908.00	1077.93
908.30	1075.66
908.61	1076.20
908.91	1075.45
909.22	1078.47
909.52	1078.75
909.83	1077.70
910.14	1080.20
910.44	1082.29
910.75	1077.54
911.05	1081.51
911.36	1083.41
911.66	1078.10
911.97	1079.01
912.27	1081.94
912.58	1079.31
912.88	1076.11
913.19	1073.81
913.49	1072.78
913.80	1070.51
914.10	1070.33
914.41	1071.15
914.71	1075.87
915.01	1077.30
915.32	1077.25
915.62	1078.54
915.93	1076.69
916.23	1077.07
916.54	1074.75
916.84	1076.39
917.15	1073.11
917.45	1076.01
917.75	1075.57
918.06	1075.71
918.36	1078.33
918.67	1083.15
918.97	1080.93
919.27	1081.19
919.58	1082.87
919.88	1078.85
920.18	1074.35
920.49	1078.50
920.79	1079.55
921.10	1075.50
921.40	1078.03
921.70	1081.87
922.01	1081.87
922.31	1080.30
922.61	1081.02
922.92	1077.56
923.22	1076.30
923.52	1076.15
923.82	1075.15
924.13	1076.95
924.43	1081.63
924.73	1083.39
925.04	1080.70
925.34	1084.16
925.64	1081.66
925.94	1078.89
926.25	1076.25
926.55	1077.75
926.85	1074.59
927.15	1074.38
927.46	1075.01
927.76	1074.63
928.06	1075.85
928.36	1074.61
928.67	1077.14
928.97	1076.76
929.27	1077.91
929.57	1076.15
929.87	1079.76
930.18	1079.20
930.48	1079.43
930.78	1081.28
931.08	1082.19
931.38	1082.71
931.69	1082.19
931.99	1078.47
932.29	1074.49
932.59	1073.28
932.89	1076.13
933.19	1074.68
933.49	1079.83
933.80	1080.88
934.10	1078.47
934.40	1074.05
934.70	1076.04
935.00	1074.82
935.30	1077.75
935.60	1081.21
935.90	1083.74
936.20	1085.59
936.50	1085.31
936.81	1081.98
937.11	1083.22
937.41	1080.72
937.71	1079.03
938.01	1076.41
938.31	1078.26
938.61	1076.37
938.91	1076.27
939.21	1077.49
939.51	1077.75
939.81	1078.71
940.11	1079.53
940.41	1080.79
940.71	1076.48
941.01	1078.66
941.31	1074.24
941.61	1073.88
941.91	1071.61
942.21	1074.61
942.51	1074.26
942.81	1076.79
943.11	1073.02
943.41	1072.55
943.71	1072.90
944.01	1073.14
944.31	1073.25
944.61	1076.46
944.90	1078.45
945.20	1077.00
945.50	1076.46
945.80	1077.49
946.10	1077.75
946.40	1076.90
946.70	1078.19
947.00	1076.74
947.30	1072.29
947.60	1070.05
947.89	1073.56
948.19	1073.11
948.49	1072.97
948.79	1078.68
949.09	1078.45
949.39	1071.90
949.69	1071.73
949.98	1073.60
950.28	1072.88
950.58	1075.45
950.88	1076.39
951.18	1076.86
951.48	1078.33
951.77	1075.05
952.07	1073.44
952.37	1075.45
952.67	1072.90
952.97	1071.61
953.26	1072.11
953.56	1068.97
953.86	1069.51
954.16	1073.84
954.45	1073.70
954.75	1074.07
955.05	1079.36
955.35	1078.52
955.64	1076.34
955.94	1076.25
956.24	1073.70
956.54	1070.63
956.83	1070.75
957.13	1071.31
957.43	1068.64
957.72	1072.41
958.02	1072.97
958.32	1072.50
958.61	1071.99
958.91	1073.51
959.21	1071.99
959.50	1071.97
959.80	1072.41
960.10	1073.74
960.39	1076.76
960.69	1079.97
960.99	1082.64
961.28	1081.61
961.58	1080.98
961.87	1077.68
962.17	1077.51
962.47	1076.97
962.76	1077.54
963.06	1076.44
963.36	1076.67
963.65	1071.19
963.95	1069.93
964.24	1072.25
964.54	1076.13
964.83	1077.35
965.13	1080.98
965.42	1080.72
965.72	1079.17
966.02	1079.29
966.31	1077.42
966.61	1077.18
966.90	1074.96
967.20	1076.20
967.49	1073.86
967.79	1077.75
968.08	1074.91
968.38	1077.14
968.67	1072.46
968.97	1070.82
969.26	1068.67
969.56	1069.74
969.85	1069.09
970.15	1071.66
970.44	1070.49
970.74	1071.85
971.03	1070.75
971.32	1071.10
971.62	1074.61
971.91	1076.18
972.21	1070.49
972.50	1072.81
972.80	1075.57
973.09	1071.78
973.38	1072.95
973.68	1075.36
973.97	1079.64
974.27	1075.59
974.56	1078.96
974.85	1082.97
975.15	1085.59
975.44	1081.56
975.73	1081.40
976.03	1074.73
976.32	1070.65
976.61	1070.96
976.91	1069.18
977.20	1073.63
977.49	1079.90
977.79	1079.50
978.08	1078.12
978.37	1081.51
978.67	1078.07
978.96	1077.25
979.25	1075.90
979.55	1075.71
979.84	1074.91
980.13	1078.24
980.42	1076.67
980.72	1076.44
981.01	1076.53
981.30	1075.13
981.59	1074.28
981.89	1074.12
982.18	1075.34
982.47	1074.63
982.76	1077.84
983.06	1075.62
983.35	1079.97
983.64	1081.30
983.93	1081.49
984.22	1080.18
984.52	1081.89
984.81	1078.31
985.10	1078.40
985.39	1079.88
985.68	1077.70
985.97	1075.78
986.27	1075.29
986.56	1073.67
986.85	1075.62
987.14	1074.84
987.43	1073.88
987.72	1077.00
988.01	1079.29
988.31	1076.93
988.60	1079.92
988.89	1079.95
989.18	1079.64
989.47	1078.75
989.76	1076.69
990.05	1077.58
990.34	1077.70
990.63	1076.69
990.92	1074.49
991.21	1074.82
991.51	1071.59
991.80	1072.53
992.09	1070.61
992.38	1074.73
992.67	1075.76
992.96	1077.28
993.25	1075.01
993.54	1074.00
993.83	1072.27
994.12	1072.25
994.41	1068.88
994.70	1070.87
994.99	1071.94
995.28	1073.07
995.57	1075.27
995.86	1078.24
996.15	1078.33
996.44	1079.88
996.73	1077.25
997.02	1077.65
997.31	1076.53
997.59	1079.03
997.88	1076.95
998.17	1077.65
998.46	1077.21
998.75	1078.94
999.04	1079.60
999.33	1082.50
999.62	1080.51
999.91	1082.05
1000.20	1082.40
1000.49	1076.60
1000.77	1076.67
1001.06	1082.97
1001.35	1079.83
1001.64	1079.27
1001.93	1084.37
1002.22	1082.01
1002.51	1079.69
1002.79	1081.70
1003.08	1083.64
1003.37	1083.60
1003.66	1084.02
1003.95	1081.05
1004.23	1078.07
1004.52	1075.52
1004.81	1074.96
1005.10	1076.60
1005.39	1076.53
1005.67	1077.98
1005.96	1078.75
1006.25	1078.68
1006.54	1078.10
1006.83	1079.29
1007.11	1079.83
1007.40	1077.16
1007.69	1078.03
1007.97	1077.54
1008.26	1077.11
1008.55	1076.51
1008.84	1080.41
1009.12	1080.25
1009.41	1077.00
1009.70	1076.65
1009.98	1078.00
1010.27	1074.40
1010.56	1073.53
1010.85	1076.37
1011.13	1075.52
1011.42	1072.60
1011.71	1076.58
1011.99	1077.16
1012.28	1077.89
1012.56	1080.11
1012.85	1079.95
1013.14	1078.59
1013.42	1079.83
1013.71	1077.35
1014.00	1075.43
1014.28	1077.75
1014.57	1078.82
1014.85	1075.92
1015.14	1080.74
1015.43	1079.92
1015.71	1076.90
1016.00	1077.18
1016.28	1078.26
1016.57	1074.52
1016.85	1075.66
1017.14	1077.18
1017.43	1077.21
1017.71	1076.51
1018.00	1077.30
1018.28	1077.04
1018.57	1081.35
1018.85	1076.90
1019.14	1077.75
1019.42	1078.61
1019.71	1079.08
1019.99	1073.91
1020.28	1074.70
1020.56	1074.84
1020.85	1074.77
1021.13	1075.55
1021.42	1077.21
1021.70	1081.56
1021.99	1081.26
1022.27	1081.40
1022.55	1077.00
1022.84	1081.21
>>>>>End Processed Spectral Data<<<<<
