SpectraSuite Data File
++++++++++++++++++++++++++++++++++++
Date: Mon Aug 26 10:22:28 PDT 2019
User: corrico
Dark Spectrum Present: No
Reference Spectrum Present: No
Number of Sampled Component Spectra: 1
Spectrometers: USB2+H06089
Integration Time (usec): 2000 (USB2+H06089)
Spectra Averaged: 20 (USB2+H06089)
Boxcar Smoothing: 2 (USB2+H06089)
Correct for Electrical Dark: No (USB2+H06089)
Strobe/Lamp Enabled: No (USB2+H06089)
Correct for Detector Non-linearity: No (USB2+H06089)
Correct for Stray Light: No (USB2+H06089)
Number of Pixels in Processed Spectrum: 2048
>>>>>Begin Processed Spectral Data<<<<<
339.70	1025.15
340.07	1025.15
340.45	990.89
340.82	968.44
341.19	944.36
341.57	920.53
341.94	910.77
342.31	906.30
342.69	903.66
343.06	901.57
343.43	899.96
343.81	900.45
344.18	904.52
344.55	908.01
344.93	913.07
345.30	917.54
345.67	924.82
346.04	929.19
346.42	936.17
346.79	942.21
347.16	950.12
347.54	956.62
347.91	964.72
348.28	978.18
348.65	994.14
349.03	1005.10
349.40	1013.29
349.77	1023.14
350.14	1026.96
350.52	1028.53
350.89	1036.44
351.26	1041.87
351.63	1045.38
352.01	1051.30
352.38	1057.59
352.75	1059.47
353.12	1063.56
353.50	1065.34
353.87	1068.62
354.24	1071.50
354.61	1073.35
354.98	1078.78
355.36	1084.46
355.73	1084.70
356.10	1085.31
356.47	1089.31
356.84	1089.87
357.22	1089.71
357.59	1088.86
357.96	1086.71
358.33	1086.45
358.70	1083.18
359.08	1083.81
359.45	1083.53
359.82	1083.53
360.19	1081.87
360.56	1080.56
360.94	1077.07
361.31	1077.37
361.68	1078.10
362.05	1076.15
362.42	1074.77
362.79	1073.49
363.16	1070.47
363.54	1071.12
363.91	1072.92
364.28	1077.35
364.65	1078.57
365.02	1079.90
365.39	1080.18
365.76	1080.11
366.14	1076.39
366.51	1075.48
366.88	1075.99
367.25	1074.80
367.62	1073.67
367.99	1075.87
368.36	1072.78
368.73	1071.80
369.10	1072.43
369.48	1073.16
369.85	1072.74
370.22	1075.99
370.59	1075.87
370.96	1073.14
371.33	1075.03
371.70	1072.88
372.07	1072.01
372.44	1074.87
372.81	1076.79
373.18	1073.98
373.55	1078.85
373.93	1081.80
374.30	1079.01
374.67	1077.70
375.04	1079.24
375.41	1076.90
375.78	1074.52
376.15	1075.85
376.52	1078.26
376.89	1079.50
377.26	1081.16
377.63	1084.65
378.00	1085.00
378.37	1084.49
378.74	1079.95
379.11	1077.96
379.48	1077.54
379.85	1076.55
380.22	1078.82
380.59	1082.61
380.96	1083.11
381.33	1078.75
381.70	1077.86
382.07	1072.88
382.44	1073.53
382.81	1072.53
383.18	1074.89
383.55	1074.66
383.92	1075.27
384.29	1075.03
384.66	1079.78
385.03	1078.99
385.40	1081.58
385.77	1083.53
386.14	1084.11
386.51	1081.87
386.88	1085.28
387.25	1085.45
387.62	1090.06
387.99	1092.49
388.36	1091.06
388.73	1089.50
389.10	1087.09
389.46	1083.57
389.83	1079.81
390.20	1081.63
390.57	1082.15
390.94	1083.34
391.31	1082.36
391.68	1082.87
392.05	1082.85
392.42	1081.56
392.79	1083.06
393.16	1084.86
393.53	1085.99
393.89	1088.58
394.26	1086.97
394.63	1089.57
395.00	1089.94
395.37	1083.74
395.74	1083.39
396.11	1087.90
396.48	1085.75
396.84	1083.25
397.21	1085.87
397.58	1082.73
397.95	1084.23
398.32	1084.39
398.69	1086.36
399.06	1088.58
399.42	1089.92
399.79	1086.73
400.16	1088.33
400.53	1089.64
400.90	1090.41
401.27	1090.69
401.64	1092.33
402.00	1090.71
402.37	1092.33
402.74	1094.76
403.11	1092.98
403.48	1089.29
403.84	1091.58
404.21	1090.15
404.58	1090.06
404.95	1091.84
405.32	1094.50
405.68	1094.86
406.05	1093.73
406.42	1093.31
406.79	1095.25
407.16	1095.79
407.52	1092.19
407.89	1093.08
408.26	1092.28
408.63	1091.58
408.99	1090.10
409.36	1093.40
409.73	1094.72
410.10	1097.50
410.47	1097.73
410.83	1100.36
411.20	1099.89
411.57	1100.24
411.94	1098.39
412.30	1100.08
412.67	1104.52
413.04	1106.09
413.40	1104.71
413.77	1101.64
414.14	1099.09
414.51	1095.51
414.87	1094.46
415.24	1096.03
415.61	1098.88
415.97	1100.40
416.34	1100.47
416.71	1104.01
417.08	1102.84
417.44	1104.45
417.81	1105.39
418.18	1103.49
418.54	1101.55
418.91	1103.56
419.28	1106.93
419.64	1105.93
420.01	1109.88
420.38	1111.71
420.74	1112.90
421.11	1113.28
421.48	1116.72
421.84	1116.13
422.21	1119.10
422.58	1123.27
422.94	1125.77
423.31	1128.61
423.68	1134.34
424.04	1137.13
424.41	1138.46
424.77	1142.13
425.14	1147.68
425.51	1152.74
425.87	1156.88
426.24	1160.53
426.61	1163.06
426.97	1165.42
427.34	1167.86
427.70	1173.26
428.07	1180.73
428.44	1188.15
428.80	1196.90
429.17	1206.01
429.53	1210.29
429.90	1219.70
430.27	1228.52
430.63	1237.68
431.00	1250.08
431.36	1265.04
431.73	1276.15
432.09	1287.51
432.46	1300.68
432.83	1312.83
433.19	1328.84
433.56	1347.94
433.92	1371.53
434.29	1393.53
434.65	1418.83
435.02	1442.24
435.38	1467.42
435.75	1488.67
436.11	1516.99
436.48	1548.48
436.84	1585.06
437.21	1619.30
437.57	1659.79
437.94	1699.91
438.30	1742.32
438.67	1785.34
439.03	1835.42
439.40	1888.79
439.76	1945.03
440.13	2004.20
440.49	2071.61
440.86	2137.31
441.22	2210.87
441.59	2286.07
441.95	2369.25
442.32	2454.19
442.68	2551.37
443.05	2646.61
443.41	2745.40
443.78	2843.75
444.14	2946.80
444.51	3058.59
444.87	3199.75
445.24	3343.13
445.60	3502.05
445.96	3658.96
446.33	3830.31
446.69	3993.14
447.06	4168.77
447.42	4343.26
447.79	4537.88
448.15	4760.16
448.51	4985.15
448.88	5246.47
449.24	5489.98
449.61	5773.19
449.97	6046.47
450.33	6330.33
450.70	6597.97
451.06	6927.52
451.43	7233.00
451.79	7589.26
452.15	7989.75
452.52	8434.99
452.88	8900.33
453.24	9428.47
453.61	10021.80
453.97	10599.42
454.34	11153.31
454.70	11803.56
455.06	12457.57
455.43	13071.40
455.79	13660.12
456.15	14388.72
456.52	15062.49
456.88	15825.65
457.24	16564.60
457.61	17422.27
457.97	18183.81
458.33	18966.02
458.70	19732.54
459.06	20485.21
459.42	21322.33
459.79	22110.50
460.15	23012.52
460.51	23882.99
460.88	24833.95
461.24	25625.38
461.60	26595.02
461.96	27468.18
462.33	28303.05
462.69	29070.60
463.05	29920.14
463.42	30599.91
463.78	31250.79
464.14	31782.09
464.50	32374.03
464.87	32834.81
465.23	33215.08
465.59	33549.03
465.95	33878.83
466.32	34158.57
466.68	34404.87
467.04	34537.32
467.40	34684.33
467.77	34841.14
468.13	34815.98
468.49	34725.19
468.85	34665.00
469.22	34483.93
469.58	34149.35
469.94	33883.16
470.30	33572.15
470.66	33161.27
471.03	32589.71
471.39	32190.86
471.75	31548.10
472.11	30920.33
472.47	30544.41
472.84	30224.98
473.20	29726.61
473.56	29487.31
473.92	29082.35
474.28	28566.29
474.65	28049.80
475.01	27566.57
475.37	26984.29
475.73	26505.70
476.09	25966.49
476.45	25450.26
476.81	24936.77
477.18	24384.94
477.54	23950.70
477.90	23597.82
478.26	23171.00
478.62	22833.35
478.98	22547.48
479.34	22219.20
479.71	21795.56
480.07	21465.83
480.43	21091.83
480.79	20696.12
481.15	20336.75
481.51	20030.26
481.87	19780.45
482.23	19498.96
482.59	19241.03
482.96	18974.72
483.32	18676.14
483.68	18292.01
484.04	17965.88
484.40	17613.16
484.76	17229.10
485.12	16861.29
485.48	16533.85
485.84	16172.12
486.20	15822.21
486.56	15454.67
486.92	15141.93
487.28	14792.37
487.64	14429.08
488.00	14098.40
488.37	13778.55
488.73	13419.63
489.09	13065.62
489.45	12762.45
489.81	12441.07
490.17	12145.46
490.53	11869.25
490.89	11577.18
491.25	11268.16
491.61	10961.57
491.97	10641.81
492.33	10314.72
492.69	10019.62
493.05	9718.07
493.41	9424.99
493.77	9149.93
494.13	8887.44
494.49	8633.89
494.85	8394.75
495.21	8173.62
495.57	7961.17
495.93	7758.29
496.29	7553.00
496.64	7361.06
497.00	7169.37
497.36	6974.23
497.72	6785.10
498.08	6606.49
498.44	6427.42
498.80	6253.23
499.16	6099.58
499.52	5933.54
499.88	5803.57
500.24	5689.66
500.60	5572.02
500.96	5455.09
501.32	5346.51
501.68	5225.81
502.03	5094.85
502.39	4966.43
502.75	4832.15
503.11	4708.43
503.47	4590.09
503.83	4467.54
504.19	4347.59
504.55	4242.29
504.91	4141.93
505.26	4039.27
505.62	3958.83
505.98	3868.27
506.34	3774.65
506.70	3685.20
507.06	3598.90
507.42	3507.08
507.78	3430.80
508.13	3356.42
508.49	3281.24
508.85	3213.32
509.21	3148.82
509.57	3084.59
509.93	3016.08
510.28	2951.95
510.64	2883.98
511.00	2820.93
511.36	2757.85
511.72	2705.19
512.07	2655.36
512.43	2611.64
512.79	2556.33
513.15	2514.79
513.51	2472.12
513.86	2429.03
514.22	2384.28
514.58	2346.78
514.94	2303.91
515.30	2263.63
515.65	2224.56
516.01	2187.37
516.37	2153.06
516.73	2126.82
517.08	2101.96
517.44	2071.98
517.80	2047.13
518.16	2024.66
518.51	1990.30
518.87	1956.20
519.23	1928.44
519.59	1902.95
519.94	1872.92
520.30	1852.65
520.66	1826.48
521.01	1803.48
521.37	1780.56
521.73	1766.36
522.09	1750.77
522.44	1735.04
522.80	1715.05
523.16	1692.96
523.51	1666.53
523.87	1643.83
524.23	1627.12
524.58	1611.08
524.94	1596.03
525.30	1579.60
525.65	1563.41
526.01	1547.73
526.37	1534.13
526.72	1518.89
527.08	1506.44
527.44	1493.47
527.79	1481.56
528.15	1468.50
528.51	1459.49
528.86	1448.58
529.22	1434.09
529.58	1422.06
529.93	1409.59
530.29	1396.11
530.65	1385.34
531.00	1379.72
531.36	1369.70
531.71	1362.38
532.07	1353.41
532.43	1345.32
532.78	1339.25
533.14	1331.48
533.49	1327.22
533.85	1323.22
534.21	1317.37
534.56	1305.71
534.92	1297.36
535.27	1289.45
535.63	1283.46
535.98	1278.73
536.34	1273.04
536.69	1272.67
537.05	1266.93
537.41	1262.20
537.76	1258.32
538.12	1254.85
538.47	1247.72
538.83	1239.48
539.18	1233.79
539.54	1230.35
539.89	1227.26
540.25	1224.29
540.60	1225.01
540.96	1222.46
541.31	1215.53
541.67	1211.16
542.02	1207.95
542.38	1205.59
542.73	1203.18
543.09	1199.52
543.44	1195.29
543.80	1192.22
544.15	1186.93
544.51	1182.35
544.86	1181.34
545.22	1183.96
545.57	1180.59
545.93	1177.38
546.28	1177.78
546.64	1174.34
546.99	1171.77
547.35	1168.47
547.70	1165.45
548.05	1159.08
548.41	1156.44
548.76	1154.12
549.12	1156.15
549.47	1156.62
549.83	1156.37
550.18	1154.54
550.53	1149.27
550.89	1144.94
551.24	1142.98
551.60	1143.09
551.95	1142.98
552.30	1141.01
552.66	1139.61
553.01	1136.00
553.37	1133.57
553.72	1135.56
554.07	1134.72
554.43	1133.78
554.78	1133.85
555.13	1130.88
555.49	1128.82
555.84	1128.75
556.19	1126.62
556.55	1125.98
556.90	1125.40
557.26	1124.58
557.61	1122.66
557.96	1123.06
558.32	1123.76
558.67	1123.11
559.02	1115.24
559.37	1115.45
559.73	1113.16
560.08	1112.64
560.43	1114.68
560.79	1117.07
561.14	1115.64
561.49	1115.01
561.85	1112.34
562.20	1109.04
562.55	1108.66
562.90	1110.23
563.26	1110.37
563.61	1111.29
563.96	1112.25
564.32	1113.21
564.67	1110.23
565.02	1108.88
565.37	1106.49
565.73	1104.83
566.08	1104.94
566.43	1104.99
566.78	1105.93
567.14	1107.31
567.49	1108.64
567.84	1107.40
568.19	1108.95
568.54	1108.90
568.90	1108.92
569.25	1106.77
569.60	1110.28
569.95	1109.20
570.31	1105.44
570.66	1103.84
571.01	1102.63
571.36	1100.17
571.71	1098.65
572.06	1098.11
572.42	1097.64
572.77	1096.49
573.12	1095.39
573.47	1094.93
573.82	1096.73
574.18	1094.90
574.53	1095.44
574.88	1094.76
575.23	1094.86
575.58	1095.49
575.93	1094.39
576.28	1094.39
576.64	1097.31
576.99	1095.75
577.34	1094.15
577.69	1096.56
578.04	1097.06
578.39	1093.59
578.74	1095.44
579.09	1096.42
579.44	1094.36
579.80	1093.80
580.15	1094.08
580.50	1096.31
580.85	1095.09
581.20	1094.69
581.55	1096.00
581.90	1094.32
582.25	1091.88
582.60	1089.61
582.95	1091.23
583.30	1088.72
583.65	1090.57
584.00	1092.70
584.35	1098.13
584.71	1097.83
585.06	1100.96
585.41	1097.73
585.76	1094.93
586.11	1089.68
586.46	1089.26
586.81	1086.48
587.16	1087.93
587.51	1087.37
587.86	1089.99
588.21	1089.31
588.56	1090.90
588.91	1093.36
589.26	1094.32
589.61	1095.72
589.96	1095.21
590.31	1093.31
590.66	1087.83
591.01	1086.62
591.36	1083.50
591.71	1084.74
592.06	1086.66
592.41	1094.22
592.76	1094.79
593.10	1095.77
593.45	1091.79
593.80	1089.64
594.15	1085.66
594.50	1085.35
594.85	1085.61
595.20	1089.10
595.55	1091.39
595.90	1089.89
596.25	1092.40
596.60	1094.11
596.95	1093.69
597.30	1093.94
597.64	1105.62
597.99	1101.20
598.34	1097.57
598.69	1094.39
599.04	1092.47
599.39	1079.41
599.74	1075.55
600.09	1077.51
600.44	1081.84
600.78	1083.25
601.13	1084.11
601.48	1092.61
601.83	1092.73
602.18	1090.34
602.53	1087.46
602.88	1087.44
603.22	1081.00
603.57	1075.99
603.92	1079.31
604.27	1080.65
604.62	1081.00
604.97	1083.83
605.31	1087.41
605.66	1084.23
606.01	1083.64
606.36	1084.51
606.71	1081.21
607.05	1083.48
607.40	1085.40
607.75	1084.09
608.10	1085.12
608.44	1088.35
608.79	1085.94
609.14	1082.59
609.49	1086.43
609.84	1085.59
610.18	1086.20
610.53	1084.60
610.88	1089.45
611.23	1086.01
611.57	1083.20
611.92	1081.21
612.27	1080.53
612.62	1077.77
612.96	1076.37
613.31	1079.38
613.66	1080.16
614.00	1084.44
614.35	1084.23
614.70	1087.04
615.05	1085.35
615.39	1083.97
615.74	1079.57
616.09	1080.41
616.43	1078.96
616.78	1076.95
617.13	1079.83
617.47	1081.07
617.82	1079.76
618.17	1082.10
618.51	1086.20
618.86	1085.87
619.21	1087.76
619.55	1088.35
619.90	1086.45
620.25	1083.95
620.59	1082.61
620.94	1081.73
621.29	1081.16
621.63	1078.96
621.98	1080.72
622.32	1080.84
622.67	1082.19
623.02	1082.94
623.36	1086.45
623.71	1084.58
624.05	1085.10
624.40	1085.10
624.75	1086.66
625.09	1087.23
625.44	1088.98
625.78	1089.78
626.13	1087.79
626.48	1087.20
626.82	1086.94
627.17	1086.99
627.51	1088.68
627.86	1087.44
628.20	1087.30
628.55	1088.33
628.89	1087.79
629.24	1086.45
629.58	1087.74
629.93	1085.05
630.28	1081.02
630.62	1081.96
630.97	1080.34
631.31	1081.37
631.66	1081.40
632.00	1082.52
632.35	1083.60
632.69	1083.90
633.04	1083.41
633.38	1088.35
633.73	1088.19
634.07	1088.54
634.42	1087.04
634.76	1088.12
635.11	1081.98
635.45	1080.93
635.79	1077.89
636.14	1080.60
636.48	1076.67
636.83	1077.75
637.17	1077.98
637.52	1079.41
637.86	1077.04
638.21	1079.10
638.55	1080.56
638.89	1079.46
639.24	1077.35
639.58	1077.75
639.93	1076.39
640.27	1074.49
640.61	1077.11
640.96	1076.83
641.30	1078.12
641.65	1081.00
641.99	1081.12
642.33	1081.19
642.68	1083.93
643.02	1084.11
643.37	1082.64
643.71	1083.69
644.05	1084.77
644.40	1083.74
644.74	1081.63
645.08	1083.06
645.43	1082.94
645.77	1082.03
646.11	1082.71
646.46	1085.47
646.80	1084.44
647.14	1083.64
647.49	1084.79
647.83	1082.15
648.17	1080.39
648.52	1081.33
648.86	1082.33
649.20	1079.57
649.55	1083.27
649.89	1083.79
650.23	1084.79
650.57	1084.58
650.92	1084.93
651.26	1081.70
651.60	1083.25
651.95	1082.87
652.29	1085.70
652.63	1084.79
652.97	1086.59
653.32	1085.77
653.66	1082.47
654.00	1082.01
654.34	1085.45
654.69	1084.46
655.03	1079.97
655.37	1079.83
655.71	1076.90
656.05	1071.43
656.40	1070.28
656.74	1074.21
657.08	1076.23
657.42	1076.86
657.76	1081.77
658.11	1082.80
658.45	1083.20
658.79	1082.38
659.13	1083.62
659.47	1082.59
659.82	1084.37
660.16	1082.29
660.50	1081.94
660.84	1081.73
661.18	1084.74
661.52	1083.90
661.87	1087.76
662.21	1089.38
662.55	1091.37
662.89	1088.51
663.23	1087.60
663.57	1087.48
663.91	1087.32
664.25	1079.48
664.60	1079.13
664.94	1082.71
665.28	1080.98
665.62	1081.21
665.96	1087.83
666.30	1088.61
666.64	1084.07
666.98	1082.45
667.32	1081.26
667.66	1078.07
668.01	1079.27
668.35	1077.56
668.69	1078.54
669.03	1079.71
669.37	1083.97
669.71	1080.77
670.05	1083.29
670.39	1080.86
670.73	1080.51
671.07	1078.89
671.41	1079.71
671.75	1078.96
672.09	1083.76
672.43	1079.64
672.77	1078.68
673.11	1080.06
673.45	1080.37
673.79	1075.34
674.13	1083.01
674.47	1082.05
674.81	1079.92
675.15	1081.21
675.49	1082.15
675.83	1081.73
676.17	1085.35
676.51	1086.27
676.85	1084.35
677.19	1087.95
677.53	1084.63
677.87	1083.11
678.21	1080.41
678.55	1081.26
678.89	1078.24
679.23	1078.24
679.57	1076.51
679.90	1078.54
680.24	1078.80
680.58	1078.87
680.92	1080.37
681.26	1080.39
681.60	1079.43
681.94	1081.35
682.28	1083.46
682.62	1081.16
682.96	1081.70
683.29	1084.49
683.63	1084.02
683.97	1083.18
684.31	1086.29
684.65	1086.17
684.99	1084.30
685.33	1081.28
685.67	1081.70
686.00	1078.38
686.34	1077.70
686.68	1078.64
687.02	1078.71
687.36	1080.56
687.70	1078.50
688.03	1078.71
688.37	1078.40
688.71	1083.93
689.05	1082.57
689.39	1084.46
689.72	1087.53
690.06	1087.72
690.40	1083.01
690.74	1081.40
691.08	1085.73
691.41	1087.39
691.75	1087.06
692.09	1086.06
692.43	1084.04
692.76	1077.82
693.10	1074.38
693.44	1075.50
693.78	1076.20
694.11	1079.55
694.45	1084.09
694.79	1084.70
695.13	1083.83
695.46	1086.22
695.80	1085.56
696.14	1085.56
696.48	1083.55
696.81	1085.70
697.15	1085.80
697.49	1085.38
697.82	1081.82
698.16	1083.01
698.50	1079.88
698.83	1078.78
699.17	1075.01
699.51	1075.48
699.84	1074.54
700.18	1075.08
700.52	1077.42
700.85	1079.50
701.19	1081.84
701.53	1082.99
701.86	1085.49
702.20	1081.96
702.54	1083.79
702.87	1084.77
703.21	1085.35
703.55	1086.10
703.88	1088.33
704.22	1087.79
704.55	1085.14
704.89	1083.81
705.23	1080.16
705.56	1078.31
705.90	1078.87
706.23	1077.02
706.57	1077.16
706.91	1078.59
707.24	1080.51
707.58	1080.81
707.91	1082.15
708.25	1081.94
708.58	1081.70
708.92	1080.37
709.26	1077.79
709.59	1080.51
709.93	1083.67
710.26	1084.60
710.60	1082.83
710.93	1084.63
711.27	1085.07
711.60	1082.54
711.94	1080.39
712.27	1078.78
712.61	1076.67
712.94	1073.56
713.28	1073.98
713.61	1075.38
713.95	1079.62
714.28	1082.01
714.62	1083.81
714.95	1080.11
715.29	1081.61
715.62	1079.53
715.96	1078.36
716.29	1078.05
716.63	1077.49
716.96	1074.61
717.29	1077.63
717.63	1080.51
717.96	1079.38
718.30	1085.33
718.63	1086.50
718.97	1086.22
719.30	1083.55
719.63	1084.60
719.97	1081.56
720.30	1079.67
720.64	1080.88
720.97	1080.65
721.30	1080.93
721.64	1082.24
721.97	1083.36
722.31	1082.87
722.64	1083.97
722.97	1082.78
723.31	1081.94
723.64	1083.53
723.97	1080.16
724.31	1080.34
724.64	1082.94
724.98	1086.08
725.31	1083.36
725.64	1082.01
725.98	1083.79
726.31	1084.02
726.64	1081.28
726.97	1082.12
727.31	1082.45
727.64	1079.83
727.97	1078.82
728.31	1080.27
728.64	1084.35
728.97	1087.27
729.31	1087.74
729.64	1084.44
729.97	1080.81
730.30	1075.13
730.64	1074.33
730.97	1074.91
731.30	1076.88
731.63	1079.36
731.97	1081.09
732.30	1082.29
732.63	1085.73
732.96	1084.07
733.30	1081.33
733.63	1078.47
733.96	1076.44
734.29	1073.28
734.63	1075.97
734.96	1079.97
735.29	1081.94
735.62	1080.95
735.95	1081.05
736.29	1082.76
736.62	1081.70
736.95	1084.44
737.28	1086.57
737.61	1086.85
737.94	1081.82
738.28	1081.44
738.61	1078.75
738.94	1080.30
739.27	1076.95
739.60	1079.01
739.93	1077.51
740.27	1076.53
740.60	1076.69
740.93	1081.26
741.26	1080.67
741.59	1084.42
741.92	1085.07
742.25	1081.77
742.58	1079.64
742.91	1081.98
743.25	1079.57
743.58	1082.10
743.91	1083.81
744.24	1081.61
744.57	1079.90
744.90	1077.33
745.23	1076.81
745.56	1075.62
745.89	1076.81
746.22	1073.77
746.55	1073.86
746.88	1073.56
747.21	1077.21
747.54	1078.99
747.87	1082.01
748.20	1085.03
748.53	1084.39
748.87	1081.09
749.20	1081.77
749.53	1080.70
749.86	1079.90
750.19	1081.23
750.52	1080.63
750.85	1078.85
751.18	1079.43
751.51	1079.50
751.84	1076.65
752.16	1077.84
752.49	1076.81
752.82	1077.91
753.15	1075.83
753.48	1077.89
753.81	1078.59
754.14	1076.67
754.47	1074.87
754.80	1076.25
755.13	1078.36
755.46	1079.90
755.79	1081.42
756.12	1082.59
756.45	1081.82
756.78	1077.30
757.11	1072.62
757.43	1072.78
757.76	1070.51
758.09	1071.87
758.42	1074.19
758.75	1076.51
759.08	1077.40
759.41	1079.95
759.74	1080.93
760.07	1080.23
760.39	1080.56
760.72	1084.21
761.05	1083.57
761.38	1085.21
761.71	1086.99
762.04	1084.67
762.36	1079.53
762.69	1080.74
763.02	1079.99
763.35	1079.10
763.68	1081.51
764.01	1085.56
764.33	1087.83
764.66	1086.48
764.99	1084.70
765.32	1084.39
765.65	1083.62
765.97	1080.37
766.30	1079.85
766.63	1080.11
766.96	1080.20
767.28	1077.51
767.61	1076.48
767.94	1078.40
768.27	1077.25
768.59	1077.14
768.92	1077.63
769.25	1082.19
769.58	1080.46
769.90	1084.23
770.23	1081.61
770.56	1083.64
770.89	1078.73
771.21	1077.11
771.54	1073.07
771.87	1075.92
772.19	1074.89
772.52	1076.74
772.85	1077.42
773.17	1080.56
773.50	1079.22
773.83	1077.93
774.15	1074.96
774.48	1075.45
774.81	1073.53
775.13	1074.80
775.46	1076.60
775.79	1079.46
776.11	1079.13
776.44	1079.29
776.77	1077.58
777.09	1076.11
777.42	1073.65
777.74	1072.92
778.07	1071.66
778.40	1070.56
778.72	1071.17
779.05	1072.74
779.37	1072.85
779.70	1073.23
780.03	1074.87
780.35	1074.05
780.68	1073.95
781.00	1076.08
781.33	1078.87
781.65	1080.13
781.98	1078.52
782.31	1079.38
782.63	1079.01
782.96	1079.31
783.28	1078.80
783.61	1081.87
783.93	1081.37
784.26	1079.95
784.58	1078.45
784.91	1079.83
785.23	1079.69
785.56	1082.10
785.88	1082.73
786.21	1083.34
786.53	1079.46
786.86	1077.16
787.18	1075.27
787.51	1074.80
787.83	1073.35
788.16	1074.89
788.48	1079.53
788.81	1079.97
789.13	1079.50
789.46	1082.10
789.78	1082.38
790.10	1078.68
790.43	1076.76
790.75	1074.35
791.08	1070.21
791.40	1072.67
791.73	1072.11
792.05	1074.61
792.37	1079.62
792.70	1083.69
793.02	1078.99
793.35	1079.60
793.67	1078.21
793.99	1073.39
794.32	1071.38
794.64	1072.36
794.96	1071.36
795.29	1072.71
795.61	1075.45
795.93	1076.51
796.26	1076.27
796.58	1075.13
796.91	1073.32
797.23	1072.50
797.55	1070.87
797.87	1074.07
798.20	1076.81
798.52	1078.14
798.84	1077.30
799.17	1078.21
799.49	1076.74
799.81	1074.68
800.14	1069.55
800.46	1073.04
800.78	1075.15
801.10	1074.68
801.43	1075.27
801.75	1078.40
802.07	1077.84
802.40	1076.18
802.72	1078.24
803.04	1080.58
803.36	1080.86
803.69	1077.63
804.01	1076.86
804.33	1075.71
804.65	1077.30
804.97	1079.13
805.30	1081.49
805.62	1083.86
805.94	1085.40
806.26	1081.35
806.58	1082.66
806.91	1085.54
807.23	1083.86
807.55	1081.96
807.87	1084.21
808.19	1082.15
808.52	1078.96
808.84	1077.54
809.16	1077.54
809.48	1079.92
809.80	1077.25
810.12	1080.09
810.44	1080.18
810.77	1079.92
811.09	1078.14
811.41	1082.10
811.73	1078.17
812.05	1077.37
812.37	1077.82
812.69	1074.54
813.01	1073.53
813.33	1075.41
813.66	1078.71
813.98	1078.61
814.30	1078.66
814.62	1078.57
814.94	1079.53
815.26	1078.96
815.58	1077.00
815.90	1079.15
816.22	1080.25
816.54	1074.59
816.86	1071.73
817.18	1073.39
817.50	1072.41
817.82	1071.22
818.14	1074.19
818.46	1076.37
818.78	1077.04
819.10	1076.53
819.42	1078.64
819.74	1079.83
820.06	1080.04
820.38	1079.24
820.70	1081.33
821.02	1077.09
821.34	1076.83
821.66	1075.43
821.98	1073.53
822.30	1073.14
822.62	1074.75
822.94	1075.48
823.26	1075.59
823.58	1077.77
823.90	1077.72
824.22	1075.99
824.54	1077.51
824.86	1078.21
825.18	1077.04
825.50	1074.84
825.81	1075.87
826.13	1075.45
826.45	1074.91
826.77	1077.23
827.09	1078.24
827.41	1077.47
827.73	1076.95
828.05	1075.01
828.36	1073.14
828.68	1072.97
829.00	1075.38
829.32	1073.28
829.64	1073.18
829.96	1073.93
830.28	1074.47
830.59	1073.74
830.91	1073.39
831.23	1076.32
831.55	1080.16
831.87	1083.32
832.19	1085.73
832.50	1089.66
832.82	1092.05
833.14	1086.36
833.46	1083.39
833.78	1080.06
834.09	1081.00
834.41	1078.19
834.73	1082.80
835.05	1084.42
835.36	1086.87
835.68	1080.84
836.00	1081.54
836.32	1077.14
836.63	1074.00
836.95	1071.10
837.27	1073.21
837.59	1072.64
837.90	1072.36
838.22	1074.21
838.54	1074.75
838.85	1074.10
839.17	1074.19
839.49	1076.01
839.80	1075.76
840.12	1075.94
840.44	1075.52
840.76	1075.73
841.07	1074.17
841.39	1072.62
841.71	1073.49
842.02	1074.42
842.34	1073.18
842.65	1071.61
842.97	1073.72
843.29	1072.27
843.60	1072.53
843.92	1073.00
844.24	1076.62
844.55	1074.91
844.87	1077.04
845.18	1078.17
845.50	1079.15
845.82	1080.93
846.13	1083.25
846.45	1082.64
846.76	1081.23
847.08	1080.58
847.40	1077.96
847.71	1075.62
848.03	1074.21
848.34	1074.31
848.66	1073.28
848.97	1073.79
849.29	1074.17
849.60	1076.20
849.92	1078.05
850.24	1077.86
850.55	1076.46
850.87	1076.08
851.18	1077.00
851.50	1077.65
851.81	1080.91
852.13	1080.53
852.44	1077.44
852.76	1075.31
853.07	1074.03
853.39	1072.11
853.70	1074.28
854.01	1079.71
854.33	1076.62
854.64	1076.37
854.96	1076.51
855.27	1076.23
855.59	1071.75
855.90	1077.89
856.22	1079.53
856.53	1081.19
856.84	1081.28
857.16	1083.50
857.47	1079.03
857.79	1077.21
858.10	1075.52
858.41	1073.63
858.73	1075.13
859.04	1076.60
859.36	1076.44
859.67	1077.09
859.98	1078.47
860.30	1078.31
860.61	1080.06
860.92	1077.72
861.24	1075.24
861.55	1074.80
861.87	1072.62
862.18	1072.53
862.49	1073.74
862.81	1074.42
863.12	1073.25
863.43	1072.90
863.74	1068.22
864.06	1069.13
864.37	1069.77
864.68	1071.31
865.00	1072.60
865.31	1076.04
865.62	1075.50
865.94	1076.76
866.25	1076.81
866.56	1076.34
866.87	1075.62
867.19	1075.20
867.50	1076.97
867.81	1077.96
868.12	1079.88
868.44	1078.66
868.75	1080.77
869.06	1077.04
869.37	1078.03
869.68	1079.13
870.00	1078.40
870.31	1076.67
870.62	1079.13
870.93	1078.28
871.24	1076.74
871.56	1078.75
871.87	1080.77
872.18	1080.41
872.49	1076.15
872.80	1075.76
873.12	1075.87
873.43	1073.74
873.74	1073.86
874.05	1078.50
874.36	1078.33
874.67	1078.61
874.98	1078.31
875.29	1079.13
875.61	1076.11
875.92	1076.15
876.23	1078.31
876.54	1079.55
876.85	1080.06
877.16	1082.19
877.47	1082.52
877.78	1082.43
878.09	1082.97
878.40	1078.99
878.72	1074.80
879.03	1076.55
879.34	1072.76
879.65	1073.51
879.96	1071.40
880.27	1073.91
880.58	1071.80
880.89	1074.35
881.20	1070.98
881.51	1073.95
881.82	1073.84
882.13	1075.73
882.44	1076.13
882.75	1076.79
883.06	1077.25
883.37	1080.67
883.68	1080.91
883.99	1077.89
884.30	1077.51
884.61	1076.67
884.92	1073.86
885.23	1072.76
885.54	1073.49
885.85	1076.44
886.16	1078.89
886.47	1079.74
886.78	1079.31
887.08	1081.33
887.39	1079.60
887.70	1078.50
888.01	1080.81
888.32	1080.98
888.63	1082.08
888.94	1082.40
889.25	1081.42
889.56	1077.28
889.87	1075.27
890.17	1074.70
890.48	1076.27
890.79	1077.33
891.10	1076.11
891.41	1077.63
891.72	1074.68
892.03	1074.40
892.34	1074.80
892.64	1079.81
892.95	1080.39
893.26	1079.31
893.57	1078.52
893.88	1075.31
894.18	1070.70
894.49	1068.50
894.80	1072.95
895.11	1072.83
895.42	1076.83
895.72	1079.53
896.03	1085.24
896.34	1083.46
896.65	1085.17
896.96	1084.60
897.26	1086.31
897.57	1082.66
897.88	1081.23
898.19	1078.52
898.49	1079.81
898.80	1078.61
899.11	1077.72
899.41	1077.89
899.72	1077.16
900.03	1076.11
900.34	1075.27
900.64	1076.37
900.95	1077.33
901.26	1080.93
901.56	1080.56
901.87	1080.72
902.18	1078.47
902.48	1077.82
902.79	1073.98
903.10	1074.77
903.40	1075.50
903.71	1077.18
904.02	1079.15
904.32	1079.97
904.63	1078.52
904.94	1076.88
905.24	1077.04
905.55	1075.38
905.85	1076.13
906.16	1074.87
906.47	1074.70
906.77	1072.97
907.08	1073.60
907.38	1073.56
907.69	1073.95
908.00	1076.34
908.30	1078.21
908.61	1079.24
908.91	1080.98
909.22	1084.91
909.52	1083.95
909.83	1083.18
910.14	1082.01
910.44	1078.89
910.75	1072.71
911.05	1074.12
911.36	1073.32
911.66	1071.05
911.97	1073.21
912.27	1078.96
912.58	1075.94
912.88	1077.82
913.19	1079.13
913.49	1080.48
913.80	1078.54
914.10	1083.55
914.41	1084.86
914.71	1085.28
915.01	1082.92
915.32	1080.91
915.62	1076.25
915.93	1076.58
916.23	1078.36
916.54	1079.41
916.84	1079.38
917.15	1079.60
917.45	1079.17
917.75	1077.47
918.06	1078.78
918.36	1079.10
918.67	1079.55
918.97	1079.08
919.27	1081.05
919.58	1081.19
919.88	1080.84
920.18	1079.46
920.49	1080.04
920.79	1080.98
921.10	1079.10
921.40	1080.11
921.70	1079.78
922.01	1077.28
922.31	1073.95
922.61	1070.42
922.92	1070.82
923.22	1071.45
923.52	1073.14
923.82	1074.75
924.13	1079.24
924.43	1079.62
924.73	1079.53
925.04	1075.27
925.34	1073.91
925.64	1071.22
925.94	1071.26
926.25	1074.42
926.55	1074.89
926.85	1075.73
927.15	1075.87
927.46	1076.83
927.76	1076.15
928.06	1077.07
928.36	1076.18
928.67	1075.78
928.97	1072.92
929.27	1072.27
929.57	1076.69
929.87	1079.08
930.18	1079.71
930.48	1078.94
930.78	1076.74
931.08	1074.96
931.38	1075.71
931.69	1075.17
931.99	1076.20
932.29	1077.68
932.59	1076.41
932.89	1073.70
933.19	1075.48
933.49	1074.42
933.80	1074.49
934.10	1076.06
934.40	1077.25
934.70	1075.36
935.00	1076.15
935.30	1079.13
935.60	1078.43
935.90	1075.50
936.20	1078.33
936.50	1078.66
936.81	1075.01
937.11	1072.90
937.41	1072.60
937.71	1072.36
938.01	1074.56
938.31	1073.25
938.61	1073.46
938.91	1073.39
939.21	1071.01
939.51	1068.45
939.81	1073.00
940.11	1074.49
940.41	1077.07
940.71	1076.62
941.01	1079.76
941.31	1078.14
941.61	1080.84
941.91	1079.83
942.21	1080.60
942.51	1077.77
942.81	1076.08
943.11	1072.64
943.41	1074.07
943.71	1076.44
944.01	1077.56
944.31	1080.60
944.61	1083.93
944.90	1081.73
945.20	1077.91
945.50	1078.17
945.80	1075.41
946.10	1072.97
946.40	1071.12
946.70	1071.22
947.00	1069.04
947.30	1070.77
947.60	1069.86
947.89	1072.76
948.19	1075.92
948.49	1076.93
948.79	1077.00
949.09	1078.14
949.39	1079.78
949.69	1079.20
949.98	1079.13
950.28	1077.89
950.58	1080.34
950.88	1082.10
951.18	1083.88
951.48	1083.50
951.77	1084.60
952.07	1081.30
952.37	1078.45
952.67	1074.98
952.97	1074.75
953.26	1074.24
953.56	1075.73
953.86	1074.56
954.16	1075.80
954.45	1078.50
954.75	1079.48
955.05	1079.60
955.35	1080.93
955.64	1081.14
955.94	1078.43
956.24	1074.82
956.54	1072.25
956.83	1069.39
957.13	1067.35
957.43	1068.20
957.72	1072.34
958.02	1077.72
958.32	1078.47
958.61	1080.34
958.91	1080.51
959.21	1079.85
959.50	1075.36
959.80	1076.69
960.10	1077.70
960.39	1077.65
960.69	1077.07
960.99	1074.17
961.28	1074.12
961.58	1073.21
961.87	1072.15
962.17	1072.11
962.47	1075.48
962.76	1077.11
963.06	1076.34
963.36	1079.67
963.65	1079.06
963.95	1080.23
964.24	1080.77
964.54	1083.29
964.83	1079.17
965.13	1079.81
965.42	1080.39
965.72	1077.91
966.02	1076.60
966.31	1079.43
966.61	1077.37
966.90	1076.20
967.20	1075.24
967.49	1075.90
967.79	1076.88
968.08	1078.94
968.38	1075.83
968.67	1078.68
968.97	1075.36
969.26	1072.95
969.56	1070.70
969.85	1073.88
970.15	1073.65
970.44	1073.28
970.74	1073.84
971.03	1074.12
971.32	1073.56
971.62	1073.30
971.91	1076.58
972.21	1075.90
972.50	1074.38
972.80	1074.87
973.09	1075.59
973.38	1075.87
973.68	1077.21
973.97	1079.13
974.27	1077.82
974.56	1075.10
974.85	1076.67
975.15	1077.47
975.44	1080.77
975.73	1080.27
976.03	1081.58
976.32	1078.57
976.61	1073.11
976.91	1069.67
977.20	1072.39
977.49	1070.84
977.79	1071.26
978.08	1076.76
978.37	1075.15
978.67	1073.53
978.96	1075.10
979.25	1073.14
979.55	1069.77
979.84	1074.31
980.13	1077.00
980.42	1078.45
980.72	1082.71
981.01	1086.48
981.30	1081.87
981.59	1079.71
981.89	1078.54
982.18	1074.31
982.47	1071.85
982.76	1072.29
983.06	1070.30
983.35	1070.35
983.64	1073.51
983.93	1072.62
984.22	1073.53
984.52	1074.66
984.81	1074.96
985.10	1071.61
985.39	1073.21
985.68	1071.01
985.97	1072.01
986.27	1072.18
986.56	1075.15
986.85	1075.71
987.14	1080.27
987.43	1080.74
987.72	1079.60
988.01	1080.06
988.31	1079.81
988.60	1076.13
988.89	1076.83
989.18	1079.17
989.47	1077.30
989.76	1076.06
990.05	1080.02
990.34	1080.65
990.63	1080.23
990.92	1080.60
991.21	1082.54
991.51	1080.67
991.80	1079.67
992.09	1077.37
992.38	1077.91
992.67	1078.26
992.96	1079.29
993.25	1077.49
993.54	1078.36
993.83	1078.12
994.12	1075.99
994.41	1075.03
994.70	1076.53
994.99	1076.74
995.28	1080.32
995.57	1079.71
995.86	1081.07
996.15	1079.13
996.44	1083.43
996.73	1076.90
997.02	1079.78
997.31	1080.65
997.59	1083.93
997.88	1076.76
998.17	1081.42
998.46	1078.92
998.75	1075.31
999.04	1072.95
999.33	1072.64
999.62	1071.64
999.91	1076.37
1000.20	1075.78
1000.49	1074.75
1000.77	1076.32
1001.06	1077.42
1001.35	1073.21
1001.64	1074.26
1001.93	1073.65
1002.22	1075.31
1002.51	1075.36
1002.79	1076.60
1003.08	1077.23
1003.37	1076.27
1003.66	1075.90
1003.95	1074.24
1004.23	1073.35
1004.52	1075.43
1004.81	1076.23
1005.10	1076.81
1005.39	1077.25
1005.67	1077.42
1005.96	1074.38
1006.25	1076.23
1006.54	1075.50
1006.83	1076.15
1007.11	1077.96
1007.40	1082.43
1007.69	1082.08
1007.97	1081.49
1008.26	1081.30
1008.55	1078.78
1008.84	1075.69
1009.12	1076.65
1009.41	1077.07
1009.70	1076.13
1009.98	1076.69
1010.27	1077.47
1010.56	1073.53
1010.85	1072.48
1011.13	1072.46
1011.42	1073.23
1011.71	1069.79
1011.99	1074.82
1012.28	1075.24
1012.56	1074.14
1012.85	1072.83
1013.14	1074.77
1013.42	1074.14
1013.71	1072.85
1014.00	1071.75
1014.28	1071.92
1014.57	1070.70
1014.85	1069.91
1015.14	1072.81
1015.43	1073.32
1015.71	1073.56
1016.00	1078.33
1016.28	1076.51
1016.57	1077.02
1016.85	1080.09
1017.14	1080.93
1017.43	1079.06
1017.71	1079.38
1018.00	1080.11
1018.28	1080.18
1018.57	1078.92
1018.85	1079.03
1019.14	1081.12
1019.42	1080.09
1019.71	1077.35
1019.99	1079.69
1020.28	1078.31
1020.56	1078.12
1020.85	1078.19
1021.13	1080.74
1021.42	1077.04
1021.70	1078.12
1021.99	1076.72
1022.27	1074.03
1022.55	1073.14
1022.84	1068.34
>>>>>End Processed Spectral Data<<<<<
