SpectraSuite Data File
++++++++++++++++++++++++++++++++++++
Date: Mon Aug 26 10:21:56 PDT 2019
User: corrico
Dark Spectrum Present: No
Reference Spectrum Present: No
Number of Sampled Component Spectra: 1
Spectrometers: USB2+H06089
Integration Time (usec): 2000 (USB2+H06089)
Spectra Averaged: 20 (USB2+H06089)
Boxcar Smoothing: 2 (USB2+H06089)
Correct for Electrical Dark: No (USB2+H06089)
Strobe/Lamp Enabled: No (USB2+H06089)
Correct for Detector Non-linearity: No (USB2+H06089)
Correct for Stray Light: No (USB2+H06089)
Number of Pixels in Processed Spectrum: 2048
>>>>>Begin Processed Spectral Data<<<<<
339.70	1021.06
340.07	1021.06
340.45	988.10
340.82	966.99
341.19	946.16
341.57	921.68
341.94	911.78
342.31	904.03
342.69	900.24
343.06	895.11
343.43	895.65
343.81	897.76
344.18	898.81
344.55	901.34
344.93	907.89
345.30	912.90
345.67	918.03
346.04	929.40
346.42	940.03
346.79	945.13
347.16	952.93
347.54	962.15
347.91	966.81
348.28	975.77
348.65	985.88
349.03	994.59
349.40	999.81
349.77	1008.79
350.14	1011.70
350.52	1020.78
350.89	1028.81
351.26	1038.05
351.63	1042.01
352.01	1050.13
352.38	1055.61
352.75	1058.37
353.12	1063.12
353.50	1066.96
353.87	1067.64
354.24	1067.03
354.61	1069.34
354.98	1068.92
355.36	1070.82
355.73	1072.71
356.10	1071.78
356.47	1072.20
356.84	1074.17
357.22	1073.39
357.59	1073.91
357.96	1076.79
358.33	1075.45
358.70	1071.90
359.08	1070.89
359.45	1067.92
359.82	1067.00
360.19	1064.97
360.56	1064.29
360.94	1065.86
361.31	1066.21
361.68	1062.09
362.05	1061.64
362.42	1064.36
362.79	1060.99
363.16	1060.80
363.54	1063.54
363.91	1064.92
364.28	1062.63
364.65	1066.79
365.02	1068.41
365.39	1067.07
365.76	1066.02
366.14	1065.32
366.51	1060.71
366.88	1058.83
367.25	1060.15
367.62	1060.29
367.99	1061.43
368.36	1062.44
368.73	1063.68
369.10	1061.83
369.48	1062.72
369.85	1061.43
370.22	1060.05
370.59	1059.05
370.96	1062.60
371.33	1063.02
371.70	1065.04
372.07	1068.57
372.44	1067.40
372.81	1064.03
373.18	1064.34
373.55	1063.80
373.93	1061.04
374.30	1061.04
374.67	1061.97
375.04	1061.11
375.41	1059.79
375.78	1063.61
376.15	1065.60
376.52	1066.44
376.89	1065.32
377.26	1064.71
377.63	1061.78
378.00	1060.26
378.37	1055.98
378.74	1056.94
379.11	1059.26
379.48	1056.66
379.85	1057.43
380.22	1061.29
380.59	1062.60
380.96	1062.84
381.33	1064.71
381.70	1066.96
382.07	1069.88
382.44	1068.31
382.81	1069.32
383.18	1069.37
383.55	1067.99
383.92	1063.96
384.29	1064.03
384.66	1063.26
385.03	1064.05
385.40	1063.02
385.77	1066.44
386.14	1068.85
386.51	1068.85
386.88	1070.72
387.25	1069.84
387.62	1067.17
387.99	1064.08
388.36	1064.90
388.73	1062.79
389.10	1067.40
389.46	1069.86
389.83	1069.65
390.20	1068.36
390.57	1072.55
390.94	1071.33
391.31	1069.39
391.68	1070.75
392.05	1070.96
392.42	1069.04
392.79	1067.71
393.16	1064.99
393.53	1065.41
393.89	1067.61
394.26	1066.14
394.63	1064.41
395.00	1065.51
395.37	1069.46
395.74	1070.61
396.11	1071.71
396.48	1073.35
396.84	1073.86
397.21	1072.78
397.58	1069.60
397.95	1066.32
398.32	1070.26
398.69	1071.94
399.06	1071.68
399.42	1072.48
399.79	1074.80
400.16	1068.52
400.53	1067.92
400.90	1068.17
401.27	1067.31
401.64	1068.36
402.00	1071.52
402.37	1073.07
402.74	1070.47
403.11	1071.99
403.48	1069.16
403.84	1069.11
404.21	1071.52
404.58	1073.53
404.95	1072.01
405.32	1076.39
405.68	1077.91
406.05	1073.51
406.42	1073.23
406.79	1076.32
407.16	1074.42
407.52	1073.79
407.89	1076.46
408.26	1076.23
408.63	1075.99
408.99	1075.97
409.36	1075.38
409.73	1077.61
410.10	1078.19
410.47	1075.99
410.83	1076.04
411.20	1077.42
411.57	1075.22
411.94	1070.26
412.30	1071.92
412.67	1072.57
413.04	1072.83
413.40	1074.73
413.77	1076.53
414.14	1076.60
414.51	1077.84
414.87	1077.75
415.24	1074.94
415.61	1076.34
415.97	1074.91
416.34	1071.71
416.71	1069.13
417.08	1067.61
417.44	1067.68
417.81	1068.29
418.18	1072.78
418.54	1072.71
418.91	1076.44
419.28	1076.83
419.64	1075.62
420.01	1075.24
420.38	1075.34
420.74	1076.01
421.11	1075.87
421.48	1079.06
421.84	1079.62
422.21	1080.20
422.58	1078.99
422.94	1080.67
423.31	1081.30
423.68	1077.35
424.04	1079.83
424.41	1081.96
424.77	1081.58
425.14	1078.96
425.51	1080.72
425.87	1075.92
426.24	1072.88
426.61	1072.92
426.97	1072.04
427.34	1073.07
427.70	1071.71
428.07	1073.23
428.44	1074.56
428.80	1079.74
429.17	1080.23
429.53	1089.00
429.90	1088.00
430.27	1090.76
430.63	1089.52
431.00	1091.20
431.36	1087.95
431.73	1091.04
432.09	1090.99
432.46	1091.84
432.83	1090.83
433.19	1096.73
433.56	1098.83
433.92	1099.91
434.29	1100.94
434.65	1104.92
435.02	1101.95
435.38	1100.33
435.75	1102.11
436.11	1106.32
436.48	1108.01
436.84	1112.53
437.21	1117.75
437.57	1121.02
437.94	1122.78
438.30	1125.24
438.67	1129.57
439.03	1130.85
439.40	1135.53
439.76	1138.97
440.13	1147.92
440.49	1150.56
440.86	1157.02
441.22	1163.15
441.59	1172.37
441.95	1173.99
442.32	1183.49
442.68	1193.25
443.05	1201.09
443.41	1207.44
443.78	1215.18
444.14	1223.47
444.51	1228.59
444.87	1238.05
445.24	1247.48
445.60	1259.70
445.96	1271.33
446.33	1286.99
446.69	1298.90
447.06	1311.21
447.42	1324.28
447.79	1340.07
448.15	1354.66
448.51	1370.01
448.88	1389.72
449.24	1411.18
449.61	1430.86
449.97	1453.78
450.33	1475.01
450.70	1493.59
451.06	1515.92
451.43	1536.49
451.79	1562.35
452.15	1587.66
452.52	1619.70
452.88	1647.36
453.24	1685.26
453.61	1718.09
453.97	1761.65
454.34	1800.43
454.70	1845.89
455.06	1886.57
455.43	1931.43
455.79	1971.34
456.15	2019.84
456.52	2065.92
456.88	2113.83
457.24	2165.11
457.61	2221.64
457.97	2274.53
458.33	2329.84
458.70	2391.63
459.06	2448.04
459.42	2509.52
459.79	2572.72
460.15	2638.42
460.51	2696.88
460.88	2758.65
461.24	2820.16
461.60	2878.46
461.96	2940.02
462.33	2995.53
462.69	3050.75
463.05	3106.15
463.42	3165.69
463.78	3220.20
464.14	3273.26
464.50	3338.35
464.87	3383.27
465.23	3413.60
465.59	3449.22
465.95	3485.10
466.32	3505.26
466.68	3528.33
467.04	3548.77
467.40	3558.76
467.77	3564.64
468.13	3560.31
468.49	3546.33
468.85	3540.08
469.22	3527.84
469.58	3508.56
469.94	3496.50
470.30	3486.32
470.66	3463.52
471.03	3434.17
471.39	3416.32
471.75	3381.16
472.11	3346.90
472.47	3318.65
472.84	3288.83
473.20	3250.40
473.56	3230.08
473.92	3192.98
474.28	3167.14
474.65	3137.07
475.01	3107.27
475.37	3061.94
475.73	3036.85
476.09	3004.97
476.45	2974.45
476.81	2942.33
477.18	2909.75
477.54	2881.88
477.90	2850.73
478.26	2814.00
478.62	2781.70
478.98	2759.05
479.34	2736.23
479.71	2709.43
480.07	2694.28
480.43	2683.28
480.79	2663.55
481.15	2638.88
481.51	2614.07
481.87	2597.20
482.23	2566.49
482.59	2540.21
482.96	2514.27
483.32	2491.73
483.68	2459.34
484.04	2440.97
484.40	2422.22
484.76	2398.67
485.12	2371.74
485.48	2348.87
485.84	2323.73
486.20	2299.69
486.56	2278.93
486.92	2262.46
487.28	2241.37
487.64	2213.77
488.00	2193.95
488.37	2166.59
488.73	2140.30
489.09	2111.02
489.45	2088.74
489.81	2055.15
490.17	2029.71
490.53	2002.61
490.89	1981.31
491.25	1955.87
491.61	1935.25
491.97	1912.26
492.33	1888.32
492.69	1862.55
493.05	1844.11
493.41	1822.46
493.77	1797.77
494.13	1775.48
494.49	1757.88
494.85	1735.88
495.21	1713.13
495.57	1701.52
495.93	1686.15
496.29	1670.28
496.64	1648.35
497.00	1633.88
497.36	1616.65
497.72	1600.81
498.08	1580.54
498.44	1565.65
498.80	1551.52
499.16	1534.24
499.52	1520.53
499.88	1511.24
500.24	1501.59
500.60	1488.28
500.96	1479.12
501.32	1467.31
501.68	1455.32
502.03	1444.32
502.39	1433.44
502.75	1420.56
503.11	1406.76
503.47	1397.16
503.83	1383.98
504.19	1374.95
504.55	1364.20
504.91	1360.20
505.26	1349.30
505.62	1343.23
505.98	1334.55
506.34	1328.04
506.70	1319.01
507.06	1312.57
507.42	1302.39
507.78	1293.92
508.13	1288.68
508.49	1283.11
508.85	1274.40
509.21	1269.20
509.57	1262.06
509.93	1256.31
510.28	1253.38
510.64	1248.98
511.00	1244.02
511.36	1242.59
511.72	1236.01
512.07	1227.26
512.43	1222.37
512.79	1218.46
513.15	1209.17
513.51	1203.85
513.86	1198.10
514.22	1197.30
514.58	1192.83
514.94	1191.52
515.30	1191.52
515.65	1186.25
516.01	1179.96
516.37	1178.16
516.73	1174.57
517.08	1165.84
517.44	1164.58
517.80	1162.10
518.16	1158.73
518.51	1157.07
518.87	1159.60
519.23	1155.80
519.59	1153.14
519.94	1149.93
520.30	1146.61
520.66	1141.22
521.01	1141.32
521.37	1137.87
521.73	1136.66
522.09	1135.60
522.44	1133.62
522.80	1133.12
523.16	1130.55
523.51	1129.68
523.87	1127.55
524.23	1129.68
524.58	1122.22
524.94	1121.02
525.30	1118.07
525.65	1117.18
526.01	1116.93
526.37	1116.90
526.72	1119.57
527.08	1119.34
527.44	1117.37
527.79	1113.51
528.15	1119.48
528.51	1115.52
528.86	1113.51
529.22	1109.74
529.58	1106.18
529.93	1100.12
530.29	1103.40
530.65	1104.85
531.00	1105.74
531.36	1106.02
531.71	1106.44
532.07	1101.53
532.43	1095.32
532.78	1096.73
533.14	1097.59
533.49	1097.27
533.85	1098.55
534.21	1100.33
534.56	1099.16
534.92	1095.07
535.27	1095.00
535.63	1092.45
535.98	1094.76
536.34	1093.78
536.69	1091.81
537.05	1092.30
537.41	1093.12
537.76	1092.40
538.12	1093.22
538.47	1093.55
538.83	1091.46
539.18	1090.10
539.54	1088.93
539.89	1089.73
540.25	1092.59
540.60	1093.99
540.96	1092.00
541.31	1090.27
541.67	1090.27
542.02	1088.21
542.38	1083.48
542.73	1086.55
543.09	1082.61
543.44	1080.02
543.80	1082.24
544.15	1084.49
544.51	1081.26
544.86	1087.16
545.22	1087.72
545.57	1087.20
545.93	1086.20
546.28	1088.61
546.64	1085.54
546.99	1083.43
547.35	1083.11
547.70	1079.48
548.05	1078.54
548.41	1078.33
548.76	1079.29
549.12	1080.46
549.47	1084.81
549.83	1082.12
550.18	1085.05
550.53	1086.97
550.89	1083.81
551.24	1081.05
551.60	1084.02
551.95	1082.92
552.30	1080.37
552.66	1079.81
553.01	1082.29
553.37	1080.95
553.72	1080.91
554.07	1079.53
554.43	1080.34
554.78	1079.85
555.13	1078.99
555.49	1075.52
555.84	1073.93
556.19	1072.13
556.55	1070.44
556.90	1071.82
557.26	1072.83
557.61	1073.91
557.96	1075.43
558.32	1078.26
558.67	1078.52
559.02	1077.25
559.37	1078.43
559.73	1076.41
560.08	1073.30
560.43	1072.60
560.79	1070.94
561.14	1071.92
561.49	1076.30
561.85	1076.06
562.20	1076.04
562.55	1078.33
562.90	1075.64
563.26	1075.03
563.61	1075.01
563.96	1076.25
564.32	1076.93
564.67	1079.74
565.02	1079.38
565.37	1082.52
565.73	1080.58
566.08	1079.55
566.43	1079.41
566.78	1078.87
567.14	1076.76
567.49	1076.97
567.84	1077.77
568.19	1078.66
568.54	1076.15
568.90	1075.20
569.25	1074.19
569.60	1076.27
569.95	1078.38
570.31	1079.15
570.66	1081.96
571.01	1083.29
571.36	1083.22
571.71	1080.60
572.06	1081.73
572.42	1079.92
572.77	1077.72
573.12	1076.97
573.47	1079.95
573.82	1080.48
574.18	1079.08
574.53	1081.14
574.88	1079.17
575.23	1074.03
575.58	1072.34
575.93	1073.16
576.28	1076.13
576.64	1074.28
576.99	1074.98
577.34	1075.94
577.69	1078.54
578.04	1075.15
578.39	1078.00
578.74	1076.51
579.09	1077.37
579.44	1075.57
579.80	1075.87
580.15	1075.22
580.50	1074.84
580.85	1072.20
581.20	1072.43
581.55	1073.46
581.90	1074.70
582.25	1079.22
582.60	1080.09
582.95	1078.94
583.30	1076.32
583.65	1078.40
584.00	1077.28
584.35	1079.92
584.71	1080.44
585.06	1081.80
585.41	1080.30
585.76	1078.78
586.11	1075.64
586.46	1075.62
586.81	1076.34
587.16	1076.62
587.51	1075.90
587.86	1078.33
588.21	1078.05
588.56	1076.74
588.91	1076.08
589.26	1078.31
589.61	1077.70
589.96	1079.69
590.31	1078.96
590.66	1079.27
591.01	1077.79
591.36	1076.04
591.71	1075.29
592.06	1074.84
592.41	1073.07
592.76	1074.96
593.10	1074.03
593.45	1073.51
593.80	1076.95
594.15	1079.08
594.50	1077.93
594.85	1079.81
595.20	1078.52
595.55	1075.29
595.90	1074.00
596.25	1074.87
596.60	1072.78
596.95	1072.74
597.30	1072.67
597.64	1082.94
597.99	1082.57
598.34	1087.34
598.69	1087.44
599.04	1090.85
599.39	1078.45
599.74	1079.27
600.09	1074.87
600.44	1075.52
600.78	1074.49
601.13	1076.48
601.48	1074.47
601.83	1076.60
602.18	1079.38
602.53	1082.08
602.88	1083.71
603.22	1083.83
603.57	1084.72
603.92	1084.14
604.27	1079.57
604.62	1077.98
604.97	1076.97
605.31	1075.80
605.66	1075.57
606.01	1076.15
606.36	1076.44
606.71	1075.45
607.05	1073.63
607.40	1071.92
607.75	1073.53
608.10	1072.71
608.44	1075.94
608.79	1076.39
609.14	1075.73
609.49	1074.28
609.84	1075.10
610.18	1074.84
610.53	1072.50
610.88	1070.37
611.23	1073.72
611.57	1070.89
611.92	1072.76
612.27	1076.30
612.62	1077.04
612.96	1073.30
613.31	1076.27
613.66	1071.19
614.00	1071.45
614.35	1073.70
614.70	1076.23
615.05	1078.12
615.39	1080.67
615.74	1081.98
616.09	1080.86
616.43	1078.47
616.78	1074.84
617.13	1072.92
617.47	1071.71
617.82	1070.02
618.17	1070.19
618.51	1071.54
618.86	1072.83
619.21	1073.72
619.55	1074.82
619.90	1075.52
620.25	1077.25
620.59	1077.84
620.94	1074.98
621.29	1078.14
621.63	1079.10
621.98	1078.36
622.32	1077.65
622.67	1077.70
623.02	1078.05
623.36	1074.91
623.71	1074.45
624.05	1075.17
624.40	1073.81
624.75	1071.47
625.09	1073.67
625.44	1072.57
625.78	1069.95
626.13	1072.11
626.48	1071.26
626.82	1069.30
627.17	1067.05
627.51	1068.95
627.86	1073.65
628.20	1076.08
628.55	1078.66
628.89	1080.91
629.24	1082.05
629.58	1078.92
629.93	1076.18
630.28	1074.73
630.62	1074.82
630.97	1071.73
631.31	1069.79
631.66	1071.43
632.00	1070.56
632.35	1071.08
632.69	1073.70
633.04	1076.95
633.38	1075.87
633.73	1079.06
634.07	1080.53
634.42	1080.86
634.76	1077.44
635.11	1075.97
635.45	1075.97
635.79	1075.45
636.14	1075.13
636.48	1074.45
636.83	1074.91
637.17	1075.01
637.52	1074.47
637.86	1074.89
638.21	1076.44
638.55	1077.68
638.89	1076.55
639.24	1075.90
639.58	1073.07
639.93	1072.88
640.27	1071.26
640.61	1068.64
640.96	1067.61
641.30	1068.62
641.65	1069.41
641.99	1071.68
642.33	1071.43
642.68	1073.18
643.02	1074.89
643.37	1074.82
643.71	1073.79
644.05	1076.62
644.40	1075.76
644.74	1074.38
645.08	1073.91
645.43	1074.59
645.77	1072.25
646.11	1072.41
646.46	1071.29
646.80	1067.99
647.14	1067.05
647.49	1068.67
647.83	1068.97
648.17	1067.33
648.52	1070.26
648.86	1071.17
649.20	1077.02
649.55	1076.53
649.89	1081.84
650.23	1082.61
650.57	1082.10
650.92	1077.72
651.26	1076.62
651.60	1074.00
651.95	1074.07
652.29	1073.93
652.63	1074.84
652.97	1076.79
653.32	1077.07
653.66	1076.60
654.00	1076.39
654.34	1074.28
654.69	1072.15
655.03	1073.91
655.37	1076.01
655.71	1076.23
656.05	1075.05
656.40	1077.77
656.74	1077.42
657.08	1078.75
657.42	1081.00
657.76	1080.34
658.11	1080.18
658.45	1077.98
658.79	1072.81
659.13	1071.10
659.47	1074.07
659.82	1070.80
660.16	1074.61
660.50	1078.21
660.84	1079.29
661.18	1079.50
661.52	1081.70
661.87	1076.06
662.21	1072.60
662.55	1069.06
662.89	1069.06
663.23	1070.28
663.57	1072.95
663.91	1077.82
664.25	1080.79
664.60	1078.57
664.94	1074.52
665.28	1074.73
665.62	1071.71
665.96	1070.72
666.30	1071.59
666.64	1074.73
666.98	1075.62
667.32	1077.16
667.66	1076.88
668.01	1074.63
668.35	1074.91
668.69	1073.11
669.03	1071.85
669.37	1073.35
669.71	1079.08
670.05	1080.65
670.39	1081.35
670.73	1079.46
671.07	1079.64
671.41	1077.02
671.75	1077.07
672.09	1077.44
672.43	1080.98
672.77	1079.43
673.11	1077.11
673.45	1075.15
673.79	1074.91
674.13	1074.19
674.47	1073.77
674.81	1075.34
675.15	1073.07
675.49	1070.51
675.83	1066.42
676.17	1069.23
676.51	1069.95
676.85	1071.50
677.19	1073.23
677.53	1076.46
677.87	1076.48
678.21	1077.02
678.55	1078.89
678.89	1076.37
679.23	1076.30
679.57	1076.32
679.90	1074.40
680.24	1071.01
680.58	1075.13
680.92	1076.88
681.26	1075.64
681.60	1073.74
681.94	1075.41
682.28	1073.65
682.62	1075.29
682.96	1073.49
683.29	1077.49
683.63	1077.14
683.97	1079.92
684.31	1072.74
684.65	1072.60
684.99	1069.23
685.33	1067.59
685.67	1065.65
686.00	1071.12
686.34	1071.94
686.68	1074.59
687.02	1078.05
687.36	1078.59
687.70	1075.99
688.03	1077.02
688.37	1074.52
688.71	1071.29
689.05	1070.89
689.39	1071.50
689.72	1074.03
690.06	1075.15
690.40	1076.72
690.74	1076.04
691.08	1074.33
691.41	1072.32
691.75	1072.53
692.09	1073.93
692.43	1076.11
692.76	1076.15
693.10	1075.48
693.44	1074.96
693.78	1072.92
694.11	1070.42
694.45	1074.00
694.79	1073.70
695.13	1073.02
695.46	1073.79
695.80	1075.62
696.14	1071.85
696.48	1070.87
696.81	1072.69
697.15	1071.64
697.49	1072.01
697.82	1074.47
698.16	1073.46
698.50	1075.36
698.83	1075.08
699.17	1070.98
699.51	1070.33
699.84	1071.31
700.18	1069.65
700.52	1069.32
700.85	1072.34
701.19	1074.07
701.53	1074.80
701.86	1072.85
702.20	1074.56
702.54	1074.00
702.87	1069.58
703.21	1069.67
703.55	1072.41
703.88	1070.61
704.22	1070.56
704.55	1072.41
704.89	1073.60
705.23	1069.91
705.56	1074.77
705.90	1075.78
706.23	1074.84
706.57	1073.67
706.91	1078.43
707.24	1074.05
707.58	1073.07
707.91	1075.45
708.25	1077.04
708.58	1074.40
708.92	1076.88
709.26	1077.91
709.59	1077.25
709.93	1075.55
710.26	1073.28
710.60	1070.98
710.93	1069.79
711.27	1069.51
711.60	1071.19
711.94	1071.59
712.27	1074.05
712.61	1073.74
712.94	1072.95
713.28	1071.33
713.61	1073.86
713.95	1075.13
714.28	1074.33
714.62	1074.56
714.95	1076.48
715.29	1078.87
715.62	1077.18
715.96	1078.45
716.29	1078.07
716.63	1075.24
716.96	1073.04
717.29	1071.08
717.63	1071.19
717.96	1071.43
718.30	1071.68
718.63	1072.88
718.97	1072.60
719.30	1076.18
719.63	1078.45
719.97	1077.09
720.30	1076.95
720.64	1075.36
720.97	1073.11
721.30	1072.22
721.64	1075.34
721.97	1071.73
722.31	1073.46
722.64	1071.82
722.97	1068.10
723.31	1068.06
723.64	1071.33
723.97	1073.46
724.31	1074.82
724.64	1079.15
724.98	1075.85
725.31	1070.65
725.64	1070.42
725.98	1068.43
726.31	1064.31
726.64	1066.02
726.97	1070.33
727.31	1068.97
727.64	1071.78
727.97	1075.97
728.31	1076.37
728.64	1074.19
728.97	1073.28
729.31	1070.65
729.64	1070.14
729.97	1073.51
730.30	1077.18
730.64	1078.82
730.97	1080.46
731.30	1079.57
731.63	1078.43
731.97	1075.24
732.30	1074.80
732.63	1074.54
732.96	1074.35
733.30	1073.86
733.63	1074.59
733.96	1074.31
734.29	1074.61
734.63	1074.21
734.96	1073.37
735.29	1072.55
735.62	1073.91
735.95	1071.36
736.29	1073.25
736.62	1074.24
736.95	1075.78
737.28	1077.49
737.61	1079.31
737.94	1079.38
738.28	1078.99
738.61	1079.67
738.94	1078.66
739.27	1077.44
739.60	1074.03
739.93	1075.87
740.27	1077.72
740.60	1078.14
740.93	1079.31
741.26	1081.56
741.59	1078.14
741.92	1075.41
742.25	1073.84
742.58	1073.37
742.91	1072.81
743.25	1074.73
743.58	1075.01
743.91	1075.80
744.24	1075.66
744.57	1076.32
744.90	1075.20
745.23	1073.95
745.56	1070.16
745.89	1072.76
746.22	1068.88
746.55	1069.27
746.88	1070.70
747.21	1073.79
747.54	1074.10
747.87	1077.11
748.20	1076.88
748.53	1074.80
748.87	1073.60
749.20	1070.02
749.53	1071.80
749.86	1069.74
750.19	1069.51
750.52	1067.99
750.85	1069.88
751.18	1069.11
751.51	1070.30
751.84	1072.76
752.16	1074.98
752.49	1070.63
752.82	1071.40
753.15	1072.53
753.48	1069.74
753.81	1070.54
754.14	1072.43
754.47	1069.58
754.80	1068.03
755.13	1071.01
755.46	1068.41
755.79	1073.09
756.12	1072.64
756.45	1073.07
756.78	1072.95
757.11	1075.73
757.43	1073.44
757.76	1073.00
758.09	1074.38
758.42	1073.77
758.75	1071.31
759.08	1069.41
759.41	1069.67
759.74	1070.65
760.07	1072.41
760.39	1072.01
760.72	1074.00
761.05	1072.69
761.38	1071.36
761.71	1070.63
762.04	1072.55
762.36	1072.39
762.69	1075.66
763.02	1072.67
763.35	1069.16
763.68	1069.02
764.01	1068.22
764.33	1068.48
764.66	1070.75
764.99	1071.73
765.32	1072.32
765.65	1072.04
765.97	1072.69
766.30	1071.03
766.63	1071.31
766.96	1073.04
767.28	1075.24
767.61	1074.10
767.94	1073.98
768.27	1078.12
768.59	1077.68
768.92	1076.83
769.25	1076.41
769.58	1075.64
769.90	1074.40
770.23	1075.10
770.56	1074.52
770.89	1072.08
771.21	1073.74
771.54	1071.71
771.87	1068.83
772.19	1068.52
772.52	1073.04
772.85	1071.78
773.17	1069.53
773.50	1069.46
773.83	1072.20
774.15	1069.30
774.48	1070.51
774.81	1071.97
775.13	1075.94
775.46	1077.04
775.79	1079.99
776.11	1083.43
776.44	1086.90
776.77	1082.52
777.09	1079.08
777.42	1075.55
777.74	1069.98
778.07	1064.19
778.40	1068.10
778.72	1068.55
779.05	1071.33
779.37	1073.49
779.70	1078.07
780.03	1075.03
780.35	1074.33
780.68	1073.44
781.00	1075.94
781.33	1077.58
781.65	1073.88
781.98	1074.91
782.31	1075.73
782.63	1072.20
782.96	1067.00
783.28	1068.45
783.61	1066.79
783.93	1066.72
784.26	1066.51
784.58	1069.09
784.91	1069.91
785.23	1068.81
785.56	1070.61
785.88	1073.09
786.21	1074.07
786.53	1078.07
786.86	1081.73
787.18	1080.77
787.51	1080.58
787.83	1078.52
788.16	1076.55
788.48	1073.93
788.81	1075.13
789.13	1075.01
789.46	1076.51
789.78	1073.44
790.10	1073.63
790.43	1071.71
790.75	1071.12
791.08	1070.61
791.40	1072.50
791.73	1074.45
792.05	1073.88
792.37	1074.03
792.70	1072.25
793.02	1072.90
793.35	1072.81
793.67	1072.34
793.99	1071.94
794.32	1073.35
794.64	1072.60
794.96	1069.65
795.29	1070.68
795.61	1069.48
795.93	1069.74
796.26	1068.83
796.58	1069.60
796.91	1070.98
797.23	1070.98
797.55	1068.27
797.87	1069.79
798.20	1068.17
798.52	1063.49
798.84	1063.87
799.17	1066.35
799.49	1068.76
799.81	1069.39
800.14	1076.15
800.46	1077.11
800.78	1076.95
801.10	1072.15
801.43	1076.93
801.75	1073.32
802.07	1074.98
802.40	1075.41
802.72	1079.74
803.04	1079.20
803.36	1078.85
803.69	1077.11
804.01	1074.47
804.33	1072.29
804.65	1071.73
804.97	1072.53
805.30	1072.71
805.62	1070.98
805.94	1071.43
806.26	1069.34
806.58	1068.43
806.91	1067.47
807.23	1070.14
807.55	1069.53
807.87	1069.84
808.19	1069.70
808.52	1070.14
808.84	1069.11
809.16	1068.78
809.48	1073.11
809.80	1074.42
810.12	1073.56
810.44	1076.41
810.77	1075.45
811.09	1074.05
811.41	1073.39
811.73	1074.35
812.05	1075.13
812.37	1079.10
812.69	1078.33
813.01	1078.47
813.33	1079.13
813.66	1077.28
813.98	1074.07
814.30	1073.95
814.62	1074.66
814.94	1078.38
815.26	1077.63
815.58	1077.96
815.90	1075.66
816.22	1077.61
816.54	1073.42
816.86	1074.31
817.18	1075.20
817.50	1077.56
817.82	1074.63
818.14	1074.63
818.46	1069.62
818.78	1070.51
819.10	1067.05
819.42	1066.86
819.74	1069.39
820.06	1075.66
820.38	1077.30
820.70	1078.24
821.02	1075.78
821.34	1073.77
821.66	1075.05
821.98	1072.41
822.30	1070.49
822.62	1072.90
822.94	1075.62
823.26	1070.96
823.58	1072.85
823.90	1078.26
824.22	1075.85
824.54	1072.39
824.86	1077.40
825.18	1077.18
825.50	1074.00
825.81	1075.85
826.13	1074.63
826.45	1073.65
826.77	1071.01
827.09	1070.51
827.41	1072.25
827.73	1071.54
828.05	1071.29
828.36	1071.57
828.68	1075.15
829.00	1076.53
829.32	1076.97
829.64	1075.50
829.96	1079.29
830.28	1076.60
830.59	1074.56
830.91	1074.47
831.23	1073.95
831.55	1070.65
831.87	1071.57
832.19	1068.90
832.50	1073.88
832.82	1075.15
833.14	1073.74
833.46	1073.88
833.78	1074.68
834.09	1073.95
834.41	1073.70
834.73	1077.28
835.05	1075.01
835.36	1077.21
835.68	1074.00
836.00	1073.63
836.32	1072.53
836.63	1074.07
836.95	1073.51
837.27	1077.42
837.59	1078.78
837.90	1079.03
838.22	1076.67
838.54	1074.56
838.85	1071.66
839.17	1072.34
839.49	1069.86
839.80	1070.77
840.12	1072.81
840.44	1072.41
840.76	1069.70
841.07	1072.13
841.39	1069.95
841.71	1069.46
842.02	1071.71
842.34	1071.61
842.65	1071.38
842.97	1074.89
843.29	1077.75
843.60	1075.43
843.92	1075.29
844.24	1075.66
844.55	1070.98
844.87	1069.30
845.18	1070.35
845.50	1071.01
845.82	1070.72
846.13	1072.81
846.45	1069.67
846.76	1068.76
847.08	1068.95
847.40	1064.48
847.71	1067.21
848.03	1072.64
848.34	1075.59
848.66	1073.56
848.97	1077.63
849.29	1077.30
849.60	1075.13
849.92	1073.42
850.24	1074.66
850.55	1073.77
850.87	1072.97
851.18	1072.62
851.50	1070.21
851.81	1073.00
852.13	1071.43
852.44	1073.14
852.76	1074.21
853.07	1076.62
853.39	1074.91
853.70	1074.80
854.01	1071.43
854.33	1073.18
854.64	1072.97
854.96	1074.24
855.27	1076.08
855.59	1078.75
855.90	1079.36
856.22	1077.98
856.53	1075.31
856.84	1077.42
857.16	1078.00
857.47	1073.07
857.79	1075.38
858.10	1078.85
858.41	1077.16
858.73	1077.63
859.04	1080.79
859.36	1079.29
859.67	1079.95
859.98	1079.53
860.30	1073.95
860.61	1072.25
860.92	1072.34
861.24	1067.85
861.55	1067.52
861.87	1071.59
862.18	1072.92
862.49	1073.25
862.81	1075.62
863.12	1077.70
863.43	1080.04
863.74	1079.88
864.06	1079.81
864.37	1079.06
864.68	1078.50
865.00	1078.28
865.31	1073.39
865.62	1072.78
865.94	1072.71
866.25	1071.29
866.56	1068.88
866.87	1070.75
867.19	1070.28
867.50	1070.07
867.81	1071.52
868.12	1073.32
868.44	1072.85
868.75	1072.74
869.06	1070.84
869.37	1073.65
869.68	1072.18
870.00	1075.94
870.31	1078.61
870.62	1082.31
870.93	1079.64
871.24	1080.41
871.56	1079.92
871.87	1074.91
872.18	1070.33
872.49	1070.12
872.80	1070.00
873.12	1068.38
873.43	1070.12
873.74	1074.00
874.05	1073.21
874.36	1070.68
874.67	1071.22
874.98	1073.63
875.29	1071.26
875.61	1068.01
875.92	1070.37
876.23	1069.58
876.54	1068.71
876.85	1070.35
877.16	1076.65
877.47	1076.72
877.78	1078.85
878.09	1079.69
878.40	1080.16
878.72	1075.13
879.03	1076.37
879.34	1076.51
879.65	1078.12
879.96	1076.69
880.27	1077.70
880.58	1074.49
880.89	1072.22
881.20	1070.37
881.51	1071.05
881.82	1072.08
882.13	1073.93
882.44	1072.67
882.75	1075.29
883.06	1073.18
883.37	1072.67
883.68	1072.83
883.99	1072.81
884.30	1069.88
884.61	1076.15
884.92	1076.55
885.23	1076.65
885.54	1079.41
885.85	1080.30
886.16	1078.78
886.47	1076.93
886.78	1077.16
887.08	1075.83
887.39	1072.11
887.70	1068.92
888.01	1069.98
888.32	1070.65
888.63	1069.86
888.94	1073.28
889.25	1071.61
889.56	1070.37
889.87	1068.81
890.17	1071.64
890.48	1072.01
890.79	1076.48
891.10	1079.17
891.41	1079.31
891.72	1077.72
892.03	1077.30
892.34	1077.02
892.64	1077.42
892.95	1078.43
893.26	1076.79
893.57	1075.20
893.88	1073.00
894.18	1070.56
894.49	1068.52
894.80	1070.12
895.11	1071.52
895.42	1072.36
895.72	1073.51
896.03	1076.20
896.34	1075.62
896.65	1074.12
896.96	1075.80
897.26	1078.85
897.57	1076.11
897.88	1076.48
898.19	1077.00
898.49	1074.47
898.80	1070.14
899.11	1069.55
899.41	1072.90
899.72	1074.68
900.03	1072.01
900.34	1073.28
900.64	1074.73
900.95	1069.88
901.26	1069.95
901.56	1073.56
901.87	1076.48
902.18	1073.25
902.48	1075.55
902.79	1075.78
903.10	1076.06
903.40	1072.15
903.71	1074.26
904.02	1072.76
904.32	1073.04
904.63	1071.90
904.94	1072.22
905.24	1073.72
905.55	1075.57
905.85	1073.88
906.16	1074.00
906.47	1071.73
906.77	1075.15
907.08	1077.63
907.38	1076.46
907.69	1076.39
908.00	1078.54
908.30	1076.39
908.61	1074.14
908.91	1079.29
909.22	1078.78
909.52	1079.08
909.83	1077.21
910.14	1076.58
910.44	1072.57
910.75	1075.24
911.05	1075.22
911.36	1078.43
911.66	1080.77
911.97	1080.16
912.27	1077.47
912.58	1077.28
912.88	1072.48
913.19	1070.84
913.49	1071.24
913.80	1072.57
914.10	1076.13
914.41	1075.99
914.71	1072.20
915.01	1072.29
915.32	1069.58
915.62	1066.16
915.93	1069.34
916.23	1070.51
916.54	1072.85
916.84	1073.42
917.15	1073.60
917.45	1071.52
917.75	1072.08
918.06	1067.71
918.36	1067.80
918.67	1069.55
918.97	1068.50
919.27	1068.64
919.58	1067.40
919.88	1069.06
920.18	1066.54
920.49	1066.70
920.79	1068.43
921.10	1073.07
921.40	1073.53
921.70	1074.98
922.01	1080.32
922.31	1080.09
922.61	1079.22
922.92	1081.05
923.22	1080.65
923.52	1075.22
923.82	1073.07
924.13	1072.71
924.43	1070.05
924.73	1069.81
925.04	1067.38
925.34	1067.03
925.64	1069.16
925.94	1071.19
926.25	1068.64
926.55	1070.72
926.85	1073.11
927.15	1071.29
927.46	1069.34
927.76	1072.36
928.06	1077.40
928.36	1076.39
928.67	1075.43
928.97	1075.80
929.27	1078.14
929.57	1076.37
929.87	1075.90
930.18	1074.38
930.48	1076.41
930.78	1070.63
931.08	1070.26
931.38	1070.94
931.69	1073.72
931.99	1069.06
932.29	1072.60
932.59	1071.22
932.89	1071.71
933.19	1069.18
933.49	1074.45
933.80	1075.01
934.10	1075.59
934.40	1075.34
934.70	1077.11
935.00	1074.40
935.30	1071.01
935.60	1073.74
935.90	1077.82
936.20	1077.02
936.50	1078.36
936.81	1079.92
937.11	1076.67
937.41	1073.07
937.71	1075.27
938.01	1075.05
938.31	1078.21
938.61	1078.80
938.91	1078.45
939.21	1076.08
939.51	1074.77
939.81	1072.78
940.11	1072.60
940.41	1071.52
940.71	1074.26
941.01	1076.04
941.31	1076.74
941.61	1080.63
941.91	1082.52
942.21	1081.05
942.51	1080.70
942.81	1078.33
943.11	1074.82
943.41	1074.31
943.71	1075.17
944.01	1075.15
944.31	1075.17
944.61	1075.27
944.90	1073.49
945.20	1071.29
945.50	1070.19
945.80	1071.29
946.10	1071.31
946.40	1072.81
946.70	1075.36
947.00	1075.73
947.30	1077.18
947.60	1079.69
947.89	1080.91
948.19	1078.61
948.49	1079.88
948.79	1076.69
949.09	1074.24
949.39	1072.55
949.69	1070.77
949.98	1070.07
950.28	1073.00
950.58	1072.64
950.88	1073.88
951.18	1074.66
951.48	1074.10
951.77	1073.21
952.07	1073.56
952.37	1071.68
952.67	1073.51
952.97	1074.45
953.26	1076.90
953.56	1075.17
953.86	1076.13
954.16	1076.55
954.45	1076.76
954.75	1074.42
955.05	1075.66
955.35	1075.41
955.64	1073.49
955.94	1071.36
956.24	1073.84
956.54	1072.39
956.83	1076.06
957.13	1077.72
957.43	1080.98
957.72	1079.83
958.02	1080.25
958.32	1075.64
958.61	1076.90
958.91	1072.22
959.21	1069.86
959.50	1068.08
959.80	1070.26
960.10	1069.67
960.39	1070.61
960.69	1070.87
960.99	1075.03
961.28	1076.44
961.58	1074.70
961.87	1076.13
962.17	1078.50
962.47	1078.52
962.76	1074.54
963.06	1076.69
963.36	1078.68
963.65	1080.23
963.95	1080.72
964.24	1082.47
964.54	1078.61
964.83	1076.32
965.13	1072.53
965.42	1068.50
965.72	1068.83
966.02	1072.64
966.31	1073.37
966.61	1074.35
966.90	1077.84
967.20	1077.37
967.49	1079.36
967.79	1078.14
968.08	1079.34
968.38	1076.97
968.67	1078.17
968.97	1076.53
969.26	1077.56
969.56	1077.35
969.85	1078.64
970.15	1076.81
970.44	1075.87
970.74	1075.03
971.03	1073.67
971.32	1072.85
971.62	1073.63
971.91	1075.08
972.21	1074.47
972.50	1074.47
972.80	1075.87
973.09	1074.45
973.38	1071.57
973.68	1070.96
973.97	1068.69
974.27	1071.03
974.56	1072.95
974.85	1073.53
975.15	1073.30
975.44	1076.83
975.73	1074.61
976.03	1073.53
976.32	1072.48
976.61	1075.15
976.91	1074.07
977.20	1074.07
977.49	1072.74
977.79	1075.43
978.08	1074.61
978.37	1072.11
978.67	1067.42
978.96	1069.34
979.25	1070.21
979.55	1069.06
979.84	1073.04
980.13	1077.72
980.42	1078.28
980.72	1075.94
981.01	1077.21
981.30	1072.39
981.59	1070.42
981.89	1070.84
982.18	1071.26
982.47	1071.26
982.76	1075.15
983.06	1075.99
983.35	1075.24
983.64	1072.34
983.93	1071.64
984.22	1071.97
984.52	1073.18
984.81	1074.19
985.10	1074.89
985.39	1075.92
985.68	1076.44
985.97	1074.17
986.27	1073.70
986.56	1074.14
986.85	1073.14
987.14	1070.58
987.43	1073.72
987.72	1076.34
988.01	1077.68
988.31	1078.66
988.60	1077.82
988.89	1075.85
989.18	1072.15
989.47	1072.20
989.76	1071.47
990.05	1073.44
990.34	1074.03
990.63	1074.56
990.92	1077.61
991.21	1078.03
991.51	1077.51
991.80	1078.26
992.09	1077.21
992.38	1075.03
992.67	1071.82
992.96	1071.64
993.25	1070.89
993.54	1073.98
993.83	1071.45
994.12	1073.28
994.41	1073.88
994.70	1075.45
994.99	1071.57
995.28	1073.98
995.57	1072.27
995.86	1074.68
996.15	1072.92
996.44	1073.84
996.73	1073.21
997.02	1075.24
997.31	1071.19
997.59	1070.68
997.88	1072.78
998.17	1075.66
998.46	1075.76
998.75	1078.28
999.04	1078.89
999.33	1077.68
999.62	1073.04
999.91	1074.42
1000.20	1073.35
1000.49	1074.63
1000.77	1071.29
1001.06	1069.77
1001.35	1068.17
1001.64	1070.33
1001.93	1067.94
1002.22	1071.19
1002.51	1073.84
1002.79	1074.66
1003.08	1073.67
1003.37	1073.14
1003.66	1073.67
1003.95	1074.82
1004.23	1073.07
1004.52	1072.92
1004.81	1073.95
1005.10	1073.88
1005.39	1074.40
1005.67	1075.69
1005.96	1074.28
1006.25	1078.50
1006.54	1076.46
1006.83	1076.88
1007.11	1077.82
1007.40	1077.18
1007.69	1073.28
1007.97	1076.23
1008.26	1075.94
1008.55	1075.73
1008.84	1079.53
1009.12	1079.53
1009.41	1079.85
1009.70	1078.96
1009.98	1079.97
1010.27	1077.16
1010.56	1077.63
1010.85	1075.83
1011.13	1074.47
1011.42	1074.26
1011.71	1076.58
1011.99	1077.91
1012.28	1078.00
1012.56	1077.84
1012.85	1077.07
1013.14	1075.69
1013.42	1075.92
1013.71	1075.17
1014.00	1076.04
1014.28	1074.91
1014.57	1075.73
1014.85	1072.76
1015.14	1074.70
1015.43	1075.24
1015.71	1074.77
1016.00	1073.30
1016.28	1075.29
1016.57	1071.08
1016.85	1069.53
1017.14	1070.94
1017.43	1070.05
1017.71	1067.26
1018.00	1068.34
1018.28	1070.54
1018.57	1071.17
1018.85	1073.70
1019.14	1078.52
1019.42	1080.11
1019.71	1081.37
1019.99	1083.22
1020.28	1082.10
1020.56	1082.61
1020.85	1082.76
1021.13	1083.13
1021.42	1081.07
1021.70	1082.26
1021.99	1079.13
1022.27	1080.63
1022.55	1075.71
1022.84	1081.91
>>>>>End Processed Spectral Data<<<<<
