SpectraSuite Data File
++++++++++++++++++++++++++++++++++++
Date: Mon Aug 26 10:22:11 PDT 2019
User: corrico
Dark Spectrum Present: No
Reference Spectrum Present: No
Number of Sampled Component Spectra: 1
Spectrometers: USB2+H06089
Integration Time (usec): 2000 (USB2+H06089)
Spectra Averaged: 20 (USB2+H06089)
Boxcar Smoothing: 2 (USB2+H06089)
Correct for Electrical Dark: No (USB2+H06089)
Strobe/Lamp Enabled: No (USB2+H06089)
Correct for Detector Non-linearity: No (USB2+H06089)
Correct for Stray Light: No (USB2+H06089)
Number of Pixels in Processed Spectrum: 2048
>>>>>Begin Processed Spectral Data<<<<<
339.70	1042.59
340.07	1042.59
340.45	1001.73
340.82	976.49
341.19	950.14
341.57	922.64
341.94	915.95
342.31	907.03
342.69	900.97
343.06	896.87
343.43	894.08
343.81	892.84
344.18	892.94
344.55	900.85
344.93	907.61
345.30	914.59
345.67	923.43
346.04	934.39
346.42	940.01
346.79	948.46
347.16	956.81
347.54	961.59
347.91	968.47
348.28	979.28
348.65	988.67
349.03	1001.12
349.40	1013.26
349.77	1023.49
350.14	1029.65
350.52	1034.54
350.89	1036.27
351.26	1042.85
351.63	1047.58
352.01	1055.02
352.38	1060.45
352.75	1067.71
353.12	1071.87
353.50	1074.94
353.87	1074.38
354.24	1074.49
354.61	1075.57
354.98	1077.61
355.36	1081.54
355.73	1083.08
356.10	1084.93
356.47	1085.63
356.84	1084.42
357.22	1079.62
357.59	1081.70
357.96	1085.05
358.33	1083.46
358.70	1083.74
359.08	1084.65
359.45	1078.57
359.82	1075.36
360.19	1075.83
360.56	1073.72
360.94	1072.53
361.31	1078.07
361.68	1076.90
362.05	1078.19
362.42	1078.47
362.79	1079.85
363.16	1075.87
363.54	1076.23
363.91	1073.49
364.28	1074.89
364.65	1073.44
365.02	1072.20
365.39	1073.56
365.76	1074.75
366.14	1072.29
366.51	1072.34
366.88	1075.66
367.25	1074.91
367.62	1071.92
367.99	1071.22
368.36	1075.22
368.73	1072.85
369.10	1077.54
369.48	1079.53
369.85	1080.91
370.22	1076.97
370.59	1079.50
370.96	1074.54
371.33	1075.62
371.70	1074.42
372.07	1076.55
372.44	1072.62
372.81	1073.44
373.18	1070.91
373.55	1072.39
373.93	1068.29
374.30	1072.90
374.67	1075.27
375.04	1076.58
375.41	1078.82
375.78	1083.25
376.15	1081.96
376.52	1082.15
376.89	1083.64
377.26	1082.94
377.63	1080.41
378.00	1082.85
378.37	1081.40
378.74	1082.01
379.11	1079.64
379.48	1079.29
379.85	1075.57
380.22	1079.08
380.59	1080.58
380.96	1079.71
381.33	1080.48
381.70	1082.83
382.07	1075.92
382.44	1073.86
382.81	1073.46
383.18	1074.00
383.55	1079.15
383.92	1083.74
384.29	1086.48
384.66	1088.33
385.03	1090.06
385.40	1083.97
385.77	1082.61
386.14	1079.34
386.51	1080.95
386.88	1081.73
387.25	1081.70
387.62	1082.57
387.99	1083.90
388.36	1085.94
388.73	1083.46
389.10	1084.44
389.46	1084.46
389.83	1085.10
390.20	1081.89
390.57	1087.83
390.94	1086.29
391.31	1088.70
391.68	1087.67
392.05	1092.23
392.42	1086.80
392.79	1088.30
393.16	1086.15
393.53	1089.43
393.89	1086.78
394.26	1087.58
394.63	1087.81
395.00	1088.23
395.37	1083.39
395.74	1083.93
396.11	1083.46
396.48	1084.58
396.84	1081.75
397.21	1085.70
397.58	1085.80
397.95	1089.57
398.32	1090.43
398.69	1091.86
399.06	1089.99
399.42	1091.37
399.79	1091.34
400.16	1091.16
400.53	1094.18
400.90	1097.01
401.27	1096.12
401.64	1096.56
402.00	1096.94
402.37	1094.50
402.74	1093.69
403.11	1091.84
403.48	1092.42
403.84	1094.01
404.21	1093.64
404.58	1095.37
404.95	1099.14
405.32	1096.75
405.68	1094.29
406.05	1097.85
406.42	1096.80
406.79	1093.45
407.16	1092.98
407.52	1096.49
407.89	1093.15
408.26	1093.97
408.63	1096.78
408.99	1097.95
409.36	1095.30
409.73	1099.42
410.10	1101.43
410.47	1099.51
410.83	1100.64
411.20	1098.39
411.57	1095.98
411.94	1093.99
412.30	1095.93
412.67	1098.13
413.04	1101.34
413.40	1103.63
413.77	1101.92
414.14	1101.67
414.51	1098.86
414.87	1099.98
415.24	1096.87
415.61	1099.44
415.97	1101.03
416.34	1103.56
416.71	1103.33
417.08	1107.59
417.44	1108.69
417.81	1108.88
418.18	1108.78
418.54	1111.45
418.91	1110.89
419.28	1111.26
419.64	1112.39
420.01	1114.91
420.38	1116.27
420.74	1117.09
421.11	1119.74
421.48	1123.67
421.84	1122.43
422.21	1122.15
422.58	1127.69
422.94	1129.99
423.31	1132.52
423.68	1138.65
424.04	1144.87
424.41	1147.68
424.77	1151.71
425.14	1155.03
425.51	1159.45
425.87	1166.78
426.24	1172.82
426.61	1179.30
426.97	1186.02
427.34	1193.86
427.70	1197.49
428.07	1204.14
428.44	1212.68
428.80	1223.47
429.17	1229.44
429.53	1241.02
429.90	1255.49
430.27	1265.22
430.63	1274.16
431.00	1287.27
431.36	1300.59
431.73	1311.75
432.09	1326.08
432.46	1344.26
432.83	1363.53
433.19	1383.96
433.56	1407.83
433.92	1436.90
434.29	1463.28
434.65	1494.10
435.02	1526.90
435.38	1560.81
435.75	1593.11
436.11	1630.84
436.48	1665.90
436.84	1709.29
437.21	1749.15
437.57	1795.66
437.94	1849.12
438.30	1909.62
438.67	1965.07
439.03	2027.68
439.40	2095.76
439.76	2160.31
440.13	2229.15
440.49	2310.53
440.86	2387.51
441.22	2473.20
441.59	2568.06
441.95	2671.39
442.32	2771.76
442.68	2896.16
443.05	3018.14
443.41	3141.58
443.78	3274.13
444.14	3413.55
444.51	3547.67
444.87	3713.85
445.24	3883.65
445.60	4060.71
445.96	4243.86
446.33	4458.86
446.69	4661.90
447.06	4875.43
447.42	5096.70
447.79	5333.19
448.15	5591.77
448.51	5862.25
448.88	6178.34
449.24	6486.37
449.61	6837.85
449.97	7192.56
450.33	7568.36
450.70	7933.50
451.06	8365.82
451.43	8762.17
451.79	9220.19
452.15	9705.64
452.52	10236.50
452.88	10771.92
453.24	11402.86
453.61	12102.98
453.97	12809.71
454.34	13500.47
454.70	14321.76
455.06	15119.53
455.43	15863.54
455.79	16539.21
456.15	17341.61
456.52	18069.17
456.88	18966.06
457.24	19863.54
457.61	20984.99
457.97	22052.06
458.33	23161.24
458.70	24230.65
459.06	25237.01
459.42	26254.75
459.79	27182.82
460.15	28225.95
460.51	29194.60
460.88	30281.06
461.24	31245.94
461.60	32378.27
461.96	33429.08
462.33	34452.22
462.69	35471.10
463.05	36571.81
463.42	37572.53
463.78	38486.39
464.14	39250.55
464.50	40002.63
464.87	40539.67
465.23	40910.36
465.59	41306.78
465.95	41629.77
466.32	41855.05
466.68	42096.92
467.04	42211.94
467.40	42223.92
467.77	42333.55
468.13	42240.75
468.49	42082.15
468.85	41970.84
469.22	41824.06
469.58	41563.23
469.94	41433.24
470.30	41187.09
470.66	40831.30
471.03	40337.61
471.39	39985.55
471.75	39233.98
472.11	38558.94
472.47	38057.86
472.84	37536.83
473.20	36807.64
473.56	36436.59
473.92	35851.97
474.28	35232.22
474.65	34583.05
475.01	33892.78
475.37	33074.60
475.73	32396.67
476.09	31686.62
476.45	31064.10
476.81	30525.55
477.18	29984.28
477.54	29508.37
477.90	29074.77
478.26	28507.65
478.62	27997.44
478.98	27556.55
479.34	27122.69
479.71	26560.75
480.07	26130.09
480.43	25676.40
480.79	25217.14
481.15	24758.02
481.51	24384.99
481.87	24057.69
482.23	23701.97
482.59	23358.57
482.96	23030.05
483.32	22731.73
483.68	22334.61
484.04	21993.01
484.40	21587.51
484.76	21156.08
485.12	20698.97
485.48	20275.55
485.84	19776.19
486.20	19336.87
486.56	18906.24
486.92	18539.73
487.28	18139.78
487.64	17754.93
488.00	17375.36
488.37	16993.41
488.73	16552.92
489.09	16104.71
489.45	15685.99
489.81	15237.80
490.17	14819.92
490.53	14412.32
490.89	14000.94
491.25	13590.46
491.61	13216.79
491.97	12815.23
492.33	12414.41
492.69	12072.06
493.05	11736.97
493.41	11392.46
493.77	11065.47
494.13	10770.58
494.49	10480.31
494.85	10188.80
495.21	9927.90
495.57	9675.89
495.93	9415.25
496.29	9150.61
496.64	8928.65
497.00	8682.80
497.36	8429.30
497.72	8197.84
498.08	7976.10
498.44	7751.64
498.80	7542.59
499.16	7350.15
499.52	7145.26
499.88	6966.11
500.24	6786.24
500.60	6615.76
500.96	6453.79
501.32	6290.00
501.68	6120.01
502.03	5947.30
502.39	5786.62
502.75	5620.14
503.11	5474.89
503.47	5333.68
503.83	5212.89
504.19	5085.42
504.55	4971.93
504.91	4863.91
505.26	4753.77
505.62	4640.79
505.98	4530.93
506.34	4410.39
506.70	4285.83
507.06	4176.52
507.42	4067.57
507.78	3970.56
508.13	3883.28
508.49	3807.44
508.85	3729.13
509.21	3644.87
509.57	3561.48
509.93	3475.53
510.28	3382.26
510.64	3297.11
511.00	3218.99
511.36	3148.79
511.72	3083.16
512.07	3032.05
512.43	2974.19
512.79	2919.28
513.15	2856.86
513.51	2801.48
513.86	2738.78
514.22	2683.33
514.58	2629.38
514.94	2580.04
515.30	2530.99
515.65	2484.41
516.01	2444.81
516.37	2405.09
516.73	2366.96
517.08	2330.52
517.44	2292.39
517.80	2252.02
518.16	2214.54
518.51	2176.96
518.87	2141.43
519.23	2109.15
519.59	2076.62
519.94	2049.77
520.30	2025.24
520.66	1997.37
521.01	1971.83
521.37	1949.57
521.73	1922.45
522.09	1895.53
522.44	1869.18
522.80	1844.83
523.16	1820.33
523.51	1795.82
523.87	1774.85
524.23	1758.66
524.58	1736.33
524.94	1714.82
525.30	1697.17
525.65	1674.84
526.01	1654.29
526.37	1639.05
526.72	1619.84
527.08	1605.49
527.44	1590.89
527.79	1574.10
528.15	1557.91
528.51	1545.22
528.86	1530.83
529.22	1519.34
529.58	1506.49
529.93	1495.65
530.29	1482.21
530.65	1466.39
531.00	1448.28
531.36	1434.35
531.71	1423.02
532.07	1414.92
532.43	1404.46
532.78	1400.04
533.14	1390.84
533.49	1381.55
533.85	1371.58
534.21	1359.83
534.56	1349.16
534.92	1342.70
535.27	1331.32
535.63	1324.53
535.98	1317.89
536.34	1310.16
536.69	1304.78
537.05	1297.97
537.41	1288.63
537.76	1286.05
538.12	1279.15
538.47	1272.99
538.83	1268.22
539.18	1261.24
539.54	1252.87
539.89	1251.51
540.25	1248.37
540.60	1243.64
540.96	1241.14
541.31	1239.55
541.67	1235.01
542.02	1231.75
542.38	1232.13
542.73	1227.96
543.09	1223.05
543.44	1218.53
543.80	1210.53
544.15	1205.89
544.51	1206.15
544.86	1203.85
545.22	1201.94
545.57	1203.08
545.93	1198.54
546.28	1193.81
546.64	1190.68
546.99	1186.63
547.35	1181.17
547.70	1179.07
548.05	1175.65
548.41	1172.87
548.76	1173.69
549.12	1174.20
549.47	1172.37
549.83	1172.54
550.18	1171.86
550.53	1167.46
550.89	1163.78
551.24	1161.75
551.60	1156.83
551.95	1154.26
552.30	1151.05
552.66	1148.38
553.01	1149.81
553.37	1151.01
553.72	1147.59
554.07	1151.12
554.43	1150.19
554.78	1144.87
555.13	1139.77
555.49	1137.78
555.84	1132.87
556.19	1131.23
556.55	1131.25
556.90	1130.62
557.26	1132.70
557.61	1128.37
557.96	1129.17
558.32	1129.68
558.67	1130.62
559.02	1129.47
559.37	1132.21
559.73	1130.69
560.08	1125.42
560.43	1124.86
560.79	1125.05
561.14	1122.83
561.49	1119.76
561.85	1119.34
562.20	1117.40
562.55	1113.42
562.90	1113.25
563.26	1112.27
563.61	1112.27
563.96	1111.19
564.32	1113.74
564.67	1111.87
565.02	1113.04
565.37	1112.92
565.73	1113.53
566.08	1111.43
566.43	1110.44
566.78	1109.60
567.14	1109.65
567.49	1108.64
567.84	1105.74
568.19	1106.79
568.54	1106.39
568.90	1104.24
569.25	1105.22
569.60	1108.08
569.95	1106.23
570.31	1106.42
570.66	1108.01
571.01	1105.86
571.36	1106.28
571.71	1107.31
572.06	1105.62
572.42	1105.27
572.77	1102.56
573.12	1099.14
573.47	1099.65
573.82	1099.33
574.18	1100.45
574.53	1099.96
574.88	1099.82
575.23	1097.66
575.58	1096.05
575.93	1090.99
576.28	1092.05
576.64	1094.36
576.99	1094.83
577.34	1098.46
577.69	1099.00
578.04	1098.20
578.39	1095.21
578.74	1095.39
579.09	1094.36
579.44	1093.38
579.80	1095.77
580.15	1096.73
580.50	1093.33
580.85	1091.46
581.20	1090.55
581.55	1087.27
581.90	1087.83
582.25	1091.70
582.60	1092.19
582.95	1092.61
583.30	1093.55
583.65	1092.28
584.00	1095.60
584.35	1095.18
584.71	1096.07
585.06	1096.19
585.41	1094.93
585.76	1088.16
586.11	1086.08
586.46	1086.13
586.81	1086.97
587.16	1086.57
587.51	1087.69
587.86	1089.14
588.21	1090.22
588.56	1090.71
588.91	1092.47
589.26	1094.32
589.61	1092.61
589.96	1087.25
590.31	1087.32
590.66	1085.66
591.01	1085.21
591.36	1089.64
591.71	1092.40
592.06	1090.29
592.41	1089.38
592.76	1087.79
593.10	1080.70
593.45	1081.40
593.80	1082.59
594.15	1086.38
594.50	1087.81
594.85	1089.94
595.20	1087.41
595.55	1089.03
595.90	1084.46
596.25	1084.81
596.60	1087.86
596.95	1091.09
597.30	1092.07
597.64	1106.51
597.99	1104.64
598.34	1103.33
598.69	1103.35
599.04	1102.49
599.39	1090.17
599.74	1090.78
600.09	1088.54
600.44	1090.85
600.78	1088.58
601.13	1087.93
601.48	1087.13
601.83	1087.67
602.18	1083.11
602.53	1081.26
602.88	1080.25
603.22	1079.38
603.57	1077.49
603.92	1077.37
604.27	1079.48
604.62	1080.58
604.97	1081.42
605.31	1084.51
605.66	1087.88
606.01	1088.02
606.36	1087.37
606.71	1088.72
607.05	1086.66
607.40	1082.76
607.75	1083.06
608.10	1086.57
608.44	1085.94
608.79	1087.11
609.14	1088.61
609.49	1089.00
609.84	1086.27
610.18	1086.57
610.53	1089.73
610.88	1091.04
611.23	1089.52
611.57	1086.24
611.92	1087.62
612.27	1084.84
612.62	1085.56
612.96	1087.16
613.31	1088.30
613.66	1087.48
614.00	1087.46
614.35	1088.75
614.70	1089.96
615.05	1094.57
615.39	1091.86
615.74	1092.80
616.09	1094.55
616.43	1090.48
616.78	1088.37
617.13	1089.24
617.47	1087.27
617.82	1082.73
618.17	1082.26
618.51	1083.27
618.86	1084.93
619.21	1085.94
619.55	1086.78
619.90	1085.82
620.25	1084.07
620.59	1081.07
620.94	1081.56
621.29	1081.33
621.63	1082.12
621.98	1084.96
622.32	1086.83
622.67	1086.99
623.02	1087.02
623.36	1087.76
623.71	1087.53
624.05	1083.20
624.40	1081.87
624.75	1081.26
625.09	1083.97
625.44	1081.68
625.78	1083.32
626.13	1083.46
626.48	1085.14
626.82	1080.70
627.17	1079.78
627.51	1083.18
627.86	1081.91
628.20	1076.37
628.55	1077.33
628.89	1080.70
629.24	1078.89
629.58	1080.51
629.93	1087.04
630.28	1088.68
630.62	1085.56
630.97	1088.79
631.31	1089.78
631.66	1086.78
632.00	1086.50
632.35	1086.24
632.69	1080.91
633.04	1079.71
633.38	1076.83
633.73	1079.62
634.07	1081.73
634.42	1084.49
634.76	1085.17
635.11	1090.53
635.45	1086.43
635.79	1086.66
636.14	1086.69
636.48	1084.37
636.83	1081.19
637.17	1084.77
637.52	1082.54
637.86	1079.71
638.21	1081.09
638.55	1080.46
638.89	1074.68
639.24	1072.95
639.58	1076.62
639.93	1074.10
640.27	1075.57
640.61	1078.14
640.96	1080.48
641.30	1079.38
641.65	1082.47
641.99	1084.04
642.33	1083.32
642.68	1081.77
643.02	1081.80
643.37	1081.07
643.71	1077.51
644.05	1077.54
644.40	1076.90
644.74	1077.44
645.08	1077.91
645.43	1080.44
645.77	1081.98
646.11	1083.01
646.46	1083.32
646.80	1086.38
647.14	1086.48
647.49	1084.77
647.83	1083.50
648.17	1081.94
648.52	1077.98
648.86	1074.45
649.20	1076.81
649.55	1078.21
649.89	1075.85
650.23	1076.76
650.57	1080.77
650.92	1080.63
651.26	1082.73
651.60	1082.15
651.95	1079.31
652.29	1079.99
652.63	1077.93
652.97	1072.67
653.32	1076.27
653.66	1077.30
654.00	1075.34
654.34	1075.15
654.69	1077.93
655.03	1075.03
655.37	1073.25
655.71	1070.89
656.05	1071.36
656.40	1073.49
656.74	1072.69
657.08	1075.05
657.42	1078.94
657.76	1080.41
658.11	1076.67
658.45	1080.88
658.79	1082.26
659.13	1083.50
659.47	1083.32
659.82	1086.64
660.16	1087.60
660.50	1086.69
660.84	1083.81
661.18	1080.32
661.52	1079.67
661.87	1078.38
662.21	1078.28
662.55	1077.82
662.89	1080.32
663.23	1080.34
663.57	1079.88
663.91	1080.04
664.25	1078.47
664.60	1078.17
664.94	1078.07
665.28	1078.80
665.62	1077.68
665.96	1081.23
666.30	1081.68
666.64	1083.60
666.98	1084.39
667.32	1086.01
667.66	1086.24
668.01	1085.12
668.35	1083.22
668.69	1083.34
669.03	1082.73
669.37	1080.65
669.71	1081.87
670.05	1081.84
670.39	1079.50
670.73	1080.79
671.07	1081.42
671.41	1084.14
671.75	1085.33
672.09	1087.23
672.43	1086.41
672.77	1088.68
673.11	1085.47
673.45	1083.88
673.79	1082.85
674.13	1082.94
674.47	1078.68
674.81	1081.42
675.15	1082.26
675.49	1079.43
675.83	1084.77
676.17	1087.69
676.51	1082.15
676.85	1081.44
677.19	1083.06
677.53	1078.59
677.87	1075.85
678.21	1082.26
678.55	1083.93
678.89	1088.02
679.23	1085.66
679.57	1088.68
679.90	1086.99
680.24	1085.12
680.58	1080.16
680.92	1080.51
681.26	1081.00
681.60	1080.23
681.94	1080.74
682.28	1080.84
682.62	1080.46
682.96	1078.26
683.29	1078.85
683.63	1077.11
683.97	1079.03
684.31	1080.74
684.65	1081.42
684.99	1081.00
685.33	1081.96
685.67	1082.33
686.00	1081.28
686.34	1080.39
686.68	1078.05
687.02	1077.40
687.36	1076.32
687.70	1076.08
688.03	1075.50
688.37	1078.50
688.71	1079.55
689.05	1080.37
689.39	1080.34
689.72	1080.18
690.06	1076.53
690.40	1077.09
690.74	1074.66
691.08	1074.14
691.41	1074.52
691.75	1075.57
692.09	1074.77
692.43	1077.51
692.76	1079.74
693.10	1081.98
693.44	1081.07
693.78	1081.75
694.11	1081.84
694.45	1078.47
694.79	1075.20
695.13	1079.31
695.46	1079.55
695.80	1079.88
696.14	1081.77
696.48	1085.07
696.81	1081.82
697.15	1078.17
697.49	1074.63
697.82	1077.49
698.16	1078.80
698.50	1081.68
698.83	1085.31
699.17	1086.85
699.51	1087.13
699.84	1084.02
700.18	1082.80
700.52	1082.40
700.85	1084.07
701.19	1084.39
701.53	1084.32
701.86	1080.13
702.20	1080.79
702.54	1081.05
702.87	1078.80
703.21	1078.47
703.55	1081.68
703.88	1079.83
704.22	1078.21
704.55	1076.01
704.89	1076.48
705.23	1077.11
705.56	1076.81
705.90	1077.54
706.23	1077.84
706.57	1077.47
706.91	1078.80
707.24	1080.88
707.58	1079.27
707.91	1081.09
708.25	1082.22
708.58	1080.70
708.92	1079.01
709.26	1081.56
709.59	1078.87
709.93	1079.92
710.26	1083.08
710.60	1083.55
710.93	1084.30
711.27	1086.87
711.60	1084.14
711.94	1080.70
712.27	1080.16
712.61	1077.11
712.94	1076.53
713.28	1075.80
713.61	1076.90
713.95	1075.73
714.28	1073.67
714.62	1074.63
714.95	1077.63
715.29	1076.62
715.62	1079.06
715.96	1081.94
716.29	1082.12
716.63	1078.94
716.96	1082.61
717.29	1081.07
717.63	1082.38
717.96	1079.88
718.30	1081.33
718.63	1075.83
718.97	1077.18
719.30	1074.07
719.63	1077.93
719.97	1077.37
720.30	1078.07
720.64	1076.46
720.97	1077.89
721.30	1078.17
721.64	1076.83
721.97	1077.47
722.31	1077.35
722.64	1076.81
722.97	1076.76
723.31	1077.33
723.64	1078.36
723.97	1080.95
724.31	1082.99
724.64	1077.98
724.98	1082.12
725.31	1085.52
725.64	1089.03
725.98	1090.50
726.31	1092.89
726.64	1089.94
726.97	1088.42
727.31	1084.67
727.64	1082.38
727.97	1082.64
728.31	1085.35
728.64	1086.22
728.97	1084.81
729.31	1084.11
729.64	1081.91
729.97	1080.72
730.30	1077.61
730.64	1078.61
730.97	1079.76
731.30	1080.95
731.63	1081.00
731.97	1081.61
732.30	1081.58
732.63	1081.12
732.96	1080.58
733.30	1077.28
733.63	1077.11
733.96	1076.32
734.29	1076.58
734.63	1074.84
734.96	1076.20
735.29	1075.99
735.62	1076.46
735.95	1077.04
736.29	1081.40
736.62	1083.90
736.95	1083.34
737.28	1082.12
737.61	1079.22
737.94	1076.23
738.28	1075.99
738.61	1074.35
738.94	1074.59
739.27	1075.55
739.60	1076.34
739.93	1073.98
740.27	1075.01
740.60	1076.81
740.93	1078.33
741.26	1079.13
741.59	1080.51
741.92	1082.10
742.25	1080.56
742.58	1080.60
742.91	1078.40
743.25	1077.28
743.58	1077.86
743.91	1076.83
744.24	1077.37
744.57	1078.94
744.90	1079.34
745.23	1075.71
745.56	1078.05
745.89	1076.69
746.22	1078.64
746.55	1081.19
746.88	1082.80
747.21	1080.93
747.54	1077.96
747.87	1076.88
748.20	1073.46
748.53	1074.21
748.87	1076.44
749.20	1080.39
749.53	1080.60
749.86	1082.90
750.19	1083.97
750.52	1084.51
750.85	1084.42
751.18	1085.42
751.51	1084.09
751.84	1084.93
752.16	1083.83
752.49	1080.79
752.82	1078.94
753.15	1077.23
753.48	1072.55
753.81	1072.32
754.14	1073.53
754.47	1071.82
754.80	1073.00
755.13	1076.34
755.46	1074.82
755.79	1073.58
756.12	1075.57
756.45	1074.75
756.78	1075.15
757.11	1075.76
757.43	1078.03
757.76	1076.32
758.09	1075.03
758.42	1074.54
758.75	1075.38
759.08	1076.01
759.41	1078.66
759.74	1082.03
760.07	1080.77
760.39	1077.72
760.72	1077.42
761.05	1078.47
761.38	1076.90
761.71	1077.09
762.04	1075.97
762.36	1078.57
762.69	1076.32
763.02	1077.70
763.35	1079.71
763.68	1085.10
764.01	1083.32
764.33	1086.29
764.66	1084.14
764.99	1081.77
765.32	1081.21
765.65	1079.71
765.97	1079.08
766.30	1082.78
766.63	1087.51
766.96	1088.14
767.28	1086.06
767.61	1087.62
767.94	1087.09
768.27	1081.73
768.59	1078.45
768.92	1078.12
769.25	1074.45
769.58	1070.26
769.90	1071.87
770.23	1073.00
770.56	1077.18
770.89	1076.53
771.21	1078.52
771.54	1077.09
771.87	1076.30
772.19	1073.09
772.52	1071.59
772.85	1072.34
773.17	1075.03
773.50	1075.71
773.83	1076.32
774.15	1078.36
774.48	1080.60
774.81	1080.23
775.13	1079.36
775.46	1080.63
775.79	1083.88
776.11	1080.63
776.44	1083.34
776.77	1087.51
777.09	1086.73
777.42	1082.38
777.74	1081.12
778.07	1078.24
778.40	1076.76
778.72	1078.82
779.05	1078.71
779.37	1080.13
779.70	1074.98
780.03	1074.52
780.35	1075.85
780.68	1074.14
781.00	1075.17
781.33	1078.50
781.65	1074.80
781.98	1071.10
782.31	1073.81
782.63	1075.66
782.96	1076.30
783.28	1078.78
783.61	1078.07
783.93	1076.81
784.26	1073.44
784.58	1073.51
784.91	1073.56
785.23	1076.51
785.56	1079.46
785.88	1082.08
786.21	1082.94
786.53	1085.73
786.86	1084.91
787.18	1083.86
787.51	1082.87
787.83	1082.83
788.16	1079.67
788.48	1077.04
788.81	1077.63
789.13	1075.01
789.46	1076.20
789.78	1075.71
790.10	1078.31
790.43	1077.23
790.75	1079.76
791.08	1076.95
791.40	1076.48
791.73	1075.92
792.05	1077.70
792.37	1076.04
792.70	1077.33
793.02	1081.00
793.35	1083.20
793.67	1080.06
793.99	1079.29
794.32	1080.25
794.64	1078.82
794.96	1074.52
795.29	1073.67
795.61	1075.17
795.93	1072.43
796.26	1072.74
796.58	1072.32
796.91	1074.31
797.23	1074.80
797.55	1076.83
797.87	1074.75
798.20	1074.63
798.52	1076.25
798.84	1077.56
799.17	1077.96
799.49	1080.23
799.81	1085.38
800.14	1084.30
800.46	1083.32
800.78	1082.97
801.10	1082.83
801.43	1080.32
801.75	1075.64
802.07	1075.52
802.40	1074.28
802.72	1071.94
803.04	1070.77
803.36	1075.85
803.69	1073.95
804.01	1072.92
804.33	1071.61
804.65	1073.02
804.97	1074.91
805.30	1074.73
805.62	1074.87
805.94	1077.68
806.26	1075.69
806.58	1073.65
806.91	1074.66
807.23	1077.79
807.55	1078.28
807.87	1078.36
808.19	1077.89
808.52	1076.11
808.84	1074.54
809.16	1071.43
809.48	1073.23
809.80	1073.46
810.12	1074.31
810.44	1070.89
810.77	1071.29
811.09	1070.77
811.41	1070.56
811.73	1072.62
812.05	1075.45
812.37	1076.13
812.69	1075.92
813.01	1077.65
813.33	1076.95
813.66	1075.90
813.98	1076.97
814.30	1076.55
814.62	1074.17
814.94	1073.93
815.26	1073.28
815.58	1073.86
815.90	1073.86
816.22	1077.35
816.54	1075.59
816.86	1076.44
817.18	1077.04
817.50	1076.25
817.82	1074.17
818.14	1074.49
818.46	1077.33
818.78	1078.07
819.10	1080.13
819.42	1079.43
819.74	1082.66
820.06	1082.36
820.38	1082.33
820.70	1082.73
821.02	1083.86
821.34	1084.58
821.66	1085.17
821.98	1083.48
822.30	1082.40
822.62	1079.76
822.94	1080.18
823.26	1076.74
823.58	1077.63
823.90	1079.62
824.22	1082.87
824.54	1081.05
824.86	1083.39
825.18	1084.30
825.50	1085.87
825.81	1084.25
826.13	1083.62
826.45	1084.25
826.77	1082.47
827.09	1080.34
827.41	1080.86
827.73	1081.40
828.05	1079.69
828.36	1078.50
828.68	1078.24
829.00	1078.00
829.32	1078.71
829.64	1079.97
829.96	1080.79
830.28	1080.84
830.59	1080.63
830.91	1078.75
831.23	1078.31
831.55	1077.61
831.87	1075.22
832.19	1075.31
832.50	1076.27
832.82	1075.01
833.14	1077.33
833.46	1077.89
833.78	1074.91
834.09	1075.94
834.41	1077.68
834.73	1076.93
835.05	1077.18
835.36	1081.63
835.68	1078.82
836.00	1078.89
836.32	1078.40
836.63	1078.71
836.95	1074.63
837.27	1076.11
837.59	1075.66
837.90	1074.21
838.22	1076.20
838.54	1076.58
838.85	1076.41
839.17	1075.99
839.49	1076.74
839.80	1075.83
840.12	1080.48
840.44	1080.74
840.76	1081.80
841.07	1081.00
841.39	1079.64
841.71	1075.78
842.02	1076.60
842.34	1076.67
842.65	1078.61
842.97	1079.90
843.29	1078.94
843.60	1080.79
843.92	1078.82
844.24	1078.78
844.55	1079.99
844.87	1081.66
845.18	1077.35
845.50	1079.01
845.82	1079.55
846.13	1077.42
846.45	1079.06
846.76	1080.18
847.08	1083.39
847.40	1081.26
847.71	1081.26
848.03	1076.83
848.34	1078.85
848.66	1075.13
848.97	1078.10
849.29	1078.03
849.60	1082.87
849.92	1080.11
850.24	1077.21
850.55	1075.80
850.87	1076.88
851.18	1077.82
851.50	1078.57
851.81	1081.19
852.13	1081.80
852.44	1081.07
852.76	1079.71
853.07	1081.63
853.39	1082.85
853.70	1081.61
854.01	1078.59
854.33	1076.58
854.64	1075.73
854.96	1073.18
855.27	1072.81
855.59	1076.23
855.90	1071.50
856.22	1067.75
856.53	1069.60
856.84	1071.85
857.16	1073.00
857.47	1077.30
857.79	1079.90
858.10	1081.84
858.41	1080.46
858.73	1078.50
859.04	1081.75
859.36	1081.54
859.67	1081.44
859.98	1079.57
860.30	1080.34
860.61	1078.10
860.92	1079.50
861.24	1075.69
861.55	1076.25
861.87	1074.96
862.18	1076.18
862.49	1075.62
862.81	1079.38
863.12	1082.43
863.43	1084.14
863.74	1085.28
864.06	1085.84
864.37	1081.56
864.68	1077.28
865.00	1079.71
865.31	1076.83
865.62	1075.22
865.94	1077.23
866.25	1079.81
866.56	1078.26
866.87	1078.85
867.19	1079.24
867.50	1079.60
867.81	1079.06
868.12	1078.52
868.44	1078.24
868.75	1078.94
869.06	1079.67
869.37	1081.47
869.68	1079.10
870.00	1077.82
870.31	1078.61
870.62	1079.78
870.93	1077.51
871.24	1076.76
871.56	1079.17
871.87	1075.76
872.18	1071.92
872.49	1069.44
872.80	1070.56
873.12	1069.62
873.43	1072.22
873.74	1072.62
874.05	1077.93
874.36	1079.62
874.67	1077.23
874.98	1077.51
875.29	1078.75
875.61	1077.16
875.92	1077.54
876.23	1079.10
876.54	1078.71
876.85	1076.32
877.16	1073.95
877.47	1069.98
877.78	1072.04
878.09	1070.28
878.40	1071.78
878.72	1072.92
879.03	1075.59
879.34	1073.09
879.65	1072.74
879.96	1073.51
880.27	1076.30
880.58	1078.19
880.89	1077.44
881.20	1080.65
881.51	1081.96
881.82	1079.92
882.13	1075.29
882.44	1076.67
882.75	1075.62
883.06	1072.83
883.37	1071.99
883.68	1076.48
883.99	1074.94
884.30	1072.90
884.61	1075.55
884.92	1074.31
885.23	1072.55
885.54	1075.83
885.85	1074.00
886.16	1071.31
886.47	1073.14
886.78	1070.21
887.08	1068.64
887.39	1072.85
887.70	1075.20
888.01	1074.87
888.32	1078.92
888.63	1081.87
888.94	1079.57
889.25	1077.65
889.56	1079.03
889.87	1078.17
890.17	1076.39
890.48	1077.89
890.79	1080.09
891.10	1081.23
891.41	1079.08
891.72	1076.88
892.03	1076.79
892.34	1075.87
892.64	1075.05
892.95	1076.34
893.26	1079.92
893.57	1079.50
893.88	1081.54
894.18	1081.42
894.49	1082.43
894.80	1077.49
895.11	1079.03
895.42	1078.28
895.72	1078.21
896.03	1078.59
896.34	1081.16
896.65	1080.51
896.96	1080.84
897.26	1079.64
897.57	1079.53
897.88	1081.09
898.19	1079.76
898.49	1077.02
898.80	1074.45
899.11	1073.93
899.41	1071.05
899.72	1073.63
900.03	1075.10
900.34	1076.62
900.64	1077.28
900.95	1076.53
901.26	1075.43
901.56	1074.61
901.87	1076.81
902.18	1074.47
902.48	1075.64
902.79	1073.63
903.10	1070.35
903.40	1068.78
903.71	1067.52
904.02	1071.19
904.32	1073.16
904.63	1075.52
904.94	1076.48
905.24	1077.47
905.55	1072.78
905.85	1071.71
906.16	1074.45
906.47	1073.37
906.77	1075.94
907.08	1077.18
907.38	1079.60
907.69	1076.97
908.00	1078.28
908.30	1078.38
908.61	1079.29
908.91	1079.13
909.22	1079.64
909.52	1078.07
909.83	1079.10
910.14	1080.37
910.44	1075.90
910.75	1075.90
911.05	1076.69
911.36	1075.41
911.66	1072.74
911.97	1078.61
912.27	1080.06
912.58	1080.60
912.88	1081.12
913.19	1083.25
913.49	1080.46
913.80	1079.43
914.10	1080.72
914.41	1082.40
914.71	1083.71
915.01	1083.01
915.32	1084.63
915.62	1082.73
915.93	1079.43
916.23	1075.41
916.54	1077.21
916.84	1074.40
917.15	1072.25
917.45	1072.64
917.75	1074.33
918.06	1074.49
918.36	1076.13
918.67	1080.39
918.97	1083.53
919.27	1083.39
919.58	1081.94
919.88	1081.68
920.18	1079.97
920.49	1077.16
920.79	1075.69
921.10	1074.42
921.40	1075.66
921.70	1075.94
922.01	1072.25
922.31	1075.45
922.61	1075.94
922.92	1074.70
923.22	1072.95
923.52	1079.62
923.82	1080.58
924.13	1080.20
924.43	1079.64
924.73	1080.93
925.04	1079.10
925.34	1076.69
925.64	1078.05
925.94	1078.28
926.25	1076.69
926.55	1074.31
926.85	1075.01
927.15	1072.01
927.46	1069.58
927.76	1071.78
928.06	1070.84
928.36	1071.22
928.67	1075.22
928.97	1079.15
929.27	1078.57
929.57	1079.81
929.87	1081.05
930.18	1079.53
930.48	1079.81
930.78	1078.43
931.08	1079.43
931.38	1077.70
931.69	1078.28
931.99	1075.50
932.29	1076.72
932.59	1078.12
932.89	1077.16
933.19	1078.68
933.49	1079.50
933.80	1081.84
934.10	1083.76
934.40	1083.06
934.70	1080.32
935.00	1080.79
935.30	1077.49
935.60	1074.61
935.90	1077.54
936.20	1078.85
936.50	1079.43
936.81	1078.52
937.11	1076.81
937.41	1073.74
937.71	1073.91
938.01	1073.25
938.31	1074.19
938.61	1073.02
938.91	1076.15
939.21	1075.80
939.51	1074.47
939.81	1074.56
940.11	1077.86
940.41	1076.46
940.71	1072.85
941.01	1073.02
941.31	1073.79
941.61	1075.10
941.91	1074.61
942.21	1078.21
942.51	1076.58
942.81	1073.21
943.11	1070.72
943.41	1072.18
943.71	1068.36
944.01	1073.74
944.31	1078.24
944.61	1077.49
944.90	1076.06
945.20	1079.22
945.50	1076.46
945.80	1075.52
946.10	1076.53
946.40	1074.28
946.70	1075.24
947.00	1073.04
947.30	1074.14
947.60	1071.99
947.89	1077.47
948.19	1076.60
948.49	1078.24
948.79	1077.18
949.09	1079.71
949.39	1074.70
949.69	1074.56
949.98	1073.72
950.28	1072.39
950.58	1070.42
950.88	1071.12
951.18	1069.60
951.48	1070.80
951.77	1069.98
952.07	1072.04
952.37	1073.86
952.67	1078.71
952.97	1078.28
953.26	1081.49
953.56	1079.78
953.86	1079.74
954.16	1079.55
954.45	1080.72
954.75	1080.95
955.05	1081.16
955.35	1079.74
955.64	1074.03
955.94	1076.95
956.24	1073.42
956.54	1073.14
956.83	1073.51
957.13	1079.85
957.43	1075.36
957.72	1076.60
958.02	1078.36
958.32	1079.48
958.61	1076.32
958.91	1078.75
959.21	1078.71
959.50	1079.48
959.80	1079.15
960.10	1078.33
960.39	1078.17
960.69	1083.01
960.99	1079.92
961.28	1077.11
961.58	1077.56
961.87	1074.07
962.17	1072.22
962.47	1075.01
962.76	1079.10
963.06	1078.36
963.36	1082.92
963.65	1083.39
963.95	1083.04
964.24	1082.83
964.54	1083.32
964.83	1081.35
965.13	1079.20
965.42	1079.48
965.72	1078.75
966.02	1080.18
966.31	1080.93
966.61	1082.19
966.90	1083.76
967.20	1083.86
967.49	1084.56
967.79	1081.00
968.08	1080.13
968.38	1078.73
968.67	1080.11
968.97	1076.72
969.26	1078.73
969.56	1078.03
969.85	1080.60
970.15	1077.72
970.44	1080.27
970.74	1079.48
971.03	1081.91
971.32	1079.34
971.62	1082.36
971.91	1081.16
972.21	1081.77
972.50	1079.38
972.80	1078.94
973.09	1076.20
973.38	1078.99
973.68	1078.31
973.97	1077.58
974.27	1074.77
974.56	1075.05
974.85	1072.81
975.15	1071.01
975.44	1072.36
975.73	1074.94
976.03	1075.36
976.32	1073.65
976.61	1078.07
976.91	1076.97
977.20	1075.22
977.49	1074.77
977.79	1077.42
978.08	1075.78
978.37	1077.84
978.67	1079.55
978.96	1078.36
979.25	1076.46
979.55	1075.31
979.84	1070.58
980.13	1069.70
980.42	1069.46
980.72	1069.77
981.01	1069.95
981.30	1072.41
981.59	1071.82
981.89	1073.77
982.18	1071.52
982.47	1071.82
982.76	1071.43
983.06	1073.35
983.35	1072.71
983.64	1074.73
983.93	1077.33
984.22	1077.00
984.52	1077.96
984.81	1079.06
985.10	1082.61
985.39	1083.27
985.68	1085.45
985.97	1083.41
986.27	1083.48
986.56	1079.24
986.85	1075.36
987.14	1075.71
987.43	1076.48
987.72	1075.43
988.01	1074.80
988.31	1077.75
988.60	1076.81
988.89	1078.54
989.18	1079.03
989.47	1081.56
989.76	1078.24
990.05	1076.79
990.34	1072.64
990.63	1071.29
990.92	1069.81
991.21	1071.90
991.51	1073.79
991.80	1077.11
992.09	1078.19
992.38	1080.74
992.67	1080.16
992.96	1080.84
993.25	1076.79
993.54	1078.24
993.83	1078.12
994.12	1078.78
994.41	1077.21
994.70	1078.96
994.99	1078.75
995.28	1075.24
995.57	1076.27
995.86	1076.90
996.15	1079.74
996.44	1079.88
996.73	1081.37
997.02	1080.48
997.31	1081.14
997.59	1079.27
997.88	1077.30
998.17	1079.48
998.46	1079.62
998.75	1079.50
999.04	1078.66
999.33	1079.15
999.62	1080.81
999.91	1080.67
1000.20	1079.88
1000.49	1080.32
1000.77	1078.92
1001.06	1073.93
1001.35	1074.14
1001.64	1074.73
1001.93	1074.82
1002.22	1076.32
1002.51	1077.86
1002.79	1077.23
1003.08	1074.84
1003.37	1075.92
1003.66	1076.15
1003.95	1077.37
1004.23	1080.91
1004.52	1084.39
1004.81	1084.56
1005.10	1084.14
1005.39	1084.25
1005.67	1081.21
1005.96	1081.42
1006.25	1080.65
1006.54	1079.78
1006.83	1077.75
1007.11	1076.46
1007.40	1075.22
1007.69	1076.27
1007.97	1076.51
1008.26	1075.76
1008.55	1077.79
1008.84	1078.59
1009.12	1078.24
1009.41	1079.69
1009.70	1082.10
1009.98	1084.07
1010.27	1083.81
1010.56	1083.20
1010.85	1083.90
1011.13	1083.48
1011.42	1082.24
1011.71	1077.96
1011.99	1077.25
1012.28	1076.01
1012.56	1076.44
1012.85	1074.56
1013.14	1074.47
1013.42	1075.90
1013.71	1075.62
1014.00	1073.81
1014.28	1074.59
1014.57	1078.24
1014.85	1078.92
1015.14	1077.70
1015.43	1080.27
1015.71	1080.74
1016.00	1078.26
1016.28	1076.18
1016.57	1077.86
1016.85	1078.59
1017.14	1077.86
1017.43	1079.10
1017.71	1078.92
1018.00	1077.04
1018.28	1075.17
1018.57	1074.73
1018.85	1074.49
1019.14	1077.11
1019.42	1076.88
1019.71	1075.45
1019.99	1075.22
1020.28	1076.79
1020.56	1074.54
1020.85	1075.62
1021.13	1077.75
1021.42	1078.33
1021.70	1076.72
1021.99	1077.58
1022.27	1075.05
1022.55	1081.44
1022.84	1061.08
>>>>>End Processed Spectral Data<<<<<
