SpectraSuite Data File
++++++++++++++++++++++++++++++++++++
Date: Mon Aug 26 10:22:07 PDT 2019
User: corrico
Dark Spectrum Present: No
Reference Spectrum Present: No
Number of Sampled Component Spectra: 1
Spectrometers: USB2+H06089
Integration Time (usec): 2000 (USB2+H06089)
Spectra Averaged: 20 (USB2+H06089)
Boxcar Smoothing: 2 (USB2+H06089)
Correct for Electrical Dark: No (USB2+H06089)
Strobe/Lamp Enabled: No (USB2+H06089)
Correct for Detector Non-linearity: No (USB2+H06089)
Correct for Stray Light: No (USB2+H06089)
Number of Pixels in Processed Spectrum: 2048
>>>>>Begin Processed Spectral Data<<<<<
339.70	1028.67
340.07	1028.67
340.45	992.39
340.82	970.04
341.19	945.58
341.57	917.96
341.94	911.24
342.31	902.35
342.69	897.41
343.06	897.34
343.43	897.83
343.81	897.08
344.18	899.77
344.55	906.75
344.93	910.66
345.30	919.88
345.67	927.02
346.04	934.79
346.42	941.60
346.79	949.46
347.16	956.44
347.54	970.04
347.91	976.94
348.28	987.17
348.65	996.16
349.03	1005.89
349.40	1010.55
349.77	1025.30
350.14	1032.39
350.52	1039.95
350.89	1046.57
351.26	1056.66
351.63	1057.34
352.01	1060.59
352.38	1065.37
352.75	1067.14
353.12	1066.70
353.50	1070.98
353.87	1074.28
354.24	1075.38
354.61	1081.16
354.98	1083.04
355.36	1081.68
355.73	1079.85
356.10	1082.87
356.47	1079.13
356.84	1078.28
357.22	1079.83
357.59	1085.31
357.96	1086.43
358.33	1088.33
358.70	1088.09
359.08	1088.79
359.45	1085.38
359.82	1081.21
360.19	1078.87
360.56	1078.03
360.94	1077.28
361.31	1077.58
361.68	1077.77
362.05	1078.12
362.42	1079.34
362.79	1079.01
363.16	1077.21
363.54	1077.91
363.91	1075.76
364.28	1075.43
364.65	1074.73
365.02	1077.37
365.39	1077.70
365.76	1080.91
366.14	1078.36
366.51	1075.87
366.88	1072.08
367.25	1071.47
367.62	1069.44
367.99	1069.70
368.36	1074.63
368.73	1075.22
369.10	1074.61
369.48	1076.69
369.85	1077.93
370.22	1076.74
370.59	1079.17
370.96	1080.65
371.33	1082.29
371.70	1081.47
372.07	1081.00
372.44	1080.37
372.81	1078.28
373.18	1077.00
373.55	1079.57
373.93	1077.61
374.30	1077.37
374.67	1076.04
375.04	1078.40
375.41	1076.58
375.78	1078.85
376.15	1081.12
376.52	1081.68
376.89	1078.45
377.26	1079.13
377.63	1079.81
378.00	1075.92
378.37	1079.92
378.74	1079.85
379.11	1076.81
379.48	1076.67
379.85	1077.54
380.22	1077.61
380.59	1076.95
380.96	1080.98
381.33	1079.74
381.70	1082.12
382.07	1080.98
382.44	1083.83
382.81	1085.00
383.18	1086.50
383.55	1085.91
383.92	1084.16
384.29	1083.69
384.66	1082.08
385.03	1083.55
385.40	1082.40
385.77	1083.15
386.14	1081.70
386.51	1082.10
386.88	1078.00
387.25	1077.79
387.62	1082.59
387.99	1082.59
388.36	1081.21
388.73	1084.04
389.10	1086.08
389.46	1085.21
389.83	1088.40
390.20	1092.02
390.57	1093.94
390.94	1095.16
391.31	1092.33
391.68	1089.43
392.05	1088.16
392.42	1086.36
392.79	1085.10
393.16	1085.38
393.53	1088.04
393.89	1087.51
394.26	1087.09
394.63	1088.72
395.00	1089.03
395.37	1088.65
395.74	1089.52
396.11	1091.70
396.48	1092.98
396.84	1092.68
397.21	1092.94
397.58	1093.64
397.95	1091.63
398.32	1088.72
398.69	1090.99
399.06	1090.46
399.42	1088.75
399.79	1092.09
400.16	1092.19
400.53	1089.43
400.90	1090.08
401.27	1092.16
401.64	1091.79
402.00	1093.19
402.37	1094.32
402.74	1096.92
403.11	1095.09
403.48	1094.04
403.84	1094.25
404.21	1093.66
404.58	1091.79
404.95	1094.74
405.32	1094.53
405.68	1095.00
406.05	1102.23
406.42	1103.75
406.79	1102.49
407.16	1103.59
407.52	1103.52
407.89	1100.26
408.26	1097.71
408.63	1099.21
408.99	1103.54
409.36	1100.36
409.73	1099.26
410.10	1101.01
410.47	1100.38
410.83	1096.75
411.20	1100.03
411.57	1099.40
411.94	1099.75
412.30	1097.27
412.67	1095.93
413.04	1097.55
413.40	1096.92
413.77	1095.98
414.14	1100.12
414.51	1101.43
414.87	1101.29
415.24	1101.60
415.61	1102.21
415.97	1099.98
416.34	1096.70
416.71	1095.02
417.08	1095.53
417.44	1097.66
417.81	1102.91
418.18	1109.39
418.54	1111.82
418.91	1117.56
419.28	1119.48
419.64	1122.52
420.01	1124.79
420.38	1130.85
420.74	1133.10
421.11	1136.47
421.48	1134.93
421.84	1135.60
422.21	1135.25
422.58	1136.07
422.94	1135.46
423.31	1138.90
423.68	1141.76
424.04	1144.85
424.41	1148.57
424.77	1152.20
425.14	1153.65
425.51	1154.42
425.87	1160.48
426.24	1168.77
426.61	1176.99
426.97	1186.04
427.34	1195.69
427.70	1203.57
428.07	1206.92
428.44	1213.36
428.80	1221.17
429.17	1233.95
429.53	1244.42
429.90	1261.36
430.27	1278.99
430.63	1293.99
431.00	1305.86
431.36	1317.96
431.73	1332.37
432.09	1345.08
432.46	1362.85
432.83	1383.30
433.19	1402.78
433.56	1418.67
433.92	1442.10
434.29	1469.18
434.65	1496.00
435.02	1530.85
435.38	1568.53
435.75	1604.18
436.11	1639.38
436.48	1677.13
436.84	1723.50
437.21	1764.16
437.57	1812.32
437.94	1867.21
438.30	1926.61
438.67	1975.37
439.03	2039.89
439.40	2107.65
439.76	2173.47
440.13	2247.92
440.49	2329.70
440.86	2414.68
441.22	2496.51
441.59	2586.27
441.95	2691.94
442.32	2800.26
442.68	2915.91
443.05	3042.84
443.41	3179.59
443.78	3303.71
444.14	3441.15
444.51	3579.15
444.87	3749.47
445.24	3912.35
445.60	4102.87
445.96	4287.46
446.33	4502.72
446.69	4702.44
447.06	4921.23
447.42	5138.22
447.79	5385.03
448.15	5657.26
448.51	5937.17
448.88	6271.56
449.24	6584.09
449.61	6936.65
449.97	7288.97
450.33	7670.40
450.70	8020.15
451.06	8460.17
451.43	8867.96
451.79	9326.52
452.15	9819.65
452.52	10369.60
452.88	10920.07
453.24	11558.55
453.61	12267.99
453.97	12982.34
454.34	13672.59
454.70	14490.44
455.06	15303.83
455.43	16061.32
455.79	16753.81
456.15	17591.82
456.52	18354.43
456.88	19278.76
457.24	20197.65
457.61	21319.64
457.97	22368.92
458.33	23466.52
458.70	24507.61
459.06	25499.90
459.42	26554.01
459.79	27483.58
460.15	28537.61
460.51	29544.42
460.88	30671.78
461.24	31641.49
461.60	32815.83
461.96	33871.23
462.33	34924.75
462.69	35989.41
463.05	37127.59
463.42	38153.19
463.78	39102.84
464.14	39867.80
464.50	40588.54
464.87	41099.88
465.23	41421.02
465.59	41824.91
465.95	42134.60
466.32	42387.52
466.68	42665.34
467.04	42839.67
467.40	42883.34
467.77	43012.52
468.13	42906.19
468.49	42704.34
468.85	42608.73
469.22	42468.01
469.58	42199.88
469.94	42058.84
470.30	41868.37
470.66	41512.77
471.03	41019.74
471.39	40648.65
471.75	39934.06
472.11	39225.58
472.47	38732.45
472.84	38166.53
473.20	37452.43
473.56	37068.37
473.92	36507.37
474.28	35862.88
474.65	35228.08
475.01	34529.22
475.37	33687.45
475.73	32983.23
476.09	32270.09
476.45	31595.62
476.81	31034.82
477.18	30472.09
477.54	29975.31
477.90	29517.81
478.26	28941.68
478.62	28424.26
478.98	27977.99
479.34	27548.92
479.71	26977.67
480.07	26568.85
480.43	26132.46
480.79	25651.76
481.15	25187.75
481.51	24816.19
481.87	24471.56
482.23	24108.50
482.59	23806.03
482.96	23452.40
483.32	23145.96
483.68	22753.85
484.04	22398.97
484.40	21981.91
484.76	21556.43
485.12	21086.73
485.48	20646.08
485.84	20144.62
486.20	19683.11
486.56	19238.62
486.92	18848.43
487.28	18461.00
487.64	18080.22
488.00	17689.28
488.37	17294.01
488.73	16844.18
489.09	16364.02
489.45	15906.51
489.81	15441.71
490.17	14998.81
490.53	14602.20
490.89	14204.83
491.25	13798.32
491.61	13407.34
491.97	13014.74
492.33	12610.62
492.69	12249.43
493.05	11928.66
493.41	11614.96
493.77	11291.59
494.13	10975.01
494.49	10675.96
494.85	10362.77
495.21	10073.88
495.57	9812.65
495.93	9546.69
496.29	9281.23
496.64	9055.77
497.00	8796.58
497.36	8531.07
497.72	8288.14
498.08	8063.33
498.44	7820.10
498.80	7614.09
499.16	7421.23
499.52	7227.76
499.88	7045.20
500.24	6877.69
500.60	6713.59
500.96	6556.50
501.32	6394.88
501.68	6222.27
502.03	6041.65
502.39	5873.55
502.75	5695.48
503.11	5548.68
503.47	5409.45
503.83	5285.12
504.19	5162.36
504.55	5051.23
504.91	4934.74
505.26	4816.35
505.62	4693.97
505.98	4573.08
506.34	4450.72
506.70	4323.32
507.06	4215.96
507.42	4112.60
507.78	4015.80
508.13	3927.30
508.49	3846.13
508.85	3762.57
509.21	3680.70
509.57	3594.57
509.93	3504.65
510.28	3412.45
510.64	3332.27
511.00	3249.18
511.36	3178.75
511.72	3113.15
512.07	3056.69
512.43	2989.19
512.79	2930.16
513.15	2863.86
513.51	2804.50
513.86	2745.28
514.22	2697.72
514.58	2648.13
514.94	2603.99
515.30	2562.25
515.65	2523.33
516.01	2482.70
516.37	2439.59
516.73	2404.97
517.08	2363.19
517.44	2319.82
517.80	2276.92
518.16	2238.39
518.51	2198.68
518.87	2165.67
519.23	2135.06
519.59	2105.38
519.94	2075.68
520.30	2047.62
520.66	2012.88
521.01	1978.67
521.37	1950.79
521.73	1926.26
522.09	1896.91
522.44	1876.43
522.80	1854.38
523.16	1828.82
523.51	1805.70
523.87	1785.52
524.23	1765.93
524.58	1746.27
524.94	1728.02
525.30	1708.47
525.65	1687.01
526.01	1666.63
526.37	1648.88
526.72	1632.83
527.08	1614.64
527.44	1597.25
527.79	1580.99
528.15	1566.82
528.51	1547.73
528.86	1533.47
529.22	1523.27
529.58	1507.47
529.93	1495.53
530.29	1483.27
530.65	1470.32
531.00	1455.86
531.36	1445.96
531.71	1430.93
532.07	1420.94
532.43	1411.11
532.78	1404.88
533.14	1394.73
533.49	1383.30
533.85	1375.25
534.21	1366.83
534.56	1354.73
534.92	1345.67
535.27	1341.83
535.63	1333.57
535.98	1323.41
536.34	1315.08
536.69	1311.59
537.05	1304.94
537.41	1297.48
537.76	1292.63
538.12	1286.87
538.47	1280.62
538.83	1273.42
539.18	1270.89
539.54	1269.88
539.89	1263.63
540.25	1257.64
540.60	1256.91
540.96	1249.52
541.31	1241.61
541.67	1242.68
542.02	1236.08
542.38	1227.61
542.73	1225.83
543.09	1222.39
543.44	1215.96
543.80	1212.87
544.15	1210.34
544.51	1208.23
544.86	1204.93
545.22	1201.98
545.57	1200.04
545.93	1199.06
546.28	1194.98
546.64	1194.16
546.99	1189.83
547.35	1186.63
547.70	1180.38
548.05	1177.85
548.41	1173.50
548.76	1170.53
549.12	1170.10
549.47	1170.03
549.83	1166.94
550.18	1166.73
550.53	1165.96
550.89	1162.43
551.24	1159.48
551.60	1159.57
551.95	1156.18
552.30	1153.56
552.66	1148.59
553.01	1145.69
553.37	1139.58
553.72	1139.16
554.07	1140.78
554.43	1142.88
554.78	1143.05
555.13	1142.65
555.49	1140.52
555.84	1139.91
556.19	1139.07
556.55	1139.77
556.90	1142.63
557.26	1142.13
557.61	1140.38
557.96	1137.59
558.32	1135.42
558.67	1130.53
559.02	1130.17
559.37	1127.27
559.73	1127.25
560.08	1122.01
560.43	1123.83
560.79	1121.58
561.14	1120.51
561.49	1119.64
561.85	1125.05
562.20	1119.81
562.55	1117.70
562.90	1115.85
563.26	1113.63
563.61	1112.67
563.96	1114.59
564.32	1114.33
564.67	1114.26
565.02	1114.40
565.37	1108.88
565.73	1108.81
566.08	1107.26
566.43	1106.18
566.78	1105.51
567.14	1106.18
567.49	1102.35
567.84	1100.71
568.19	1104.17
568.54	1106.32
568.90	1107.07
569.25	1110.16
569.60	1114.24
569.95	1107.68
570.31	1106.21
570.66	1107.42
571.01	1105.18
571.36	1102.86
571.71	1104.36
572.06	1100.89
572.42	1100.61
572.77	1102.60
573.12	1100.66
573.47	1100.75
573.82	1102.06
574.18	1100.61
574.53	1096.45
574.88	1097.83
575.23	1099.02
575.58	1099.19
575.93	1100.57
576.28	1100.22
576.64	1098.90
576.99	1096.40
577.34	1095.00
577.69	1090.78
578.04	1092.23
578.39	1091.77
578.74	1091.88
579.09	1093.64
579.44	1094.62
579.80	1096.21
580.15	1098.41
580.50	1096.56
580.85	1096.03
581.20	1096.52
581.55	1095.28
581.90	1093.17
582.25	1095.16
582.60	1097.73
582.95	1097.29
583.30	1096.52
583.65	1099.42
584.00	1100.17
584.35	1095.51
584.71	1096.63
585.06	1098.65
585.41	1093.59
585.76	1092.52
586.11	1093.08
586.46	1092.91
586.81	1091.77
587.16	1095.04
587.51	1093.69
587.86	1094.95
588.21	1095.09
588.56	1095.49
588.91	1095.00
589.26	1096.75
589.61	1094.81
589.96	1092.02
590.31	1090.15
590.66	1089.19
591.01	1089.75
591.36	1088.26
591.71	1090.29
592.06	1089.29
592.41	1088.72
592.76	1086.87
593.10	1088.33
593.45	1087.74
593.80	1087.79
594.15	1087.86
594.50	1085.99
594.85	1087.74
595.20	1087.79
595.55	1085.99
595.90	1085.31
596.25	1089.07
596.60	1089.71
596.95	1090.08
597.30	1092.94
597.64	1103.75
597.99	1100.87
598.34	1097.83
598.69	1097.92
599.04	1095.89
599.39	1087.48
599.74	1090.50
600.09	1093.43
600.44	1095.16
600.78	1097.22
601.13	1094.43
601.48	1091.56
601.83	1091.44
602.18	1087.74
602.53	1088.84
602.88	1092.16
603.22	1091.79
603.57	1092.07
603.92	1094.81
604.27	1091.72
604.62	1087.74
604.97	1088.12
605.31	1082.87
605.66	1081.16
606.01	1082.08
606.36	1081.58
606.71	1082.08
607.05	1084.42
607.40	1085.75
607.75	1086.80
608.10	1089.45
608.44	1084.70
608.79	1084.51
609.14	1081.58
609.49	1081.16
609.84	1082.01
610.18	1086.99
610.53	1084.67
610.88	1088.37
611.23	1086.64
611.57	1084.42
611.92	1085.73
612.27	1086.43
612.62	1083.64
612.96	1086.99
613.31	1085.82
613.66	1084.49
614.00	1085.45
614.35	1083.36
614.70	1079.36
615.05	1079.76
615.39	1078.73
615.74	1077.65
616.09	1079.85
616.43	1083.67
616.78	1086.24
617.13	1086.41
617.47	1087.23
617.82	1085.77
618.17	1081.73
618.51	1079.55
618.86	1077.33
619.21	1077.96
619.55	1080.88
619.90	1080.37
620.25	1079.57
620.59	1077.98
620.94	1076.83
621.29	1077.16
621.63	1077.49
621.98	1079.62
622.32	1084.53
622.67	1087.04
623.02	1085.12
623.36	1087.32
623.71	1087.37
624.05	1084.07
624.40	1082.22
624.75	1082.22
625.09	1081.54
625.44	1078.94
625.78	1081.75
626.13	1082.24
626.48	1082.36
626.82	1082.52
627.17	1084.84
627.51	1086.10
627.86	1088.63
628.20	1088.02
628.55	1089.73
628.89	1087.65
629.24	1084.28
629.58	1082.03
629.93	1082.80
630.28	1083.22
630.62	1085.42
630.97	1088.49
631.31	1086.06
631.66	1085.63
632.00	1083.25
632.35	1083.69
632.69	1082.78
633.04	1090.08
633.38	1090.78
633.73	1091.51
634.07	1087.72
634.42	1088.75
634.76	1083.83
635.11	1083.06
635.45	1084.96
635.79	1086.55
636.14	1084.60
636.48	1083.50
636.83	1082.69
637.17	1081.98
637.52	1081.09
637.86	1081.89
638.21	1082.50
638.55	1082.76
638.89	1081.35
639.24	1082.94
639.58	1084.81
639.93	1086.73
640.27	1087.90
640.61	1088.70
640.96	1087.18
641.30	1085.07
641.65	1082.83
641.99	1080.91
642.33	1078.82
642.68	1078.61
643.02	1077.35
643.37	1077.11
643.71	1078.28
644.05	1080.88
644.40	1085.26
644.74	1082.01
645.08	1085.05
645.43	1084.07
645.77	1083.76
646.11	1081.42
646.46	1086.87
646.80	1084.58
647.14	1082.38
647.49	1079.29
647.83	1077.72
648.17	1075.78
648.52	1075.43
648.86	1076.13
649.20	1077.91
649.55	1078.12
649.89	1078.36
650.23	1077.25
650.57	1079.85
650.92	1079.83
651.26	1078.38
651.60	1076.69
651.95	1077.96
652.29	1075.87
652.63	1075.38
652.97	1076.25
653.32	1077.30
653.66	1078.57
654.00	1078.12
654.34	1079.22
654.69	1081.91
655.03	1084.35
655.37	1083.25
655.71	1084.02
656.05	1084.67
656.40	1084.79
656.74	1082.40
657.08	1084.18
657.42	1084.02
657.76	1085.47
658.11	1083.79
658.45	1082.38
658.79	1081.33
659.13	1082.17
659.47	1078.40
659.82	1082.12
660.16	1084.84
660.50	1083.64
660.84	1084.09
661.18	1083.01
661.52	1078.64
661.87	1078.78
662.21	1079.74
662.55	1082.17
662.89	1084.74
663.23	1084.28
663.57	1081.44
663.91	1081.07
664.25	1078.61
664.60	1078.57
664.94	1079.53
665.28	1082.66
665.62	1081.75
665.96	1079.71
666.30	1080.56
666.64	1079.99
666.98	1078.36
667.32	1078.61
667.66	1081.68
668.01	1082.45
668.35	1083.36
668.69	1083.74
669.03	1083.64
669.37	1084.72
669.71	1083.81
670.05	1085.99
670.39	1088.40
670.73	1087.81
671.07	1084.37
671.41	1081.66
671.75	1079.10
672.09	1076.83
672.43	1078.03
672.77	1080.46
673.11	1080.93
673.45	1079.06
673.79	1078.75
674.13	1078.14
674.47	1078.89
674.81	1080.37
675.15	1082.12
675.49	1081.87
675.83	1082.26
676.17	1078.85
676.51	1075.29
676.85	1077.04
677.19	1077.79
677.53	1079.13
677.87	1081.82
678.21	1085.31
678.55	1081.23
678.89	1080.39
679.23	1078.64
679.57	1076.93
679.90	1077.84
680.24	1081.35
680.58	1082.31
680.92	1086.76
681.26	1086.41
681.60	1081.77
681.94	1081.91
682.28	1081.02
682.62	1075.38
682.96	1076.27
683.29	1077.14
683.63	1074.70
683.97	1075.78
684.31	1079.15
684.65	1080.06
684.99	1082.73
685.33	1082.90
685.67	1082.61
686.00	1080.79
686.34	1079.57
686.68	1080.46
687.02	1080.70
687.36	1078.75
687.70	1076.48
688.03	1078.85
688.37	1079.17
688.71	1077.68
689.05	1077.98
689.39	1078.71
689.72	1074.54
690.06	1069.77
690.40	1072.83
690.74	1074.28
691.08	1076.88
691.41	1079.88
691.75	1084.16
692.09	1084.46
692.43	1083.08
692.76	1082.78
693.10	1080.86
693.44	1079.81
693.78	1075.48
694.11	1076.79
694.45	1074.84
694.79	1074.80
695.13	1075.22
695.46	1079.15
695.80	1079.13
696.14	1078.94
696.48	1079.22
696.81	1078.75
697.15	1077.49
697.49	1078.14
697.82	1080.77
698.16	1082.97
698.50	1083.90
698.83	1085.24
699.17	1084.63
699.51	1086.03
699.84	1084.25
700.18	1082.08
700.52	1080.74
700.85	1082.54
701.19	1079.34
701.53	1080.23
701.86	1083.15
702.20	1082.36
702.54	1079.48
702.87	1083.04
703.21	1079.83
703.55	1078.21
703.88	1080.79
704.22	1079.24
704.55	1075.99
704.89	1077.33
705.23	1076.88
705.56	1079.03
705.90	1084.37
706.23	1083.20
706.57	1085.19
706.91	1082.52
707.24	1078.61
707.58	1078.71
707.91	1081.42
708.25	1081.80
708.58	1084.89
708.92	1085.61
709.26	1082.66
709.59	1083.57
709.93	1082.47
710.26	1081.73
710.60	1081.14
710.93	1081.40
711.27	1080.67
711.60	1079.85
711.94	1079.57
712.27	1077.54
712.61	1078.00
712.94	1076.60
713.28	1077.91
713.61	1080.81
713.95	1082.33
714.28	1081.51
714.62	1081.26
714.95	1084.14
715.29	1086.73
715.62	1088.23
715.96	1090.85
716.29	1088.47
716.63	1085.91
716.96	1081.82
717.29	1083.20
717.63	1084.11
717.96	1086.94
718.30	1086.55
718.63	1089.75
718.97	1083.86
719.30	1081.33
719.63	1079.76
719.97	1077.51
720.30	1072.64
720.64	1078.07
720.97	1074.87
721.30	1077.09
721.64	1076.88
721.97	1078.24
722.31	1075.71
722.64	1076.58
722.97	1077.23
723.31	1079.74
723.64	1079.50
723.97	1081.28
724.31	1078.82
724.64	1078.52
724.98	1080.65
725.31	1080.70
725.64	1078.26
725.98	1082.45
726.31	1080.09
726.64	1076.27
726.97	1072.74
727.31	1074.89
727.64	1073.93
727.97	1072.76
728.31	1073.72
728.64	1074.61
728.97	1074.38
729.31	1075.43
729.64	1078.21
729.97	1081.05
730.30	1082.78
730.64	1081.58
730.97	1079.97
731.30	1080.72
731.63	1078.87
731.97	1078.71
732.30	1076.72
732.63	1077.96
732.96	1078.54
733.30	1078.89
733.63	1079.06
733.96	1081.91
734.29	1082.90
734.63	1081.96
734.96	1084.07
735.29	1083.53
735.62	1081.40
735.95	1082.29
736.29	1082.08
736.62	1080.16
736.95	1081.05
737.28	1082.38
737.61	1080.56
737.94	1081.33
738.28	1078.40
738.61	1079.43
738.94	1079.99
739.27	1081.44
739.60	1080.13
739.93	1082.36
740.27	1082.92
740.60	1082.90
740.93	1080.06
741.26	1078.00
741.59	1078.24
741.92	1079.76
742.25	1078.99
742.58	1078.66
742.91	1077.65
743.25	1075.85
743.58	1072.20
743.91	1074.63
744.24	1073.72
744.57	1074.45
744.90	1074.17
745.23	1075.97
745.56	1073.09
745.89	1074.07
746.22	1076.11
746.55	1077.28
746.88	1075.92
747.21	1077.68
747.54	1080.18
747.87	1081.87
748.20	1083.74
748.53	1086.80
748.87	1087.06
749.20	1086.13
749.53	1086.08
749.86	1083.08
750.19	1082.01
750.52	1080.27
750.85	1081.14
751.18	1079.46
751.51	1079.41
751.84	1078.17
752.16	1078.82
752.49	1078.80
752.82	1080.39
753.15	1081.66
753.48	1083.79
753.81	1083.71
754.14	1080.04
754.47	1079.29
754.80	1080.86
755.13	1077.40
755.46	1074.73
755.79	1077.70
756.12	1074.89
756.45	1074.54
756.78	1076.25
757.11	1079.95
757.43	1078.87
757.76	1081.02
758.09	1081.91
758.42	1080.58
758.75	1075.24
759.08	1074.24
759.41	1075.97
759.74	1074.03
760.07	1075.20
760.39	1079.95
760.72	1081.73
761.05	1082.73
761.38	1082.78
761.71	1082.71
762.04	1081.84
762.36	1084.56
762.69	1083.55
763.02	1084.39
763.35	1081.87
763.68	1084.51
764.01	1081.56
764.33	1079.78
764.66	1078.92
764.99	1080.34
765.32	1082.85
765.65	1084.70
765.97	1086.08
766.30	1086.66
766.63	1089.45
766.96	1085.03
767.28	1086.83
767.61	1085.45
767.94	1083.50
768.27	1084.39
768.59	1085.31
768.92	1082.50
769.25	1086.24
769.58	1088.61
769.90	1084.49
770.23	1083.93
770.56	1081.16
770.89	1077.98
771.21	1076.81
771.54	1077.28
771.87	1077.21
772.19	1079.01
772.52	1077.65
772.85	1076.62
773.17	1077.21
773.50	1076.39
773.83	1078.14
774.15	1079.71
774.48	1081.42
774.81	1079.97
775.13	1082.61
775.46	1080.53
775.79	1078.92
776.11	1077.37
776.44	1076.55
776.77	1072.25
777.09	1071.90
777.42	1073.53
777.74	1073.35
778.07	1075.87
778.40	1080.65
778.72	1082.61
779.05	1081.82
779.37	1081.66
779.70	1082.80
780.03	1078.00
780.35	1076.53
780.68	1077.02
781.00	1078.89
781.33	1078.94
781.65	1080.95
781.98	1082.64
782.31	1081.84
782.63	1080.81
782.96	1077.09
783.28	1077.86
783.61	1075.24
783.93	1075.05
784.26	1078.45
784.58	1079.74
784.91	1081.19
785.23	1083.36
785.56	1083.18
785.88	1079.53
786.21	1080.77
786.53	1081.21
786.86	1082.19
787.18	1082.38
787.51	1080.67
787.83	1081.16
788.16	1077.30
788.48	1075.31
788.81	1075.80
789.13	1078.59
789.46	1079.64
789.78	1079.83
790.10	1076.81
790.43	1077.79
790.75	1075.94
791.08	1071.73
791.40	1071.03
791.73	1077.44
792.05	1077.11
792.37	1078.12
792.70	1081.68
793.02	1085.10
793.35	1082.38
793.67	1081.23
793.99	1079.88
794.32	1078.40
794.64	1076.58
794.96	1075.97
795.29	1076.39
795.61	1078.99
795.93	1078.85
796.26	1077.68
796.58	1074.56
796.91	1074.26
797.23	1070.09
797.55	1069.53
797.87	1071.33
798.20	1073.25
798.52	1071.73
798.84	1075.22
799.17	1075.71
799.49	1077.00
799.81	1077.02
800.14	1079.34
800.46	1079.10
800.78	1078.82
801.10	1074.21
801.43	1074.26
801.75	1076.34
802.07	1076.67
802.40	1075.90
802.72	1080.04
803.04	1079.92
803.36	1077.00
803.69	1076.55
804.01	1076.34
804.33	1073.88
804.65	1073.81
804.97	1073.95
805.30	1074.33
805.62	1075.83
805.94	1075.55
806.26	1078.36
806.58	1075.55
806.91	1078.47
807.23	1073.25
807.55	1081.05
807.87	1082.36
808.19	1087.02
808.52	1083.88
808.84	1087.39
809.16	1082.22
809.48	1079.81
809.80	1077.89
810.12	1078.05
810.44	1077.30
810.77	1078.87
811.09	1076.06
811.41	1077.37
811.73	1072.76
812.05	1073.74
812.37	1070.37
812.69	1072.67
813.01	1072.25
813.33	1076.53
813.66	1079.69
813.98	1083.08
814.30	1082.69
814.62	1085.28
814.94	1082.50
815.26	1080.44
815.58	1077.77
815.90	1076.86
816.22	1075.92
816.54	1077.86
816.86	1076.46
817.18	1077.63
817.50	1082.76
817.82	1079.48
818.14	1079.13
818.46	1082.66
818.78	1085.63
819.10	1081.28
819.42	1082.47
819.74	1085.94
820.06	1084.49
820.38	1078.64
820.70	1081.61
821.02	1081.58
821.34	1078.59
821.66	1075.99
821.98	1078.61
822.30	1077.02
822.62	1077.04
822.94	1077.63
823.26	1079.46
823.58	1080.37
823.90	1080.53
824.22	1078.82
824.54	1076.95
824.86	1076.65
825.18	1074.26
825.50	1074.38
825.81	1073.81
826.13	1073.04
826.45	1072.78
826.77	1075.73
827.09	1073.58
827.41	1075.15
827.73	1078.50
828.05	1078.73
828.36	1075.64
828.68	1076.55
829.00	1077.72
829.32	1074.35
829.64	1074.14
829.96	1076.41
830.28	1076.76
830.59	1076.67
830.91	1077.93
831.23	1076.79
831.55	1073.88
831.87	1071.40
832.19	1068.64
832.50	1069.11
832.82	1070.40
833.14	1071.26
833.46	1073.70
833.78	1073.21
834.09	1072.92
834.41	1076.53
834.73	1077.00
835.05	1078.47
835.36	1080.46
835.68	1080.34
836.00	1076.48
836.32	1077.70
836.63	1077.07
836.95	1079.10
837.27	1081.44
837.59	1083.04
837.90	1079.10
838.22	1079.74
838.54	1077.35
838.85	1075.80
839.17	1075.69
839.49	1076.76
839.80	1074.07
840.12	1076.62
840.44	1079.22
840.76	1081.98
841.07	1083.55
841.39	1088.28
841.71	1087.44
842.02	1086.48
842.34	1082.36
842.65	1084.56
842.97	1081.63
843.29	1080.70
843.60	1079.31
843.92	1078.92
844.24	1078.00
844.55	1078.07
844.87	1081.14
845.18	1081.61
845.50	1080.74
845.82	1079.38
846.13	1076.51
846.45	1075.17
846.76	1077.42
847.08	1077.91
847.40	1078.43
847.71	1078.54
848.03	1075.71
848.34	1073.37
848.66	1073.56
848.97	1073.21
849.29	1075.22
849.60	1076.65
849.92	1077.00
850.24	1077.68
850.55	1078.50
850.87	1077.54
851.18	1077.00
851.50	1077.07
851.81	1077.00
852.13	1076.76
852.44	1079.36
852.76	1080.20
853.07	1080.41
853.39	1081.47
853.70	1080.46
854.01	1076.72
854.33	1074.38
854.64	1075.22
854.96	1072.88
855.27	1074.42
855.59	1075.66
855.90	1079.08
856.22	1076.69
856.53	1076.83
856.84	1073.16
857.16	1073.60
857.47	1070.51
857.79	1070.44
858.10	1071.01
858.41	1072.92
858.73	1071.68
859.04	1072.11
859.36	1071.17
859.67	1071.71
859.98	1070.91
860.30	1073.88
860.61	1075.92
860.92	1079.29
861.24	1080.18
861.55	1081.70
861.87	1081.73
862.18	1080.48
862.49	1079.13
862.81	1078.85
863.12	1078.78
863.43	1079.10
863.74	1078.75
864.06	1075.76
864.37	1077.09
864.68	1074.35
865.00	1075.52
865.31	1076.62
865.62	1079.92
865.94	1078.59
866.25	1081.42
866.56	1077.93
866.87	1077.84
867.19	1077.49
867.50	1075.38
867.81	1074.73
868.12	1077.68
868.44	1079.43
868.75	1078.71
869.06	1084.07
869.37	1082.71
869.68	1082.26
870.00	1081.00
870.31	1078.92
870.62	1078.61
870.93	1082.54
871.24	1082.15
871.56	1079.92
871.87	1081.07
872.18	1079.03
872.49	1078.78
872.80	1074.33
873.12	1074.28
873.43	1076.04
873.74	1075.05
874.05	1074.10
874.36	1077.37
874.67	1079.31
874.98	1076.95
875.29	1079.43
875.61	1076.83
875.92	1077.33
876.23	1074.89
876.54	1078.68
876.85	1074.54
877.16	1076.95
877.47	1076.76
877.78	1080.16
878.09	1079.81
878.40	1081.58
878.72	1083.13
879.03	1082.64
879.34	1081.35
879.65	1082.57
879.96	1082.26
880.27	1082.40
880.58	1082.69
880.89	1081.05
881.20	1077.18
881.51	1079.24
881.82	1076.65
882.13	1077.25
882.44	1079.06
882.75	1079.46
883.06	1080.56
883.37	1082.52
883.68	1082.45
883.99	1082.90
884.30	1081.49
884.61	1077.21
884.92	1073.21
885.23	1069.84
885.54	1068.83
885.85	1071.54
886.16	1073.74
886.47	1077.21
886.78	1080.32
887.08	1081.77
887.39	1080.06
887.70	1080.86
888.01	1076.81
888.32	1073.72
888.63	1073.11
888.94	1071.92
889.25	1072.08
889.56	1073.02
889.87	1075.92
890.17	1074.98
890.48	1073.74
890.79	1071.85
891.10	1074.42
891.41	1074.70
891.72	1074.96
892.03	1079.85
892.34	1078.80
892.64	1079.67
892.95	1079.03
893.26	1077.89
893.57	1077.58
893.88	1080.09
894.18	1077.68
894.49	1078.87
894.80	1078.99
895.11	1076.60
895.42	1074.89
895.72	1077.61
896.03	1073.23
896.34	1073.56
896.65	1073.84
896.96	1074.77
897.26	1073.79
897.57	1077.61
897.88	1077.02
898.19	1076.53
898.49	1078.87
898.80	1078.59
899.11	1076.06
899.41	1077.07
899.72	1078.38
900.03	1075.15
900.34	1073.04
900.64	1075.34
900.95	1071.59
901.26	1069.20
901.56	1068.27
901.87	1068.41
902.18	1068.69
902.48	1070.63
902.79	1072.78
903.10	1072.53
903.40	1073.53
903.71	1073.02
904.02	1078.75
904.32	1077.93
904.63	1078.78
904.94	1078.03
905.24	1076.06
905.55	1071.40
905.85	1072.20
906.16	1073.91
906.47	1071.92
906.77	1075.71
907.08	1077.86
907.38	1079.15
907.69	1078.80
908.00	1081.66
908.30	1078.05
908.61	1078.03
908.91	1077.65
909.22	1076.06
909.52	1073.65
909.83	1075.31
910.14	1073.79
910.44	1072.43
910.75	1076.13
911.05	1080.32
911.36	1081.82
911.66	1083.74
911.97	1083.06
912.27	1082.99
912.58	1081.91
912.88	1081.63
913.19	1081.82
913.49	1083.46
913.80	1083.39
914.10	1083.11
914.41	1082.22
914.71	1079.71
915.01	1079.50
915.32	1076.25
915.62	1074.96
915.93	1075.08
916.23	1075.83
916.54	1074.26
916.84	1076.97
917.15	1080.74
917.45	1079.83
917.75	1080.79
918.06	1081.02
918.36	1079.41
918.67	1074.68
918.97	1073.77
919.27	1074.82
919.58	1075.10
919.88	1077.49
920.18	1074.77
920.49	1074.54
920.79	1075.03
921.10	1076.53
921.40	1073.63
921.70	1076.15
922.01	1076.95
922.31	1075.22
922.61	1073.56
922.92	1075.41
923.22	1076.72
923.52	1075.17
923.82	1074.40
924.13	1075.27
924.43	1073.11
924.73	1075.71
925.04	1078.38
925.34	1078.10
925.64	1076.62
925.94	1075.90
926.25	1073.81
926.55	1072.22
926.85	1072.27
927.15	1071.57
927.46	1072.11
927.76	1071.78
928.06	1072.48
928.36	1073.00
928.67	1078.05
928.97	1081.19
929.27	1082.64
929.57	1084.74
929.87	1085.14
930.18	1081.00
930.48	1078.78
930.78	1080.65
931.08	1078.59
931.38	1078.82
931.69	1080.18
931.99	1076.41
932.29	1076.34
932.59	1074.70
932.89	1074.56
933.19	1074.94
933.49	1082.12
933.80	1081.02
934.10	1083.83
934.40	1082.43
934.70	1078.85
935.00	1076.48
935.30	1075.36
935.60	1075.64
935.90	1074.17
936.20	1077.30
936.50	1075.62
936.81	1075.99
937.11	1073.79
937.41	1076.97
937.71	1078.99
938.01	1078.68
938.31	1077.77
938.61	1076.86
938.91	1077.49
939.21	1076.06
939.51	1076.06
939.81	1078.85
940.11	1080.56
940.41	1080.98
940.71	1081.96
941.01	1083.71
941.31	1083.39
941.61	1083.81
941.91	1083.60
942.21	1084.98
942.51	1082.92
942.81	1082.71
943.11	1081.73
943.41	1078.57
943.71	1075.50
944.01	1075.85
944.31	1077.33
944.61	1078.24
944.90	1079.08
945.20	1080.72
945.50	1083.46
945.80	1078.87
946.10	1078.52
946.40	1080.41
946.70	1077.82
947.00	1073.86
947.30	1076.93
947.60	1078.10
947.89	1076.53
948.19	1076.83
948.49	1077.37
948.79	1076.18
949.09	1074.33
949.39	1078.54
949.69	1079.78
949.98	1081.54
950.28	1082.66
950.58	1081.98
950.88	1080.11
951.18	1079.55
951.48	1077.21
951.77	1074.35
952.07	1077.98
952.37	1075.41
952.67	1076.39
952.97	1079.50
953.26	1077.77
953.56	1074.98
953.86	1075.13
954.16	1074.35
954.45	1073.67
954.75	1077.42
955.05	1075.13
955.35	1075.41
955.64	1076.30
955.94	1075.94
956.24	1074.49
956.54	1077.44
956.83	1077.18
957.13	1073.65
957.43	1073.23
957.72	1071.75
958.02	1073.58
958.32	1074.91
958.61	1077.70
958.91	1078.07
959.21	1082.76
959.50	1080.41
959.80	1078.05
960.10	1075.45
960.39	1076.30
960.69	1073.74
960.99	1074.00
961.28	1073.02
961.58	1071.94
961.87	1072.11
962.17	1071.94
962.47	1070.61
962.76	1071.31
963.06	1076.13
963.36	1073.11
963.65	1072.06
963.95	1075.73
964.24	1078.19
964.54	1076.90
964.83	1075.83
965.13	1078.80
965.42	1076.51
965.72	1076.81
966.02	1076.27
966.31	1078.24
966.61	1077.56
966.90	1076.69
967.20	1077.16
967.49	1076.83
967.79	1081.87
968.08	1080.18
968.38	1081.26
968.67	1076.23
968.97	1077.02
969.26	1071.61
969.56	1074.24
969.85	1073.65
970.15	1076.30
970.44	1076.30
970.74	1078.00
971.03	1078.33
971.32	1079.50
971.62	1081.16
971.91	1079.88
972.21	1081.47
972.50	1077.79
972.80	1078.17
973.09	1079.24
973.38	1081.19
973.68	1079.74
973.97	1080.32
974.27	1078.96
974.56	1080.34
974.85	1082.05
975.15	1083.27
975.44	1085.07
975.73	1084.23
976.03	1081.63
976.32	1078.87
976.61	1077.96
976.91	1075.45
977.20	1073.49
977.49	1071.08
977.79	1072.53
978.08	1069.98
978.37	1070.72
978.67	1072.76
978.96	1074.19
979.25	1075.31
979.55	1078.94
979.84	1080.53
980.13	1079.17
980.42	1078.31
980.72	1075.57
981.01	1072.92
981.30	1073.00
981.59	1074.35
981.89	1072.69
982.18	1072.22
982.47	1072.81
982.76	1071.22
983.06	1073.00
983.35	1075.97
983.64	1079.08
983.93	1079.57
984.22	1078.52
984.52	1080.53
984.81	1080.27
985.10	1080.84
985.39	1080.51
985.68	1078.17
985.97	1075.90
986.27	1076.76
986.56	1075.22
986.85	1073.91
987.14	1076.88
987.43	1076.97
987.72	1076.44
988.01	1075.76
988.31	1076.90
988.60	1077.61
988.89	1077.84
989.18	1075.36
989.47	1072.62
989.76	1073.60
990.05	1073.56
990.34	1071.94
990.63	1070.91
990.92	1073.91
991.21	1076.01
991.51	1077.14
991.80	1081.21
992.09	1083.79
992.38	1083.90
992.67	1081.73
992.96	1082.15
993.25	1077.35
993.54	1077.56
993.83	1076.20
994.12	1076.65
994.41	1073.86
994.70	1075.38
994.99	1076.95
995.28	1076.34
995.57	1077.72
995.86	1079.78
996.15	1080.09
996.44	1078.05
996.73	1078.33
997.02	1077.77
997.31	1074.84
997.59	1073.35
997.88	1075.29
998.17	1074.61
998.46	1072.13
998.75	1073.49
999.04	1075.66
999.33	1073.00
999.62	1074.14
999.91	1074.07
1000.20	1077.54
1000.49	1078.19
1000.77	1078.99
1001.06	1074.42
1001.35	1071.73
1001.64	1069.77
1001.93	1069.86
1002.22	1070.28
1002.51	1073.84
1002.79	1079.41
1003.08	1079.99
1003.37	1080.13
1003.66	1079.85
1003.95	1084.86
1004.23	1083.57
1004.52	1080.48
1004.81	1078.19
1005.10	1077.25
1005.39	1075.48
1005.67	1073.72
1005.96	1076.04
1006.25	1074.03
1006.54	1075.66
1006.83	1074.68
1007.11	1074.63
1007.40	1074.68
1007.69	1075.50
1007.97	1076.34
1008.26	1077.00
1008.55	1080.65
1008.84	1078.33
1009.12	1080.13
1009.41	1078.10
1009.70	1076.51
1009.98	1076.72
1010.27	1079.43
1010.56	1082.03
1010.85	1081.91
1011.13	1083.01
1011.42	1080.86
1011.71	1081.05
1011.99	1078.85
1012.28	1079.08
1012.56	1080.58
1012.85	1081.80
1013.14	1079.29
1013.42	1074.91
1013.71	1073.51
1014.00	1072.60
1014.28	1075.57
1014.57	1076.41
1014.85	1083.18
1015.14	1087.74
1015.43	1087.39
1015.71	1079.50
1016.00	1080.56
1016.28	1077.96
1016.57	1076.30
1016.85	1077.33
1017.14	1081.28
1017.43	1080.88
1017.71	1078.03
1018.00	1078.50
1018.28	1076.41
1018.57	1073.28
1018.85	1075.34
1019.14	1080.04
1019.42	1078.47
1019.71	1077.40
1019.99	1079.74
1020.28	1079.78
1020.56	1078.61
1020.85	1078.10
1021.13	1078.59
1021.42	1078.64
1021.70	1078.03
1021.99	1073.98
1022.27	1074.59
1022.55	1060.96
1022.84	1075.59
>>>>>End Processed Spectral Data<<<<<
