SpectraSuite Data File
++++++++++++++++++++++++++++++++++++
Date: Mon Aug 26 10:22:28 PDT 2019
User: corrico
Dark Spectrum Present: No
Reference Spectrum Present: No
Number of Sampled Component Spectra: 1
Spectrometers: USB2+H06089
Integration Time (usec): 2000 (USB2+H06089)
Spectra Averaged: 20 (USB2+H06089)
Boxcar Smoothing: 2 (USB2+H06089)
Correct for Electrical Dark: No (USB2+H06089)
Strobe/Lamp Enabled: No (USB2+H06089)
Correct for Detector Non-linearity: No (USB2+H06089)
Correct for Stray Light: No (USB2+H06089)
Number of Pixels in Processed Spectrum: 2048
>>>>>Begin Processed Spectral Data<<<<<
339.70	1023.98
340.07	1023.98
340.45	989.34
340.82	968.56
341.19	947.26
341.57	925.07
341.94	916.74
342.31	910.77
342.69	907.17
343.06	901.34
343.43	900.97
343.81	901.55
344.18	905.83
344.55	907.94
344.93	915.78
345.30	916.86
345.67	924.18
346.04	929.82
346.42	936.38
346.79	944.13
347.16	954.96
347.54	961.52
347.91	970.11
348.28	984.55
348.65	992.83
349.03	1006.48
349.40	1019.58
349.77	1028.45
350.14	1034.31
350.52	1044.11
350.89	1045.82
351.26	1050.29
351.63	1057.17
352.01	1059.33
352.38	1061.29
352.75	1067.73
353.12	1069.81
353.50	1070.42
353.87	1072.83
354.24	1074.66
354.61	1073.32
354.98	1076.20
355.36	1078.10
355.73	1079.06
356.10	1077.61
356.47	1079.67
356.84	1078.96
357.22	1080.18
357.59	1082.99
357.96	1085.12
358.33	1084.46
358.70	1082.29
359.08	1079.62
359.45	1079.01
359.82	1078.47
360.19	1078.59
360.56	1082.17
360.94	1082.40
361.31	1079.22
361.68	1075.73
362.05	1073.67
362.42	1073.46
362.79	1075.73
363.16	1077.23
363.54	1082.47
363.91	1082.22
364.28	1081.56
364.65	1078.36
365.02	1078.89
365.39	1077.86
365.76	1079.38
366.14	1077.84
366.51	1077.98
366.88	1077.00
367.25	1077.25
367.62	1076.88
367.99	1075.83
368.36	1078.96
368.73	1081.40
369.10	1080.39
369.48	1083.93
369.85	1083.71
370.22	1081.56
370.59	1081.14
370.96	1080.06
371.33	1076.76
371.70	1078.45
372.07	1077.04
372.44	1076.20
372.81	1074.77
373.18	1073.49
373.55	1074.26
373.93	1072.85
374.30	1072.11
374.67	1076.15
375.04	1079.57
375.41	1077.86
375.78	1078.96
376.15	1078.78
376.52	1080.44
376.89	1077.61
377.26	1080.18
377.63	1080.51
378.00	1081.12
378.37	1077.79
378.74	1080.18
379.11	1079.78
379.48	1080.04
379.85	1080.30
380.22	1081.84
380.59	1082.38
380.96	1080.48
381.33	1083.11
381.70	1083.71
382.07	1082.69
382.44	1085.00
382.81	1086.48
383.18	1085.07
383.55	1081.77
383.92	1082.90
384.29	1078.21
384.66	1081.54
385.03	1082.38
385.40	1086.83
385.77	1086.83
386.14	1088.19
386.51	1083.95
386.88	1085.17
387.25	1084.65
387.62	1083.97
387.99	1085.99
388.36	1087.46
388.73	1085.63
389.10	1083.71
389.46	1086.03
389.83	1085.42
390.20	1084.56
390.57	1084.72
390.94	1086.45
391.31	1081.91
391.68	1080.93
392.05	1082.22
392.42	1084.02
392.79	1085.54
393.16	1086.87
393.53	1088.09
393.89	1086.69
394.26	1082.40
394.63	1080.77
395.00	1081.84
395.37	1082.54
395.74	1082.76
396.11	1085.80
396.48	1083.79
396.84	1085.49
397.21	1086.15
397.58	1089.12
397.95	1089.78
398.32	1094.93
398.69	1091.72
399.06	1088.44
399.42	1086.10
399.79	1086.80
400.16	1083.15
400.53	1086.01
400.90	1084.89
401.27	1086.36
401.64	1087.16
402.00	1086.34
402.37	1085.68
402.74	1090.55
403.11	1090.20
403.48	1091.65
403.84	1095.96
404.21	1095.37
404.58	1092.91
404.95	1093.05
405.32	1088.07
405.68	1087.23
406.05	1087.90
406.42	1089.66
406.79	1090.50
407.16	1092.47
407.52	1092.91
407.89	1094.20
408.26	1094.08
408.63	1094.11
408.99	1095.75
409.36	1093.80
409.73	1096.17
410.10	1097.36
410.47	1098.62
410.83	1096.19
411.20	1098.69
411.57	1098.88
411.94	1098.37
412.30	1098.60
412.67	1100.15
413.04	1101.03
413.40	1099.65
413.77	1100.82
414.14	1099.42
414.51	1104.73
414.87	1104.41
415.24	1104.90
415.61	1102.74
415.97	1104.87
416.34	1103.66
416.71	1102.44
417.08	1102.77
417.44	1105.95
417.81	1105.81
418.18	1105.11
418.54	1107.42
418.91	1111.71
419.28	1111.01
419.64	1113.07
420.01	1113.46
420.38	1114.28
420.74	1111.82
421.11	1115.29
421.48	1117.61
421.84	1119.13
422.21	1121.47
422.58	1123.90
422.94	1122.43
423.31	1119.13
423.68	1120.16
424.04	1121.19
424.41	1124.23
424.77	1130.92
425.14	1138.32
425.51	1141.20
425.87	1148.78
426.24	1153.74
426.61	1158.47
426.97	1164.49
427.34	1171.79
427.70	1176.47
428.07	1183.49
428.44	1188.24
428.80	1196.86
429.17	1205.59
429.53	1209.66
429.90	1219.51
430.27	1229.72
430.63	1236.36
431.00	1247.22
431.36	1261.95
431.73	1270.09
432.09	1285.00
432.46	1301.76
432.83	1318.94
433.19	1334.74
433.56	1357.14
433.92	1377.57
434.29	1397.84
434.65	1421.74
435.02	1447.79
435.38	1476.06
435.75	1499.60
436.11	1536.00
436.48	1563.81
436.84	1601.21
437.21	1632.78
437.57	1672.15
437.94	1710.72
438.30	1756.34
438.67	1794.37
439.03	1845.04
439.40	1897.85
439.76	1953.53
440.13	2012.37
440.49	2088.74
440.86	2156.90
441.22	2233.85
441.59	2302.48
441.95	2384.98
442.32	2464.72
442.68	2560.05
443.05	2653.70
443.41	2758.44
443.78	2861.56
444.14	2965.01
444.51	3077.57
444.87	3219.10
445.24	3360.96
445.60	3515.81
445.96	3677.64
446.33	3853.74
446.69	4014.02
447.06	4196.98
447.42	4382.37
447.79	4577.90
448.15	4796.97
448.51	5028.27
448.88	5289.56
449.24	5535.93
449.61	5817.75
449.97	6090.12
450.33	6375.88
450.70	6638.13
451.06	6959.47
451.43	7264.79
451.79	7632.18
452.15	8038.85
452.52	8487.04
452.88	8971.16
453.24	9518.07
453.61	10111.40
453.97	10681.46
454.34	11246.98
454.70	11898.07
455.06	12546.25
455.43	13161.56
455.79	13759.89
456.15	14470.53
456.52	15134.18
456.88	15907.99
457.24	16651.06
457.61	17511.61
457.97	18301.40
458.33	19080.54
458.70	19862.39
459.06	20628.45
459.42	21479.66
459.79	22249.34
460.15	23163.25
460.51	24014.86
460.88	24971.27
461.24	25765.30
461.60	26761.01
461.96	27637.63
462.33	28510.49
462.69	29284.34
463.05	30155.13
463.42	30858.86
463.78	31512.06
464.14	32047.08
464.50	32648.46
464.87	33096.11
465.23	33450.09
465.59	33813.18
465.95	34116.00
466.32	34377.51
466.68	34643.51
467.04	34792.25
467.40	34907.99
467.77	35078.66
468.13	35052.40
468.49	34926.11
468.85	34847.46
469.22	34681.66
469.58	34317.10
469.94	34064.25
470.30	33756.19
470.66	33329.18
471.03	32729.23
471.39	32323.66
471.75	31660.17
472.11	31035.76
472.47	30645.03
472.84	30334.51
473.20	29863.50
473.56	29617.63
473.92	29226.46
474.28	28747.07
474.65	28270.02
475.01	27783.35
475.37	27202.01
475.73	26724.70
476.09	26193.31
476.45	25657.12
476.81	25133.75
477.18	24589.62
477.54	24133.29
477.90	23760.09
478.26	23349.82
478.62	23018.79
478.98	22748.60
479.34	22419.64
479.71	22014.94
480.07	21645.11
480.43	21270.11
480.79	20851.08
481.15	20504.68
481.51	20180.87
481.87	19936.66
482.23	19640.30
482.59	19398.06
482.96	19120.54
483.32	18827.04
483.68	18441.64
484.04	18114.39
484.40	17748.66
484.76	17364.18
485.12	17000.08
485.48	16697.33
485.84	16332.38
486.20	15969.29
486.56	15618.54
486.92	15301.11
487.28	14924.36
487.64	14575.15
488.00	14256.83
488.37	13927.73
488.73	13553.78
489.09	13210.78
489.45	12893.54
489.81	12567.44
490.17	12251.74
490.53	11969.27
490.89	11659.21
491.25	11348.81
491.61	11033.45
491.97	10722.44
492.33	10393.08
492.69	10086.56
493.05	9784.77
493.41	9493.89
493.77	9210.57
494.13	8960.41
494.49	8718.92
494.85	8484.18
495.21	8260.99
495.57	8041.52
495.93	7820.29
496.29	7611.05
496.64	7415.47
497.00	7225.00
497.36	7040.47
497.72	6852.36
498.08	6679.51
498.44	6498.50
498.80	6317.97
499.16	6144.07
499.52	5982.53
499.88	5839.78
500.24	5708.45
500.60	5587.26
500.96	5474.68
501.32	5362.24
501.68	5237.21
502.03	5116.22
502.39	4993.53
502.75	4858.25
503.11	4732.96
503.47	4617.57
503.83	4497.32
504.19	4375.91
504.55	4269.89
504.91	4170.93
505.26	4079.20
505.62	3990.89
505.98	3907.06
506.34	3812.90
506.70	3721.31
507.06	3621.96
507.42	3530.42
507.78	3450.96
508.13	3380.44
508.49	3302.57
508.85	3234.41
509.21	3164.26
509.57	3094.87
509.93	3031.18
510.28	2974.75
510.64	2912.96
511.00	2852.95
511.36	2791.60
511.72	2732.20
512.07	2670.86
512.43	2622.52
512.79	2568.90
513.15	2518.30
513.51	2470.11
513.86	2430.90
514.22	2379.81
514.58	2339.93
514.94	2301.19
515.30	2262.24
515.65	2222.83
516.01	2197.13
516.37	2167.43
516.73	2140.84
517.08	2112.71
517.44	2081.91
517.80	2050.59
518.16	2027.79
518.51	1997.88
518.87	1971.53
519.23	1950.35
519.59	1920.60
519.94	1890.47
520.30	1864.26
520.66	1836.34
521.01	1810.08
521.37	1792.38
521.73	1775.88
522.09	1757.30
522.44	1742.62
522.80	1721.44
523.16	1700.77
523.51	1681.53
523.87	1664.54
524.23	1645.61
524.58	1627.61
524.94	1610.85
525.30	1592.80
525.65	1571.53
526.01	1555.57
526.37	1541.13
526.72	1528.09
527.08	1510.28
527.44	1498.90
527.79	1483.45
528.15	1471.52
528.51	1454.76
528.86	1444.88
529.22	1432.45
529.58	1423.94
529.93	1416.59
530.29	1405.87
530.65	1396.97
531.00	1388.94
531.36	1378.11
531.71	1366.05
532.07	1359.85
532.43	1348.92
532.78	1343.51
533.14	1336.94
533.49	1329.05
533.85	1323.27
534.21	1316.72
534.56	1308.15
534.92	1302.20
535.27	1295.04
535.63	1285.42
535.98	1280.39
536.34	1273.25
536.69	1266.93
537.05	1265.29
537.41	1260.73
537.76	1255.53
538.12	1251.74
538.47	1247.44
538.83	1242.29
539.18	1239.50
539.54	1238.14
539.89	1232.81
540.25	1231.89
540.60	1223.68
540.96	1220.54
541.31	1213.50
541.67	1211.27
542.02	1205.87
542.38	1207.72
542.73	1202.94
543.09	1201.16
543.44	1199.76
543.80	1192.71
544.15	1187.45
544.51	1189.30
544.86	1184.01
545.22	1179.96
545.57	1182.09
545.93	1181.22
546.28	1174.25
546.64	1172.80
546.99	1170.67
547.35	1168.16
547.70	1165.80
548.05	1165.28
548.41	1166.52
548.76	1166.57
549.12	1160.51
549.47	1156.04
549.83	1151.94
550.18	1148.50
550.53	1143.40
550.89	1142.91
551.24	1140.64
551.60	1138.09
551.95	1134.60
552.30	1134.74
552.66	1136.17
553.01	1136.21
553.37	1135.98
553.72	1136.56
554.07	1134.79
554.43	1133.80
554.78	1134.60
555.13	1135.70
555.49	1134.39
555.84	1132.66
556.19	1128.98
556.55	1127.08
556.90	1123.64
557.26	1123.08
557.61	1124.16
557.96	1123.18
558.32	1122.97
558.67	1124.02
559.02	1122.57
559.37	1122.45
559.73	1122.90
560.08	1118.99
560.43	1115.38
560.79	1116.22
561.14	1112.78
561.49	1111.64
561.85	1112.08
562.20	1114.40
562.55	1107.68
562.90	1107.26
563.26	1107.89
563.61	1108.90
563.96	1108.74
564.32	1111.47
564.67	1113.51
565.02	1114.07
565.37	1109.79
565.73	1108.22
566.08	1108.43
566.43	1104.83
566.78	1103.07
567.14	1104.78
567.49	1104.52
567.84	1104.57
568.19	1105.79
568.54	1104.15
568.90	1106.46
569.25	1107.52
569.60	1107.03
569.95	1104.83
570.31	1102.35
570.66	1101.11
571.01	1097.55
571.36	1097.66
571.71	1098.11
572.06	1098.34
572.42	1092.87
572.77	1093.83
573.12	1091.04
573.47	1090.57
573.82	1092.73
574.18	1095.42
574.53	1093.85
574.88	1097.48
575.23	1098.67
575.58	1097.29
575.93	1095.86
576.28	1098.86
576.64	1096.75
576.99	1094.11
577.34	1091.18
577.69	1092.77
578.04	1091.95
578.39	1093.31
578.74	1094.27
579.09	1097.15
579.44	1097.08
579.80	1093.71
580.15	1091.77
580.50	1090.39
580.85	1090.01
581.20	1086.38
581.55	1087.97
581.90	1087.37
582.25	1087.11
582.60	1086.48
582.95	1091.02
583.30	1090.48
583.65	1087.86
584.00	1089.12
584.35	1089.31
584.71	1087.06
585.06	1088.89
585.41	1091.98
585.76	1093.36
586.11	1095.37
586.46	1097.90
586.81	1098.48
587.16	1098.88
587.51	1099.42
587.86	1097.90
588.21	1094.53
588.56	1091.18
588.91	1090.81
589.26	1087.30
589.61	1086.29
589.96	1087.67
590.31	1090.53
590.66	1086.31
591.01	1085.91
591.36	1083.90
591.71	1082.76
592.06	1082.03
592.41	1083.25
592.76	1085.31
593.10	1089.71
593.45	1090.81
593.80	1091.11
594.15	1096.92
594.50	1095.25
594.85	1091.25
595.20	1088.44
595.55	1088.37
595.90	1083.97
596.25	1084.35
596.60	1085.99
596.95	1088.47
597.30	1085.49
597.64	1097.45
597.99	1097.76
598.34	1097.95
598.69	1096.61
599.04	1098.13
599.39	1088.89
599.74	1089.68
600.09	1087.46
600.44	1089.73
600.78	1088.89
601.13	1085.56
601.48	1084.14
601.83	1085.73
602.18	1085.49
602.53	1085.70
602.88	1087.93
603.22	1086.27
603.57	1085.82
603.92	1085.59
604.27	1087.53
604.62	1082.08
604.97	1085.26
605.31	1084.23
605.66	1085.40
606.01	1082.83
606.36	1085.61
606.71	1084.42
607.05	1086.22
607.40	1084.46
607.75	1086.87
608.10	1088.44
608.44	1090.92
608.79	1091.30
609.14	1089.26
609.49	1089.19
609.84	1089.47
610.18	1089.38
610.53	1089.45
610.88	1090.57
611.23	1089.85
611.57	1090.20
611.92	1090.36
612.27	1088.42
612.62	1090.01
612.96	1091.42
613.31	1090.71
613.66	1089.17
614.00	1090.67
614.35	1087.69
614.70	1083.69
615.05	1080.32
615.39	1080.70
615.74	1082.83
616.09	1084.30
616.43	1088.40
616.78	1090.95
617.13	1086.29
617.47	1083.43
617.82	1082.43
618.17	1080.98
618.51	1079.99
618.86	1080.58
619.21	1079.99
619.55	1081.14
619.90	1079.67
620.25	1081.19
620.59	1084.02
620.94	1086.36
621.29	1086.71
621.63	1088.33
621.98	1090.64
622.32	1092.87
622.67	1092.80
623.02	1094.90
623.36	1095.35
623.71	1094.48
624.05	1091.46
624.40	1089.66
624.75	1087.74
625.09	1084.96
625.44	1084.84
625.78	1085.26
626.13	1085.45
626.48	1086.13
626.82	1088.21
627.17	1085.19
627.51	1082.40
627.86	1082.36
628.20	1079.03
628.55	1078.73
628.89	1080.44
629.24	1083.27
629.58	1082.36
629.93	1086.43
630.28	1085.35
630.62	1085.77
630.97	1082.47
631.31	1083.60
631.66	1081.91
632.00	1082.01
632.35	1081.68
632.69	1085.26
633.04	1084.46
633.38	1083.95
633.73	1084.63
634.07	1080.88
634.42	1079.83
634.76	1082.19
635.11	1084.65
635.45	1084.63
635.79	1086.41
636.14	1087.55
636.48	1084.74
636.83	1079.88
637.17	1080.09
637.52	1080.60
637.86	1082.47
638.21	1081.19
638.55	1083.81
638.89	1083.01
639.24	1081.61
639.58	1080.53
639.93	1081.80
640.27	1083.25
640.61	1083.81
640.96	1084.04
641.30	1083.67
641.65	1081.98
641.99	1078.38
642.33	1077.40
642.68	1080.91
643.02	1082.40
643.37	1085.84
643.71	1088.84
644.05	1090.76
644.40	1088.84
644.74	1084.21
645.08	1082.36
645.43	1079.85
645.77	1081.49
646.11	1077.63
646.46	1077.82
646.80	1077.47
647.14	1081.82
647.49	1077.35
647.83	1080.46
648.17	1082.43
648.52	1081.63
648.86	1079.20
649.20	1081.23
649.55	1083.57
649.89	1082.43
650.23	1080.91
650.57	1079.57
650.92	1079.76
651.26	1077.86
651.60	1079.03
651.95	1078.43
652.29	1078.54
652.63	1077.00
652.97	1075.05
653.32	1074.87
653.66	1076.20
654.00	1078.03
654.34	1079.43
654.69	1081.54
655.03	1082.90
655.37	1086.22
655.71	1081.54
656.05	1082.19
656.40	1082.78
656.74	1080.48
657.08	1079.95
657.42	1084.91
657.76	1084.04
658.11	1081.26
658.45	1078.43
658.79	1077.54
659.13	1074.26
659.47	1074.33
659.82	1075.94
660.16	1077.89
660.50	1079.53
660.84	1083.86
661.18	1082.83
661.52	1084.21
661.87	1085.00
662.21	1082.87
662.55	1078.05
662.89	1076.81
663.23	1075.48
663.57	1081.16
663.91	1083.36
664.25	1088.86
664.60	1090.36
664.94	1092.35
665.28	1086.06
665.62	1086.48
665.96	1080.81
666.30	1080.18
666.64	1076.30
666.98	1078.50
667.32	1077.30
667.66	1078.52
668.01	1078.31
668.35	1078.40
668.69	1076.37
669.03	1076.13
669.37	1076.27
669.71	1080.91
670.05	1085.28
670.39	1085.40
670.73	1086.78
671.07	1086.83
671.41	1084.14
671.75	1079.36
672.09	1079.24
672.43	1079.01
672.77	1081.98
673.11	1079.60
673.45	1079.95
673.79	1083.88
674.13	1084.42
674.47	1084.21
674.81	1085.05
675.15	1086.06
675.49	1082.47
675.83	1081.19
676.17	1078.99
676.51	1078.66
676.85	1078.94
677.19	1080.20
677.53	1076.88
677.87	1078.07
678.21	1076.65
678.55	1074.84
678.89	1073.56
679.23	1077.33
679.57	1076.69
679.90	1079.15
680.24	1083.18
680.58	1083.22
680.92	1083.27
681.26	1079.74
681.60	1079.22
681.94	1076.79
682.28	1077.07
682.62	1074.59
682.96	1078.07
683.29	1080.25
683.63	1080.39
683.97	1079.10
684.31	1081.07
684.65	1081.37
684.99	1079.20
685.33	1079.92
685.67	1084.79
686.00	1083.64
686.34	1083.13
686.68	1084.79
687.02	1084.14
687.36	1080.60
687.70	1084.09
688.03	1082.38
688.37	1081.51
688.71	1079.36
689.05	1078.54
689.39	1077.16
689.72	1079.92
690.06	1077.61
690.40	1081.33
690.74	1083.55
691.08	1082.26
691.41	1080.58
691.75	1083.93
692.09	1083.11
692.43	1085.38
692.76	1083.18
693.10	1083.67
693.44	1082.03
693.78	1082.99
694.11	1081.89
694.45	1080.27
694.79	1079.27
695.13	1079.53
695.46	1078.59
695.80	1077.91
696.14	1081.33
696.48	1081.58
696.81	1081.09
697.15	1083.29
697.49	1081.63
697.82	1084.63
698.16	1085.68
698.50	1085.24
698.83	1082.85
699.17	1084.49
699.51	1080.72
699.84	1078.40
700.18	1080.18
700.52	1080.27
700.85	1077.56
701.19	1079.20
701.53	1082.80
701.86	1079.62
702.20	1078.96
702.54	1081.47
702.87	1079.48
703.21	1076.90
703.55	1078.21
703.88	1077.58
704.22	1074.84
704.55	1076.04
704.89	1076.06
705.23	1075.38
705.56	1075.10
705.90	1075.17
706.23	1077.11
706.57	1079.31
706.91	1078.94
707.24	1080.74
707.58	1083.04
707.91	1081.58
708.25	1080.79
708.58	1085.07
708.92	1086.34
709.26	1087.76
709.59	1086.66
709.93	1086.36
710.26	1085.63
710.60	1086.57
710.93	1082.08
711.27	1082.40
711.60	1082.87
711.94	1082.87
712.27	1081.14
712.61	1082.47
712.94	1082.17
713.28	1081.47
713.61	1080.67
713.95	1078.45
714.28	1079.81
714.62	1078.82
714.95	1079.97
715.29	1080.18
715.62	1085.05
715.96	1084.02
716.29	1087.20
716.63	1086.48
716.96	1085.68
717.29	1081.70
717.63	1083.48
717.96	1083.55
718.30	1084.77
718.63	1083.90
718.97	1082.12
719.30	1079.60
719.63	1078.40
719.97	1078.99
720.30	1078.57
720.64	1082.26
720.97	1082.29
721.30	1081.12
721.64	1078.36
721.97	1077.33
722.31	1073.37
722.64	1074.98
722.97	1073.37
723.31	1073.79
723.64	1075.71
723.97	1078.52
724.31	1077.49
724.64	1078.66
724.98	1078.17
725.31	1079.69
725.64	1077.30
725.98	1079.20
726.31	1081.70
726.64	1084.21
726.97	1080.25
727.31	1079.46
727.64	1077.61
727.97	1072.74
728.31	1070.98
728.64	1071.80
728.97	1073.32
729.31	1072.74
729.64	1078.85
729.97	1079.69
730.30	1080.16
730.64	1077.14
730.97	1077.93
731.30	1076.67
731.63	1079.31
731.97	1080.74
732.30	1085.35
732.63	1084.65
732.96	1083.27
733.30	1081.54
733.63	1082.90
733.96	1084.07
734.29	1085.21
734.63	1085.73
734.96	1082.08
735.29	1077.96
735.62	1075.45
735.95	1074.14
736.29	1073.44
736.62	1075.50
736.95	1077.65
737.28	1079.95
737.61	1078.45
737.94	1078.66
738.28	1076.97
738.61	1076.58
738.94	1075.80
739.27	1079.92
739.60	1080.51
739.93	1082.08
740.27	1080.32
740.60	1079.29
740.93	1078.71
741.26	1078.33
741.59	1078.68
741.92	1084.21
742.25	1085.26
742.58	1083.57
742.91	1083.93
743.25	1087.51
743.58	1086.36
743.91	1087.11
744.24	1089.59
744.57	1088.65
744.90	1084.72
745.23	1080.46
745.56	1079.13
745.89	1076.13
746.22	1077.21
746.55	1078.92
746.88	1082.87
747.21	1081.12
747.54	1081.70
747.87	1081.07
748.20	1081.84
748.53	1078.75
748.87	1080.18
749.20	1078.59
749.53	1077.75
749.86	1074.26
750.19	1076.93
750.52	1080.86
750.85	1082.31
751.18	1082.69
751.51	1083.64
751.84	1082.17
752.16	1078.28
752.49	1078.68
752.82	1079.03
753.15	1078.87
753.48	1077.77
753.81	1077.63
754.14	1077.63
754.47	1079.76
754.80	1081.14
755.13	1082.97
755.46	1079.55
755.79	1081.63
756.12	1080.58
756.45	1079.67
756.78	1077.77
757.11	1080.84
757.43	1076.51
757.76	1073.67
758.09	1071.87
758.42	1076.83
758.75	1077.68
759.08	1080.25
759.41	1076.88
759.74	1076.79
760.07	1075.66
760.39	1075.36
760.72	1075.57
761.05	1080.74
761.38	1080.70
761.71	1078.10
762.04	1077.35
762.36	1078.99
762.69	1078.07
763.02	1081.63
763.35	1082.69
763.68	1082.45
764.01	1081.61
764.33	1082.36
764.66	1081.66
764.99	1080.48
765.32	1080.37
765.65	1079.34
765.97	1078.61
766.30	1079.41
766.63	1077.58
766.96	1080.20
767.28	1079.71
767.61	1078.73
767.94	1077.98
768.27	1079.15
768.59	1077.86
768.92	1079.85
769.25	1082.76
769.58	1080.11
769.90	1080.32
770.23	1079.57
770.56	1075.94
770.89	1074.87
771.21	1076.53
771.54	1076.62
771.87	1079.08
772.19	1081.23
772.52	1079.99
772.85	1077.75
773.17	1077.30
773.50	1076.65
773.83	1079.17
774.15	1081.47
774.48	1083.01
774.81	1084.23
775.13	1082.29
775.46	1081.54
775.79	1082.40
776.11	1084.89
776.44	1085.68
776.77	1084.25
777.09	1080.18
777.42	1077.82
777.74	1075.10
778.07	1073.88
778.40	1075.13
778.72	1076.67
779.05	1073.35
779.37	1071.99
779.70	1071.71
780.03	1073.23
780.35	1073.49
780.68	1078.21
781.00	1078.92
781.33	1082.26
781.65	1079.10
781.98	1079.17
782.31	1078.21
782.63	1077.63
782.96	1072.46
783.28	1074.94
783.61	1076.34
783.93	1075.08
784.26	1076.46
784.58	1076.67
784.91	1076.39
785.23	1076.90
785.56	1077.68
785.88	1077.02
786.21	1078.28
786.53	1081.00
786.86	1081.05
787.18	1080.25
787.51	1080.30
787.83	1080.48
788.16	1080.06
788.48	1077.47
788.81	1076.93
789.13	1075.64
789.46	1078.92
789.78	1079.78
790.10	1080.11
790.43	1080.84
790.75	1083.39
791.08	1080.74
791.40	1076.60
791.73	1078.54
792.05	1080.20
792.37	1080.37
792.70	1077.82
793.02	1077.51
793.35	1072.55
793.67	1071.66
793.99	1068.92
794.32	1074.26
794.64	1074.26
794.96	1078.07
795.29	1076.72
795.61	1077.98
795.93	1073.72
796.26	1076.86
796.58	1076.79
796.91	1079.17
797.23	1079.24
797.55	1079.60
797.87	1075.22
798.20	1073.44
798.52	1072.04
798.84	1073.81
799.17	1075.80
799.49	1077.68
799.81	1077.49
800.14	1074.73
800.46	1071.71
800.78	1067.94
801.10	1067.94
801.43	1070.72
801.75	1072.01
802.07	1076.06
802.40	1078.64
802.72	1078.00
803.04	1077.54
803.36	1078.00
803.69	1074.31
804.01	1074.70
804.33	1077.16
804.65	1075.17
804.97	1074.40
805.30	1075.87
805.62	1077.33
805.94	1078.78
806.26	1079.53
806.58	1081.07
806.91	1082.40
807.23	1080.51
807.55	1079.20
807.87	1081.82
808.19	1079.15
808.52	1076.11
808.84	1077.63
809.16	1076.39
809.48	1075.01
809.80	1078.87
810.12	1079.62
810.44	1079.90
810.77	1079.57
811.09	1079.74
811.41	1075.45
811.73	1076.81
812.05	1074.28
812.37	1076.46
812.69	1075.22
813.01	1079.99
813.33	1079.48
813.66	1078.36
813.98	1077.02
814.30	1076.13
814.62	1075.85
814.94	1077.28
815.26	1081.37
815.58	1079.88
815.90	1081.58
816.22	1080.32
816.54	1078.64
816.86	1076.13
817.18	1079.29
817.50	1077.16
817.82	1080.32
818.14	1080.79
818.46	1079.76
818.78	1077.98
819.10	1081.56
819.42	1077.96
819.74	1073.28
820.06	1074.91
820.38	1074.47
820.70	1074.31
821.02	1077.58
821.34	1083.41
821.66	1081.91
821.98	1083.76
822.30	1081.35
822.62	1079.15
822.94	1078.87
823.26	1084.00
823.58	1084.96
823.90	1085.70
824.22	1085.47
824.54	1085.07
824.86	1081.75
825.18	1078.64
825.50	1079.08
825.81	1078.87
826.13	1078.52
826.45	1078.59
826.77	1079.08
827.09	1076.18
827.41	1076.44
827.73	1075.08
828.05	1073.53
828.36	1074.82
828.68	1076.62
829.00	1077.49
829.32	1078.87
829.64	1078.54
829.96	1076.69
830.28	1078.33
830.59	1075.78
830.91	1074.47
831.23	1075.57
831.55	1076.41
831.87	1075.38
832.19	1078.94
832.50	1081.87
832.82	1080.41
833.14	1081.63
833.46	1081.58
833.78	1080.04
834.09	1079.13
834.41	1081.94
834.73	1082.19
835.05	1080.95
835.36	1082.31
835.68	1079.95
836.00	1076.95
836.32	1074.52
836.63	1074.31
836.95	1072.29
837.27	1073.09
837.59	1075.08
837.90	1073.74
838.22	1076.58
838.54	1078.24
838.85	1080.32
839.17	1078.31
839.49	1079.13
839.80	1077.77
840.12	1077.44
840.44	1078.43
840.76	1078.26
841.07	1077.47
841.39	1076.74
841.71	1075.92
842.02	1076.15
842.34	1080.81
842.65	1083.50
842.97	1083.20
843.29	1082.19
843.60	1080.77
843.92	1080.20
844.24	1082.15
844.55	1083.11
844.87	1081.33
845.18	1078.50
845.50	1078.00
845.82	1073.77
846.13	1073.70
846.45	1077.11
846.76	1079.06
847.08	1077.23
847.40	1078.12
847.71	1076.23
848.03	1076.34
848.34	1074.66
848.66	1074.40
848.97	1074.82
849.29	1077.02
849.60	1075.08
849.92	1078.38
850.24	1078.85
850.55	1079.85
850.87	1080.32
851.18	1079.78
851.50	1077.70
851.81	1079.74
852.13	1079.57
852.44	1077.68
852.76	1081.28
853.07	1081.42
853.39	1079.10
853.70	1078.61
854.01	1079.38
854.33	1078.21
854.64	1078.61
854.96	1081.54
855.27	1080.79
855.59	1083.34
855.90	1080.86
856.22	1079.62
856.53	1078.50
856.84	1078.19
857.16	1077.35
857.47	1078.78
857.79	1078.96
858.10	1080.77
858.41	1081.80
858.73	1081.30
859.04	1080.27
859.36	1079.48
859.67	1075.80
859.98	1073.60
860.30	1070.56
860.61	1069.88
860.92	1072.60
861.24	1071.22
861.55	1073.23
861.87	1072.48
862.18	1073.86
862.49	1071.64
862.81	1074.17
863.12	1073.72
863.43	1077.58
863.74	1077.82
864.06	1079.64
864.37	1078.10
864.68	1076.46
865.00	1074.84
865.31	1075.69
865.62	1075.83
865.94	1076.67
866.25	1080.74
866.56	1083.83
866.87	1083.60
867.19	1081.68
867.50	1080.81
867.81	1076.95
868.12	1074.40
868.44	1073.11
868.75	1072.20
869.06	1072.48
869.37	1075.43
869.68	1076.23
870.00	1074.63
870.31	1077.82
870.62	1077.86
870.93	1079.41
871.24	1081.07
871.56	1083.25
871.87	1084.02
872.18	1085.03
872.49	1082.69
872.80	1079.64
873.12	1078.73
873.43	1079.43
873.74	1074.94
874.05	1074.66
874.36	1073.09
874.67	1072.36
874.98	1070.47
875.29	1076.41
875.61	1077.49
875.92	1082.01
876.23	1081.61
876.54	1080.53
876.85	1074.96
877.16	1073.07
877.47	1069.27
877.78	1069.77
878.09	1067.54
878.40	1072.04
878.72	1071.24
879.03	1074.10
879.34	1076.81
879.65	1079.55
879.96	1080.18
880.27	1083.15
880.58	1081.96
880.89	1079.81
881.20	1080.81
881.51	1079.55
881.82	1082.10
882.13	1083.25
882.44	1084.35
882.75	1082.97
883.06	1085.42
883.37	1080.72
883.68	1077.98
883.99	1077.86
884.30	1078.36
884.61	1076.58
884.92	1076.18
885.23	1076.69
885.54	1078.17
885.85	1078.71
886.16	1076.81
886.47	1077.35
886.78	1078.33
887.08	1078.73
887.39	1077.44
887.70	1081.07
888.01	1082.54
888.32	1082.71
888.63	1082.17
888.94	1086.31
889.25	1085.33
889.56	1083.83
889.87	1084.07
890.17	1086.15
890.48	1084.86
890.79	1085.40
891.10	1088.07
891.41	1089.36
891.72	1086.10
892.03	1084.91
892.34	1084.30
892.64	1079.88
892.95	1077.77
893.26	1076.67
893.57	1073.49
893.88	1070.77
894.18	1073.77
894.49	1075.48
894.80	1073.23
895.11	1072.43
895.42	1072.04
895.72	1069.91
896.03	1068.88
896.34	1070.44
896.65	1073.42
896.96	1074.89
897.26	1076.51
897.57	1076.37
897.88	1077.28
898.19	1076.86
898.49	1076.48
898.80	1078.99
899.11	1077.93
899.41	1078.61
899.72	1080.56
900.03	1083.32
900.34	1081.26
900.64	1079.48
900.95	1081.58
901.26	1079.57
901.56	1075.52
901.87	1071.22
902.18	1075.80
902.48	1074.35
902.79	1074.87
903.10	1076.15
903.40	1080.93
903.71	1081.61
904.02	1081.96
904.32	1081.89
904.63	1080.58
904.94	1080.56
905.24	1077.16
905.55	1075.31
905.85	1070.42
906.16	1071.80
906.47	1071.17
906.77	1073.93
907.08	1074.42
907.38	1081.70
907.69	1083.08
908.00	1081.87
908.30	1079.60
908.61	1081.23
908.91	1080.27
909.22	1079.29
909.52	1080.27
909.83	1081.14
910.14	1080.11
910.44	1076.08
910.75	1077.82
911.05	1079.27
911.36	1077.96
911.66	1074.40
911.97	1073.25
912.27	1072.85
912.58	1071.52
912.88	1072.36
913.19	1077.00
913.49	1078.87
913.80	1077.75
914.10	1074.80
914.41	1074.31
914.71	1074.63
915.01	1077.51
915.32	1076.04
915.62	1076.53
915.93	1076.04
916.23	1074.40
916.54	1074.00
916.84	1074.84
917.15	1077.93
917.45	1078.96
917.75	1080.30
918.06	1079.34
918.36	1078.24
918.67	1075.36
918.97	1074.26
919.27	1072.97
919.58	1073.14
919.88	1074.89
920.18	1077.84
920.49	1077.40
920.79	1077.28
921.10	1077.89
921.40	1075.66
921.70	1074.94
922.01	1075.41
922.31	1074.66
922.61	1076.51
922.92	1081.07
923.22	1083.76
923.52	1082.50
923.82	1081.54
924.13	1078.40
924.43	1075.24
924.73	1071.05
925.04	1072.76
925.34	1071.38
925.64	1071.90
925.94	1072.85
926.25	1073.84
926.55	1073.07
926.85	1075.10
927.15	1072.60
927.46	1071.22
927.76	1073.79
928.06	1077.47
928.36	1077.70
928.67	1077.93
928.97	1075.87
929.27	1074.40
929.57	1072.55
929.87	1074.54
930.18	1077.70
930.48	1080.84
930.78	1080.41
931.08	1081.09
931.38	1080.32
931.69	1077.44
931.99	1078.68
932.29	1081.00
932.59	1080.56
932.89	1080.30
933.19	1082.19
933.49	1079.60
933.80	1078.89
934.10	1076.08
934.40	1077.35
934.70	1075.73
935.00	1079.01
935.30	1076.83
935.60	1077.23
935.90	1075.69
936.20	1076.23
936.50	1074.89
936.81	1073.88
937.11	1076.20
937.41	1078.64
937.71	1078.10
938.01	1076.55
938.31	1080.88
938.61	1079.29
938.91	1079.38
939.21	1082.45
939.51	1084.51
939.81	1082.10
940.11	1083.29
940.41	1082.05
940.71	1080.58
941.01	1079.60
941.31	1080.02
941.61	1081.30
941.91	1077.47
942.21	1080.04
942.51	1080.53
942.81	1081.00
943.11	1079.36
943.41	1083.83
943.71	1082.40
944.01	1082.57
944.31	1082.52
944.61	1082.24
944.90	1083.90
945.20	1082.45
945.50	1081.47
945.80	1084.14
946.10	1085.35
946.40	1081.58
946.70	1083.53
947.00	1084.32
947.30	1078.24
947.60	1077.21
947.89	1078.61
948.19	1074.03
948.49	1072.08
948.79	1074.49
949.09	1073.39
949.39	1074.10
949.69	1078.78
949.98	1080.79
950.28	1084.25
950.58	1086.06
950.88	1082.99
951.18	1082.50
951.48	1081.73
951.77	1079.03
952.07	1078.99
952.37	1080.53
952.67	1080.98
952.97	1083.22
953.26	1080.04
953.56	1077.44
953.86	1075.62
954.16	1072.13
954.45	1066.79
954.75	1069.39
955.05	1071.85
955.35	1074.03
955.64	1074.40
955.94	1078.89
956.24	1078.61
956.54	1077.42
956.83	1078.07
957.13	1079.99
957.43	1077.70
957.72	1076.90
958.02	1076.97
958.32	1075.38
958.61	1075.59
958.91	1074.68
959.21	1073.23
959.50	1073.95
959.80	1074.33
960.10	1073.44
960.39	1074.96
960.69	1076.01
960.99	1074.26
961.28	1076.15
961.58	1079.08
961.87	1079.01
962.17	1081.70
962.47	1083.64
962.76	1081.09
963.06	1077.37
963.36	1075.66
963.65	1072.57
963.95	1072.55
964.24	1075.45
964.54	1078.50
964.83	1083.41
965.13	1084.21
965.42	1085.19
965.72	1086.62
966.02	1084.35
966.31	1079.99
966.61	1083.01
966.90	1083.95
967.20	1081.00
967.49	1084.11
967.79	1083.79
968.08	1083.01
968.38	1082.43
968.67	1079.10
968.97	1076.53
969.26	1079.78
969.56	1080.23
969.85	1078.96
970.15	1080.98
970.44	1079.53
970.74	1080.60
971.03	1078.24
971.32	1077.93
971.62	1078.43
971.91	1079.36
972.21	1077.28
972.50	1078.50
972.80	1076.53
973.09	1075.83
973.38	1075.15
973.68	1075.43
973.97	1073.42
974.27	1075.76
974.56	1075.08
974.85	1074.66
975.15	1075.90
975.44	1077.28
975.73	1076.23
976.03	1078.54
976.32	1079.74
976.61	1076.04
976.91	1074.45
977.20	1074.61
977.49	1075.62
977.79	1074.77
978.08	1077.25
978.37	1081.21
978.67	1082.97
978.96	1078.12
979.25	1079.78
979.55	1078.19
979.84	1074.21
980.13	1074.96
980.42	1077.75
980.72	1075.10
981.01	1073.23
981.30	1075.24
981.59	1075.15
981.89	1076.51
982.18	1079.38
982.47	1081.87
982.76	1081.89
983.06	1077.93
983.35	1080.88
983.64	1077.89
983.93	1078.59
984.22	1079.15
984.52	1078.78
984.81	1074.94
985.10	1076.62
985.39	1075.76
985.68	1073.60
985.97	1076.69
986.27	1079.97
986.56	1077.86
986.85	1073.77
987.14	1078.03
987.43	1077.68
987.72	1074.49
988.01	1078.28
988.31	1080.95
988.60	1077.25
988.89	1076.04
989.18	1075.87
989.47	1074.68
989.76	1076.74
990.05	1074.70
990.34	1073.35
990.63	1075.15
990.92	1073.77
991.21	1071.61
991.51	1072.53
991.80	1075.45
992.09	1073.65
992.38	1074.49
992.67	1078.66
992.96	1080.58
993.25	1080.98
993.54	1081.26
993.83	1081.35
994.12	1080.51
994.41	1077.00
994.70	1075.83
994.99	1074.91
995.28	1074.77
995.57	1070.82
995.86	1072.22
996.15	1070.33
996.44	1071.90
996.73	1073.63
997.02	1073.86
997.31	1075.45
997.59	1074.77
997.88	1073.63
998.17	1072.43
998.46	1074.91
998.75	1072.69
999.04	1074.98
999.33	1076.30
999.62	1075.03
999.91	1075.13
1000.20	1080.53
1000.49	1082.10
1000.77	1082.61
1001.06	1084.91
1001.35	1083.67
1001.64	1081.94
1001.93	1082.66
1002.22	1080.41
1002.51	1079.34
1002.79	1077.98
1003.08	1075.08
1003.37	1071.05
1003.66	1067.52
1003.95	1067.31
1004.23	1068.06
1004.52	1068.24
1004.81	1070.00
1005.10	1073.49
1005.39	1073.91
1005.67	1076.32
1005.96	1076.74
1006.25	1076.83
1006.54	1077.35
1006.83	1075.27
1007.11	1074.96
1007.40	1075.85
1007.69	1078.19
1007.97	1081.63
1008.26	1084.49
1008.55	1088.77
1008.84	1089.29
1009.12	1088.02
1009.41	1085.99
1009.70	1085.80
1009.98	1082.33
1010.27	1081.70
1010.56	1082.94
1010.85	1080.84
1011.13	1079.81
1011.42	1076.69
1011.71	1076.97
1011.99	1074.35
1012.28	1074.35
1012.56	1074.75
1012.85	1076.11
1013.14	1076.51
1013.42	1076.44
1013.71	1077.42
1014.00	1077.86
1014.28	1076.15
1014.57	1074.52
1014.85	1074.26
1015.14	1074.96
1015.43	1074.35
1015.71	1078.68
1016.00	1079.41
1016.28	1078.71
1016.57	1080.46
1016.85	1079.17
1017.14	1076.88
1017.43	1076.41
1017.71	1077.21
1018.00	1076.01
1018.28	1075.24
1018.57	1077.70
1018.85	1077.21
1019.14	1077.68
1019.42	1079.01
1019.71	1082.87
1019.99	1082.99
1020.28	1084.77
1020.56	1085.49
1020.85	1084.14
1021.13	1080.70
1021.42	1076.55
1021.70	1075.17
1021.99	1073.07
1022.27	1071.36
1022.55	1068.69
1022.84	1075.94
>>>>>End Processed Spectral Data<<<<<
