SpectraSuite Data File
++++++++++++++++++++++++++++++++++++
Date: Mon Aug 26 10:22:01 PDT 2019
User: corrico
Dark Spectrum Present: No
Reference Spectrum Present: No
Number of Sampled Component Spectra: 1
Spectrometers: USB2+H06089
Integration Time (usec): 2000 (USB2+H06089)
Spectra Averaged: 20 (USB2+H06089)
Boxcar Smoothing: 2 (USB2+H06089)
Correct for Electrical Dark: No (USB2+H06089)
Strobe/Lamp Enabled: No (USB2+H06089)
Correct for Detector Non-linearity: No (USB2+H06089)
Correct for Stray Light: No (USB2+H06089)
Number of Pixels in Processed Spectrum: 2048
>>>>>Begin Processed Spectral Data<<<<<
339.70	1026.44
340.07	1026.44
340.45	990.12
340.82	968.28
341.19	940.47
341.57	919.81
341.94	910.77
342.31	903.35
342.69	899.26
343.06	900.19
343.43	897.41
343.81	897.76
344.18	900.31
344.55	905.23
344.93	912.22
345.30	917.00
345.67	923.60
346.04	932.80
346.42	940.36
346.79	947.24
347.16	953.21
347.54	962.76
347.91	971.46
348.28	982.51
348.65	990.98
349.03	999.83
349.40	1009.26
349.77	1017.64
350.14	1024.22
350.52	1032.22
350.89	1041.26
351.26	1047.81
351.63	1054.60
352.01	1059.79
352.38	1062.51
352.75	1068.71
353.12	1070.58
353.50	1070.77
353.87	1071.59
354.24	1077.72
354.61	1078.50
354.98	1083.79
355.36	1086.36
355.73	1087.30
356.10	1087.53
356.47	1085.82
356.84	1082.47
357.22	1081.44
357.59	1082.24
357.96	1081.56
358.33	1082.10
358.70	1082.22
359.08	1084.25
359.45	1082.57
359.82	1082.40
360.19	1081.56
360.56	1082.31
360.94	1078.36
361.31	1079.17
361.68	1074.07
362.05	1074.45
362.42	1073.88
362.79	1076.69
363.16	1074.05
363.54	1076.69
363.91	1075.64
364.28	1075.24
364.65	1074.14
365.02	1075.62
365.39	1077.11
365.76	1078.66
366.14	1079.13
366.51	1078.28
366.88	1079.15
367.25	1079.43
367.62	1078.80
367.99	1076.25
368.36	1077.72
368.73	1077.44
369.10	1075.85
369.48	1074.47
369.85	1072.95
370.22	1068.95
370.59	1065.72
370.96	1064.85
371.33	1069.67
371.70	1070.65
372.07	1072.01
372.44	1073.42
372.81	1076.39
373.18	1072.34
373.55	1072.29
373.93	1075.71
374.30	1077.98
374.67	1077.58
375.04	1076.60
375.41	1078.12
375.78	1076.15
376.15	1074.91
376.52	1071.36
376.89	1073.60
377.26	1076.04
377.63	1075.29
378.00	1074.82
378.37	1075.83
378.74	1074.63
379.11	1073.67
379.48	1075.48
379.85	1076.51
380.22	1077.77
380.59	1074.68
380.96	1073.51
381.33	1073.93
381.70	1072.08
382.07	1073.02
382.44	1075.71
382.81	1075.87
383.18	1078.12
383.55	1079.48
383.92	1076.95
384.29	1077.84
384.66	1080.58
385.03	1077.91
385.40	1077.30
385.77	1080.98
386.14	1080.37
386.51	1078.94
386.88	1078.96
387.25	1080.51
387.62	1078.45
387.99	1080.32
388.36	1079.62
388.73	1080.86
389.10	1079.67
389.46	1082.15
389.83	1084.09
390.20	1084.89
390.57	1083.15
390.94	1085.82
391.31	1082.78
391.68	1079.10
392.05	1079.64
392.42	1081.94
392.79	1078.17
393.16	1081.37
393.53	1082.08
393.89	1081.70
394.26	1081.73
394.63	1086.59
395.00	1084.91
395.37	1084.93
395.74	1082.66
396.11	1080.95
396.48	1079.41
396.84	1080.67
397.21	1083.25
397.58	1086.22
397.95	1085.73
398.32	1087.25
398.69	1088.12
399.06	1086.29
399.42	1083.22
399.79	1085.63
400.16	1084.25
400.53	1084.02
400.90	1085.40
401.27	1088.42
401.64	1088.51
402.00	1086.41
402.37	1084.44
402.74	1085.56
403.11	1086.31
403.48	1086.87
403.84	1088.63
404.21	1089.50
404.58	1089.14
404.95	1090.22
405.32	1089.40
405.68	1090.81
406.05	1094.79
406.42	1096.99
406.79	1097.95
407.16	1100.43
407.52	1101.25
407.89	1098.11
408.26	1094.39
408.63	1092.42
408.99	1087.69
409.36	1083.27
409.73	1082.66
410.10	1084.35
410.47	1083.08
410.83	1086.08
411.20	1089.22
411.57	1091.25
411.94	1087.69
412.30	1087.46
412.67	1083.76
413.04	1084.56
413.40	1085.89
413.77	1086.57
414.14	1089.87
414.51	1093.76
414.87	1093.85
415.24	1095.02
415.61	1100.73
415.97	1102.77
416.34	1106.46
416.71	1108.15
417.08	1105.93
417.44	1104.78
417.81	1104.83
418.18	1105.06
418.54	1106.54
418.91	1108.76
419.28	1107.19
419.64	1106.98
420.01	1103.52
420.38	1103.19
420.74	1103.75
421.11	1106.35
421.48	1106.96
421.84	1111.59
422.21	1116.04
422.58	1116.79
422.94	1122.75
423.31	1121.56
423.68	1123.18
424.04	1123.20
424.41	1126.41
424.77	1125.59
425.14	1134.95
425.51	1138.37
425.87	1140.29
426.24	1141.97
426.61	1145.90
426.97	1147.17
427.34	1152.15
427.70	1158.31
428.07	1166.80
428.44	1177.87
428.80	1184.76
429.17	1194.63
429.53	1202.71
429.90	1210.36
430.27	1212.98
430.63	1219.58
431.00	1227.19
431.36	1237.82
431.73	1252.77
432.09	1266.72
432.46	1282.89
432.83	1295.86
433.19	1309.58
433.56	1322.33
433.92	1337.10
434.29	1354.98
434.65	1374.48
435.02	1394.91
435.38	1418.48
435.75	1444.34
436.11	1470.16
436.48	1497.12
436.84	1527.34
437.21	1556.53
437.57	1587.37
437.94	1621.43
438.30	1657.73
438.67	1696.65
439.03	1739.21
439.40	1787.02
439.76	1837.37
440.13	1890.85
440.49	1946.09
440.86	2002.96
441.22	2065.05
441.59	2128.39
441.95	2194.86
442.32	2266.15
442.68	2343.34
443.05	2429.12
443.41	2518.16
443.78	2612.79
444.14	2716.22
444.51	2827.41
444.87	2945.85
445.24	3062.50
445.60	3187.11
445.96	3305.89
446.33	3440.42
446.69	3572.66
447.06	3724.33
447.42	3884.66
447.79	4060.88
448.15	4255.00
448.51	4442.10
448.88	4654.30
449.24	4852.16
449.61	5095.53
449.97	5339.39
450.33	5612.39
450.70	5859.84
451.06	6176.63
451.43	6456.81
451.79	6774.87
452.15	7109.21
452.52	7483.98
452.88	7852.12
453.24	8263.99
453.61	8702.77
453.97	9148.83
454.34	9581.61
454.70	10083.64
455.06	10598.65
455.43	11094.96
455.79	11583.08
456.15	12183.19
456.52	12739.63
456.88	13420.66
457.24	14108.47
457.61	14891.45
457.97	15596.72
458.33	16347.24
458.70	17076.43
459.06	17764.76
459.42	18481.03
459.79	19161.40
460.15	19928.44
460.51	20587.40
460.88	21307.96
461.24	21983.11
461.60	22773.20
461.96	23432.18
462.33	24077.61
462.69	24716.78
463.05	25434.81
463.42	26107.13
463.78	26720.68
464.14	27276.39
464.50	27890.69
464.87	28352.90
465.23	28599.19
465.59	28908.59
465.95	29200.20
466.32	29393.71
466.68	29533.28
467.04	29697.56
467.40	29798.20
467.77	29892.69
468.13	29878.55
468.49	29760.78
468.85	29641.08
469.22	29544.98
469.58	29362.93
469.94	29199.87
470.30	29007.38
470.66	28706.37
471.03	28215.18
471.39	27826.44
471.75	27239.51
472.11	26679.88
472.47	26272.77
472.84	25864.63
473.20	25314.39
473.56	24948.14
473.92	24487.36
474.28	24025.22
474.65	23590.63
475.01	23199.41
475.37	22729.88
475.73	22371.00
476.09	21934.75
476.45	21540.30
476.81	21151.82
477.18	20776.07
477.54	20435.62
477.90	20144.99
478.26	19749.58
478.62	19422.96
478.98	19179.52
479.34	18956.93
479.71	18683.07
480.07	18445.34
480.43	18183.15
480.79	17806.91
481.15	17394.60
481.51	17054.62
481.87	16795.92
482.23	16492.44
482.59	16254.34
482.96	16010.53
483.32	15758.85
483.68	15449.97
484.04	15173.67
484.40	14881.66
484.76	14633.15
485.12	14363.75
485.48	14143.67
485.84	13889.16
486.20	13646.96
486.56	13354.39
486.92	13080.90
487.28	12781.29
487.64	12494.25
488.00	12199.50
488.37	11906.66
488.73	11588.86
489.09	11275.51
489.45	10990.99
489.81	10702.12
490.17	10417.00
490.53	10142.85
490.89	9850.57
491.25	9550.93
491.61	9278.42
491.97	9011.69
492.33	8762.43
492.69	8543.94
493.05	8335.44
493.41	8125.61
493.77	7912.79
494.13	7703.10
494.49	7497.34
494.85	7307.95
495.21	7117.17
495.57	6945.89
495.93	6769.65
496.29	6591.84
496.64	6409.35
497.00	6223.41
497.36	6053.37
497.72	5895.86
498.08	5750.49
498.44	5604.65
498.80	5469.76
499.16	5323.08
499.52	5179.75
499.88	5041.61
500.24	4909.88
500.60	4794.19
500.96	4692.61
501.32	4582.37
501.68	4477.94
502.03	4374.74
502.39	4275.83
502.75	4174.86
503.11	4088.87
503.47	4004.63
503.83	3923.91
504.19	3835.93
504.55	3748.46
504.91	3661.23
505.26	3576.39
505.62	3491.59
505.98	3409.36
506.34	3332.06
506.70	3259.69
507.06	3192.65
507.42	3121.50
507.78	3054.40
508.13	2992.59
508.49	2925.60
508.85	2862.78
509.21	2809.79
509.57	2755.42
509.93	2701.52
510.28	2649.58
510.64	2601.72
511.00	2550.83
511.36	2506.97
511.72	2462.38
512.07	2417.54
512.43	2374.68
512.79	2340.30
513.15	2299.27
513.51	2258.15
513.86	2223.04
514.22	2183.58
514.58	2144.28
514.94	2104.89
515.30	2067.72
515.65	2030.48
516.01	2002.42
516.37	1967.31
516.73	1940.49
517.08	1920.48
517.44	1901.97
517.80	1880.99
518.16	1860.84
518.51	1838.19
518.87	1810.80
519.23	1787.58
519.59	1761.37
519.94	1740.21
520.30	1720.32
520.66	1702.72
521.01	1680.93
521.37	1662.08
521.73	1639.83
522.09	1621.01
522.44	1606.87
522.80	1591.68
523.16	1577.78
523.51	1567.74
523.87	1555.61
524.23	1539.58
524.58	1524.11
524.94	1509.39
525.30	1495.49
525.65	1485.87
526.01	1473.44
526.37	1463.35
526.72	1454.60
527.08	1445.44
527.44	1430.04
527.79	1418.25
528.15	1411.27
528.51	1400.04
528.86	1385.95
529.22	1378.46
529.58	1370.20
529.93	1360.88
530.29	1354.09
530.65	1345.95
531.00	1335.04
531.36	1327.58
531.71	1317.30
532.07	1307.24
532.43	1300.52
532.78	1292.44
533.14	1287.06
533.49	1280.62
533.85	1276.74
534.21	1270.35
534.56	1267.21
534.92	1259.58
535.27	1256.05
535.63	1246.97
535.98	1240.98
536.34	1237.04
536.69	1230.84
537.05	1223.89
537.41	1220.64
537.76	1219.65
538.12	1214.01
538.47	1212.07
538.83	1210.53
539.18	1210.64
539.54	1206.66
539.89	1208.11
540.25	1203.01
540.60	1198.19
540.96	1192.85
541.31	1189.44
541.67	1181.39
542.02	1178.51
542.38	1177.22
542.73	1174.25
543.09	1175.93
543.44	1175.25
543.80	1173.17
544.15	1173.03
544.51	1171.09
544.86	1162.78
545.22	1159.67
545.57	1161.54
545.93	1157.21
546.28	1156.76
546.64	1157.82
546.99	1155.90
547.35	1150.42
547.70	1147.75
548.05	1145.67
548.41	1140.94
548.76	1139.12
549.12	1137.08
549.47	1135.60
549.83	1131.13
550.18	1132.40
550.53	1133.97
550.89	1134.29
551.24	1134.93
551.60	1134.93
551.95	1133.85
552.30	1128.75
552.66	1127.55
553.01	1125.96
553.37	1126.80
553.72	1125.82
554.07	1125.40
554.43	1126.06
554.78	1124.60
555.13	1122.24
555.49	1121.28
555.84	1120.86
556.19	1121.26
556.55	1117.79
556.90	1115.27
557.26	1113.02
557.61	1114.82
557.96	1108.71
558.32	1111.10
558.67	1110.19
559.02	1110.02
559.37	1107.85
559.73	1110.77
560.08	1108.17
560.43	1105.46
560.79	1107.21
561.14	1108.06
561.49	1105.27
561.85	1105.58
562.20	1108.45
562.55	1106.07
562.90	1105.04
563.26	1105.90
563.61	1106.65
563.96	1107.82
564.32	1108.24
564.67	1104.71
565.02	1101.71
565.37	1099.37
565.73	1096.26
566.08	1092.42
566.43	1091.70
566.78	1093.92
567.14	1094.18
567.49	1098.88
567.84	1099.33
568.19	1102.21
568.54	1103.70
568.90	1103.26
569.25	1098.44
569.60	1102.37
569.95	1103.05
570.31	1102.25
570.66	1100.82
571.01	1100.15
571.36	1098.98
571.71	1098.11
572.06	1094.27
572.42	1095.00
572.77	1094.90
573.12	1091.04
573.47	1086.78
573.82	1088.02
574.18	1085.40
574.53	1085.05
574.88	1089.14
575.23	1089.96
575.58	1088.89
575.93	1092.33
576.28	1092.89
576.64	1090.41
576.99	1092.09
577.34	1093.26
577.69	1091.86
578.04	1090.57
578.39	1092.05
578.74	1091.56
579.09	1090.53
579.44	1088.70
579.80	1090.92
580.15	1090.06
580.50	1091.51
580.85	1093.57
581.20	1093.08
581.55	1095.49
581.90	1093.29
582.25	1093.19
582.60	1089.78
582.95	1093.01
583.30	1088.54
583.65	1088.68
584.00	1087.11
584.35	1089.22
584.71	1088.40
585.06	1087.41
585.41	1087.90
585.76	1087.32
586.11	1088.54
586.46	1088.91
586.81	1092.40
587.16	1092.61
587.51	1095.16
587.86	1096.59
588.21	1094.93
588.56	1090.74
588.91	1089.47
589.26	1086.52
589.61	1083.90
589.96	1084.02
590.31	1086.76
590.66	1088.91
591.01	1086.36
591.36	1087.30
591.71	1090.48
592.06	1088.26
592.41	1088.75
592.76	1092.47
593.10	1088.49
593.45	1084.46
593.80	1083.67
594.15	1083.90
594.50	1082.57
594.85	1083.76
595.20	1084.30
595.55	1087.27
595.90	1086.27
596.25	1087.97
596.60	1090.95
596.95	1090.48
597.30	1090.17
597.64	1098.25
597.99	1096.85
598.34	1092.00
598.69	1091.44
599.04	1092.23
599.39	1082.26
599.74	1082.83
600.09	1085.33
600.44	1085.66
600.78	1086.83
601.13	1086.76
601.48	1083.76
601.83	1081.80
602.18	1083.48
602.53	1080.91
602.88	1081.16
603.22	1085.35
603.57	1088.68
603.92	1086.83
604.27	1086.59
604.62	1087.37
604.97	1083.22
605.31	1081.16
605.66	1081.70
606.01	1080.13
606.36	1078.92
606.71	1081.14
607.05	1079.69
607.40	1081.21
607.75	1083.36
608.10	1083.76
608.44	1083.34
608.79	1084.30
609.14	1082.69
609.49	1082.83
609.84	1085.49
610.18	1086.20
610.53	1089.33
610.88	1089.31
611.23	1089.94
611.57	1087.65
611.92	1087.32
612.27	1083.34
612.62	1083.81
612.96	1080.56
613.31	1080.34
613.66	1078.85
614.00	1080.44
614.35	1079.57
614.70	1080.70
615.05	1078.12
615.39	1078.64
615.74	1078.19
616.09	1081.98
616.43	1083.93
616.78	1086.66
617.13	1087.88
617.47	1087.69
617.82	1082.15
618.17	1080.39
618.51	1079.74
618.86	1079.31
619.21	1080.91
619.55	1081.16
619.90	1084.93
620.25	1086.17
620.59	1087.11
620.94	1088.04
621.29	1087.25
621.63	1085.54
621.98	1083.55
622.32	1080.41
622.67	1078.78
623.02	1082.97
623.36	1081.73
623.71	1082.69
624.05	1083.88
624.40	1083.01
624.75	1082.59
625.09	1081.70
625.44	1078.89
625.78	1080.56
626.13	1082.43
626.48	1081.98
626.82	1080.25
627.17	1082.59
627.51	1078.64
627.86	1078.68
628.20	1079.36
628.55	1082.31
628.89	1083.88
629.24	1088.28
629.58	1087.41
629.93	1087.88
630.28	1086.83
630.62	1086.41
630.97	1084.23
631.31	1082.47
631.66	1079.74
632.00	1078.10
632.35	1076.27
632.69	1077.21
633.04	1079.62
633.38	1078.66
633.73	1079.17
634.07	1082.17
634.42	1082.61
634.76	1082.57
635.11	1086.55
635.45	1088.47
635.79	1086.15
636.14	1085.03
636.48	1083.88
636.83	1081.05
637.17	1081.28
637.52	1079.36
637.86	1078.54
638.21	1078.26
638.55	1078.80
638.89	1078.45
639.24	1078.26
639.58	1079.85
639.93	1082.33
640.27	1080.93
640.61	1081.02
640.96	1083.34
641.30	1082.90
641.65	1084.18
641.99	1088.61
642.33	1090.22
642.68	1091.04
643.02	1090.53
643.37	1085.59
643.71	1081.73
644.05	1080.72
644.40	1079.46
644.74	1081.61
645.08	1084.02
645.43	1086.31
645.77	1085.38
646.11	1088.23
646.46	1084.74
646.80	1086.27
647.14	1084.72
647.49	1086.22
647.83	1084.89
648.17	1089.24
648.52	1084.18
648.86	1087.09
649.20	1087.13
649.55	1085.56
649.89	1084.21
650.23	1088.30
650.57	1085.52
650.92	1081.14
651.26	1082.17
651.60	1078.38
651.95	1078.47
652.29	1079.64
652.63	1083.29
652.97	1082.08
653.32	1083.74
653.66	1083.22
654.00	1085.75
654.34	1086.36
654.69	1089.89
655.03	1093.43
655.37	1093.64
655.71	1086.76
656.05	1088.30
656.40	1085.12
656.74	1083.11
657.08	1080.88
657.42	1084.14
657.76	1081.40
658.11	1080.86
658.45	1082.24
658.79	1084.14
659.13	1082.01
659.47	1083.90
659.82	1082.54
660.16	1080.23
660.50	1077.42
660.84	1079.64
661.18	1078.78
661.52	1079.71
661.87	1078.99
662.21	1081.96
662.55	1080.77
662.89	1077.14
663.23	1080.53
663.57	1081.47
663.91	1081.09
664.25	1084.09
664.60	1086.43
664.94	1083.76
665.28	1083.69
665.62	1082.15
665.96	1078.03
666.30	1076.11
666.64	1078.45
666.98	1077.37
667.32	1078.47
667.66	1084.21
668.01	1088.21
668.35	1085.33
668.69	1087.25
669.03	1085.73
669.37	1083.88
669.71	1081.23
670.05	1082.78
670.39	1079.27
670.73	1078.68
671.07	1076.27
671.41	1076.39
671.75	1075.94
672.09	1080.60
672.43	1082.92
672.77	1085.24
673.11	1081.51
673.45	1081.56
673.79	1079.57
674.13	1079.60
674.47	1075.97
674.81	1078.78
675.15	1079.48
675.49	1077.44
675.83	1077.44
676.17	1081.54
676.51	1083.57
676.85	1085.91
677.19	1086.38
677.53	1084.44
677.87	1083.95
678.21	1084.74
678.55	1084.30
678.89	1087.23
679.23	1087.48
679.57	1083.97
679.90	1082.22
680.24	1080.30
680.58	1076.81
680.92	1077.70
681.26	1081.28
681.60	1082.40
681.94	1082.38
682.28	1083.74
682.62	1082.31
682.96	1079.78
683.29	1075.59
683.63	1075.94
683.97	1078.52
684.31	1081.35
684.65	1081.12
684.99	1083.36
685.33	1079.90
685.67	1078.89
686.00	1078.52
686.34	1079.46
686.68	1081.00
687.02	1081.66
687.36	1082.31
687.70	1079.36
688.03	1081.26
688.37	1081.19
688.71	1082.54
689.05	1081.47
689.39	1085.80
689.72	1082.03
690.06	1080.98
690.40	1081.56
690.74	1081.68
691.08	1077.56
691.41	1080.46
691.75	1082.66
692.09	1084.63
692.43	1084.00
692.76	1087.39
693.10	1087.13
693.44	1085.38
693.78	1086.31
694.11	1084.89
694.45	1082.78
694.79	1082.66
695.13	1082.92
695.46	1081.16
695.80	1077.33
696.14	1076.01
696.48	1077.30
696.81	1076.90
697.15	1077.00
697.49	1082.45
697.82	1083.25
698.16	1082.92
698.50	1080.81
698.83	1080.86
699.17	1081.00
699.51	1081.19
699.84	1077.84
700.18	1079.20
700.52	1078.24
700.85	1075.22
701.19	1074.89
701.53	1075.59
701.86	1077.72
702.20	1078.03
702.54	1081.58
702.87	1082.03
703.21	1083.53
703.55	1081.70
703.88	1080.27
704.22	1080.58
704.55	1081.14
704.89	1079.08
705.23	1077.58
705.56	1076.58
705.90	1073.42
706.23	1074.00
706.57	1077.51
706.91	1081.23
707.24	1083.29
707.58	1082.99
707.91	1082.71
708.25	1079.62
708.58	1076.86
708.92	1075.01
709.26	1076.97
709.59	1076.18
709.93	1079.38
710.26	1078.66
710.60	1078.85
710.93	1076.06
711.27	1078.19
711.60	1078.78
711.94	1078.92
712.27	1079.74
712.61	1083.32
712.94	1081.80
713.28	1080.56
713.61	1083.06
713.95	1081.89
714.28	1082.33
714.62	1083.97
714.95	1081.28
715.29	1080.56
715.62	1084.00
715.96	1082.71
716.29	1084.18
716.63	1085.24
716.96	1083.57
717.29	1083.22
717.63	1082.24
717.96	1082.50
718.30	1082.40
718.63	1083.27
718.97	1082.94
719.30	1081.23
719.63	1079.31
719.97	1081.89
720.30	1082.19
720.64	1081.70
720.97	1086.66
721.30	1085.33
721.64	1084.07
721.97	1081.51
722.31	1080.79
722.64	1081.00
722.97	1082.31
723.31	1081.16
723.64	1083.32
723.97	1080.46
724.31	1073.95
724.64	1073.28
724.98	1076.13
725.31	1076.53
725.64	1078.03
725.98	1080.39
726.31	1079.13
726.64	1076.60
726.97	1074.35
727.31	1078.40
727.64	1079.17
727.97	1081.77
728.31	1082.76
728.64	1085.12
728.97	1079.50
729.31	1081.61
729.64	1080.93
729.97	1077.63
730.30	1077.09
730.64	1078.68
730.97	1080.67
731.30	1080.06
731.63	1079.95
731.97	1079.76
732.30	1084.56
732.63	1082.17
732.96	1081.73
733.30	1085.31
733.63	1085.77
733.96	1081.56
734.29	1080.37
734.63	1082.17
734.96	1080.30
735.29	1081.70
735.62	1081.77
735.95	1081.89
736.29	1077.89
736.62	1077.11
736.95	1074.56
737.28	1076.13
737.61	1077.75
737.94	1079.38
738.28	1080.32
738.61	1084.00
738.94	1082.22
739.27	1078.66
739.60	1078.59
739.93	1077.42
740.27	1075.34
740.60	1078.57
740.93	1080.02
741.26	1079.81
741.59	1082.90
741.92	1082.40
742.25	1079.31
742.58	1078.78
742.91	1079.36
743.25	1074.77
743.58	1074.03
743.91	1071.24
744.24	1071.90
744.57	1071.90
744.90	1075.45
745.23	1075.24
745.56	1078.21
745.89	1077.07
746.22	1078.52
746.55	1074.10
746.88	1076.41
747.21	1073.49
747.54	1075.52
747.87	1073.16
748.20	1076.34
748.53	1075.01
748.87	1078.50
749.20	1080.79
749.53	1083.67
749.86	1084.79
750.19	1086.97
750.52	1087.25
750.85	1082.43
751.18	1078.89
751.51	1080.16
751.84	1078.57
752.16	1079.34
752.49	1083.36
752.82	1088.42
753.15	1085.99
753.48	1085.49
753.81	1082.36
754.14	1077.86
754.47	1073.58
754.80	1073.84
755.13	1072.71
755.46	1076.65
755.79	1081.42
756.12	1082.99
756.45	1086.38
756.78	1089.17
757.11	1087.95
757.43	1082.99
757.76	1081.73
758.09	1077.14
758.42	1076.18
758.75	1075.31
759.08	1078.38
759.41	1078.87
759.74	1079.57
760.07	1080.02
760.39	1080.11
760.72	1082.03
761.05	1078.52
761.38	1079.34
761.71	1078.80
762.04	1078.96
762.36	1077.21
762.69	1078.94
763.02	1081.68
763.35	1078.68
763.68	1078.38
764.01	1079.41
764.33	1078.64
764.66	1077.21
764.99	1080.02
765.32	1078.94
765.65	1077.21
765.97	1080.77
766.30	1079.57
766.63	1081.96
766.96	1083.36
767.28	1082.29
767.61	1078.07
767.94	1078.45
768.27	1074.91
768.59	1077.28
768.92	1079.24
769.25	1083.48
769.58	1082.45
769.90	1084.14
770.23	1082.10
770.56	1081.77
770.89	1081.94
771.21	1080.51
771.54	1078.66
771.87	1078.19
772.19	1074.70
772.52	1072.27
772.85	1075.17
773.17	1073.30
773.50	1072.81
773.83	1077.84
774.15	1078.21
774.48	1076.08
774.81	1078.75
775.13	1078.43
775.46	1078.92
775.79	1079.92
776.11	1082.10
776.44	1081.94
776.77	1082.76
777.09	1081.09
777.42	1080.79
777.74	1082.24
778.07	1082.83
778.40	1083.50
778.72	1081.82
779.05	1082.92
779.37	1081.23
779.70	1081.21
780.03	1080.65
780.35	1079.57
780.68	1079.95
781.00	1079.17
781.33	1080.53
781.65	1079.53
781.98	1080.58
782.31	1078.73
782.63	1076.20
782.96	1073.65
783.28	1076.30
783.61	1076.81
783.93	1079.95
784.26	1081.75
784.58	1082.36
784.91	1080.79
785.23	1082.33
785.56	1078.43
785.88	1080.16
786.21	1079.88
786.53	1078.12
786.86	1077.79
787.18	1079.60
787.51	1080.11
787.83	1081.75
788.16	1083.71
788.48	1083.60
788.81	1085.75
789.13	1084.18
789.46	1085.63
789.78	1087.39
790.10	1087.11
790.43	1085.70
790.75	1083.90
791.08	1078.28
791.40	1073.77
791.73	1075.73
792.05	1076.23
792.37	1078.40
792.70	1082.03
793.02	1084.28
793.35	1079.78
793.67	1077.07
793.99	1078.59
794.32	1078.92
794.64	1078.00
794.96	1080.11
795.29	1078.36
795.61	1076.67
795.93	1077.23
796.26	1076.55
796.58	1079.92
796.91	1084.65
797.23	1085.33
797.55	1082.99
797.87	1083.43
798.20	1080.09
798.52	1079.10
798.84	1075.73
799.17	1079.64
799.49	1081.14
799.81	1082.76
800.14	1078.21
800.46	1082.01
800.78	1078.10
801.10	1078.31
801.43	1076.34
801.75	1080.41
802.07	1081.47
802.40	1082.12
802.72	1082.99
803.04	1083.55
803.36	1080.23
803.69	1077.61
804.01	1078.71
804.33	1077.68
804.65	1076.79
804.97	1080.58
805.30	1081.09
805.62	1080.88
805.94	1081.05
806.26	1085.68
806.58	1084.07
806.91	1082.87
807.23	1079.76
807.55	1077.61
807.87	1072.39
808.19	1073.16
808.52	1075.17
808.84	1077.51
809.16	1077.75
809.48	1080.13
809.80	1080.84
810.12	1079.83
810.44	1077.58
810.77	1078.36
811.09	1075.92
811.41	1077.56
811.73	1081.23
812.05	1082.85
812.37	1083.04
812.69	1083.46
813.01	1080.34
813.33	1076.86
813.66	1076.18
813.98	1076.06
814.30	1075.85
814.62	1079.31
814.94	1080.84
815.26	1081.37
815.58	1081.51
815.90	1082.10
816.22	1078.75
816.54	1080.46
816.86	1082.26
817.18	1083.95
817.50	1084.70
817.82	1085.94
818.14	1084.11
818.46	1085.07
818.78	1084.07
819.10	1082.99
819.42	1085.63
819.74	1085.35
820.06	1083.62
820.38	1083.83
820.70	1085.42
821.02	1085.77
821.34	1086.20
821.66	1084.67
821.98	1084.23
822.30	1083.74
822.62	1081.47
822.94	1078.92
823.26	1082.45
823.58	1085.12
823.90	1084.30
824.22	1080.02
824.54	1079.36
824.86	1076.08
825.18	1071.71
825.50	1074.35
825.81	1078.00
826.13	1077.70
826.45	1080.34
826.77	1081.40
827.09	1080.23
827.41	1076.30
827.73	1077.30
828.05	1075.17
828.36	1074.10
828.68	1075.52
829.00	1079.06
829.32	1077.91
829.64	1076.95
829.96	1078.47
830.28	1074.66
830.59	1072.15
830.91	1075.03
831.23	1072.60
831.55	1074.52
831.87	1077.93
832.19	1078.28
832.50	1078.92
832.82	1079.78
833.14	1078.78
833.46	1076.41
833.78	1077.25
834.09	1075.59
834.41	1076.30
834.73	1075.69
835.05	1075.83
835.36	1076.53
835.68	1078.03
836.00	1077.28
836.32	1077.56
836.63	1078.24
836.95	1077.44
837.27	1073.98
837.59	1074.63
837.90	1073.74
838.22	1073.04
838.54	1076.11
838.85	1077.30
839.17	1079.29
839.49	1079.08
839.80	1079.08
840.12	1075.22
840.44	1076.81
840.76	1077.84
841.07	1078.33
841.39	1079.60
841.71	1079.22
842.02	1078.99
842.34	1078.38
842.65	1077.89
842.97	1073.70
843.29	1072.97
843.60	1073.67
843.92	1070.91
844.24	1073.81
844.55	1075.38
844.87	1076.93
845.18	1076.55
845.50	1078.38
845.82	1074.87
846.13	1074.80
846.45	1076.01
846.76	1077.14
847.08	1077.61
847.40	1078.07
847.71	1081.00
848.03	1081.98
848.34	1081.42
848.66	1083.43
848.97	1085.45
849.29	1088.14
849.60	1086.78
849.92	1086.43
850.24	1083.34
850.55	1085.52
850.87	1079.99
851.18	1078.80
851.50	1077.96
851.81	1076.18
852.13	1073.42
852.44	1076.72
852.76	1078.66
853.07	1080.56
853.39	1082.80
853.70	1079.85
854.01	1077.56
854.33	1077.51
854.64	1072.83
854.96	1076.81
855.27	1079.29
855.59	1080.32
855.90	1078.89
856.22	1078.31
856.53	1074.96
856.84	1074.19
857.16	1076.55
857.47	1077.42
857.79	1080.13
858.10	1078.50
858.41	1079.90
858.73	1078.12
859.04	1075.31
859.36	1076.69
859.67	1079.53
859.98	1073.81
860.30	1072.64
860.61	1074.45
860.92	1073.02
861.24	1072.46
861.55	1077.07
861.87	1077.42
862.18	1077.77
862.49	1077.72
862.81	1076.62
863.12	1078.17
863.43	1080.11
863.74	1078.82
864.06	1077.72
864.37	1078.40
864.68	1077.75
865.00	1074.80
865.31	1077.21
865.62	1076.08
865.94	1075.92
866.25	1078.00
866.56	1078.64
866.87	1078.38
867.19	1080.63
867.50	1081.14
867.81	1079.06
868.12	1079.67
868.44	1078.82
868.75	1080.44
869.06	1080.13
869.37	1078.45
869.68	1076.37
870.00	1077.04
870.31	1072.88
870.62	1074.80
870.93	1077.00
871.24	1079.31
871.56	1079.08
871.87	1082.85
872.18	1081.68
872.49	1083.01
872.80	1083.90
873.12	1084.86
873.43	1084.67
873.74	1084.91
874.05	1081.87
874.36	1077.65
874.67	1076.30
874.98	1075.90
875.29	1075.48
875.61	1076.37
875.92	1081.91
876.23	1082.24
876.54	1082.36
876.85	1082.45
877.16	1081.68
877.47	1078.89
877.78	1078.10
878.09	1075.69
878.40	1074.59
878.72	1075.36
879.03	1074.17
879.34	1076.62
879.65	1078.87
879.96	1080.48
880.27	1081.91
880.58	1083.29
880.89	1081.14
881.20	1082.66
881.51	1080.67
881.82	1079.60
882.13	1081.02
882.44	1080.95
882.75	1076.86
883.06	1078.24
883.37	1076.65
883.68	1076.20
883.99	1078.21
884.30	1080.88
884.61	1079.95
884.92	1082.47
885.23	1078.92
885.54	1079.08
885.85	1081.56
886.16	1083.32
886.47	1079.64
886.78	1079.85
887.08	1078.57
887.39	1076.48
887.70	1075.55
888.01	1076.74
888.32	1080.51
888.63	1082.26
888.94	1082.92
889.25	1082.19
889.56	1085.10
889.87	1084.96
890.17	1085.31
890.48	1086.17
890.79	1085.89
891.10	1085.68
891.41	1082.17
891.72	1079.88
892.03	1076.23
892.34	1075.24
892.64	1073.21
892.95	1074.75
893.26	1074.94
893.57	1079.38
893.88	1079.78
894.18	1078.17
894.49	1078.96
894.80	1078.12
895.11	1076.13
895.42	1077.40
895.72	1080.23
896.03	1078.38
896.34	1076.51
896.65	1072.57
896.96	1072.15
897.26	1070.44
897.57	1073.35
897.88	1075.24
898.19	1077.98
898.49	1079.03
898.80	1078.96
899.11	1080.63
899.41	1079.46
899.72	1079.29
900.03	1077.28
900.34	1077.86
900.64	1074.63
900.95	1075.64
901.26	1076.39
901.56	1078.33
901.87	1079.03
902.18	1078.99
902.48	1078.40
902.79	1077.65
903.10	1075.85
903.40	1073.25
903.71	1072.08
904.02	1073.02
904.32	1071.50
904.63	1071.75
904.94	1073.11
905.24	1073.02
905.55	1074.19
905.85	1074.80
906.16	1072.57
906.47	1074.33
906.77	1075.17
907.08	1075.05
907.38	1074.21
907.69	1077.49
908.00	1077.93
908.30	1080.51
908.61	1076.74
908.91	1081.54
909.22	1082.43
909.52	1081.35
909.83	1081.68
910.14	1085.05
910.44	1082.83
910.75	1080.70
911.05	1080.20
911.36	1077.14
911.66	1076.25
911.97	1079.15
912.27	1080.65
912.58	1079.78
912.88	1078.19
913.19	1078.26
913.49	1074.49
913.80	1072.43
914.10	1074.70
914.41	1077.37
914.71	1077.35
915.01	1078.03
915.32	1080.25
915.62	1077.82
915.93	1079.50
916.23	1079.41
916.54	1079.97
916.84	1079.88
917.15	1080.77
917.45	1081.75
917.75	1082.87
918.06	1081.77
918.36	1082.10
918.67	1081.40
918.97	1077.04
919.27	1074.54
919.58	1074.98
919.88	1074.66
920.18	1075.71
920.49	1076.88
920.79	1077.89
921.10	1078.36
921.40	1078.94
921.70	1077.91
922.01	1081.77
922.31	1080.77
922.61	1080.13
922.92	1077.30
923.22	1078.89
923.52	1076.51
923.82	1079.50
924.13	1079.43
924.43	1081.82
924.73	1081.16
925.04	1081.44
925.34	1079.78
925.64	1080.77
925.94	1077.86
926.25	1079.48
926.55	1075.80
926.85	1076.39
927.15	1074.33
927.46	1078.59
927.76	1076.62
928.06	1077.82
928.36	1076.04
928.67	1078.33
928.97	1073.35
929.27	1073.58
929.57	1074.91
929.87	1078.66
930.18	1076.69
930.48	1081.56
930.78	1082.52
931.08	1081.30
931.38	1079.31
931.69	1081.33
931.99	1079.85
932.29	1079.50
932.59	1077.33
932.89	1076.81
933.19	1074.24
933.49	1075.34
933.80	1077.79
934.10	1080.79
934.40	1080.02
934.70	1080.91
935.00	1078.61
935.30	1077.42
935.60	1078.89
935.90	1079.74
936.20	1081.35
936.50	1084.32
936.81	1081.75
937.11	1079.27
937.41	1080.27
937.71	1078.19
938.01	1077.09
938.31	1079.27
938.61	1080.67
938.91	1080.41
939.21	1076.79
939.51	1077.49
939.81	1076.72
940.11	1075.52
940.41	1074.94
940.71	1078.82
941.01	1075.31
941.31	1076.06
941.61	1076.53
941.91	1076.55
942.21	1077.04
942.51	1079.38
942.81	1078.36
943.11	1078.68
943.41	1078.28
943.71	1079.97
944.01	1078.89
944.31	1076.88
944.61	1073.88
944.90	1074.14
945.20	1072.53
945.50	1073.11
945.80	1073.53
946.10	1077.30
946.40	1075.55
946.70	1074.28
947.00	1072.39
947.30	1072.90
947.60	1072.04
947.89	1075.52
948.19	1074.40
948.49	1075.50
948.79	1076.44
949.09	1078.89
949.39	1075.31
949.69	1079.55
949.98	1079.85
950.28	1077.56
950.58	1074.70
950.88	1076.79
951.18	1074.68
951.48	1073.25
951.77	1075.05
952.07	1076.08
952.37	1075.41
952.67	1076.93
952.97	1079.99
953.26	1079.03
953.56	1079.46
953.86	1080.02
954.16	1081.96
954.45	1080.81
954.75	1082.29
955.05	1080.91
955.35	1080.77
955.64	1077.40
955.94	1078.57
956.24	1077.98
956.54	1077.58
956.83	1079.62
957.13	1080.18
957.43	1074.66
957.72	1074.40
958.02	1076.74
958.32	1075.76
958.61	1077.09
958.91	1082.50
959.21	1085.63
959.50	1086.85
959.80	1084.77
960.10	1081.14
960.39	1080.30
960.69	1078.64
960.99	1074.19
961.28	1074.68
961.58	1074.91
961.87	1072.83
962.17	1071.73
962.47	1070.05
962.76	1072.18
963.06	1076.37
963.36	1077.09
963.65	1077.04
963.95	1082.66
964.24	1081.91
964.54	1079.69
964.83	1080.46
965.13	1076.18
965.42	1072.88
965.72	1075.85
966.02	1075.73
966.31	1071.38
966.61	1076.04
966.90	1077.70
967.20	1075.71
967.49	1076.76
967.79	1077.79
968.08	1076.76
968.38	1077.09
968.67	1076.90
968.97	1075.13
969.26	1076.53
969.56	1075.08
969.85	1075.34
970.15	1072.81
970.44	1074.98
970.74	1076.46
971.03	1077.93
971.32	1076.20
971.62	1078.45
971.91	1075.24
972.21	1074.70
972.50	1075.71
972.80	1078.21
973.09	1078.52
973.38	1081.80
973.68	1082.03
973.97	1079.69
974.27	1076.58
974.56	1074.59
974.85	1073.60
975.15	1074.87
975.44	1076.58
975.73	1076.25
976.03	1076.18
976.32	1075.45
976.61	1075.27
976.91	1071.38
977.20	1072.32
977.49	1072.27
977.79	1072.50
978.08	1071.01
978.37	1079.50
978.67	1079.08
978.96	1077.51
979.25	1074.91
979.55	1076.53
979.84	1073.02
980.13	1076.55
980.42	1077.84
980.72	1077.98
981.01	1075.31
981.30	1073.60
981.59	1069.77
981.89	1068.74
982.18	1070.19
982.47	1072.32
982.76	1072.62
983.06	1073.23
983.35	1073.74
983.64	1074.26
983.93	1075.97
984.22	1077.93
984.52	1078.40
984.81	1078.50
985.10	1077.02
985.39	1075.69
985.68	1072.81
985.97	1072.71
986.27	1075.80
986.56	1077.89
986.85	1078.24
987.14	1077.58
987.43	1076.30
987.72	1074.75
988.01	1074.70
988.31	1074.14
988.60	1076.34
988.89	1081.66
989.18	1079.57
989.47	1081.23
989.76	1077.89
990.05	1077.04
990.34	1074.49
990.63	1076.79
990.92	1077.00
991.21	1078.61
991.51	1078.66
991.80	1078.40
992.09	1076.93
992.38	1073.95
992.67	1076.74
992.96	1079.67
993.25	1081.42
993.54	1084.25
993.83	1083.53
994.12	1080.16
994.41	1077.40
994.70	1075.20
994.99	1069.44
995.28	1070.70
995.57	1074.56
995.86	1076.60
996.15	1076.90
996.44	1079.20
996.73	1078.36
997.02	1074.47
997.31	1071.59
997.59	1069.84
997.88	1074.28
998.17	1075.69
998.46	1076.41
998.75	1077.23
999.04	1078.14
999.33	1078.38
999.62	1075.59
999.91	1078.47
1000.20	1083.11
1000.49	1081.66
1000.77	1078.54
1001.06	1081.30
1001.35	1080.02
1001.64	1073.77
1001.93	1076.53
1002.22	1076.86
1002.51	1077.86
1002.79	1079.67
1003.08	1082.83
1003.37	1079.95
1003.66	1082.64
1003.95	1079.78
1004.23	1076.44
1004.52	1076.34
1004.81	1076.34
1005.10	1075.10
1005.39	1076.37
1005.67	1073.67
1005.96	1071.15
1006.25	1073.49
1006.54	1070.16
1006.83	1072.60
1007.11	1075.97
1007.40	1079.92
1007.69	1078.85
1007.97	1081.91
1008.26	1081.23
1008.55	1083.13
1008.84	1080.04
1009.12	1078.87
1009.41	1078.28
1009.70	1081.21
1009.98	1080.44
1010.27	1079.90
1010.56	1082.40
1010.85	1082.12
1011.13	1078.31
1011.42	1078.59
1011.71	1079.27
1011.99	1077.54
1012.28	1078.26
1012.56	1076.15
1012.85	1075.90
1013.14	1078.80
1013.42	1077.30
1013.71	1074.56
1014.00	1076.48
1014.28	1077.04
1014.57	1074.96
1014.85	1075.90
1015.14	1078.87
1015.43	1079.13
1015.71	1080.20
1016.00	1080.11
1016.28	1079.29
1016.57	1077.11
1016.85	1076.30
1017.14	1075.62
1017.43	1073.60
1017.71	1074.21
1018.00	1075.17
1018.28	1076.15
1018.57	1073.00
1018.85	1075.45
1019.14	1078.19
1019.42	1078.96
1019.71	1078.19
1019.99	1078.80
1020.28	1077.84
1020.56	1076.37
1020.85	1073.42
1021.13	1073.35
1021.42	1074.10
1021.70	1074.10
1021.99	1076.46
1022.27	1076.41
1022.55	1088.23
1022.84	1067.05
>>>>>End Processed Spectral Data<<<<<
