SpectraSuite Data File
++++++++++++++++++++++++++++++++++++
Date: Mon Aug 26 10:21:49 PDT 2019
User: corrico
Dark Spectrum Present: No
Reference Spectrum Present: No
Number of Sampled Component Spectra: 1
Spectrometers: USB2+H06089
Integration Time (usec): 2000 (USB2+H06089)
Spectra Averaged: 20 (USB2+H06089)
Boxcar Smoothing: 2 (USB2+H06089)
Correct for Electrical Dark: No (USB2+H06089)
Strobe/Lamp Enabled: No (USB2+H06089)
Correct for Detector Non-linearity: No (USB2+H06089)
Correct for Stray Light: No (USB2+H06089)
Number of Pixels in Processed Spectrum: 2048
>>>>>Begin Processed Spectral Data<<<<<
339.70	1017.08
340.07	1017.08
340.45	983.91
340.82	962.73
341.19	939.98
341.57	918.22
341.94	907.38
342.31	904.59
342.69	900.10
343.06	898.20
343.43	895.72
343.81	897.03
344.18	897.29
344.55	900.57
344.93	908.17
345.30	915.10
345.67	920.84
346.04	926.43
346.42	934.74
346.79	941.27
347.16	950.49
347.54	961.00
347.91	973.66
348.28	984.73
348.65	995.31
349.03	1002.55
349.40	1012.26
349.77	1016.94
350.14	1023.19
350.52	1027.47
350.89	1037.16
351.26	1039.99
351.63	1046.38
352.01	1054.62
352.38	1060.29
352.75	1060.92
353.12	1064.26
353.50	1067.52
353.87	1070.33
354.24	1073.84
354.61	1072.88
354.98	1076.86
355.36	1076.48
355.73	1075.97
356.10	1074.66
356.47	1078.19
356.84	1076.62
357.22	1077.18
357.59	1076.76
357.96	1075.83
358.33	1077.07
358.70	1078.33
359.08	1077.33
359.45	1075.08
359.82	1075.99
360.19	1073.28
360.56	1070.96
360.94	1072.11
361.31	1075.08
361.68	1076.13
362.05	1078.17
362.42	1080.39
362.79	1077.75
363.16	1075.03
363.54	1072.22
363.91	1069.81
364.28	1067.78
364.65	1069.02
365.02	1066.39
365.39	1065.48
365.76	1067.54
366.14	1067.14
366.51	1066.89
366.88	1066.56
367.25	1065.79
367.62	1065.25
367.99	1066.18
368.36	1068.55
368.73	1070.28
369.10	1070.40
369.48	1071.15
369.85	1071.38
370.22	1068.92
370.59	1070.07
370.96	1072.34
371.33	1069.88
371.70	1069.91
372.07	1067.10
372.44	1066.96
372.81	1063.19
373.18	1064.59
373.55	1064.22
373.93	1069.04
374.30	1069.55
374.67	1073.77
375.04	1073.81
375.41	1075.66
375.78	1077.44
376.15	1075.83
376.52	1074.70
376.89	1071.03
377.26	1066.89
377.63	1065.20
378.00	1065.65
378.37	1065.44
378.74	1070.89
379.11	1075.27
379.48	1073.09
379.85	1076.04
380.22	1078.78
380.59	1074.96
380.96	1075.45
381.33	1077.77
381.70	1073.88
382.07	1071.50
382.44	1072.08
382.81	1069.98
383.18	1070.49
383.55	1073.84
383.92	1073.09
384.29	1076.86
384.66	1078.21
385.03	1077.84
385.40	1075.36
385.77	1077.37
386.14	1075.10
386.51	1069.34
386.88	1069.60
387.25	1070.19
387.62	1067.73
387.99	1065.97
388.36	1070.07
388.73	1070.05
389.10	1071.24
389.46	1072.62
389.83	1074.14
390.20	1075.17
390.57	1074.14
390.94	1073.07
391.31	1074.45
391.68	1076.62
392.05	1077.42
392.42	1077.84
392.79	1078.14
393.16	1077.09
393.53	1074.82
393.89	1076.76
394.26	1075.41
394.63	1076.23
395.00	1078.33
395.37	1078.87
395.74	1078.21
396.11	1082.97
396.48	1083.55
396.84	1083.50
397.21	1080.91
397.58	1078.71
397.95	1078.82
398.32	1078.61
398.69	1078.14
399.06	1081.28
399.42	1079.99
399.79	1075.87
400.16	1074.42
400.53	1075.31
400.90	1074.47
401.27	1080.27
401.64	1086.87
402.00	1087.72
402.37	1087.02
402.74	1090.55
403.11	1088.12
403.48	1082.99
403.84	1085.24
404.21	1086.71
404.58	1085.59
404.95	1086.90
405.32	1088.04
405.68	1086.62
406.05	1085.26
406.42	1082.99
406.79	1082.43
407.16	1080.48
407.52	1078.26
407.89	1078.73
408.26	1081.16
408.63	1081.98
408.99	1083.39
409.36	1085.21
409.73	1083.55
410.10	1083.29
410.47	1082.66
410.83	1080.20
411.20	1080.51
411.57	1085.12
411.94	1085.66
412.30	1085.14
412.67	1085.19
413.04	1090.64
413.40	1088.72
413.77	1089.47
414.14	1086.76
414.51	1088.70
414.87	1084.16
415.24	1082.15
415.61	1082.54
415.97	1083.79
416.34	1082.03
416.71	1083.29
417.08	1085.28
417.44	1084.46
417.81	1084.35
418.18	1089.36
418.54	1086.92
418.91	1089.92
419.28	1089.47
419.64	1091.77
420.01	1089.29
420.38	1091.42
420.74	1088.07
421.11	1089.19
421.48	1089.29
421.84	1092.35
422.21	1095.98
422.58	1099.02
422.94	1101.34
423.31	1104.78
423.68	1105.48
424.04	1108.97
424.41	1109.37
424.77	1109.48
425.14	1110.09
425.51	1111.08
425.87	1109.98
426.24	1113.18
426.61	1116.90
426.97	1118.82
427.34	1122.54
427.70	1124.30
428.07	1127.74
428.44	1130.01
428.80	1136.82
429.17	1141.83
429.53	1145.86
429.90	1149.27
430.27	1155.15
430.63	1158.07
431.00	1162.64
431.36	1171.58
431.73	1179.91
432.09	1188.69
432.46	1195.92
432.83	1203.92
433.19	1210.99
433.56	1219.63
433.92	1229.16
434.29	1239.38
434.65	1252.58
435.02	1263.19
435.38	1277.00
435.75	1289.94
436.11	1304.61
436.48	1320.83
436.84	1338.29
437.21	1358.00
437.57	1379.18
437.94	1404.93
438.30	1429.90
438.67	1452.33
439.03	1476.64
439.40	1503.86
439.76	1530.15
440.13	1558.56
440.49	1596.41
440.86	1626.93
441.22	1665.83
441.59	1702.32
441.95	1743.63
442.32	1789.29
442.68	1844.55
443.05	1890.33
443.41	1942.53
443.78	1995.85
444.14	2048.11
444.51	2106.67
444.87	2179.46
445.24	2257.24
445.60	2341.05
445.96	2424.84
446.33	2517.11
446.69	2600.92
447.06	2690.35
447.42	2784.07
447.79	2891.31
448.15	3000.54
448.51	3119.58
448.88	3262.99
449.24	3398.50
449.61	3549.77
449.97	3694.00
450.33	3854.14
450.70	3987.41
451.06	4157.80
451.43	4303.82
451.79	4487.28
452.15	4683.22
452.52	4906.28
452.88	5137.66
453.24	5409.14
453.61	5706.62
453.97	6002.00
454.34	6299.79
454.70	6628.87
455.06	6962.46
455.43	7290.25
455.79	7601.66
456.15	7973.92
456.52	8329.45
456.88	8748.83
457.24	9137.05
457.61	9592.40
457.97	10002.09
458.33	10409.56
458.70	10796.33
459.06	11172.80
459.42	11577.41
459.79	11954.52
460.15	12407.62
460.51	12832.97
460.88	13310.42
461.24	13740.98
461.60	14226.76
461.96	14661.42
462.33	15105.86
462.69	15572.59
463.05	16079.18
463.42	16579.14
463.78	17036.38
464.14	17409.63
464.50	17784.26
464.87	18081.27
465.23	18249.39
465.59	18429.52
465.95	18592.79
466.32	18693.44
466.68	18783.90
467.04	18871.97
467.40	18960.07
467.77	19043.61
468.13	19025.77
468.49	18915.13
468.85	18792.54
469.22	18636.16
469.58	18406.23
469.94	18248.10
470.30	18102.01
470.66	17956.61
471.03	17735.34
471.39	17614.57
471.75	17340.35
472.11	17113.22
472.47	16985.41
472.84	16853.75
473.20	16666.14
473.56	16619.32
473.92	16419.91
474.28	16140.80
474.65	15845.31
475.01	15495.35
475.37	15034.43
475.73	14639.89
476.09	14207.26
476.45	13811.78
476.81	13459.11
477.18	13144.73
477.54	12921.07
477.90	12773.10
478.26	12562.85
478.62	12388.34
478.98	12245.82
479.34	12092.94
479.71	11884.91
480.07	11711.83
480.43	11528.50
480.79	11343.90
481.15	11162.06
481.51	10979.97
481.87	10838.74
482.23	10696.32
482.59	10569.77
482.96	10420.35
483.32	10302.10
483.68	10146.34
484.04	10022.95
484.40	9866.27
484.76	9724.90
485.12	9561.77
485.48	9424.85
485.84	9225.62
486.20	9049.59
486.56	8842.33
486.92	8658.79
487.28	8450.90
487.64	8255.80
488.00	8064.18
488.37	7874.40
488.73	7671.62
489.09	7465.51
489.45	7283.02
489.81	7108.58
490.17	6947.20
490.53	6810.82
490.89	6675.02
491.25	6530.33
491.61	6374.21
491.97	6217.24
492.33	6040.29
492.69	5884.20
493.05	5735.25
493.41	5578.53
493.77	5419.28
494.13	5277.63
494.49	5127.22
494.85	4990.21
495.21	4861.04
495.57	4739.87
495.93	4617.62
496.29	4506.30
496.64	4405.38
497.00	4307.59
497.36	4210.20
497.72	4117.75
498.08	4031.69
498.44	3933.25
498.80	3845.27
499.16	3770.72
499.52	3694.37
499.88	3635.55
500.24	3586.52
500.60	3521.24
500.96	3462.54
501.32	3400.12
501.68	3323.37
502.03	3242.44
502.39	3183.18
502.75	3111.20
503.11	3051.54
503.47	2996.85
503.83	2945.26
504.19	2879.84
504.55	2821.38
504.91	2758.25
505.26	2692.90
505.62	2632.68
505.98	2581.24
506.34	2532.06
506.70	2482.65
507.06	2439.73
507.42	2393.17
507.78	2352.50
508.13	2312.31
508.49	2271.84
508.85	2236.78
509.21	2199.35
509.57	2161.79
509.93	2122.98
510.28	2084.60
510.64	2041.30
511.00	2002.77
511.36	1969.56
511.72	1939.16
512.07	1912.10
512.43	1889.47
512.79	1872.48
513.15	1851.97
513.51	1830.16
513.86	1810.50
514.22	1790.35
514.58	1765.12
514.94	1744.42
515.30	1729.33
515.65	1714.82
516.01	1694.20
516.37	1677.63
516.73	1661.62
517.08	1641.84
517.44	1620.17
517.80	1604.53
518.16	1586.60
518.51	1568.79
518.87	1552.62
519.23	1537.87
519.59	1523.69
519.94	1509.53
520.30	1496.30
520.66	1486.52
521.01	1474.51
521.37	1466.02
521.73	1458.39
522.09	1446.61
522.44	1432.31
522.80	1423.77
523.16	1407.67
523.51	1395.10
523.87	1384.45
524.23	1375.06
524.58	1362.07
524.94	1357.49
525.30	1349.44
525.65	1340.75
526.01	1335.23
526.37	1330.15
526.72	1320.62
527.08	1312.64
527.44	1304.24
527.79	1297.17
528.15	1289.52
528.51	1281.77
528.86	1275.17
529.22	1270.79
529.58	1261.03
529.93	1255.28
530.29	1253.50
530.65	1250.36
531.00	1242.08
531.36	1238.96
531.71	1228.99
532.07	1221.69
532.43	1214.18
532.78	1209.57
533.14	1202.82
533.49	1202.26
533.85	1200.11
534.21	1197.42
534.56	1196.53
534.92	1193.72
535.27	1190.02
535.63	1183.80
535.98	1181.17
536.34	1180.22
536.69	1177.78
537.05	1177.17
537.41	1176.03
537.76	1172.00
538.12	1169.50
538.47	1165.98
538.83	1163.57
539.18	1160.51
539.54	1158.14
539.89	1156.18
540.25	1155.90
540.60	1152.32
540.96	1152.48
541.31	1149.65
541.67	1150.61
542.02	1151.19
542.38	1149.09
542.73	1143.91
543.09	1146.35
543.44	1142.70
543.80	1138.04
544.15	1135.39
544.51	1133.87
544.86	1130.06
545.22	1124.88
545.57	1125.87
545.93	1126.76
546.28	1127.97
546.64	1127.55
546.99	1128.54
547.35	1126.13
547.70	1124.65
548.05	1124.65
548.41	1123.90
548.76	1121.68
549.12	1119.50
549.47	1118.82
549.83	1117.77
550.18	1116.51
550.53	1114.89
550.89	1115.12
551.24	1116.97
551.60	1115.57
551.95	1115.31
552.30	1115.31
552.66	1113.49
553.01	1108.27
553.37	1105.46
553.72	1102.32
554.07	1103.19
554.43	1103.77
554.78	1104.78
555.13	1106.28
555.49	1106.84
555.84	1107.00
556.19	1104.71
556.55	1102.77
556.90	1100.78
557.26	1100.15
557.61	1097.22
557.96	1096.47
558.32	1096.61
558.67	1094.79
559.02	1094.97
559.37	1091.16
559.73	1094.65
560.08	1094.86
560.43	1095.70
560.79	1095.28
561.14	1100.33
561.49	1094.67
561.85	1093.33
562.20	1093.50
562.55	1094.39
562.90	1089.40
563.26	1094.41
563.61	1094.55
563.96	1093.92
564.32	1092.02
564.67	1091.77
565.02	1087.76
565.37	1087.62
565.73	1089.26
566.08	1088.28
566.43	1090.55
566.78	1091.11
567.14	1091.77
567.49	1090.50
567.84	1089.57
568.19	1089.64
568.54	1089.00
568.90	1087.86
569.25	1087.88
569.60	1091.06
569.95	1093.45
570.31	1095.93
570.66	1095.25
571.01	1095.67
571.36	1093.87
571.71	1093.31
572.06	1088.49
572.42	1089.52
572.77	1088.04
573.12	1087.86
573.47	1086.87
573.82	1090.10
574.18	1089.03
574.53	1085.61
574.88	1085.89
575.23	1084.21
575.58	1082.97
575.93	1084.00
576.28	1086.97
576.64	1086.64
576.99	1088.35
577.34	1088.51
577.69	1088.93
578.04	1089.33
578.39	1087.30
578.74	1084.42
579.09	1084.58
579.44	1085.66
579.80	1083.06
580.15	1085.94
580.50	1085.63
580.85	1083.60
581.20	1082.36
581.55	1082.45
581.90	1083.06
582.25	1086.48
582.60	1086.22
582.95	1086.31
583.30	1088.26
583.65	1082.40
584.00	1077.98
584.35	1080.79
584.71	1079.43
585.06	1079.76
585.41	1080.88
585.76	1084.42
586.11	1084.23
586.46	1085.84
586.81	1085.00
587.16	1086.17
587.51	1083.76
587.86	1085.28
588.21	1086.10
588.56	1083.41
588.91	1085.75
589.26	1088.47
589.61	1087.25
589.96	1084.25
590.31	1086.34
590.66	1085.14
591.01	1084.74
591.36	1082.47
591.71	1083.20
592.06	1083.18
592.41	1085.45
592.76	1085.21
593.10	1085.99
593.45	1086.78
593.80	1087.65
594.15	1086.38
594.50	1085.94
594.85	1087.39
595.20	1083.32
595.55	1082.61
595.90	1081.19
596.25	1079.13
596.60	1079.50
596.95	1078.96
597.30	1080.39
597.64	1090.67
597.99	1093.31
598.34	1090.57
598.69	1095.79
599.04	1095.07
599.39	1083.36
599.74	1081.30
600.09	1082.43
600.44	1081.80
600.78	1081.77
601.13	1082.99
601.48	1085.52
601.83	1086.13
602.18	1084.28
602.53	1083.83
602.88	1083.90
603.22	1079.95
603.57	1077.49
603.92	1075.90
604.27	1075.08
604.62	1074.28
604.97	1075.52
605.31	1076.27
605.66	1075.73
606.01	1074.59
606.36	1072.41
606.71	1071.94
607.05	1072.83
607.40	1075.66
607.75	1077.61
608.10	1079.01
608.44	1078.78
608.79	1081.94
609.14	1082.24
609.49	1080.48
609.84	1084.81
610.18	1087.13
610.53	1084.39
610.88	1085.00
611.23	1087.32
611.57	1083.41
611.92	1082.66
612.27	1080.58
612.62	1079.92
612.96	1081.33
613.31	1081.73
613.66	1079.57
614.00	1082.05
614.35	1080.39
614.70	1074.61
615.05	1075.05
615.39	1078.00
615.74	1076.37
616.09	1076.95
616.43	1082.08
616.78	1083.86
617.13	1085.38
617.47	1086.27
617.82	1085.84
618.17	1084.14
618.51	1081.00
618.86	1078.05
619.21	1077.84
619.55	1077.79
619.90	1080.13
620.25	1081.14
620.59	1078.40
620.94	1079.48
621.29	1082.57
621.63	1078.38
621.98	1080.13
622.32	1085.84
622.67	1084.56
623.02	1081.96
623.36	1084.32
623.71	1083.60
624.05	1078.64
624.40	1073.51
624.75	1070.84
625.09	1072.15
625.44	1072.95
625.78	1073.60
626.13	1076.72
626.48	1078.21
626.82	1076.23
627.17	1073.77
627.51	1073.95
627.86	1077.11
628.20	1076.18
628.55	1073.74
628.89	1074.82
629.24	1075.50
629.58	1073.04
629.93	1075.24
630.28	1079.43
630.62	1078.28
630.97	1073.44
631.31	1076.48
631.66	1073.91
632.00	1070.61
632.35	1071.78
632.69	1077.14
633.04	1075.34
633.38	1076.25
633.73	1076.13
634.07	1074.68
634.42	1076.23
634.76	1073.84
635.11	1072.62
635.45	1071.43
635.79	1071.94
636.14	1071.10
636.48	1074.63
636.83	1076.53
637.17	1078.85
637.52	1081.12
637.86	1079.13
638.21	1079.20
638.55	1079.76
638.89	1082.43
639.24	1080.56
639.58	1083.62
639.93	1080.93
640.27	1080.77
640.61	1079.53
640.96	1080.11
641.30	1078.82
641.65	1077.93
641.99	1078.28
642.33	1078.75
642.68	1077.89
643.02	1075.22
643.37	1075.27
643.71	1073.74
644.05	1070.35
644.40	1070.49
644.74	1071.54
645.08	1076.86
645.43	1081.35
645.77	1084.14
646.11	1082.66
646.46	1084.46
646.80	1079.34
647.14	1076.55
647.49	1075.71
647.83	1078.21
648.17	1077.89
648.52	1077.65
648.86	1079.64
649.20	1080.81
649.55	1079.74
649.89	1080.74
650.23	1084.11
650.57	1083.95
650.92	1083.46
651.26	1084.32
651.60	1082.90
651.95	1078.05
652.29	1078.78
652.63	1077.72
652.97	1076.27
653.32	1077.56
653.66	1080.79
654.00	1081.28
654.34	1083.90
654.69	1084.14
655.03	1079.50
655.37	1078.45
655.71	1076.46
656.05	1074.05
656.40	1072.88
656.74	1078.10
657.08	1079.60
657.42	1077.07
657.76	1075.99
658.11	1076.72
658.45	1076.39
658.79	1075.69
659.13	1075.48
659.47	1078.17
659.82	1080.41
660.16	1079.48
660.50	1078.75
660.84	1077.93
661.18	1076.06
661.52	1076.86
661.87	1075.66
662.21	1076.32
662.55	1082.64
662.89	1085.26
663.23	1084.56
663.57	1083.53
663.91	1082.73
664.25	1078.10
664.60	1074.96
664.94	1075.83
665.28	1076.23
665.62	1077.79
665.96	1077.98
666.30	1079.67
666.64	1076.90
666.98	1078.40
667.32	1079.57
667.66	1078.80
668.01	1075.66
668.35	1075.50
668.69	1073.07
669.03	1071.59
669.37	1073.98
669.71	1077.93
670.05	1078.07
670.39	1080.58
670.73	1079.29
671.07	1077.63
671.41	1077.75
671.75	1077.11
672.09	1077.35
672.43	1077.98
672.77	1082.54
673.11	1081.09
673.45	1082.19
673.79	1082.66
674.13	1084.72
674.47	1084.63
674.81	1082.66
675.15	1083.53
675.49	1083.90
675.83	1084.72
676.17	1080.77
676.51	1083.46
676.85	1082.17
677.19	1077.98
677.53	1071.92
677.87	1070.12
678.21	1071.85
678.55	1074.42
678.89	1078.85
679.23	1081.91
679.57	1083.27
679.90	1080.16
680.24	1079.60
680.58	1079.06
680.92	1080.41
681.26	1080.32
681.60	1079.74
681.94	1079.36
682.28	1079.34
682.62	1077.00
682.96	1079.60
683.29	1081.58
683.63	1080.98
683.97	1078.75
684.31	1080.48
684.65	1079.69
684.99	1080.13
685.33	1077.56
685.67	1078.03
686.00	1078.10
686.34	1077.93
686.68	1075.90
687.02	1076.97
687.36	1075.94
687.70	1074.07
688.03	1075.64
688.37	1077.54
688.71	1075.73
689.05	1077.93
689.39	1075.27
689.72	1072.85
690.06	1072.08
690.40	1076.15
690.74	1072.74
691.08	1076.44
691.41	1075.48
691.75	1073.09
692.09	1070.75
692.43	1075.48
692.76	1076.67
693.10	1076.72
693.44	1076.44
693.78	1080.32
694.11	1076.97
694.45	1074.73
694.79	1075.57
695.13	1080.25
695.46	1076.72
695.80	1079.83
696.14	1081.30
696.48	1081.58
696.81	1077.63
697.15	1076.04
697.49	1073.86
697.82	1076.04
698.16	1076.83
698.50	1078.26
698.83	1080.70
699.17	1080.93
699.51	1077.49
699.84	1075.90
700.18	1075.64
700.52	1075.85
700.85	1075.92
701.19	1078.05
701.53	1076.93
701.86	1077.70
702.20	1077.30
702.54	1078.45
702.87	1079.17
703.21	1081.82
703.55	1081.42
703.88	1081.40
704.22	1082.36
704.55	1082.78
704.89	1080.86
705.23	1080.93
705.56	1080.20
705.90	1076.37
706.23	1074.38
706.57	1072.92
706.91	1074.42
707.24	1075.48
707.58	1077.89
707.91	1079.85
708.25	1082.97
708.58	1081.00
708.92	1081.05
709.26	1081.68
709.59	1081.70
709.93	1080.88
710.26	1082.52
710.60	1083.48
710.93	1084.16
711.27	1081.89
711.60	1080.93
711.94	1075.83
712.27	1074.70
712.61	1070.44
712.94	1070.98
713.28	1070.68
713.61	1072.78
713.95	1072.81
714.28	1075.27
714.62	1077.07
714.95	1079.01
715.29	1080.60
715.62	1081.73
715.96	1079.15
716.29	1077.35
716.63	1075.38
716.96	1076.18
717.29	1072.64
717.63	1072.67
717.96	1074.07
718.30	1077.37
718.63	1079.17
718.97	1079.41
719.30	1083.76
719.63	1082.66
719.97	1078.75
720.30	1077.72
720.64	1081.42
720.97	1079.38
721.30	1079.27
721.64	1080.04
721.97	1080.95
722.31	1079.53
722.64	1077.72
722.97	1076.32
723.31	1079.43
723.64	1078.36
723.97	1078.12
724.31	1081.26
724.64	1080.95
724.98	1075.05
725.31	1074.61
725.64	1077.02
725.98	1078.21
726.31	1078.28
726.64	1081.84
726.97	1081.44
727.31	1079.74
727.64	1077.77
727.97	1077.77
728.31	1077.49
728.64	1074.66
728.97	1077.18
729.31	1076.93
729.64	1079.06
729.97	1078.61
730.30	1081.44
730.64	1076.90
730.97	1076.08
731.30	1074.77
731.63	1077.70
731.97	1075.01
732.30	1076.23
732.63	1077.86
732.96	1078.43
733.30	1077.30
733.63	1077.23
733.96	1073.56
734.29	1073.72
734.63	1073.25
734.96	1071.12
735.29	1070.37
735.62	1072.48
735.95	1070.75
736.29	1070.23
736.62	1070.14
736.95	1074.14
737.28	1072.88
737.61	1071.68
737.94	1073.44
738.28	1076.65
738.61	1074.26
738.94	1078.85
739.27	1078.17
739.60	1076.97
739.93	1077.54
740.27	1080.44
740.60	1081.68
740.93	1086.92
741.26	1086.27
741.59	1086.57
741.92	1085.82
742.25	1082.26
742.58	1079.48
742.91	1077.58
743.25	1074.56
743.58	1074.49
743.91	1076.32
744.24	1075.78
744.57	1079.17
744.90	1080.04
745.23	1080.16
745.56	1076.62
745.89	1078.68
746.22	1079.06
746.55	1080.65
746.88	1079.97
747.21	1081.75
747.54	1083.06
747.87	1080.25
748.20	1078.43
748.53	1076.83
748.87	1080.13
749.20	1077.63
749.53	1079.60
749.86	1079.69
750.19	1080.86
750.52	1078.14
750.85	1074.77
751.18	1073.02
751.51	1072.25
751.84	1073.74
752.16	1075.34
752.49	1079.76
752.82	1081.07
753.15	1081.05
753.48	1078.57
753.81	1075.08
754.14	1074.07
754.47	1077.47
754.80	1078.87
755.13	1081.23
755.46	1080.56
755.79	1081.12
756.12	1077.54
756.45	1078.73
756.78	1079.06
757.11	1079.03
757.43	1080.63
757.76	1080.67
758.09	1076.25
758.42	1075.24
758.75	1078.92
759.08	1077.70
759.41	1076.04
759.74	1077.91
760.07	1076.15
760.39	1076.60
760.72	1077.00
761.05	1078.17
761.38	1078.78
761.71	1079.24
762.04	1077.28
762.36	1071.87
762.69	1073.11
763.02	1072.50
763.35	1073.84
763.68	1075.20
764.01	1077.91
764.33	1075.87
764.66	1075.57
764.99	1075.01
765.32	1070.96
765.65	1072.22
765.97	1073.58
766.30	1074.05
766.63	1073.37
766.96	1073.23
767.28	1071.01
767.61	1068.92
767.94	1067.00
768.27	1067.66
768.59	1071.08
768.92	1071.71
769.25	1075.97
769.58	1080.70
769.90	1079.36
770.23	1079.85
770.56	1079.85
770.89	1078.00
771.21	1079.74
771.54	1079.71
771.87	1077.23
772.19	1078.54
772.52	1080.58
772.85	1078.19
773.17	1078.78
773.50	1079.43
773.83	1077.84
774.15	1075.57
774.48	1075.08
774.81	1074.56
775.13	1077.25
775.46	1077.37
775.79	1077.00
776.11	1074.28
776.44	1076.27
776.77	1075.05
777.09	1075.34
777.42	1076.15
777.74	1076.86
778.07	1075.38
778.40	1077.86
778.72	1076.95
779.05	1077.70
779.37	1076.41
779.70	1078.43
780.03	1072.88
780.35	1074.68
780.68	1074.14
781.00	1072.67
781.33	1071.19
781.65	1073.16
781.98	1073.72
782.31	1072.18
782.63	1076.46
782.96	1074.63
783.28	1077.44
783.61	1078.45
783.93	1082.31
784.26	1080.34
784.58	1080.06
784.91	1080.65
785.23	1078.89
785.56	1076.18
785.88	1078.26
786.21	1080.25
786.53	1076.18
786.86	1077.51
787.18	1075.90
787.51	1076.46
787.83	1078.52
788.16	1079.55
788.48	1079.97
788.81	1082.83
789.13	1082.19
789.46	1078.78
789.78	1078.87
790.10	1078.24
790.43	1076.46
790.75	1076.11
791.08	1080.04
791.40	1080.93
791.73	1080.25
792.05	1082.78
792.37	1082.36
792.70	1081.94
793.02	1079.46
793.35	1079.17
793.67	1075.71
793.99	1076.37
794.32	1072.60
794.64	1076.86
794.96	1076.34
795.29	1079.64
795.61	1079.34
795.93	1081.40
796.26	1079.76
796.58	1081.42
796.91	1080.18
797.23	1079.24
797.55	1078.50
797.87	1079.71
798.20	1079.78
798.52	1080.65
798.84	1083.15
799.17	1083.93
799.49	1081.05
799.81	1079.41
800.14	1077.98
800.46	1076.20
800.78	1074.26
801.10	1075.31
801.43	1074.10
801.75	1071.78
802.07	1072.39
802.40	1071.85
802.72	1070.51
803.04	1072.64
803.36	1073.72
803.69	1070.58
804.01	1069.65
804.33	1069.46
804.65	1070.33
804.97	1071.31
805.30	1073.25
805.62	1076.97
805.94	1078.71
806.26	1078.50
806.58	1078.38
806.91	1078.99
807.23	1079.27
807.55	1076.32
807.87	1075.38
808.19	1074.73
808.52	1071.54
808.84	1068.64
809.16	1074.91
809.48	1074.66
809.80	1075.80
810.12	1079.41
810.44	1084.58
810.77	1080.30
811.09	1080.41
811.41	1082.26
811.73	1081.49
812.05	1077.33
812.37	1079.27
812.69	1079.17
813.01	1077.00
813.33	1076.04
813.66	1076.67
813.98	1076.01
814.30	1075.50
814.62	1076.83
814.94	1077.98
815.26	1076.74
815.58	1076.39
815.90	1078.38
816.22	1077.23
816.54	1075.92
816.86	1076.67
817.18	1077.75
817.50	1074.70
817.82	1076.30
818.14	1078.19
818.46	1080.56
818.78	1076.74
819.10	1074.91
819.42	1075.20
819.74	1073.56
820.06	1072.55
820.38	1075.64
820.70	1079.83
821.02	1075.69
821.34	1075.08
821.66	1070.47
821.98	1070.35
822.30	1068.92
822.62	1071.47
822.94	1072.01
823.26	1077.16
823.58	1080.13
823.90	1079.22
824.22	1080.81
824.54	1081.80
824.86	1079.03
825.18	1076.23
825.50	1078.00
825.81	1076.01
826.13	1077.04
826.45	1077.63
826.77	1075.57
827.09	1073.93
827.41	1073.07
827.73	1069.18
828.05	1067.28
828.36	1066.68
828.68	1069.67
829.00	1072.08
829.32	1073.02
829.64	1074.82
829.96	1076.95
830.28	1075.83
830.59	1075.05
830.91	1078.71
831.23	1082.47
831.55	1082.17
831.87	1079.88
832.19	1078.71
832.50	1074.31
832.82	1074.00
833.14	1074.89
833.46	1077.00
833.78	1076.20
834.09	1079.48
834.41	1075.90
834.73	1073.70
835.05	1074.91
835.36	1076.46
835.68	1073.56
836.00	1072.53
836.32	1075.73
836.63	1073.49
836.95	1073.95
837.27	1075.99
837.59	1076.74
837.90	1073.67
838.22	1075.34
838.54	1073.63
838.85	1074.12
839.17	1074.05
839.49	1078.12
839.80	1076.60
840.12	1076.83
840.44	1073.39
840.76	1074.75
841.07	1071.90
841.39	1074.14
841.71	1073.42
842.02	1075.38
842.34	1074.61
842.65	1075.59
842.97	1073.56
843.29	1075.62
843.60	1073.65
843.92	1075.90
844.24	1078.43
844.55	1080.93
844.87	1078.87
845.18	1082.47
845.50	1084.79
845.82	1080.27
846.13	1077.42
846.45	1079.50
846.76	1078.05
847.08	1074.87
847.40	1076.60
847.71	1076.23
848.03	1075.48
848.34	1075.94
848.66	1073.49
848.97	1072.41
849.29	1074.66
849.60	1074.28
849.92	1075.90
850.24	1074.80
850.55	1076.74
850.87	1072.57
851.18	1073.46
851.50	1072.18
851.81	1073.53
852.13	1071.15
852.44	1072.41
852.76	1074.96
853.07	1073.16
853.39	1074.33
853.70	1074.49
854.01	1074.03
854.33	1071.15
854.64	1073.07
854.96	1073.84
855.27	1073.16
855.59	1074.66
855.90	1074.80
856.22	1071.38
856.53	1071.90
856.84	1071.78
857.16	1072.48
857.47	1073.56
857.79	1073.11
858.10	1074.31
858.41	1075.17
858.73	1076.97
859.04	1073.74
859.36	1077.79
859.67	1077.35
859.98	1076.72
860.30	1076.97
860.61	1080.58
860.92	1076.41
861.24	1074.98
861.55	1076.90
861.87	1075.64
862.18	1074.19
862.49	1079.15
862.81	1078.89
863.12	1079.15
863.43	1078.92
863.74	1078.33
864.06	1077.40
864.37	1076.74
864.68	1076.23
865.00	1076.86
865.31	1076.55
865.62	1074.24
865.94	1076.72
866.25	1076.58
866.56	1074.21
866.87	1074.07
867.19	1075.92
867.50	1075.31
867.81	1074.19
868.12	1076.55
868.44	1075.43
868.75	1074.80
869.06	1073.51
869.37	1073.58
869.68	1073.35
870.00	1072.85
870.31	1070.80
870.62	1071.40
870.93	1069.98
871.24	1068.48
871.56	1070.19
871.87	1073.21
872.18	1071.33
872.49	1071.90
872.80	1072.95
873.12	1071.68
873.43	1073.46
873.74	1074.70
874.05	1077.58
874.36	1075.83
874.67	1077.91
874.98	1075.27
875.29	1073.70
875.61	1072.53
875.92	1071.45
876.23	1068.27
876.54	1069.58
876.85	1072.18
877.16	1074.47
877.47	1077.86
877.78	1082.57
878.09	1081.70
878.40	1080.91
878.72	1080.09
879.03	1079.08
879.34	1078.19
879.65	1076.27
879.96	1075.59
880.27	1077.47
880.58	1077.25
880.89	1076.76
881.20	1078.61
881.51	1077.96
881.82	1071.03
882.13	1070.56
882.44	1067.89
882.75	1068.34
883.06	1066.65
883.37	1068.71
883.68	1068.43
883.99	1070.28
884.30	1070.44
884.61	1073.37
884.92	1072.15
885.23	1073.60
885.54	1077.42
885.85	1077.49
886.16	1080.18
886.47	1083.69
886.78	1085.31
887.08	1083.50
887.39	1084.04
887.70	1080.23
888.01	1078.57
888.32	1074.73
888.63	1073.39
888.94	1071.50
889.25	1074.03
889.56	1072.88
889.87	1077.23
890.17	1077.68
890.48	1076.34
890.79	1076.25
891.10	1078.78
891.41	1077.09
891.72	1079.95
892.03	1079.55
892.34	1080.67
892.64	1080.88
892.95	1079.71
893.26	1076.37
893.57	1077.63
893.88	1070.96
894.18	1068.67
894.49	1067.94
894.80	1069.13
895.11	1070.56
895.42	1074.87
895.72	1075.64
896.03	1075.59
896.34	1073.77
896.65	1073.56
896.96	1072.76
897.26	1070.94
897.57	1074.17
897.88	1074.42
898.19	1073.11
898.49	1073.91
898.80	1077.91
899.11	1076.76
899.41	1076.44
899.72	1078.17
900.03	1076.76
900.34	1072.15
900.64	1070.56
900.95	1069.48
901.26	1069.34
901.56	1070.26
901.87	1072.01
902.18	1071.64
902.48	1073.65
902.79	1073.67
903.10	1073.18
903.40	1073.53
903.71	1075.97
904.02	1077.49
904.32	1076.08
904.63	1077.58
904.94	1079.27
905.24	1076.58
905.55	1072.48
905.85	1074.10
906.16	1072.01
906.47	1069.98
906.77	1069.34
907.08	1071.08
907.38	1071.50
907.69	1073.07
908.00	1076.86
908.30	1079.90
908.61	1079.29
908.91	1080.67
909.22	1080.77
909.52	1077.42
909.83	1078.21
910.14	1077.51
910.44	1073.67
910.75	1072.39
911.05	1071.68
911.36	1069.23
911.66	1071.36
911.97	1071.19
912.27	1072.83
912.58	1074.66
912.88	1075.43
913.19	1075.10
913.49	1077.49
913.80	1076.27
914.10	1075.05
914.41	1075.20
914.71	1073.56
915.01	1071.75
915.32	1071.43
915.62	1070.65
915.93	1068.22
916.23	1068.57
916.54	1069.44
916.84	1071.38
917.15	1070.14
917.45	1073.98
917.75	1075.71
918.06	1074.40
918.36	1075.83
918.67	1080.13
918.97	1079.41
919.27	1076.93
919.58	1078.33
919.88	1075.20
920.18	1070.68
920.49	1068.45
920.79	1070.51
921.10	1070.44
921.40	1073.25
921.70	1078.10
922.01	1082.43
922.31	1082.80
922.61	1080.81
922.92	1079.62
923.22	1077.16
923.52	1073.35
923.82	1074.75
924.13	1076.97
924.43	1078.17
924.73	1079.71
925.04	1081.82
925.34	1078.89
925.64	1080.63
925.94	1078.64
926.25	1079.50
926.55	1078.87
926.85	1080.09
927.15	1081.47
927.46	1084.21
927.76	1084.42
928.06	1082.90
928.36	1082.99
928.67	1080.20
928.97	1076.32
929.27	1072.22
929.57	1071.54
929.87	1068.97
930.18	1065.01
930.48	1067.12
930.78	1069.27
931.08	1071.73
931.38	1075.24
931.69	1080.11
931.99	1076.53
932.29	1078.78
932.59	1076.18
932.89	1075.69
933.19	1073.56
933.49	1075.83
933.80	1074.91
934.10	1078.99
934.40	1078.10
934.70	1077.68
935.00	1076.46
935.30	1075.92
935.60	1071.59
935.90	1070.33
936.20	1069.58
936.50	1071.38
936.81	1070.00
937.11	1069.70
937.41	1069.77
937.71	1071.87
938.01	1072.15
938.31	1073.25
938.61	1073.93
938.91	1074.84
939.21	1075.62
939.51	1078.00
939.81	1076.23
940.11	1074.66
940.41	1071.97
940.71	1070.84
941.01	1067.35
941.31	1068.15
941.61	1073.23
941.91	1075.73
942.21	1080.09
942.51	1079.95
942.81	1082.87
943.11	1081.63
943.41	1084.91
943.71	1081.40
944.01	1079.90
944.31	1076.11
944.61	1073.51
944.90	1071.71
945.20	1071.22
945.50	1075.38
945.80	1074.68
946.10	1076.44
946.40	1077.37
946.70	1077.11
947.00	1073.37
947.30	1074.21
947.60	1074.40
947.89	1070.09
948.19	1071.75
948.49	1074.54
948.79	1073.46
949.09	1075.38
949.39	1075.01
949.69	1072.34
949.98	1068.50
950.28	1071.19
950.58	1067.12
950.88	1069.44
951.18	1067.64
951.48	1073.02
951.77	1072.53
952.07	1074.24
952.37	1076.32
952.67	1077.63
952.97	1074.77
953.26	1075.87
953.56	1076.81
953.86	1074.54
954.16	1076.08
954.45	1075.34
954.75	1074.28
955.05	1072.76
955.35	1073.44
955.64	1073.23
955.94	1073.14
956.24	1071.73
956.54	1072.53
956.83	1072.62
957.13	1072.69
957.43	1074.19
957.72	1077.23
958.02	1076.34
958.32	1076.74
958.61	1077.42
958.91	1076.46
959.21	1075.01
959.50	1073.86
959.80	1073.70
960.10	1073.44
960.39	1072.36
960.69	1067.31
960.99	1067.71
961.28	1066.86
961.58	1065.95
961.87	1068.41
962.17	1072.41
962.47	1075.10
962.76	1076.27
963.06	1077.56
963.36	1078.80
963.65	1080.11
963.95	1078.75
964.24	1078.66
964.54	1078.80
964.83	1074.80
965.13	1073.81
965.42	1073.37
965.72	1074.33
966.02	1071.80
966.31	1075.90
966.61	1077.77
966.90	1080.39
967.20	1081.70
967.49	1084.67
967.79	1081.09
968.08	1082.54
968.38	1080.53
968.67	1077.63
968.97	1076.76
969.26	1078.75
969.56	1077.42
969.85	1077.58
970.15	1078.10
970.44	1078.73
970.74	1077.11
971.03	1080.41
971.32	1079.81
971.62	1080.23
971.91	1080.74
972.21	1082.17
972.50	1077.63
972.80	1077.33
973.09	1077.84
973.38	1077.47
973.68	1079.53
973.97	1078.73
974.27	1077.98
974.56	1079.55
974.85	1077.84
975.15	1075.13
975.44	1074.12
975.73	1075.87
976.03	1072.90
976.32	1072.22
976.61	1072.22
976.91	1076.18
977.20	1076.44
977.49	1076.58
977.79	1078.33
978.08	1079.76
978.37	1077.42
978.67	1078.94
978.96	1077.86
979.25	1077.00
979.55	1074.28
979.84	1072.08
980.13	1069.34
980.42	1070.54
980.72	1068.06
981.01	1068.38
981.30	1069.77
981.59	1070.98
981.89	1069.09
982.18	1073.23
982.47	1070.77
982.76	1069.98
983.06	1069.30
983.35	1071.12
983.64	1067.45
983.93	1072.11
984.22	1072.36
984.52	1073.63
984.81	1073.32
985.10	1077.04
985.39	1077.82
985.68	1079.64
985.97	1079.76
986.27	1078.59
986.56	1074.87
986.85	1074.21
987.14	1074.33
987.43	1074.00
987.72	1075.20
988.01	1075.05
988.31	1074.84
988.60	1076.27
988.89	1074.45
989.18	1075.29
989.47	1079.10
989.76	1076.86
990.05	1075.78
990.34	1079.36
990.63	1077.47
990.92	1077.25
991.21	1076.67
991.51	1073.67
991.80	1069.84
992.09	1071.78
992.38	1071.31
992.67	1072.20
992.96	1073.77
993.25	1074.77
993.54	1074.45
993.83	1074.24
994.12	1076.93
994.41	1076.48
994.70	1073.74
994.99	1074.54
995.28	1072.22
995.57	1072.06
995.86	1073.11
996.15	1077.33
996.44	1076.74
996.73	1080.04
997.02	1080.09
997.31	1081.87
997.59	1078.89
997.88	1078.57
998.17	1078.54
998.46	1078.80
998.75	1075.15
999.04	1076.93
999.33	1073.70
999.62	1073.44
999.91	1072.76
1000.20	1076.55
1000.49	1076.83
1000.77	1079.97
1001.06	1077.16
1001.35	1075.90
1001.64	1074.61
1001.93	1073.86
1002.22	1072.50
1002.51	1073.46
1002.79	1073.67
1003.08	1073.07
1003.37	1072.50
1003.66	1072.64
1003.95	1075.29
1004.23	1073.72
1004.52	1071.80
1004.81	1074.75
1005.10	1075.66
1005.39	1075.22
1005.67	1075.13
1005.96	1074.52
1006.25	1070.35
1006.54	1071.40
1006.83	1066.77
1007.11	1065.69
1007.40	1067.49
1007.69	1068.90
1007.97	1067.26
1008.26	1072.15
1008.55	1077.44
1008.84	1077.93
1009.12	1078.10
1009.41	1076.88
1009.70	1075.57
1009.98	1072.81
1010.27	1073.77
1010.56	1075.05
1010.85	1079.85
1011.13	1078.92
1011.42	1079.24
1011.71	1077.61
1011.99	1073.28
1012.28	1069.20
1012.56	1070.47
1012.85	1070.19
1013.14	1069.70
1013.42	1074.68
1013.71	1078.68
1014.00	1078.59
1014.28	1079.08
1014.57	1081.14
1014.85	1078.00
1015.14	1075.22
1015.43	1073.98
1015.71	1071.80
1016.00	1070.14
1016.28	1071.52
1016.57	1073.53
1016.85	1074.05
1017.14	1077.96
1017.43	1079.22
1017.71	1078.24
1018.00	1077.37
1018.28	1077.18
1018.57	1072.50
1018.85	1073.00
1019.14	1074.03
1019.42	1073.07
1019.71	1074.00
1019.99	1075.97
1020.28	1078.31
1020.56	1080.41
1020.85	1079.15
1021.13	1076.83
1021.42	1076.62
1021.70	1074.42
1021.99	1076.44
1022.27	1076.44
1022.55	1095.14
1022.84	1069.86
>>>>>End Processed Spectral Data<<<<<
