SpectraSuite Data File
++++++++++++++++++++++++++++++++++++
Date: Mon Aug 26 10:22:30 PDT 2019
User: corrico
Dark Spectrum Present: No
Reference Spectrum Present: No
Number of Sampled Component Spectra: 1
Spectrometers: USB2+H06089
Integration Time (usec): 2000 (USB2+H06089)
Spectra Averaged: 20 (USB2+H06089)
Boxcar Smoothing: 2 (USB2+H06089)
Correct for Electrical Dark: No (USB2+H06089)
Strobe/Lamp Enabled: No (USB2+H06089)
Correct for Detector Non-linearity: No (USB2+H06089)
Correct for Stray Light: No (USB2+H06089)
Number of Pixels in Processed Spectrum: 2048
>>>>>Begin Processed Spectral Data<<<<<
339.70	1021.06
340.07	1021.06
340.45	990.84
340.82	971.53
341.19	950.00
341.57	924.42
341.94	914.45
342.31	905.44
342.69	898.67
343.06	895.89
343.43	897.53
343.81	899.40
344.18	904.06
344.55	910.16
344.93	914.49
345.30	922.24
345.67	927.39
346.04	934.53
346.42	940.19
346.79	949.16
347.16	954.31
347.54	959.99
347.91	965.92
348.28	976.87
348.65	986.82
349.03	997.86
349.40	1009.85
349.77	1021.20
350.14	1026.32
350.52	1029.18
350.89	1034.61
351.26	1039.85
351.63	1042.90
352.01	1050.71
352.38	1061.25
352.75	1066.89
353.12	1071.85
353.50	1077.09
353.87	1078.99
354.24	1075.97
354.61	1079.88
354.98	1083.25
355.36	1086.71
355.73	1089.89
356.10	1091.72
356.47	1089.80
356.84	1088.44
357.22	1086.73
357.59	1085.03
357.96	1085.45
358.33	1084.74
358.70	1086.17
359.08	1088.93
359.45	1091.25
359.82	1092.21
360.19	1092.63
360.56	1092.68
360.94	1088.35
361.31	1084.74
361.68	1083.50
362.05	1083.04
362.42	1079.22
362.79	1078.26
363.16	1075.94
363.54	1075.64
363.91	1073.42
364.28	1073.72
364.65	1073.58
365.02	1075.99
365.39	1074.21
365.76	1072.76
366.14	1071.68
366.51	1071.36
366.88	1068.74
367.25	1073.67
367.62	1075.27
367.99	1075.85
368.36	1075.66
368.73	1075.48
369.10	1072.06
369.48	1070.16
369.85	1067.21
370.22	1065.95
370.59	1070.75
370.96	1071.92
371.33	1075.17
371.70	1076.44
372.07	1078.54
372.44	1077.75
372.81	1074.89
373.18	1074.70
373.55	1076.27
373.93	1077.75
374.30	1075.57
374.67	1075.29
375.04	1074.45
375.41	1076.37
375.78	1077.30
376.15	1080.32
376.52	1084.51
376.89	1083.13
377.26	1082.40
377.63	1080.37
378.00	1076.86
378.37	1074.31
378.74	1078.33
379.11	1075.10
379.48	1073.95
379.85	1077.21
380.22	1080.79
380.59	1080.30
380.96	1082.57
381.33	1086.06
381.70	1086.08
382.07	1084.32
382.44	1086.50
382.81	1086.06
383.18	1084.74
383.55	1085.52
383.92	1086.43
384.29	1083.83
384.66	1083.69
385.03	1080.20
385.40	1076.81
385.77	1075.55
386.14	1076.01
386.51	1079.15
386.88	1081.77
387.25	1083.39
387.62	1084.02
387.99	1084.00
388.36	1082.57
388.73	1086.41
389.10	1086.73
389.46	1085.80
389.83	1086.29
390.20	1086.15
390.57	1081.75
390.94	1082.01
391.31	1082.50
391.68	1081.61
392.05	1083.48
392.42	1083.18
392.79	1084.49
393.16	1086.06
393.53	1086.31
393.89	1086.17
394.26	1090.60
394.63	1090.15
395.00	1089.73
395.37	1088.58
395.74	1088.44
396.11	1087.60
396.48	1088.07
396.84	1087.95
397.21	1087.69
397.58	1085.12
397.95	1084.93
398.32	1081.70
398.69	1080.86
399.06	1082.10
399.42	1084.44
399.79	1083.93
400.16	1087.46
400.53	1090.15
400.90	1089.66
401.27	1088.68
401.64	1089.57
402.00	1088.77
402.37	1089.12
402.74	1087.48
403.11	1085.63
403.48	1085.75
403.84	1084.35
404.21	1084.51
404.58	1087.55
404.95	1090.48
405.32	1091.16
405.68	1091.84
406.05	1090.81
406.42	1091.39
406.79	1093.19
407.16	1092.70
407.52	1091.60
407.89	1091.25
408.26	1090.20
408.63	1089.64
408.99	1090.69
409.36	1094.76
409.73	1095.63
410.10	1098.53
410.47	1097.95
410.83	1096.24
411.20	1096.87
411.57	1098.65
411.94	1097.22
412.30	1097.13
412.67	1097.69
413.04	1097.41
413.40	1097.17
413.77	1097.97
414.14	1101.50
414.51	1105.13
414.87	1102.46
415.24	1101.60
415.61	1104.41
415.97	1103.33
416.34	1103.70
416.71	1107.49
417.08	1108.01
417.44	1105.62
417.81	1106.49
418.18	1106.11
418.54	1103.40
418.91	1104.03
419.28	1106.61
419.64	1107.12
420.01	1106.68
420.38	1111.40
420.74	1113.56
421.11	1114.68
421.48	1114.17
421.84	1116.11
422.21	1118.38
422.58	1121.37
422.94	1125.31
423.31	1131.11
423.68	1133.64
424.04	1131.60
424.41	1133.73
424.77	1135.30
425.14	1135.84
425.51	1138.25
425.87	1146.39
426.24	1152.29
426.61	1157.44
426.97	1166.10
427.34	1173.54
427.70	1179.96
428.07	1189.02
428.44	1198.89
428.80	1206.80
429.17	1215.74
429.53	1225.25
429.90	1229.74
430.27	1233.60
430.63	1240.98
431.00	1251.77
431.36	1262.18
431.73	1276.39
432.09	1293.68
432.46	1310.02
432.83	1326.62
433.19	1341.20
433.56	1359.20
433.92	1378.29
434.29	1396.88
434.65	1420.26
435.02	1447.27
435.38	1475.08
435.75	1502.23
436.11	1535.41
436.48	1567.06
436.84	1603.57
437.21	1642.92
437.57	1679.90
437.94	1719.59
438.30	1761.44
438.67	1808.81
439.03	1857.24
439.40	1914.96
439.76	1972.53
440.13	2032.17
440.49	2093.26
440.86	2155.05
441.22	2227.00
441.59	2303.63
441.95	2390.58
442.32	2474.39
442.68	2570.96
443.05	2667.23
443.41	2767.07
443.78	2869.29
444.14	2983.11
444.51	3096.32
444.87	3231.76
445.24	3375.31
445.60	3525.71
445.96	3678.27
446.33	3854.18
446.69	4021.53
447.06	4195.85
447.42	4378.56
447.79	4581.36
448.15	4799.78
448.51	5031.61
448.88	5301.97
449.24	5547.35
449.61	5823.49
449.97	6102.60
450.33	6386.08
450.70	6640.92
451.06	6982.52
451.43	7296.99
451.79	7665.91
452.15	8080.16
452.52	8540.80
452.88	8999.52
453.24	9535.18
453.61	10118.74
453.97	10685.34
454.34	11242.20
454.70	11908.51
455.06	12563.74
455.43	13202.03
455.79	13805.21
456.15	14533.86
456.52	15189.54
456.88	15967.32
457.24	16697.73
457.61	17578.66
457.97	18369.30
458.33	19171.09
458.70	19946.77
459.06	20724.20
459.42	21549.71
459.79	22321.48
460.15	23239.74
460.51	24113.25
460.88	25063.16
461.24	25867.13
461.60	26852.10
461.96	27726.76
462.33	28571.20
462.69	29364.83
463.05	30228.53
463.42	30936.55
463.78	31597.42
464.14	32165.77
464.50	32760.88
464.87	33265.71
465.23	33613.86
465.59	33955.67
465.95	34259.24
466.32	34520.14
466.68	34735.84
467.04	34908.95
467.40	35051.89
467.77	35187.99
468.13	35147.12
468.49	35020.55
468.85	34898.75
469.22	34690.74
469.58	34323.37
469.94	34059.85
470.30	33737.49
470.66	33309.40
471.03	32714.18
471.39	32323.24
471.75	31660.75
472.11	31045.90
472.47	30664.55
472.84	30358.36
473.20	29854.56
473.56	29600.78
473.92	29179.62
474.28	28680.34
474.65	28183.82
475.01	27729.80
475.37	27157.82
475.73	26684.05
476.09	26143.64
476.45	25604.62
476.81	25059.04
477.18	24505.74
477.54	24061.76
477.90	23707.66
478.26	23290.88
478.62	22965.48
478.98	22680.19
479.34	22355.16
479.71	21946.15
480.07	21588.00
480.43	21224.59
480.79	20842.21
481.15	20481.40
481.51	20172.52
481.87	19938.86
482.23	19638.29
482.59	19369.13
482.96	19099.19
483.32	18799.81
483.68	18421.68
484.04	18097.30
484.40	17735.50
484.76	17360.06
485.12	17008.39
485.48	16687.48
485.84	16321.73
486.20	15969.29
486.56	15613.62
486.92	15287.91
487.28	14917.71
487.64	14555.21
488.00	14233.52
488.37	13888.22
488.73	13517.95
489.09	13169.21
489.45	12860.00
489.81	12518.29
490.17	12219.87
490.53	11927.25
490.89	11633.35
491.25	11320.96
491.61	11020.48
491.97	10702.66
492.33	10374.00
492.69	10069.92
493.05	9769.65
493.41	9483.48
493.77	9207.36
494.13	8955.59
494.49	8702.81
494.85	8466.47
495.21	8243.06
495.57	8033.19
495.93	7814.65
496.29	7605.22
496.64	7416.27
497.00	7213.44
497.36	7013.51
497.72	6830.85
498.08	6647.87
498.44	6461.19
498.80	6287.12
499.16	6121.91
499.52	5973.33
499.88	5847.13
500.24	5726.40
500.60	5610.66
500.96	5499.58
501.32	5376.30
501.68	5252.02
502.03	5121.70
502.39	4989.23
502.75	4844.82
503.11	4715.10
503.47	4595.69
503.83	4470.73
504.19	4352.79
504.55	4251.16
504.91	4154.97
505.26	4054.21
505.62	3973.90
505.98	3888.57
506.34	3796.44
506.70	3708.51
507.06	3619.22
507.42	3527.16
507.78	3449.39
508.13	3373.27
508.49	3292.55
508.85	3225.70
509.21	3160.31
509.57	3091.92
509.93	3031.04
510.28	2973.53
510.64	2912.16
511.00	2852.15
511.36	2791.16
511.72	2730.47
512.07	2679.45
512.43	2625.78
512.79	2572.79
513.15	2528.88
513.51	2480.73
513.86	2431.98
514.22	2392.99
514.58	2351.47
514.94	2307.89
515.30	2277.86
515.65	2238.98
516.01	2202.91
516.37	2169.61
516.73	2138.45
517.08	2106.90
517.44	2078.04
517.80	2049.09
518.16	2025.22
518.51	1999.31
518.87	1972.30
519.23	1944.94
519.59	1921.86
519.94	1893.63
520.30	1863.93
520.66	1835.85
521.01	1812.46
521.37	1784.73
521.73	1765.47
522.09	1749.01
522.44	1732.49
522.80	1714.56
523.16	1698.53
523.51	1677.60
523.87	1662.46
524.23	1642.61
524.58	1618.62
524.94	1598.84
525.30	1579.46
525.65	1559.78
526.01	1543.70
526.37	1537.78
526.72	1525.56
527.08	1513.06
527.44	1501.48
527.79	1488.25
528.15	1474.65
528.51	1458.69
528.86	1446.33
529.22	1431.45
529.58	1419.07
529.93	1403.10
530.29	1393.72
530.65	1385.60
531.00	1377.64
531.36	1368.21
531.71	1360.65
532.07	1355.17
532.43	1345.71
532.78	1338.41
533.14	1333.08
533.49	1327.65
533.85	1318.42
534.21	1309.53
534.56	1299.93
534.92	1292.44
535.27	1285.77
535.63	1282.01
535.98	1277.79
536.34	1274.12
536.69	1270.30
537.05	1264.78
537.41	1258.53
537.76	1255.07
538.12	1253.66
538.47	1249.78
538.83	1245.87
539.18	1242.87
539.54	1236.86
539.89	1225.46
540.25	1219.82
540.60	1215.11
540.96	1212.02
541.31	1209.64
541.67	1210.88
542.02	1211.44
542.38	1208.47
542.73	1204.81
543.09	1205.17
543.44	1203.57
543.80	1196.58
544.15	1196.60
544.51	1193.65
544.86	1186.42
545.22	1184.94
545.57	1181.78
545.93	1176.26
546.28	1174.81
546.64	1173.01
546.99	1172.98
547.35	1172.42
547.70	1172.56
548.05	1166.08
548.41	1166.57
548.76	1161.35
549.12	1159.81
549.47	1157.04
549.83	1158.92
550.18	1155.71
550.53	1151.61
550.89	1145.88
551.24	1142.95
551.60	1140.31
551.95	1141.17
552.30	1138.30
552.66	1140.29
553.01	1141.43
553.37	1138.46
553.72	1134.88
554.07	1137.27
554.43	1136.82
554.78	1134.06
555.13	1132.28
555.49	1128.82
555.84	1124.93
556.19	1122.59
556.55	1121.80
556.90	1125.38
557.26	1128.91
557.61	1132.44
557.96	1131.63
558.32	1129.47
558.67	1128.40
559.02	1124.30
559.37	1122.03
559.73	1121.58
560.08	1119.01
560.43	1115.22
560.79	1115.12
561.14	1113.32
561.49	1112.18
561.85	1116.15
562.20	1114.91
562.55	1115.64
562.90	1114.40
563.26	1112.78
563.61	1112.22
563.96	1111.68
564.32	1110.89
564.67	1110.91
565.02	1111.73
565.37	1108.31
565.73	1106.18
566.08	1107.71
566.43	1106.11
566.78	1101.15
567.14	1100.08
567.49	1102.95
567.84	1100.17
568.19	1100.19
568.54	1101.88
568.90	1101.95
569.25	1099.91
569.60	1099.56
569.95	1101.36
570.31	1102.28
570.66	1102.53
571.01	1100.89
571.36	1100.24
571.71	1099.21
572.06	1098.79
572.42	1096.12
572.77	1099.96
573.12	1098.30
573.47	1099.16
573.82	1098.06
574.18	1101.43
574.53	1099.37
574.88	1098.93
575.23	1097.69
575.58	1098.44
575.93	1095.00
576.28	1092.68
576.64	1093.29
576.99	1087.97
577.34	1087.65
577.69	1092.45
578.04	1093.80
578.39	1095.32
578.74	1098.23
579.09	1098.13
579.44	1096.59
579.80	1097.92
580.15	1097.15
580.50	1097.90
580.85	1097.64
581.20	1092.45
581.55	1091.79
581.90	1090.29
582.25	1091.20
582.60	1090.62
582.95	1092.84
583.30	1090.15
583.65	1092.07
584.00	1090.55
584.35	1090.74
584.71	1090.46
585.06	1092.63
585.41	1091.11
585.76	1091.25
586.11	1090.15
586.46	1089.14
586.81	1087.27
587.16	1088.65
587.51	1086.71
587.86	1089.00
588.21	1091.65
588.56	1092.91
588.91	1088.14
589.26	1086.90
589.61	1084.67
589.96	1082.64
590.31	1082.99
590.66	1086.29
591.01	1088.77
591.36	1087.62
591.71	1087.20
592.06	1086.50
592.41	1086.03
592.76	1083.86
593.10	1088.44
593.45	1089.87
593.80	1091.46
594.15	1090.34
594.50	1092.77
594.85	1091.79
595.20	1091.77
595.55	1089.66
595.90	1088.68
596.25	1089.31
596.60	1086.03
596.95	1083.41
597.30	1082.66
597.64	1094.97
597.99	1094.57
598.34	1093.45
598.69	1096.19
599.04	1095.00
599.39	1085.40
599.74	1084.96
600.09	1085.59
600.44	1082.80
600.78	1085.56
601.13	1083.01
601.48	1081.84
601.83	1087.09
602.18	1089.07
602.53	1086.76
602.88	1089.52
603.22	1088.89
603.57	1085.70
603.92	1083.71
604.27	1085.19
604.62	1082.59
604.97	1084.70
605.31	1085.59
605.66	1087.13
606.01	1087.27
606.36	1090.24
606.71	1088.28
607.05	1090.64
607.40	1090.95
607.75	1091.65
608.10	1088.58
608.44	1088.82
608.79	1084.44
609.14	1083.13
609.49	1083.08
609.84	1083.04
610.18	1084.11
610.53	1081.00
610.88	1082.99
611.23	1081.07
611.57	1083.01
611.92	1082.08
612.27	1087.06
612.62	1088.14
612.96	1090.76
613.31	1089.24
613.66	1089.68
614.00	1088.91
614.35	1086.48
614.70	1085.45
615.05	1086.69
615.39	1088.72
615.74	1089.22
616.09	1088.19
616.43	1087.25
616.78	1087.25
617.13	1084.37
617.47	1083.50
617.82	1082.94
618.17	1082.12
618.51	1084.00
618.86	1084.30
619.21	1083.06
619.55	1084.37
619.90	1083.81
620.25	1081.91
620.59	1081.54
620.94	1081.40
621.29	1082.73
621.63	1084.46
621.98	1085.73
622.32	1086.87
622.67	1089.66
623.02	1088.58
623.36	1088.72
623.71	1087.65
624.05	1086.50
624.40	1086.24
624.75	1086.27
625.09	1086.71
625.44	1080.27
625.78	1079.74
626.13	1078.99
626.48	1078.85
626.82	1076.53
627.17	1081.73
627.51	1080.46
627.86	1081.91
628.20	1078.17
628.55	1078.12
628.89	1078.78
629.24	1080.30
629.58	1078.57
629.93	1083.04
630.28	1084.65
630.62	1085.61
630.97	1083.11
631.31	1080.04
631.66	1078.52
632.00	1078.54
632.35	1078.43
632.69	1083.04
633.04	1085.10
633.38	1087.11
633.73	1084.89
634.07	1082.03
634.42	1079.38
634.76	1079.03
635.11	1078.54
635.45	1079.92
635.79	1081.05
636.14	1081.98
636.48	1084.02
636.83	1084.79
637.17	1084.91
637.52	1083.55
637.86	1081.89
638.21	1081.26
638.55	1079.64
638.89	1082.43
639.24	1084.89
639.58	1088.02
639.93	1087.65
640.27	1088.40
640.61	1086.15
640.96	1085.82
641.30	1084.28
641.65	1082.64
641.99	1080.84
642.33	1081.14
642.68	1082.19
643.02	1082.15
643.37	1084.53
643.71	1086.31
644.05	1084.91
644.40	1083.55
644.74	1081.73
645.08	1080.41
645.43	1080.58
645.77	1085.75
646.11	1083.69
646.46	1085.26
646.80	1083.18
647.14	1083.25
647.49	1079.38
647.83	1081.35
648.17	1081.73
648.52	1082.73
648.86	1086.52
649.20	1087.88
649.55	1088.65
649.89	1090.99
650.23	1094.27
650.57	1092.30
650.92	1090.62
651.26	1088.84
651.60	1084.84
651.95	1084.04
652.29	1080.65
652.63	1080.32
652.97	1080.72
653.32	1081.77
653.66	1081.12
654.00	1081.58
654.34	1081.44
654.69	1081.33
655.03	1082.80
655.37	1080.91
655.71	1079.57
656.05	1081.77
656.40	1084.30
656.74	1083.20
657.08	1083.90
657.42	1085.17
657.76	1083.48
658.11	1084.11
658.45	1084.23
658.79	1084.86
659.13	1086.27
659.47	1085.70
659.82	1082.83
660.16	1083.11
660.50	1083.32
660.84	1081.26
661.18	1080.70
661.52	1083.67
661.87	1082.47
662.21	1086.43
662.55	1087.44
662.89	1089.75
663.23	1083.86
663.57	1083.64
663.91	1077.44
664.25	1076.20
664.60	1072.62
664.94	1073.95
665.28	1070.75
665.62	1071.52
665.96	1072.34
666.30	1072.90
666.64	1076.86
666.98	1080.44
667.32	1080.41
667.66	1083.34
668.01	1084.42
668.35	1081.37
668.69	1080.81
669.03	1079.95
669.37	1079.67
669.71	1080.37
670.05	1078.68
670.39	1079.10
670.73	1082.66
671.07	1080.93
671.41	1081.91
671.75	1083.81
672.09	1085.52
672.43	1082.69
672.77	1080.86
673.11	1077.96
673.45	1080.16
673.79	1079.41
674.13	1079.92
674.47	1082.80
674.81	1085.12
675.15	1085.07
675.49	1086.34
675.83	1086.24
676.17	1084.23
676.51	1084.16
676.85	1081.91
677.19	1080.09
677.53	1081.19
677.87	1079.43
678.21	1077.75
678.55	1079.17
678.89	1078.59
679.23	1080.84
679.57	1082.52
679.90	1083.71
680.24	1083.79
680.58	1088.61
680.92	1088.35
681.26	1090.69
681.60	1088.56
681.94	1087.34
682.28	1084.11
682.62	1083.55
682.96	1082.99
683.29	1082.38
683.63	1082.90
683.97	1080.93
684.31	1078.82
684.65	1077.98
684.99	1082.57
685.33	1083.79
685.67	1088.91
686.00	1088.02
686.34	1089.50
686.68	1086.24
687.02	1087.55
687.36	1086.29
687.70	1087.41
688.03	1087.11
688.37	1089.43
688.71	1084.44
689.05	1081.49
689.39	1082.03
689.72	1081.51
690.06	1079.88
690.40	1082.69
690.74	1083.39
691.08	1081.94
691.41	1083.08
691.75	1081.77
692.09	1079.88
692.43	1082.17
692.76	1082.69
693.10	1080.77
693.44	1082.83
693.78	1082.45
694.11	1081.73
694.45	1081.23
694.79	1080.95
695.13	1080.32
695.46	1081.49
695.80	1081.96
696.14	1083.08
696.48	1079.85
696.81	1077.89
697.15	1076.83
697.49	1075.05
697.82	1074.70
698.16	1077.30
698.50	1079.08
698.83	1082.59
699.17	1079.38
699.51	1079.60
699.84	1076.55
700.18	1076.30
700.52	1074.19
700.85	1074.33
701.19	1073.77
701.53	1075.73
701.86	1076.39
702.20	1074.35
702.54	1077.00
702.87	1076.58
703.21	1079.55
703.55	1081.21
703.88	1082.36
704.22	1081.12
704.55	1084.35
704.89	1084.74
705.23	1081.91
705.56	1083.60
705.90	1084.44
706.23	1084.81
706.57	1081.42
706.91	1083.95
707.24	1083.06
707.58	1081.87
707.91	1078.87
708.25	1079.60
708.58	1076.97
708.92	1076.93
709.26	1076.74
709.59	1078.75
709.93	1077.56
710.26	1079.71
710.60	1080.86
710.93	1080.16
711.27	1079.34
711.60	1081.73
711.94	1079.76
712.27	1080.51
712.61	1081.73
712.94	1078.40
713.28	1078.40
713.61	1075.87
713.95	1072.57
714.28	1074.05
714.62	1076.20
714.95	1076.72
715.29	1081.35
715.62	1082.73
715.96	1081.19
716.29	1080.74
716.63	1080.53
716.96	1077.70
717.29	1078.75
717.63	1080.41
717.96	1080.30
718.30	1077.91
718.63	1080.70
718.97	1079.48
719.30	1079.38
719.63	1079.41
719.97	1079.64
720.30	1076.60
720.64	1077.21
720.97	1075.52
721.30	1075.80
721.64	1076.67
721.97	1077.91
722.31	1078.19
722.64	1081.26
722.97	1083.60
723.31	1085.45
723.64	1086.64
723.97	1088.35
724.31	1087.83
724.64	1087.09
724.98	1085.75
725.31	1085.31
725.64	1084.60
725.98	1085.87
726.31	1086.85
726.64	1085.73
726.97	1086.17
727.31	1083.55
727.64	1079.69
727.97	1076.74
728.31	1077.93
728.64	1078.07
728.97	1079.69
729.31	1079.13
729.64	1079.43
729.97	1080.98
730.30	1079.55
730.64	1080.32
730.97	1082.36
731.30	1082.50
731.63	1080.04
731.97	1083.71
732.30	1079.17
732.63	1079.76
732.96	1078.96
733.30	1079.27
733.63	1076.58
733.96	1078.94
734.29	1078.43
734.63	1081.80
734.96	1084.70
735.29	1086.66
735.62	1087.53
735.95	1086.76
736.29	1087.13
736.62	1087.32
736.95	1085.24
737.28	1084.00
737.61	1085.28
737.94	1082.99
738.28	1078.73
738.61	1081.63
738.94	1082.47
739.27	1081.37
739.60	1081.19
739.93	1081.63
740.27	1078.73
740.60	1078.52
740.93	1077.84
741.26	1082.36
741.59	1083.50
741.92	1080.77
742.25	1078.47
742.58	1078.52
742.91	1071.50
743.25	1071.97
743.58	1073.93
743.91	1074.24
744.24	1074.00
744.57	1076.79
744.90	1077.44
745.23	1077.49
745.56	1079.08
745.89	1082.85
746.22	1082.99
746.55	1082.52
746.88	1081.30
747.21	1083.27
747.54	1082.66
747.87	1081.68
748.20	1079.97
748.53	1081.68
748.87	1080.32
749.20	1078.71
749.53	1079.62
749.86	1082.78
750.19	1084.23
750.52	1084.00
750.85	1082.05
751.18	1081.40
751.51	1078.59
751.84	1076.08
752.16	1077.96
752.49	1078.68
752.82	1078.03
753.15	1077.68
753.48	1078.05
753.81	1075.50
754.14	1075.36
754.47	1074.82
754.80	1076.83
755.13	1078.00
755.46	1079.76
755.79	1079.67
756.12	1079.99
756.45	1077.18
756.78	1077.49
757.11	1077.54
757.43	1077.79
757.76	1077.96
758.09	1080.77
758.42	1080.91
758.75	1079.97
759.08	1080.65
759.41	1081.09
759.74	1078.54
760.07	1078.12
760.39	1074.98
760.72	1076.20
761.05	1075.05
761.38	1075.71
761.71	1075.31
762.04	1078.94
762.36	1075.45
762.69	1077.35
763.02	1078.87
763.35	1076.95
763.68	1075.99
764.01	1079.17
764.33	1076.60
764.66	1073.91
764.99	1076.08
765.32	1077.75
765.65	1078.36
765.97	1081.12
766.30	1085.00
766.63	1086.66
766.96	1085.68
767.28	1085.40
767.61	1085.91
767.94	1084.81
768.27	1083.88
768.59	1084.09
768.92	1083.46
769.25	1082.40
769.58	1085.14
769.90	1083.69
770.23	1084.51
770.56	1083.69
770.89	1082.15
771.21	1077.75
771.54	1074.96
771.87	1073.44
772.19	1074.26
772.52	1072.78
772.85	1073.77
773.17	1076.67
773.50	1077.75
773.83	1076.39
774.15	1077.82
774.48	1077.63
774.81	1075.94
775.13	1075.92
775.46	1076.88
775.79	1078.10
776.11	1080.06
776.44	1081.80
776.77	1082.08
777.09	1083.97
777.42	1085.91
777.74	1086.57
778.07	1084.74
778.40	1085.24
778.72	1084.02
779.05	1081.87
779.37	1078.31
779.70	1081.14
780.03	1078.73
780.35	1081.89
780.68	1082.29
781.00	1081.54
781.33	1079.90
781.65	1079.50
781.98	1075.17
782.31	1073.35
782.63	1074.82
782.96	1073.93
783.28	1074.12
783.61	1074.47
783.93	1077.11
784.26	1077.23
784.58	1079.74
784.91	1082.76
785.23	1082.40
785.56	1081.44
785.88	1081.94
786.21	1077.56
786.53	1076.72
786.86	1078.45
787.18	1077.65
787.51	1078.26
787.83	1076.51
788.16	1076.51
788.48	1076.08
788.81	1074.98
789.13	1073.44
789.46	1079.43
789.78	1080.77
790.10	1075.15
790.43	1076.27
790.75	1078.43
791.08	1077.82
791.40	1077.37
791.73	1081.96
792.05	1083.11
792.37	1081.23
792.70	1078.57
793.02	1075.80
793.35	1076.74
793.67	1076.67
793.99	1074.63
794.32	1074.45
794.64	1073.51
794.96	1072.43
795.29	1071.90
795.61	1073.91
795.93	1074.98
796.26	1075.76
796.58	1073.11
796.91	1070.54
797.23	1070.51
797.55	1070.98
797.87	1071.50
798.20	1074.59
798.52	1078.10
798.84	1077.65
799.17	1080.04
799.49	1080.95
799.81	1078.85
800.14	1077.37
800.46	1077.16
800.78	1074.59
801.10	1073.09
801.43	1073.72
801.75	1073.09
802.07	1073.49
802.40	1074.68
802.72	1074.98
803.04	1080.48
803.36	1083.20
803.69	1086.85
804.01	1088.84
804.33	1088.02
804.65	1084.53
804.97	1082.33
805.30	1078.73
805.62	1077.72
805.94	1081.35
806.26	1081.63
806.58	1086.08
806.91	1085.77
807.23	1084.28
807.55	1082.61
807.87	1081.91
808.19	1078.12
808.52	1078.28
808.84	1075.73
809.16	1075.85
809.48	1072.81
809.80	1069.70
810.12	1068.55
810.44	1073.35
810.77	1072.34
811.09	1072.57
811.41	1074.96
811.73	1075.83
812.05	1072.04
812.37	1071.66
812.69	1075.71
813.01	1079.97
813.33	1081.19
813.66	1082.94
813.98	1085.45
814.30	1086.13
814.62	1083.71
814.94	1084.35
815.26	1083.15
815.58	1082.03
815.90	1081.58
816.22	1082.01
816.54	1082.61
816.86	1083.67
817.18	1084.04
817.50	1081.73
817.82	1081.23
818.14	1078.80
818.46	1080.60
818.78	1080.63
819.10	1082.52
819.42	1083.90
819.74	1084.86
820.06	1082.24
820.38	1080.09
820.70	1080.84
821.02	1081.02
821.34	1080.95
821.66	1083.18
821.98	1085.63
822.30	1085.87
822.62	1083.81
822.94	1083.22
823.26	1084.09
823.58	1081.87
823.90	1081.00
824.22	1080.98
824.54	1080.81
824.86	1078.05
825.18	1080.44
825.50	1076.48
825.81	1077.68
826.13	1078.66
826.45	1078.82
826.77	1076.34
827.09	1077.35
827.41	1073.51
827.73	1074.68
828.05	1075.45
828.36	1076.15
828.68	1078.07
829.00	1080.46
829.32	1083.79
829.64	1084.46
829.96	1083.97
830.28	1083.36
830.59	1081.96
830.91	1077.68
831.23	1078.43
831.55	1077.49
831.87	1077.04
832.19	1080.56
832.50	1082.33
832.82	1080.46
833.14	1084.81
833.46	1085.82
833.78	1084.25
834.09	1080.77
834.41	1080.25
834.73	1075.99
835.05	1075.05
835.36	1074.98
835.68	1076.32
836.00	1075.92
836.32	1073.95
836.63	1072.04
836.95	1072.32
837.27	1072.92
837.59	1074.38
837.90	1078.05
838.22	1079.67
838.54	1079.29
838.85	1076.93
839.17	1076.15
839.49	1074.33
839.80	1076.81
840.12	1075.36
840.44	1077.72
840.76	1077.96
841.07	1079.67
841.39	1074.68
841.71	1076.34
842.02	1076.25
842.34	1074.82
842.65	1076.44
842.97	1082.40
843.29	1081.05
843.60	1082.52
843.92	1086.03
844.24	1083.88
844.55	1080.77
844.87	1081.94
845.18	1080.18
845.50	1078.00
845.82	1079.50
846.13	1080.91
846.45	1080.84
846.76	1080.88
847.08	1079.64
847.40	1080.84
847.71	1081.61
848.03	1083.39
848.34	1083.11
848.66	1086.66
848.97	1085.73
849.29	1084.46
849.60	1081.42
849.92	1082.99
850.24	1082.38
850.55	1077.93
850.87	1080.60
851.18	1080.70
851.50	1080.02
851.81	1082.94
852.13	1085.75
852.44	1081.89
852.76	1085.05
853.07	1086.15
853.39	1080.11
853.70	1079.78
854.01	1080.79
854.33	1077.21
854.64	1073.74
854.96	1072.76
855.27	1075.78
855.59	1075.52
855.90	1075.36
856.22	1077.16
856.53	1078.59
856.84	1075.80
857.16	1074.98
857.47	1074.89
857.79	1072.18
858.10	1072.50
858.41	1073.93
858.73	1076.13
859.04	1075.45
859.36	1077.30
859.67	1081.26
859.98	1081.70
860.30	1079.03
860.61	1083.22
860.92	1083.74
861.24	1081.89
861.55	1081.84
861.87	1084.98
862.18	1083.76
862.49	1082.78
862.81	1083.76
863.12	1081.47
863.43	1080.37
863.74	1080.13
864.06	1081.68
864.37	1079.34
864.68	1078.24
865.00	1077.51
865.31	1075.29
865.62	1074.84
865.94	1077.89
866.25	1079.46
866.56	1078.03
866.87	1079.53
867.19	1078.26
867.50	1076.93
867.81	1078.40
868.12	1079.55
868.44	1078.68
868.75	1079.55
869.06	1076.93
869.37	1073.16
869.68	1072.83
870.00	1075.15
870.31	1074.77
870.62	1075.15
870.93	1077.23
871.24	1077.72
871.56	1076.83
871.87	1078.26
872.18	1078.52
872.49	1077.72
872.80	1076.32
873.12	1075.41
873.43	1073.60
873.74	1075.15
874.05	1073.70
874.36	1076.34
874.67	1079.15
874.98	1079.31
875.29	1077.65
875.61	1082.50
875.92	1079.81
876.23	1079.34
876.54	1079.55
876.85	1079.17
877.16	1075.57
877.47	1074.10
877.78	1067.92
878.09	1068.90
878.40	1070.63
878.72	1071.24
879.03	1073.93
879.34	1076.76
879.65	1074.77
879.96	1073.60
880.27	1077.96
880.58	1076.88
880.89	1076.11
881.20	1077.37
881.51	1077.54
881.82	1075.20
882.13	1079.03
882.44	1079.34
882.75	1080.91
883.06	1081.63
883.37	1081.19
883.68	1076.41
883.99	1077.65
884.30	1075.52
884.61	1074.54
884.92	1074.49
885.23	1074.75
885.54	1076.39
885.85	1078.64
886.16	1079.95
886.47	1079.90
886.78	1081.26
887.08	1078.85
887.39	1074.94
887.70	1073.11
888.01	1071.24
888.32	1069.93
888.63	1071.52
888.94	1074.31
889.25	1076.32
889.56	1079.81
889.87	1082.85
890.17	1082.59
890.48	1080.39
890.79	1079.57
891.10	1080.79
891.41	1079.46
891.72	1077.07
892.03	1079.57
892.34	1080.72
892.64	1077.56
892.95	1079.67
893.26	1080.67
893.57	1082.45
893.88	1081.54
894.18	1081.12
894.49	1079.88
894.80	1082.40
895.11	1083.15
895.42	1083.83
895.72	1083.86
896.03	1081.75
896.34	1083.67
896.65	1082.50
896.96	1080.98
897.26	1082.83
897.57	1084.16
897.88	1079.36
898.19	1079.62
898.49	1083.27
898.80	1082.05
899.11	1080.58
899.41	1083.29
899.72	1080.20
900.03	1077.96
900.34	1077.21
900.64	1082.17
900.95	1081.54
901.26	1080.41
901.56	1079.29
901.87	1080.63
902.18	1074.84
902.48	1073.67
902.79	1077.18
903.10	1077.58
903.40	1076.90
903.71	1079.48
904.02	1079.99
904.32	1079.50
904.63	1080.09
904.94	1082.01
905.24	1082.73
905.55	1082.38
905.85	1081.75
906.16	1079.57
906.47	1078.07
906.77	1077.89
907.08	1079.22
907.38	1078.33
907.69	1079.38
908.00	1081.80
908.30	1081.19
908.61	1082.45
908.91	1084.46
909.22	1083.13
909.52	1082.45
909.83	1083.46
910.14	1080.72
910.44	1080.25
910.75	1082.66
911.05	1079.01
911.36	1079.85
911.66	1079.90
911.97	1078.12
912.27	1080.11
912.58	1081.96
912.88	1079.97
913.19	1079.27
913.49	1081.58
913.80	1077.91
914.10	1076.20
914.41	1074.75
914.71	1077.56
915.01	1076.37
915.32	1077.35
915.62	1074.14
915.93	1074.87
916.23	1075.92
916.54	1072.67
916.84	1073.84
917.15	1076.65
917.45	1077.21
917.75	1074.73
918.06	1077.51
918.36	1076.60
918.67	1081.35
918.97	1083.22
919.27	1083.13
919.58	1081.05
919.88	1082.66
920.18	1079.43
920.49	1077.54
920.79	1078.14
921.10	1078.40
921.40	1077.02
921.70	1077.02
922.01	1077.44
922.31	1074.80
922.61	1076.39
922.92	1074.47
923.22	1074.94
923.52	1074.98
923.82	1079.57
924.13	1080.25
924.43	1082.47
924.73	1083.18
925.04	1084.00
925.34	1082.01
925.64	1082.54
925.94	1081.61
926.25	1079.69
926.55	1078.73
926.85	1078.78
927.15	1078.73
927.46	1078.75
927.76	1081.07
928.06	1080.65
928.36	1082.45
928.67	1079.81
928.97	1079.53
929.27	1078.96
929.57	1076.55
929.87	1076.32
930.18	1080.18
930.48	1080.11
930.78	1079.99
931.08	1080.44
931.38	1078.17
931.69	1073.49
931.99	1074.45
932.29	1072.90
932.59	1075.24
932.89	1077.04
933.19	1080.41
933.49	1081.80
933.80	1083.39
934.10	1084.67
934.40	1082.38
934.70	1083.34
935.00	1082.76
935.30	1085.26
935.60	1085.80
935.90	1086.31
936.20	1086.99
936.50	1084.25
936.81	1081.42
937.11	1078.99
937.41	1083.93
937.71	1081.30
938.01	1082.71
938.31	1083.79
938.61	1086.48
938.91	1082.19
939.21	1080.37
939.51	1080.74
939.81	1078.73
940.11	1072.78
940.41	1070.72
940.71	1072.81
941.01	1069.93
941.31	1066.86
941.61	1073.42
941.91	1075.78
942.21	1078.26
942.51	1081.49
942.81	1085.61
943.11	1084.18
943.41	1083.71
943.71	1081.44
944.01	1080.91
944.31	1084.67
944.61	1083.36
944.90	1080.65
945.20	1080.67
945.50	1081.84
945.80	1077.58
946.10	1078.59
946.40	1081.07
946.70	1081.80
947.00	1078.68
947.30	1080.81
947.60	1079.50
947.89	1078.19
948.19	1079.67
948.49	1083.18
948.79	1081.47
949.09	1082.69
949.39	1086.01
949.69	1082.71
949.98	1081.26
950.28	1079.76
950.58	1077.68
950.88	1072.67
951.18	1073.32
951.48	1073.51
951.77	1072.55
952.07	1073.23
952.37	1076.01
952.67	1077.96
952.97	1075.15
953.26	1074.21
953.56	1075.29
953.86	1075.05
954.16	1071.66
954.45	1077.37
954.75	1081.49
955.05	1082.05
955.35	1081.33
955.64	1082.05
955.94	1078.43
956.24	1079.71
956.54	1075.90
956.83	1078.89
957.13	1078.50
957.43	1077.00
957.72	1074.66
958.02	1077.56
958.32	1076.74
958.61	1076.53
958.91	1079.34
959.21	1080.60
959.50	1080.63
959.80	1081.75
960.10	1085.05
960.39	1085.03
960.69	1084.23
960.99	1082.22
961.28	1080.91
961.58	1082.76
961.87	1083.55
962.17	1081.73
962.47	1084.58
962.76	1085.91
963.06	1082.90
963.36	1079.53
963.65	1079.76
963.95	1077.16
964.24	1075.15
964.54	1072.43
964.83	1075.73
965.13	1078.03
965.42	1081.66
965.72	1081.23
966.02	1083.29
966.31	1082.17
966.61	1079.95
966.90	1076.58
967.20	1075.43
967.49	1072.48
967.79	1073.14
968.08	1075.99
968.38	1078.28
968.67	1082.05
968.97	1085.89
969.26	1083.81
969.56	1079.34
969.85	1077.98
970.15	1074.94
970.44	1073.70
970.74	1075.69
971.03	1077.93
971.32	1079.13
971.62	1079.60
971.91	1081.80
972.21	1078.89
972.50	1079.22
972.80	1076.30
973.09	1074.54
973.38	1072.01
973.68	1073.39
973.97	1070.61
974.27	1071.05
974.56	1075.71
974.85	1072.13
975.15	1071.54
975.44	1074.94
975.73	1075.59
976.03	1073.04
976.32	1080.79
976.61	1083.13
976.91	1084.53
977.20	1082.08
977.49	1082.33
977.79	1075.80
978.08	1073.74
978.37	1072.69
978.67	1077.54
978.96	1075.15
979.25	1081.47
979.55	1084.44
979.84	1082.36
980.13	1079.20
980.42	1082.33
980.72	1077.89
981.01	1075.41
981.30	1074.82
981.59	1080.84
981.89	1080.06
982.18	1079.17
982.47	1079.74
982.76	1080.20
983.06	1074.98
983.35	1073.53
983.64	1073.77
983.93	1071.59
984.22	1071.64
984.52	1071.99
984.81	1074.03
985.10	1078.87
985.39	1080.86
985.68	1080.06
985.97	1082.01
986.27	1083.18
986.56	1079.85
986.85	1079.76
987.14	1081.30
987.43	1079.46
987.72	1075.57
988.01	1073.88
988.31	1076.32
988.60	1076.93
988.89	1077.93
989.18	1081.96
989.47	1081.89
989.76	1079.83
990.05	1077.09
990.34	1074.89
990.63	1072.11
990.92	1075.01
991.21	1074.12
991.51	1079.10
991.80	1079.53
992.09	1079.99
992.38	1081.61
992.67	1084.23
992.96	1080.86
993.25	1081.54
993.54	1079.85
993.83	1075.78
994.12	1074.52
994.41	1076.11
994.70	1076.13
994.99	1078.10
995.28	1077.82
995.57	1072.90
995.86	1070.82
996.15	1067.99
996.44	1066.11
996.73	1068.90
997.02	1073.95
997.31	1077.18
997.59	1080.23
997.88	1082.64
998.17	1083.11
998.46	1079.31
998.75	1075.90
999.04	1075.92
999.33	1075.83
999.62	1069.58
999.91	1072.46
1000.20	1073.65
1000.49	1071.64
1000.77	1067.85
1001.06	1070.26
1001.35	1068.69
1001.64	1069.30
1001.93	1074.77
1002.22	1078.80
1002.51	1079.71
1002.79	1085.49
1003.08	1085.89
1003.37	1079.24
1003.66	1080.27
1003.95	1082.80
1004.23	1078.87
1004.52	1079.48
1004.81	1080.60
1005.10	1079.99
1005.39	1077.30
1005.67	1075.08
1005.96	1077.07
1006.25	1078.59
1006.54	1077.61
1006.83	1077.65
1007.11	1079.85
1007.40	1076.90
1007.69	1075.20
1007.97	1075.22
1008.26	1077.28
1008.55	1075.57
1008.84	1075.27
1009.12	1075.45
1009.41	1074.19
1009.70	1075.45
1009.98	1076.51
1010.27	1075.55
1010.56	1076.76
1010.85	1077.09
1011.13	1073.39
1011.42	1073.16
1011.71	1074.61
1011.99	1075.78
1012.28	1074.21
1012.56	1077.07
1012.85	1079.22
1013.14	1077.40
1013.42	1076.18
1013.71	1075.50
1014.00	1074.56
1014.28	1073.00
1014.57	1072.18
1014.85	1071.24
1015.14	1073.46
1015.43	1074.82
1015.71	1074.42
1016.00	1074.73
1016.28	1077.96
1016.57	1078.38
1016.85	1077.72
1017.14	1075.87
1017.43	1077.61
1017.71	1075.41
1018.00	1075.10
1018.28	1075.59
1018.57	1080.04
1018.85	1079.90
1019.14	1084.44
1019.42	1084.46
1019.71	1084.79
1019.99	1081.73
1020.28	1084.14
1020.56	1079.85
1020.85	1076.67
1021.13	1074.89
1021.42	1074.63
1021.70	1073.09
1021.99	1071.15
1022.27	1075.22
1022.55	1065.41
1022.84	1079.92
>>>>>End Processed Spectral Data<<<<<
