SpectraSuite Data File
++++++++++++++++++++++++++++++++++++
Date: Mon Aug 26 10:21:52 PDT 2019
User: corrico
Dark Spectrum Present: No
Reference Spectrum Present: No
Number of Sampled Component Spectra: 1
Spectrometers: USB2+H06089
Integration Time (usec): 2000 (USB2+H06089)
Spectra Averaged: 20 (USB2+H06089)
Boxcar Smoothing: 2 (USB2+H06089)
Correct for Electrical Dark: No (USB2+H06089)
Strobe/Lamp Enabled: No (USB2+H06089)
Correct for Detector Non-linearity: No (USB2+H06089)
Correct for Stray Light: No (USB2+H06089)
Number of Pixels in Processed Spectrum: 2048
>>>>>Begin Processed Spectral Data<<<<<
339.70	1026.68
340.07	1026.68
340.45	989.63
340.82	967.74
341.19	944.22
341.57	918.85
341.94	911.64
342.31	904.43
342.69	899.00
343.06	897.06
343.43	897.24
343.81	895.89
344.18	898.88
344.55	904.24
344.93	907.36
345.30	911.99
345.67	918.96
346.04	924.54
346.42	932.52
346.79	940.15
347.16	950.35
347.54	958.59
347.91	963.95
348.28	972.14
348.65	981.81
349.03	989.65
349.40	1001.07
349.77	1012.70
350.14	1020.15
350.52	1028.15
350.89	1033.23
351.26	1036.51
351.63	1045.24
352.01	1050.15
352.38	1050.06
352.75	1054.27
353.12	1058.98
353.50	1059.75
353.87	1064.41
354.24	1070.54
354.61	1072.27
354.98	1073.86
355.36	1072.60
355.73	1072.85
356.10	1072.01
356.47	1073.53
356.84	1074.82
357.22	1072.22
357.59	1069.58
357.96	1070.89
358.33	1070.77
358.70	1067.57
359.08	1069.37
359.45	1073.02
359.82	1071.45
360.19	1068.95
360.56	1070.84
360.94	1072.62
361.31	1069.91
361.68	1069.41
362.05	1067.85
362.42	1066.84
362.79	1065.53
363.16	1064.24
363.54	1065.83
363.91	1069.58
364.28	1070.49
364.65	1071.01
365.02	1070.00
365.39	1067.61
365.76	1063.61
366.14	1062.58
366.51	1062.72
366.88	1061.13
367.25	1061.57
367.62	1065.04
367.99	1062.35
368.36	1061.95
368.73	1063.84
369.10	1063.16
369.48	1061.97
369.85	1060.85
370.22	1059.05
370.59	1060.59
370.96	1064.19
371.33	1062.79
371.70	1065.37
372.07	1070.84
372.44	1069.84
372.81	1065.37
373.18	1066.35
373.55	1068.27
373.93	1063.63
374.30	1064.24
374.67	1065.29
375.04	1064.76
375.41	1060.75
375.78	1060.29
376.15	1059.33
376.52	1060.59
376.89	1059.98
377.26	1060.61
377.63	1061.85
378.00	1063.87
378.37	1062.84
378.74	1064.59
379.11	1064.94
379.48	1069.13
379.85	1065.27
380.22	1067.49
380.59	1067.21
380.96	1066.79
381.33	1063.61
381.70	1065.93
382.07	1063.73
382.44	1063.61
382.81	1066.04
383.18	1065.62
383.55	1063.02
383.92	1065.22
384.29	1065.13
384.66	1065.06
385.03	1064.85
385.40	1067.26
385.77	1064.62
386.14	1065.13
386.51	1065.79
386.88	1065.83
387.25	1064.73
387.62	1067.78
387.99	1068.29
388.36	1067.19
388.73	1068.27
389.10	1066.79
389.46	1065.55
389.83	1063.09
390.20	1061.95
390.57	1062.21
390.94	1065.37
391.31	1064.90
391.68	1067.61
392.05	1066.00
392.42	1064.29
392.79	1064.36
393.16	1066.75
393.53	1065.41
393.89	1068.27
394.26	1067.75
394.63	1067.59
395.00	1063.96
395.37	1063.96
395.74	1065.29
396.11	1065.37
396.48	1062.44
396.84	1061.25
397.21	1064.26
397.58	1066.11
397.95	1066.58
398.32	1069.18
398.69	1073.77
399.06	1071.17
399.42	1068.55
399.79	1067.61
400.16	1067.96
400.53	1067.14
400.90	1066.07
401.27	1067.78
401.64	1070.30
402.00	1067.47
402.37	1066.32
402.74	1069.18
403.11	1069.72
403.48	1069.58
403.84	1074.10
404.21	1076.93
404.58	1076.01
404.95	1073.32
405.32	1072.67
405.68	1073.04
406.05	1071.68
406.42	1070.89
406.79	1073.49
407.16	1074.05
407.52	1072.39
407.89	1071.73
408.26	1072.13
408.63	1071.80
408.99	1071.36
409.36	1070.61
409.73	1073.00
410.10	1072.71
410.47	1070.16
410.83	1069.32
411.20	1073.18
411.57	1073.88
411.94	1074.87
412.30	1076.60
412.67	1078.14
413.04	1077.09
413.40	1074.03
413.77	1071.38
414.14	1073.46
414.51	1074.40
414.87	1073.11
415.24	1074.56
415.61	1075.69
415.97	1071.82
416.34	1068.06
416.71	1066.54
417.08	1064.19
417.44	1065.90
417.81	1068.95
418.18	1071.22
418.54	1073.16
418.91	1074.89
419.28	1074.82
419.64	1075.57
420.01	1074.82
420.38	1075.43
420.74	1076.04
421.11	1076.72
421.48	1078.33
421.84	1077.25
422.21	1074.84
422.58	1077.93
422.94	1076.51
423.31	1075.43
423.68	1079.62
424.04	1081.00
424.41	1077.28
424.77	1078.82
425.14	1076.37
425.51	1073.42
425.87	1077.70
426.24	1078.82
426.61	1079.92
426.97	1079.29
427.34	1084.00
427.70	1077.23
428.07	1076.27
428.44	1076.76
428.80	1080.74
429.17	1079.88
429.53	1085.40
429.90	1088.58
430.27	1091.39
430.63	1088.84
431.00	1087.53
431.36	1087.46
431.73	1087.23
432.09	1085.33
432.46	1089.52
432.83	1090.57
433.19	1089.31
433.56	1088.23
433.92	1090.81
434.29	1091.56
434.65	1094.97
435.02	1099.93
435.38	1105.20
435.75	1107.56
436.11	1107.47
436.48	1109.81
436.84	1111.01
437.21	1113.25
437.57	1112.99
437.94	1117.28
438.30	1120.79
438.67	1122.75
439.03	1123.71
439.40	1129.40
439.76	1133.87
440.13	1140.45
440.49	1145.69
440.86	1149.48
441.22	1155.41
441.59	1158.64
441.95	1160.98
442.32	1167.67
442.68	1176.56
443.05	1182.81
443.41	1191.75
443.78	1201.63
444.14	1210.10
444.51	1218.23
444.87	1227.85
445.24	1234.28
445.60	1241.37
445.96	1251.46
446.33	1262.48
446.69	1268.57
447.06	1281.12
447.42	1292.72
447.79	1305.29
448.15	1322.26
448.51	1339.77
448.88	1357.25
449.24	1375.18
449.61	1393.32
449.97	1406.90
450.33	1427.56
450.70	1445.84
451.06	1466.44
451.43	1484.74
451.79	1510.82
452.15	1536.30
452.52	1564.02
452.88	1593.76
453.24	1630.70
453.61	1665.83
453.97	1698.27
454.34	1730.36
454.70	1766.96
455.06	1798.51
455.43	1829.01
455.79	1863.98
456.15	1907.79
456.52	1943.60
456.88	1987.35
457.24	2039.66
457.61	2088.32
457.97	2134.78
458.33	2184.84
458.70	2230.69
459.06	2270.44
459.42	2322.23
459.79	2369.14
460.15	2428.19
460.51	2481.60
460.88	2534.87
461.24	2582.90
461.60	2643.10
461.96	2691.03
462.33	2742.87
462.69	2794.86
463.05	2847.29
463.42	2891.97
463.78	2938.87
464.14	2976.32
464.50	3016.39
464.87	3046.09
465.23	3054.80
465.59	3069.31
465.95	3084.24
466.32	3090.84
466.68	3108.75
467.04	3129.98
467.40	3136.65
467.77	3144.35
468.13	3148.44
468.49	3139.57
468.85	3139.57
469.22	3136.51
469.58	3126.16
469.94	3117.78
470.30	3105.84
470.66	3083.19
471.03	3054.17
471.39	3029.38
471.75	2990.62
472.11	2952.07
472.47	2919.00
472.84	2888.99
473.20	2859.81
473.56	2839.56
473.92	2811.24
474.28	2786.20
474.65	2759.26
475.01	2731.12
475.37	2697.42
475.73	2665.87
476.09	2636.05
476.45	2605.98
476.81	2575.60
477.18	2556.01
477.54	2539.88
477.90	2520.22
478.26	2494.10
478.62	2472.52
478.98	2448.67
479.34	2433.17
479.71	2406.66
480.07	2390.06
480.43	2375.22
480.79	2358.56
481.15	2327.87
481.51	2311.84
481.87	2296.70
482.23	2272.80
482.59	2246.54
482.96	2229.55
483.32	2209.26
483.68	2185.22
484.04	2163.57
484.40	2145.36
484.76	2125.21
485.12	2107.79
485.48	2095.69
485.84	2082.28
486.20	2071.28
486.56	2058.24
486.92	2038.68
487.28	2011.13
487.64	1991.35
488.00	1971.78
488.37	1948.05
488.73	1923.97
489.09	1904.05
489.45	1878.84
489.81	1852.72
490.17	1834.18
490.53	1818.62
490.89	1802.28
491.25	1784.82
491.61	1765.26
491.97	1744.14
492.33	1724.20
492.69	1701.10
493.05	1688.32
493.41	1670.96
493.77	1651.79
494.13	1633.95
494.49	1622.69
494.85	1604.60
495.21	1590.70
495.57	1581.66
495.93	1565.00
496.29	1547.35
496.64	1532.49
497.00	1514.65
497.36	1499.14
497.72	1490.01
498.08	1482.43
498.44	1472.76
498.80	1463.98
499.16	1451.90
499.52	1443.85
499.88	1434.75
500.24	1422.58
500.60	1414.90
500.96	1406.97
501.32	1395.61
501.68	1383.87
502.03	1377.05
502.39	1366.59
502.75	1356.57
503.11	1349.53
503.47	1342.72
503.83	1332.12
504.19	1324.60
504.55	1318.21
504.91	1311.21
505.26	1304.45
505.62	1295.35
505.98	1288.68
506.34	1279.15
506.70	1269.74
507.06	1262.34
507.42	1259.42
507.78	1255.00
508.13	1252.61
508.49	1248.44
508.85	1244.49
509.21	1239.15
509.57	1233.44
509.93	1230.84
510.28	1223.56
510.64	1217.27
511.00	1212.98
511.36	1207.69
511.72	1199.92
512.07	1196.06
512.43	1192.81
512.79	1187.17
513.15	1184.33
513.51	1179.16
513.86	1177.85
514.22	1174.79
514.58	1173.94
514.94	1171.18
515.30	1174.79
515.65	1169.57
516.01	1167.11
516.37	1161.42
516.73	1159.55
517.08	1153.35
517.44	1153.88
517.80	1149.55
518.16	1147.45
518.51	1141.99
518.87	1140.68
519.23	1137.83
519.59	1139.51
519.94	1140.75
520.30	1140.31
520.66	1136.14
521.01	1133.52
521.37	1131.25
521.73	1127.97
522.09	1127.20
522.44	1126.24
522.80	1124.25
523.16	1121.33
523.51	1119.97
523.87	1116.48
524.23	1117.32
524.58	1117.54
524.94	1113.93
525.30	1112.55
525.65	1113.88
526.01	1112.92
526.37	1112.32
526.72	1112.01
527.08	1111.05
527.44	1107.82
527.79	1103.52
528.15	1102.49
528.51	1104.64
528.86	1102.79
529.22	1100.43
529.58	1102.53
529.93	1099.40
530.29	1097.43
530.65	1099.40
531.00	1099.09
531.36	1098.88
531.71	1100.89
532.07	1099.65
532.43	1100.00
532.78	1101.71
533.14	1101.43
533.49	1098.79
533.85	1098.20
534.21	1096.26
534.56	1096.33
534.92	1094.88
535.27	1093.73
535.63	1092.56
535.98	1091.93
536.34	1090.62
536.69	1087.93
537.05	1090.22
537.41	1091.79
537.76	1090.92
538.12	1092.26
538.47	1092.05
538.83	1088.07
539.18	1088.19
539.54	1086.71
539.89	1084.00
540.25	1082.10
540.60	1085.84
540.96	1080.88
541.31	1081.77
541.67	1081.96
542.02	1083.22
542.38	1078.66
542.73	1079.85
543.09	1078.99
543.44	1079.88
543.80	1079.71
544.15	1081.73
544.51	1083.25
544.86	1083.88
545.22	1082.47
545.57	1083.64
545.93	1086.41
546.28	1083.18
546.64	1083.04
546.99	1081.35
547.35	1080.11
547.70	1077.79
548.05	1077.65
548.41	1078.75
548.76	1079.67
549.12	1079.90
549.47	1079.08
549.83	1081.49
550.18	1081.96
550.53	1081.33
550.89	1080.37
551.24	1082.01
551.60	1081.91
551.95	1081.07
552.30	1085.03
552.66	1087.13
553.01	1082.43
553.37	1082.80
553.72	1080.58
554.07	1075.90
554.43	1075.03
554.78	1077.89
555.13	1077.84
555.49	1077.42
555.84	1078.82
556.19	1079.10
556.55	1081.05
556.90	1078.26
557.26	1079.50
557.61	1078.50
557.96	1075.66
558.32	1073.00
558.67	1072.34
559.02	1066.86
559.37	1066.89
559.73	1072.25
560.08	1074.96
560.43	1076.95
560.79	1078.52
561.14	1079.97
561.49	1075.90
561.85	1073.84
562.20	1070.87
562.55	1074.24
562.90	1072.22
563.26	1070.26
563.61	1069.72
563.96	1071.10
564.32	1073.46
564.67	1075.85
565.02	1078.59
565.37	1078.66
565.73	1078.66
566.08	1076.46
566.43	1075.78
566.78	1076.93
567.14	1074.63
567.49	1076.97
567.84	1074.75
568.19	1073.28
568.54	1071.54
568.90	1076.13
569.25	1075.36
569.60	1078.03
569.95	1076.86
570.31	1076.27
570.66	1072.67
571.01	1073.77
571.36	1071.38
571.71	1072.97
572.06	1076.95
572.42	1078.47
572.77	1077.70
573.12	1079.43
573.47	1078.82
573.82	1076.86
574.18	1078.82
574.53	1079.22
574.88	1078.03
575.23	1078.43
575.58	1078.12
575.93	1075.01
576.28	1074.10
576.64	1075.10
576.99	1075.87
577.34	1072.64
577.69	1073.53
578.04	1074.31
578.39	1074.10
578.74	1073.58
579.09	1074.38
579.44	1074.00
579.80	1074.59
580.15	1076.79
580.50	1078.73
580.85	1080.60
581.20	1083.71
581.55	1081.63
581.90	1079.55
582.25	1077.07
582.60	1073.88
582.95	1070.77
583.30	1072.76
583.65	1070.65
584.00	1070.68
584.35	1075.20
584.71	1074.87
585.06	1073.88
585.41	1073.44
585.76	1072.13
586.11	1069.25
586.46	1069.55
586.81	1070.37
587.16	1071.08
587.51	1071.31
587.86	1068.90
588.21	1066.91
588.56	1066.58
588.91	1069.34
589.26	1067.80
589.61	1071.10
589.96	1072.78
590.31	1073.28
590.66	1073.00
591.01	1075.34
591.36	1073.11
591.71	1072.48
592.06	1074.75
592.41	1074.49
592.76	1076.62
593.10	1077.16
593.45	1079.01
593.80	1075.66
594.15	1077.23
594.50	1076.83
594.85	1078.94
595.20	1078.57
595.55	1077.82
595.90	1076.62
596.25	1076.65
596.60	1076.88
596.95	1073.49
597.30	1075.24
597.64	1084.65
597.99	1084.07
598.34	1082.31
598.69	1086.17
599.04	1087.83
599.39	1076.65
599.74	1076.39
600.09	1078.38
600.44	1075.85
600.78	1072.95
601.13	1072.06
601.48	1071.36
601.83	1070.09
602.18	1070.87
602.53	1068.85
602.88	1069.51
603.22	1071.29
603.57	1069.86
603.92	1070.56
604.27	1071.73
604.62	1071.43
604.97	1072.81
605.31	1074.73
605.66	1075.03
606.01	1075.78
606.36	1077.84
606.71	1074.91
607.05	1073.49
607.40	1073.70
607.75	1073.11
608.10	1075.38
608.44	1077.00
608.79	1079.01
609.14	1078.40
609.49	1078.66
609.84	1074.73
610.18	1074.35
610.53	1074.82
610.88	1079.20
611.23	1078.85
611.57	1080.63
611.92	1078.78
612.27	1077.91
612.62	1073.46
612.96	1075.15
613.31	1074.05
613.66	1077.54
614.00	1078.28
614.35	1076.88
614.70	1078.17
615.05	1080.44
615.39	1078.78
615.74	1077.28
616.09	1080.88
616.43	1078.59
616.78	1075.55
617.13	1071.80
617.47	1071.15
617.82	1067.52
618.17	1066.47
618.51	1068.95
618.86	1070.61
619.21	1071.57
619.55	1071.03
619.90	1071.66
620.25	1072.32
620.59	1072.83
620.94	1072.27
621.29	1074.28
621.63	1077.21
621.98	1071.47
622.32	1074.61
622.67	1076.39
623.02	1076.23
623.36	1072.71
623.71	1077.09
624.05	1076.60
624.40	1073.72
624.75	1073.00
625.09	1077.37
625.44	1073.84
625.78	1070.65
626.13	1068.34
626.48	1068.13
626.82	1067.19
627.17	1070.12
627.51	1070.44
627.86	1073.00
628.20	1074.59
628.55	1073.88
628.89	1072.41
629.24	1073.65
629.58	1074.03
629.93	1074.24
630.28	1072.64
630.62	1072.57
630.97	1071.45
631.31	1071.19
631.66	1069.79
632.00	1072.64
632.35	1074.82
632.69	1078.66
633.04	1080.81
633.38	1082.36
633.73	1080.53
634.07	1080.09
634.42	1077.49
634.76	1076.53
635.11	1074.38
635.45	1072.29
635.79	1072.13
636.14	1071.22
636.48	1071.78
636.83	1075.43
637.17	1074.12
637.52	1073.32
637.86	1073.51
638.21	1072.62
638.55	1071.12
638.89	1072.13
639.24	1072.97
639.58	1072.32
639.93	1069.79
640.27	1066.14
640.61	1064.48
640.96	1064.05
641.30	1061.67
641.65	1064.71
641.99	1066.98
642.33	1072.50
642.68	1070.63
643.02	1072.34
643.37	1073.67
643.71	1074.33
644.05	1073.88
644.40	1075.83
644.74	1075.43
645.08	1075.05
645.43	1074.94
645.77	1075.03
646.11	1072.29
646.46	1075.05
646.80	1072.88
647.14	1074.21
647.49	1069.77
647.83	1072.01
648.17	1071.85
648.52	1072.34
648.86	1075.55
649.20	1078.28
649.55	1077.77
649.89	1078.99
650.23	1079.41
650.57	1075.01
650.92	1074.68
651.26	1073.23
651.60	1067.21
651.95	1067.80
652.29	1067.12
652.63	1068.95
652.97	1070.35
653.32	1075.27
653.66	1074.52
654.00	1076.86
654.34	1075.94
654.69	1076.08
655.03	1072.15
655.37	1072.43
655.71	1072.48
656.05	1071.66
656.40	1071.87
656.74	1074.49
657.08	1074.42
657.42	1071.31
657.76	1071.12
658.11	1074.14
658.45	1074.07
658.79	1073.81
659.13	1073.32
659.47	1072.60
659.82	1070.40
660.16	1071.33
660.50	1071.97
660.84	1072.57
661.18	1073.02
661.52	1072.97
661.87	1074.10
662.21	1073.79
662.55	1072.95
662.89	1072.62
663.23	1072.53
663.57	1072.04
663.91	1071.03
664.25	1073.95
664.60	1078.03
664.94	1081.23
665.28	1079.95
665.62	1077.79
665.96	1076.01
666.30	1070.23
666.64	1066.75
666.98	1068.13
667.32	1070.35
667.66	1070.72
668.01	1069.98
668.35	1070.44
668.69	1069.74
669.03	1070.63
669.37	1070.56
669.71	1073.95
670.05	1074.89
670.39	1072.55
670.73	1072.01
671.07	1074.42
671.41	1073.60
671.75	1074.56
672.09	1077.61
672.43	1077.21
672.77	1075.50
673.11	1074.05
673.45	1070.47
673.79	1071.82
674.13	1071.10
674.47	1069.91
674.81	1072.53
675.15	1074.89
675.49	1073.28
675.83	1075.17
676.17	1073.07
676.51	1071.52
676.85	1070.65
677.19	1070.00
677.53	1069.51
677.87	1074.54
678.21	1076.37
678.55	1077.21
678.89	1075.99
679.23	1076.23
679.57	1074.45
679.90	1073.81
680.24	1069.86
680.58	1071.68
680.92	1073.98
681.26	1075.69
681.60	1079.48
681.94	1084.46
682.28	1084.98
682.62	1084.23
682.96	1082.40
683.29	1078.40
683.63	1074.24
683.97	1072.67
684.31	1067.71
684.65	1067.05
684.99	1069.72
685.33	1071.71
685.67	1071.54
686.00	1075.31
686.34	1076.30
686.68	1073.18
687.02	1071.05
687.36	1072.39
687.70	1072.60
688.03	1072.67
688.37	1073.84
688.71	1075.08
689.05	1076.37
689.39	1076.08
689.72	1077.84
690.06	1079.81
690.40	1080.60
690.74	1076.11
691.08	1075.64
691.41	1073.67
691.75	1072.41
692.09	1071.75
692.43	1074.33
692.76	1075.64
693.10	1076.11
693.44	1077.77
693.78	1080.58
694.11	1080.63
694.45	1078.19
694.79	1080.48
695.13	1080.20
695.46	1080.51
695.80	1077.77
696.14	1078.78
696.48	1077.75
696.81	1073.07
697.15	1070.33
697.49	1073.02
697.82	1075.45
698.16	1074.82
698.50	1076.69
698.83	1079.57
699.17	1081.19
699.51	1077.77
699.84	1078.43
700.18	1080.65
700.52	1076.95
700.85	1075.57
701.19	1076.44
701.53	1075.62
701.86	1075.08
702.20	1075.27
702.54	1076.60
702.87	1075.78
703.21	1074.52
703.55	1073.74
703.88	1072.04
704.22	1071.99
704.55	1072.29
704.89	1073.98
705.23	1072.88
705.56	1076.72
705.90	1078.33
706.23	1077.82
706.57	1073.86
706.91	1075.05
707.24	1073.98
707.58	1070.68
707.91	1073.88
708.25	1079.06
708.58	1078.17
708.92	1077.65
709.26	1079.01
709.59	1075.87
709.93	1074.10
710.26	1074.47
710.60	1074.19
710.93	1072.46
711.27	1077.49
711.60	1078.73
711.94	1076.53
712.27	1075.92
712.61	1073.39
712.94	1071.99
713.28	1071.29
713.61	1073.07
713.95	1074.21
714.28	1079.20
714.62	1073.95
714.95	1075.01
715.29	1073.46
715.62	1070.89
715.96	1067.14
716.29	1071.50
716.63	1070.61
716.96	1071.57
717.29	1073.74
717.63	1076.51
717.96	1077.86
718.30	1077.61
718.63	1076.30
718.97	1079.71
719.30	1079.01
719.63	1076.95
719.97	1073.58
720.30	1076.04
720.64	1075.64
720.97	1072.83
721.30	1070.96
721.64	1072.25
721.97	1067.96
722.31	1067.59
722.64	1071.10
722.97	1071.52
723.31	1073.02
723.64	1075.85
723.97	1073.44
724.31	1072.64
724.64	1072.83
724.98	1074.17
725.31	1075.57
725.64	1074.38
725.98	1073.25
726.31	1073.91
726.64	1069.60
726.97	1067.59
727.31	1066.18
727.64	1067.38
727.97	1066.96
728.31	1068.59
728.64	1069.46
728.97	1072.27
729.31	1072.88
729.64	1071.61
729.97	1072.04
730.30	1070.54
730.64	1070.47
730.97	1067.52
731.30	1068.97
731.63	1071.31
731.97	1072.08
732.30	1070.68
732.63	1072.81
732.96	1073.63
733.30	1071.33
733.63	1071.97
733.96	1075.83
734.29	1074.24
734.63	1074.63
734.96	1075.52
735.29	1074.77
735.62	1075.34
735.95	1076.48
736.29	1075.05
736.62	1075.92
736.95	1076.62
737.28	1073.07
737.61	1073.25
737.94	1072.29
738.28	1069.93
738.61	1071.12
738.94	1071.22
739.27	1072.60
739.60	1075.05
739.93	1073.70
740.27	1076.76
740.60	1078.47
740.93	1075.03
741.26	1074.14
741.59	1074.77
741.92	1070.19
742.25	1068.08
742.58	1068.01
742.91	1068.81
743.25	1071.33
743.58	1072.08
743.91	1070.30
744.24	1071.85
744.57	1070.07
744.90	1070.28
745.23	1070.68
745.56	1074.75
745.89	1073.70
746.22	1072.97
746.55	1073.65
746.88	1077.75
747.21	1077.77
747.54	1079.64
747.87	1080.09
748.20	1079.01
748.53	1072.92
748.87	1072.13
749.20	1071.24
749.53	1071.40
749.86	1068.92
750.19	1073.51
750.52	1074.40
750.85	1072.36
751.18	1071.57
751.51	1073.81
751.84	1069.55
752.16	1068.08
752.49	1071.36
752.82	1071.26
753.15	1067.49
753.48	1071.05
753.81	1071.36
754.14	1072.67
754.47	1072.62
754.80	1075.01
755.13	1069.72
755.46	1068.57
755.79	1067.45
756.12	1069.81
756.45	1069.20
756.78	1072.04
757.11	1073.37
757.43	1073.91
757.76	1073.63
758.09	1072.60
758.42	1068.71
758.75	1066.89
759.08	1066.35
759.41	1064.24
759.74	1066.21
760.07	1073.02
760.39	1076.95
760.72	1077.49
761.05	1079.36
761.38	1080.58
761.71	1073.21
762.04	1068.90
762.36	1067.80
762.69	1065.67
763.02	1063.07
763.35	1065.04
763.68	1066.68
764.01	1064.69
764.33	1066.68
764.66	1068.95
764.99	1069.98
765.32	1068.67
765.65	1067.24
765.97	1066.21
766.30	1065.81
766.63	1068.67
766.96	1070.42
767.28	1070.16
767.61	1070.54
767.94	1072.46
768.27	1071.43
768.59	1069.51
768.92	1072.88
769.25	1073.88
769.58	1071.57
769.90	1073.16
770.23	1075.76
770.56	1077.30
770.89	1075.90
771.21	1075.05
771.54	1072.06
771.87	1072.43
772.19	1069.23
772.52	1069.25
772.85	1069.27
773.17	1070.94
773.50	1073.32
773.83	1075.17
774.15	1077.00
774.48	1077.07
774.81	1075.71
775.13	1072.53
775.46	1075.08
775.79	1071.29
776.11	1072.32
776.44	1071.54
776.77	1073.56
777.09	1070.26
777.42	1073.04
777.74	1077.63
778.07	1078.00
778.40	1075.45
778.72	1073.65
779.05	1074.84
779.37	1070.42
779.70	1073.51
780.03	1072.15
780.35	1075.13
780.68	1072.62
781.00	1071.71
781.33	1068.81
781.65	1073.23
781.98	1068.67
782.31	1070.98
782.63	1073.65
782.96	1072.01
783.28	1070.94
783.61	1075.17
783.93	1072.71
784.26	1070.23
784.58	1073.44
784.91	1066.68
785.23	1068.45
785.56	1072.27
785.88	1071.19
786.21	1071.10
786.53	1076.13
786.86	1072.18
787.18	1073.56
787.51	1076.60
787.83	1078.61
788.16	1075.62
788.48	1077.54
788.81	1073.28
789.13	1073.51
789.46	1073.02
789.78	1075.71
790.10	1073.00
790.43	1073.60
790.75	1075.90
791.08	1074.31
791.40	1073.81
791.73	1077.70
792.05	1079.85
792.37	1075.29
792.70	1073.95
793.02	1074.28
793.35	1074.45
793.67	1074.00
793.99	1076.27
794.32	1076.30
794.64	1079.06
794.96	1076.25
795.29	1072.90
795.61	1070.37
795.93	1070.09
796.26	1067.57
796.58	1070.58
796.91	1071.36
797.23	1068.92
797.55	1071.50
797.87	1070.75
798.20	1067.61
798.52	1068.10
798.84	1071.50
799.17	1073.46
799.49	1076.62
799.81	1076.37
800.14	1077.58
800.46	1079.60
800.78	1075.80
801.10	1074.12
801.43	1074.47
801.75	1073.51
802.07	1071.57
802.40	1071.22
802.72	1069.93
803.04	1072.74
803.36	1069.77
803.69	1068.85
804.01	1069.81
804.33	1072.46
804.65	1069.91
804.97	1073.91
805.30	1076.27
805.62	1076.83
805.94	1075.34
806.26	1076.27
806.58	1073.30
806.91	1072.67
807.23	1070.87
807.55	1070.37
807.87	1069.23
808.19	1074.68
808.52	1072.25
808.84	1074.35
809.16	1074.12
809.48	1075.83
809.80	1071.71
810.12	1074.05
810.44	1074.82
810.77	1075.15
811.09	1077.09
811.41	1075.24
811.73	1073.51
812.05	1071.71
812.37	1072.95
812.69	1069.30
813.01	1074.89
813.33	1076.25
813.66	1074.98
813.98	1074.12
814.30	1076.23
814.62	1075.03
814.94	1075.24
815.26	1078.03
815.58	1076.20
815.90	1076.23
816.22	1073.84
816.54	1073.00
816.86	1073.35
817.18	1077.09
817.50	1078.31
817.82	1078.26
818.14	1079.06
818.46	1078.61
818.78	1075.31
819.10	1073.98
819.42	1075.83
819.74	1076.15
820.06	1076.34
820.38	1075.62
820.70	1075.99
821.02	1074.94
821.34	1074.21
821.66	1071.31
821.98	1072.95
822.30	1071.94
822.62	1072.29
822.94	1071.52
823.26	1072.69
823.58	1073.07
823.90	1072.62
824.22	1074.19
824.54	1078.52
824.86	1077.51
825.18	1075.73
825.50	1075.17
825.81	1072.76
826.13	1068.69
826.45	1070.91
826.77	1073.51
827.09	1074.84
827.41	1075.87
827.73	1075.03
828.05	1075.22
828.36	1073.49
828.68	1072.83
829.00	1073.53
829.32	1075.24
829.64	1074.12
829.96	1076.39
830.28	1076.18
830.59	1074.33
830.91	1072.36
831.23	1070.33
831.55	1069.77
831.87	1069.65
832.19	1067.68
832.50	1066.96
832.82	1068.55
833.14	1066.23
833.46	1067.17
833.78	1068.92
834.09	1070.05
834.41	1072.27
834.73	1070.65
835.05	1069.06
835.36	1071.68
835.68	1072.69
836.00	1066.93
836.32	1070.89
836.63	1072.53
836.95	1070.49
837.27	1071.33
837.59	1076.08
837.90	1074.07
838.22	1073.98
838.54	1074.35
838.85	1074.87
839.17	1070.87
839.49	1072.36
839.80	1071.08
840.12	1071.47
840.44	1072.13
840.76	1073.84
841.07	1076.13
841.39	1075.45
841.71	1075.31
842.02	1072.69
842.34	1074.73
842.65	1070.30
842.97	1074.31
843.29	1074.77
843.60	1078.03
843.92	1076.39
844.24	1075.08
844.55	1074.07
844.87	1072.41
845.18	1072.64
845.50	1077.21
845.82	1081.28
846.13	1080.67
846.45	1078.82
846.76	1077.54
847.08	1077.75
847.40	1076.25
847.71	1074.52
848.03	1076.48
848.34	1075.41
848.66	1073.58
848.97	1074.19
849.29	1075.31
849.60	1075.69
849.92	1073.46
850.24	1072.34
850.55	1072.62
850.87	1071.29
851.18	1070.54
851.50	1072.76
851.81	1072.27
852.13	1074.31
852.44	1075.97
852.76	1075.90
853.07	1076.55
853.39	1078.54
853.70	1077.58
854.01	1080.44
854.33	1082.47
854.64	1082.40
854.96	1082.66
855.27	1079.38
855.59	1077.82
855.90	1077.77
856.22	1077.75
856.53	1074.05
856.84	1074.35
857.16	1071.17
857.47	1071.47
857.79	1072.76
858.10	1071.52
858.41	1070.58
858.73	1073.84
859.04	1074.24
859.36	1075.22
859.67	1079.71
859.98	1085.26
860.30	1081.14
860.61	1078.07
860.92	1076.41
861.24	1075.24
861.55	1069.84
861.87	1072.67
862.18	1073.63
862.49	1074.14
862.81	1073.14
863.12	1074.26
863.43	1073.32
863.74	1076.32
864.06	1073.70
864.37	1076.08
864.68	1079.06
865.00	1080.25
865.31	1074.77
865.62	1077.72
865.94	1075.64
866.25	1076.13
866.56	1075.55
866.87	1080.27
867.19	1079.20
867.50	1079.36
867.81	1074.05
868.12	1071.61
868.44	1068.34
868.75	1069.23
869.06	1070.63
869.37	1075.29
869.68	1079.62
870.00	1081.61
870.31	1081.68
870.62	1083.93
870.93	1083.41
871.24	1080.70
871.56	1081.16
871.87	1078.05
872.18	1075.64
872.49	1072.25
872.80	1073.07
873.12	1071.33
873.43	1072.41
873.74	1072.57
874.05	1075.03
874.36	1076.53
874.67	1078.99
874.98	1079.01
875.29	1079.15
875.61	1078.66
875.92	1078.24
876.23	1076.76
876.54	1076.44
876.85	1074.98
877.16	1074.07
877.47	1071.85
877.78	1069.93
878.09	1069.37
878.40	1068.29
878.72	1068.57
879.03	1069.84
879.34	1074.17
879.65	1074.91
879.96	1074.05
880.27	1074.05
880.58	1077.79
880.89	1075.71
881.20	1076.20
881.51	1075.69
881.82	1076.67
882.13	1073.95
882.44	1072.81
882.75	1072.83
883.06	1074.89
883.37	1072.64
883.68	1071.08
883.99	1070.35
884.30	1068.99
884.61	1067.21
884.92	1068.52
885.23	1069.18
885.54	1069.27
885.85	1068.24
886.16	1071.03
886.47	1071.50
886.78	1071.31
887.08	1069.93
887.39	1070.14
887.70	1068.81
888.01	1068.71
888.32	1066.77
888.63	1069.23
888.94	1069.81
889.25	1068.97
889.56	1073.02
889.87	1073.42
890.17	1074.40
890.48	1075.76
890.79	1077.33
891.10	1073.46
891.41	1073.72
891.72	1072.18
892.03	1069.58
892.34	1069.51
892.64	1071.71
892.95	1071.57
893.26	1070.94
893.57	1073.74
893.88	1071.94
894.18	1071.71
894.49	1072.39
894.80	1073.86
895.11	1073.91
895.42	1075.97
895.72	1073.63
896.03	1076.18
896.34	1076.46
896.65	1073.98
896.96	1075.24
897.26	1075.52
897.57	1072.06
897.88	1070.84
898.19	1070.84
898.49	1068.52
898.80	1067.28
899.11	1069.84
899.41	1069.13
899.72	1072.55
900.03	1072.48
900.34	1071.61
900.64	1069.23
900.95	1071.17
901.26	1069.30
901.56	1070.89
901.87	1075.05
902.18	1076.81
902.48	1077.21
902.79	1078.45
903.10	1077.40
903.40	1077.84
903.71	1075.80
904.02	1073.21
904.32	1069.16
904.63	1066.25
904.94	1062.98
905.24	1064.90
905.55	1068.74
905.85	1071.87
906.16	1075.69
906.47	1074.12
906.77	1073.84
907.08	1071.03
907.38	1069.70
907.69	1069.18
908.00	1071.87
908.30	1071.38
908.61	1073.91
908.91	1074.28
909.22	1070.30
909.52	1067.92
909.83	1070.75
910.14	1066.56
910.44	1066.18
910.75	1069.67
911.05	1074.63
911.36	1074.07
911.66	1076.44
911.97	1075.27
912.27	1076.04
912.58	1077.21
912.88	1073.16
913.19	1071.80
913.49	1074.96
913.80	1074.61
914.10	1069.84
914.41	1071.24
914.71	1071.50
915.01	1072.29
915.32	1072.43
915.62	1076.86
915.93	1076.11
916.23	1075.31
916.54	1072.46
916.84	1073.93
917.15	1069.88
917.45	1070.12
917.75	1074.94
918.06	1078.61
918.36	1075.34
918.67	1075.48
918.97	1074.07
919.27	1070.16
919.58	1068.62
919.88	1071.50
920.18	1070.02
920.49	1074.19
920.79	1076.18
921.10	1075.34
921.40	1073.53
921.70	1071.47
922.01	1069.58
922.31	1067.10
922.61	1067.28
922.92	1067.92
923.22	1071.33
923.52	1069.44
923.82	1067.52
924.13	1068.17
924.43	1068.48
924.73	1068.90
925.04	1069.04
925.34	1071.90
925.64	1070.09
925.94	1069.39
926.25	1069.81
926.55	1072.41
926.85	1074.84
927.15	1076.90
927.46	1077.11
927.76	1076.37
928.06	1075.64
928.36	1076.25
928.67	1073.81
928.97	1074.17
929.27	1074.82
929.57	1074.91
929.87	1071.68
930.18	1071.87
930.48	1071.15
930.78	1070.96
931.08	1070.87
931.38	1069.48
931.69	1070.68
931.99	1069.62
932.29	1069.84
932.59	1070.30
932.89	1071.71
933.19	1073.49
933.49	1076.46
933.80	1074.75
934.10	1073.11
934.40	1072.36
934.70	1071.78
935.00	1070.87
935.30	1071.08
935.60	1071.97
935.90	1073.25
936.20	1070.44
936.50	1066.44
936.81	1067.75
937.11	1067.61
937.41	1066.61
937.71	1067.61
938.01	1072.06
938.31	1073.32
938.61	1076.48
938.91	1080.13
939.21	1078.59
939.51	1079.10
939.81	1080.27
940.11	1075.94
940.41	1075.34
940.71	1079.20
941.01	1077.42
941.31	1076.39
941.61	1075.73
941.91	1073.46
942.21	1069.88
942.51	1070.28
942.81	1069.04
943.11	1070.40
943.41	1068.74
943.71	1071.19
944.01	1069.67
944.31	1066.70
944.61	1066.44
944.90	1067.31
945.20	1067.03
945.50	1068.15
945.80	1070.02
946.10	1072.06
946.40	1072.22
946.70	1071.47
947.00	1073.09
947.30	1077.09
947.60	1077.91
947.89	1078.12
948.19	1081.94
948.49	1079.55
948.79	1077.23
949.09	1077.37
949.39	1079.01
949.69	1075.52
949.98	1076.86
950.28	1075.99
950.58	1071.94
950.88	1068.81
951.18	1067.85
951.48	1066.89
951.77	1067.28
952.07	1070.70
952.37	1071.61
952.67	1072.83
952.97	1072.34
953.26	1068.92
953.56	1069.84
953.86	1071.94
954.16	1071.61
954.45	1071.03
954.75	1070.70
955.05	1068.95
955.35	1067.17
955.64	1066.14
955.94	1067.47
956.24	1070.77
956.54	1070.26
956.83	1070.40
957.13	1073.77
957.43	1074.24
957.72	1075.08
958.02	1075.92
958.32	1078.40
958.61	1075.03
958.91	1075.43
959.21	1073.42
959.50	1072.57
959.80	1070.16
960.10	1068.34
960.39	1069.70
960.69	1073.98
960.99	1076.37
961.28	1078.68
961.58	1083.36
961.87	1084.04
962.17	1082.64
962.47	1080.34
962.76	1078.92
963.06	1078.66
963.36	1075.27
963.65	1074.63
963.95	1074.00
964.24	1074.19
964.54	1073.23
964.83	1071.54
965.13	1067.89
965.42	1068.62
965.72	1067.78
966.02	1066.49
966.31	1070.40
966.61	1070.14
966.90	1072.34
967.20	1071.40
967.49	1069.44
967.79	1068.24
968.08	1070.75
968.38	1068.10
968.67	1070.07
968.97	1073.46
969.26	1074.24
969.56	1071.01
969.85	1071.66
970.15	1070.82
970.44	1069.37
970.74	1068.99
971.03	1072.48
971.32	1073.67
971.62	1076.74
971.91	1078.94
972.21	1076.48
972.50	1076.51
972.80	1074.47
973.09	1073.70
973.38	1074.10
973.68	1080.44
973.97	1082.03
974.27	1080.86
974.56	1079.97
974.85	1076.65
975.15	1070.94
975.44	1070.35
975.73	1073.65
976.03	1072.06
976.32	1072.50
976.61	1072.13
976.91	1071.75
977.20	1070.00
977.49	1071.15
977.79	1070.98
978.08	1073.04
978.37	1073.37
978.67	1075.08
978.96	1075.59
979.25	1076.41
979.55	1077.25
979.84	1074.61
980.13	1070.37
980.42	1067.28
980.72	1067.96
981.01	1070.40
981.30	1069.32
981.59	1068.95
981.89	1071.29
982.18	1074.31
982.47	1068.64
982.76	1070.54
983.06	1073.81
983.35	1071.80
983.64	1069.72
983.93	1073.65
984.22	1073.58
984.52	1072.78
984.81	1077.02
985.10	1076.39
985.39	1073.53
985.68	1076.32
985.97	1076.95
986.27	1073.44
986.56	1070.89
986.85	1072.95
987.14	1070.70
987.43	1071.64
987.72	1073.91
988.01	1075.76
988.31	1074.89
988.60	1073.58
988.89	1073.60
989.18	1071.26
989.47	1070.87
989.76	1071.57
990.05	1070.23
990.34	1073.14
990.63	1070.68
990.92	1071.01
991.21	1066.00
991.51	1069.72
991.80	1067.38
992.09	1071.78
992.38	1070.44
992.67	1075.94
992.96	1074.96
993.25	1071.94
993.54	1073.42
993.83	1075.66
994.12	1072.92
994.41	1073.84
994.70	1073.37
994.99	1069.79
995.28	1073.09
995.57	1073.53
995.86	1075.90
996.15	1076.51
996.44	1077.02
996.73	1072.32
997.02	1072.20
997.31	1068.85
997.59	1065.79
997.88	1063.24
998.17	1061.32
998.46	1062.74
998.75	1063.40
999.04	1066.63
999.33	1071.19
999.62	1072.18
999.91	1072.22
1000.20	1072.48
1000.49	1076.44
1000.77	1074.14
1001.06	1075.83
1001.35	1075.94
1001.64	1075.57
1001.93	1074.14
1002.22	1076.39
1002.51	1077.77
1002.79	1077.68
1003.08	1074.91
1003.37	1075.55
1003.66	1075.31
1003.95	1074.38
1004.23	1072.71
1004.52	1073.60
1004.81	1070.21
1005.10	1069.86
1005.39	1067.33
1005.67	1066.72
1005.96	1069.41
1006.25	1072.36
1006.54	1071.08
1006.83	1073.81
1007.11	1077.04
1007.40	1078.28
1007.69	1079.22
1007.97	1080.30
1008.26	1079.76
1008.55	1075.31
1008.84	1074.10
1009.12	1072.08
1009.41	1071.85
1009.70	1069.32
1009.98	1067.89
1010.27	1066.82
1010.56	1066.00
1010.85	1064.59
1011.13	1067.47
1011.42	1069.91
1011.71	1069.79
1011.99	1071.40
1012.28	1075.59
1012.56	1077.09
1012.85	1079.76
1013.14	1081.16
1013.42	1079.29
1013.71	1077.00
1014.00	1076.65
1014.28	1076.41
1014.57	1076.95
1014.85	1075.90
1015.14	1072.39
1015.43	1071.82
1015.71	1070.12
1016.00	1068.48
1016.28	1067.96
1016.57	1070.58
1016.85	1070.56
1017.14	1071.40
1017.43	1072.39
1017.71	1076.27
1018.00	1073.51
1018.28	1072.46
1018.57	1073.30
1018.85	1071.54
1019.14	1070.98
1019.42	1074.35
1019.71	1074.38
1019.99	1073.77
1020.28	1073.91
1020.56	1072.43
1020.85	1073.28
1021.13	1073.21
1021.42	1077.40
1021.70	1078.28
1021.99	1080.46
1022.27	1079.90
1022.55	1081.09
1022.84	1077.47
>>>>>End Processed Spectral Data<<<<<
