SpectraSuite Data File
++++++++++++++++++++++++++++++++++++
Date: Mon Aug 26 10:22:15 PDT 2019
User: corrico
Dark Spectrum Present: No
Reference Spectrum Present: No
Number of Sampled Component Spectra: 1
Spectrometers: USB2+H06089
Integration Time (usec): 2000 (USB2+H06089)
Spectra Averaged: 20 (USB2+H06089)
Boxcar Smoothing: 2 (USB2+H06089)
Correct for Electrical Dark: No (USB2+H06089)
Strobe/Lamp Enabled: No (USB2+H06089)
Correct for Detector Non-linearity: No (USB2+H06089)
Correct for Stray Light: No (USB2+H06089)
Number of Pixels in Processed Spectrum: 2048
>>>>>Begin Processed Spectral Data<<<<<
339.70	1023.28
340.07	1023.28
340.45	994.73
340.82	971.93
341.19	951.24
341.57	926.78
341.94	913.00
342.31	904.99
342.69	903.45
343.06	897.22
343.43	898.18
343.81	902.91
344.18	905.11
344.55	908.36
344.93	914.26
345.30	917.70
345.67	922.73
346.04	928.21
346.42	935.96
346.79	946.72
347.16	956.13
347.54	961.91
347.91	971.35
348.28	978.91
348.65	988.62
349.03	1000.16
349.40	1010.57
349.77	1021.69
350.14	1030.84
350.52	1033.56
350.89	1039.67
351.26	1046.10
351.63	1050.90
352.01	1058.09
352.38	1064.15
352.75	1070.35
353.12	1072.88
353.50	1074.59
353.87	1076.27
354.24	1083.67
354.61	1078.92
354.98	1082.45
355.36	1086.64
355.73	1086.62
356.10	1086.03
356.47	1093.87
356.84	1096.26
357.22	1093.71
357.59	1095.49
357.96	1092.37
358.33	1089.24
358.70	1086.20
359.08	1086.27
359.45	1082.71
359.82	1083.15
360.19	1084.39
360.56	1086.83
360.94	1084.23
361.31	1085.45
361.68	1084.02
362.05	1082.05
362.42	1077.09
362.79	1077.02
363.16	1074.61
363.54	1074.05
363.91	1071.57
364.28	1073.77
364.65	1074.91
365.02	1078.05
365.39	1078.12
365.76	1077.23
366.14	1079.31
366.51	1077.47
366.88	1072.88
367.25	1071.66
367.62	1071.61
367.99	1070.37
368.36	1073.46
368.73	1075.48
369.10	1077.58
369.48	1079.69
369.85	1078.73
370.22	1077.04
370.59	1081.68
370.96	1082.26
371.33	1078.12
371.70	1076.37
372.07	1076.53
372.44	1073.21
372.81	1072.13
373.18	1075.62
373.55	1077.11
373.93	1080.84
374.30	1080.11
374.67	1077.07
375.04	1076.48
375.41	1076.06
375.78	1071.22
376.15	1071.68
376.52	1075.22
376.89	1075.76
377.26	1076.83
377.63	1079.78
378.00	1079.64
378.37	1081.73
378.74	1083.48
379.11	1081.82
379.48	1080.56
379.85	1080.63
380.22	1080.44
380.59	1081.84
380.96	1082.90
381.33	1083.01
381.70	1082.52
382.07	1079.74
382.44	1077.68
382.81	1077.09
383.18	1077.91
383.55	1081.14
383.92	1082.90
384.29	1080.77
384.66	1082.85
385.03	1087.25
385.40	1085.68
385.77	1088.49
386.14	1089.73
386.51	1088.19
386.88	1087.25
387.25	1086.59
387.62	1085.54
387.99	1087.04
388.36	1089.33
388.73	1085.28
389.10	1083.04
389.46	1081.26
389.83	1082.31
390.20	1081.80
390.57	1081.49
390.94	1083.55
391.31	1081.91
391.68	1078.17
392.05	1075.27
392.42	1074.38
392.79	1076.83
393.16	1079.20
393.53	1081.82
393.89	1084.81
394.26	1085.33
394.63	1084.58
395.00	1085.47
395.37	1085.91
395.74	1084.77
396.11	1085.84
396.48	1085.80
396.84	1084.60
397.21	1084.70
397.58	1083.76
397.95	1085.49
398.32	1086.45
398.69	1086.34
399.06	1088.68
399.42	1090.95
399.79	1095.51
400.16	1096.82
400.53	1093.76
400.90	1093.99
401.27	1096.33
401.64	1091.49
402.00	1088.12
402.37	1091.20
402.74	1087.76
403.11	1086.92
403.48	1086.52
403.84	1089.80
404.21	1093.73
404.58	1095.82
404.95	1095.56
405.32	1096.12
405.68	1095.49
406.05	1094.97
406.42	1094.04
406.79	1092.07
407.16	1093.55
407.52	1091.37
407.89	1090.13
408.26	1091.72
408.63	1093.66
408.99	1092.77
409.36	1094.81
409.73	1094.90
410.10	1095.63
410.47	1098.04
410.83	1098.09
411.20	1098.81
411.57	1099.35
411.94	1099.91
412.30	1097.38
412.67	1100.03
413.04	1099.28
413.40	1102.25
413.77	1103.07
414.14	1104.90
414.51	1102.67
414.87	1105.53
415.24	1103.35
415.61	1101.88
415.97	1101.55
416.34	1103.70
416.71	1103.33
417.08	1104.22
417.44	1105.90
417.81	1107.56
418.18	1105.46
418.54	1105.51
418.91	1104.26
419.28	1104.64
419.64	1105.97
420.01	1109.32
420.38	1111.66
420.74	1116.22
421.11	1120.95
421.48	1124.79
421.84	1127.81
422.21	1127.69
422.58	1129.45
422.94	1125.84
423.31	1126.57
423.68	1129.00
424.04	1132.77
424.41	1135.77
424.77	1145.06
425.14	1147.12
425.51	1150.14
425.87	1152.81
426.24	1158.17
426.61	1156.81
426.97	1164.18
427.34	1170.10
427.70	1178.20
428.07	1182.67
428.44	1195.62
428.80	1200.79
429.17	1208.00
429.53	1215.16
429.90	1222.93
430.27	1228.52
430.63	1240.58
431.00	1252.80
431.36	1263.47
431.73	1278.24
432.09	1293.54
432.46	1306.93
432.83	1321.47
433.19	1342.53
433.56	1358.82
433.92	1379.42
434.29	1400.81
434.65	1425.53
435.02	1450.41
435.38	1480.30
435.75	1508.45
436.11	1540.70
436.48	1573.12
436.84	1606.94
437.21	1647.25
437.57	1681.84
437.94	1724.76
438.30	1768.09
438.67	1818.01
439.03	1864.73
439.40	1924.37
439.76	1978.95
440.13	2041.11
440.49	2108.52
440.86	2174.54
441.22	2248.62
441.59	2326.80
441.95	2414.43
442.32	2497.96
442.68	2597.41
443.05	2695.38
443.41	2793.55
443.78	2899.57
444.14	3016.08
444.51	3129.32
444.87	3270.69
445.24	3417.86
445.60	3568.29
445.96	3723.25
446.33	3897.55
446.69	4068.46
447.06	4255.02
447.42	4443.23
447.79	4642.27
448.15	4869.72
448.51	5100.05
448.88	5368.02
449.24	5628.08
449.61	5925.35
449.97	6227.49
450.33	6527.61
450.70	6810.47
451.06	7151.39
451.43	7463.17
451.79	7832.72
452.15	8250.01
452.52	8710.96
452.88	9189.15
453.24	9748.75
453.61	10369.11
453.97	10958.95
454.34	11546.80
454.70	12224.92
455.06	12888.21
455.43	13506.30
455.79	14116.22
456.15	14826.10
456.52	15499.19
456.88	16289.50
457.24	17044.16
457.61	17939.67
457.97	18766.23
458.33	19592.93
458.70	20421.01
459.06	21219.02
459.42	22105.54
459.79	22893.76
460.15	23823.54
460.51	24698.57
460.88	25652.88
461.24	26460.04
461.60	27473.96
461.96	28375.53
462.33	29258.33
462.69	30105.40
463.05	31041.96
463.42	31837.00
463.78	32604.60
464.14	33270.76
464.50	33951.30
464.87	34422.09
465.23	34763.20
465.59	35066.21
465.95	35274.35
466.32	35474.84
466.68	35711.78
467.04	35863.91
467.40	36024.92
467.77	36258.64
468.13	36296.79
468.49	36218.99
468.85	36142.65
469.22	35951.17
469.58	35561.42
469.94	35256.59
470.30	34934.27
470.66	34510.10
471.03	33915.95
471.39	33509.24
471.75	32863.70
472.11	32233.44
472.47	31861.46
472.84	31507.89
473.20	30976.31
473.56	30671.20
473.92	30210.11
474.28	29654.31
474.65	29167.73
475.01	28735.46
475.37	28193.13
475.73	27743.96
476.09	27244.84
476.45	26755.60
476.81	26217.18
477.18	25655.92
477.54	25170.85
477.90	24754.58
478.26	24249.75
478.62	23840.91
478.98	23504.48
479.34	23156.96
479.71	22708.25
480.07	22330.79
480.43	21958.88
480.79	21569.60
481.15	21212.53
481.51	20920.25
481.87	20667.94
482.23	20351.92
482.59	20077.35
482.96	19755.34
483.32	19418.32
483.68	19021.16
484.04	18688.31
484.40	18287.54
484.76	17915.09
485.12	17550.37
485.48	17229.50
485.84	16858.06
486.20	16494.13
486.56	16112.90
486.92	15780.29
487.28	15408.59
487.64	15037.01
488.00	14718.90
488.37	14396.89
488.73	14008.71
489.09	13627.72
489.45	13293.42
489.81	12934.17
490.17	12605.28
490.53	12303.77
490.89	12005.03
491.25	11697.65
491.61	11380.97
491.97	11044.43
492.33	10708.86
492.69	10398.42
493.05	10081.60
493.41	9788.03
493.77	9511.33
494.13	9265.78
494.49	8996.34
494.85	8748.06
495.21	8501.46
495.57	8273.96
495.93	8031.97
496.29	7811.09
496.64	7612.29
497.00	7424.09
497.36	7225.23
497.72	7041.17
498.08	6861.26
498.44	6682.63
498.80	6505.10
499.16	6328.22
499.52	6164.64
499.88	6025.90
500.24	5894.94
500.60	5757.88
500.96	5638.61
501.32	5516.24
501.68	5387.56
502.03	5243.24
502.39	5116.65
502.75	4975.28
503.11	4832.88
503.47	4707.10
503.83	4579.35
504.19	4446.97
504.55	4338.02
504.91	4246.41
505.26	4149.14
505.62	4065.93
505.98	3980.97
506.34	3885.31
506.70	3789.02
507.06	3702.35
507.42	3615.61
507.78	3535.96
508.13	3457.44
508.49	3381.35
508.85	3307.57
509.21	3234.81
509.57	3165.22
509.93	3098.99
510.28	3033.59
510.64	2971.80
511.00	2903.39
511.36	2845.72
511.72	2789.22
512.07	2738.52
512.43	2680.17
512.79	2632.89
513.15	2581.03
513.51	2532.90
513.86	2481.11
514.22	2437.53
514.58	2397.04
514.94	2354.91
515.30	2315.47
515.65	2279.59
516.01	2244.39
516.37	2210.31
516.73	2177.31
517.08	2147.61
517.44	2114.72
517.80	2085.21
518.16	2056.23
518.51	2030.09
518.87	1999.99
519.23	1970.54
519.59	1942.74
519.94	1911.70
520.30	1888.30
520.66	1869.27
521.01	1846.14
521.37	1821.24
521.73	1802.07
522.09	1778.55
522.44	1754.63
522.80	1735.04
523.16	1715.66
523.51	1696.35
523.87	1676.48
524.23	1659.65
524.58	1639.69
524.94	1620.80
525.30	1600.86
525.65	1579.89
526.01	1562.45
526.37	1547.49
526.72	1531.53
527.08	1515.54
527.44	1506.11
527.79	1492.68
528.15	1483.27
528.51	1474.23
528.86	1464.96
529.22	1452.70
529.58	1435.08
529.93	1422.23
530.29	1409.92
530.65	1397.72
531.00	1388.99
531.36	1387.05
531.71	1375.25
532.07	1365.12
532.43	1359.13
532.78	1348.71
533.14	1340.28
533.49	1334.97
533.85	1329.63
534.21	1319.71
534.56	1315.15
534.92	1302.32
535.27	1294.95
535.63	1289.54
535.98	1285.35
536.34	1279.24
536.69	1279.66
537.05	1274.35
537.41	1266.81
537.76	1261.67
538.12	1256.52
538.47	1251.09
538.83	1247.04
539.18	1244.79
539.54	1240.91
539.89	1238.05
540.25	1232.85
540.60	1228.90
540.96	1226.60
541.31	1225.13
541.67	1220.24
542.02	1217.03
542.38	1211.32
542.73	1205.42
543.09	1198.68
543.44	1194.98
543.80	1192.25
544.15	1193.46
544.51	1189.95
544.86	1189.04
545.22	1186.16
545.57	1181.97
545.93	1177.83
546.28	1175.86
546.64	1173.92
546.99	1172.56
547.35	1171.18
547.70	1169.26
548.05	1165.63
548.41	1162.24
548.76	1157.47
549.12	1155.43
549.47	1151.24
549.83	1148.24
550.18	1144.19
550.53	1143.05
550.89	1143.68
551.24	1142.98
551.60	1145.65
551.95	1142.30
552.30	1138.69
552.66	1134.11
553.01	1133.85
553.37	1130.67
553.72	1132.19
554.07	1134.50
554.43	1133.52
554.78	1129.73
555.13	1126.52
555.49	1126.69
555.84	1123.74
556.19	1123.60
556.55	1123.41
556.90	1125.42
557.26	1123.25
557.61	1123.69
557.96	1122.54
558.32	1121.49
558.67	1119.13
559.02	1117.91
559.37	1113.98
559.73	1112.69
560.08	1114.45
560.43	1112.88
560.79	1116.55
561.14	1117.23
561.49	1117.68
561.85	1115.57
562.20	1115.76
562.55	1112.81
562.90	1116.06
563.26	1115.94
563.61	1115.24
563.96	1113.21
564.32	1111.64
564.67	1110.12
565.02	1111.31
565.37	1112.20
565.73	1114.02
566.08	1114.10
566.43	1111.82
566.78	1105.93
567.14	1103.77
567.49	1099.70
567.84	1096.47
568.19	1096.19
568.54	1098.48
568.90	1096.61
569.25	1101.08
569.60	1100.64
569.95	1098.20
570.31	1098.72
570.66	1101.88
571.01	1100.94
571.36	1102.95
571.71	1105.62
572.06	1105.65
572.42	1103.47
572.77	1104.08
573.12	1103.14
573.47	1101.69
573.82	1098.88
574.18	1097.66
574.53	1094.32
574.88	1095.65
575.23	1095.65
575.58	1097.66
575.93	1099.77
576.28	1098.90
576.64	1098.27
576.99	1099.54
577.34	1097.34
577.69	1096.73
578.04	1097.22
578.39	1095.25
578.74	1093.59
579.09	1094.86
579.44	1094.57
579.80	1094.41
580.15	1093.24
580.50	1093.55
580.85	1095.44
581.20	1095.60
581.55	1095.89
581.90	1098.81
582.25	1096.52
582.60	1094.60
582.95	1093.92
583.30	1092.96
583.65	1092.45
584.00	1092.35
584.35	1092.14
584.71	1091.56
585.06	1093.31
585.41	1091.63
585.76	1096.17
586.11	1095.11
586.46	1093.05
586.81	1088.35
587.16	1088.35
587.51	1085.84
587.86	1084.96
588.21	1086.15
588.56	1090.17
588.91	1090.13
589.26	1091.09
589.61	1093.03
589.96	1090.78
590.31	1092.26
590.66	1091.95
591.01	1090.06
591.36	1087.76
591.71	1089.05
592.06	1086.17
592.41	1085.03
592.76	1087.83
593.10	1086.06
593.45	1085.38
593.80	1086.69
594.15	1087.16
594.50	1086.64
594.85	1087.72
595.20	1087.16
595.55	1085.99
595.90	1087.39
596.25	1086.10
596.60	1086.80
596.95	1088.56
597.30	1087.93
597.64	1095.44
597.99	1093.52
598.34	1093.10
598.69	1090.90
599.04	1091.63
599.39	1085.12
599.74	1085.00
600.09	1087.16
600.44	1089.45
600.78	1089.59
601.13	1086.22
601.48	1084.04
601.83	1083.48
602.18	1080.70
602.53	1081.82
602.88	1083.43
603.22	1087.32
603.57	1085.73
603.92	1088.58
604.27	1086.92
604.62	1085.91
604.97	1084.86
605.31	1085.89
605.66	1084.70
606.01	1083.76
606.36	1084.21
606.71	1082.54
607.05	1080.58
607.40	1079.64
607.75	1083.43
608.10	1084.02
608.44	1083.25
608.79	1084.89
609.14	1085.59
609.49	1084.18
609.84	1083.57
610.18	1086.27
610.53	1084.04
610.88	1084.77
611.23	1085.77
611.57	1085.33
611.92	1084.65
612.27	1085.33
612.62	1083.90
612.96	1081.19
613.31	1080.58
613.66	1081.61
614.00	1082.19
614.35	1081.00
614.70	1081.91
615.05	1082.83
615.39	1081.91
615.74	1080.86
616.09	1084.28
616.43	1082.12
616.78	1082.80
617.13	1083.86
617.47	1087.37
617.82	1087.02
618.17	1088.56
618.51	1091.46
618.86	1088.42
619.21	1088.49
619.55	1088.56
619.90	1088.37
620.25	1084.81
620.59	1086.59
620.94	1084.02
621.29	1081.66
621.63	1083.60
621.98	1081.05
622.32	1083.60
622.67	1085.56
623.02	1082.99
623.36	1080.60
623.71	1083.22
624.05	1079.81
624.40	1076.72
624.75	1080.04
625.09	1080.44
625.44	1079.43
625.78	1078.78
626.13	1074.66
626.48	1076.72
626.82	1077.98
627.17	1079.22
627.51	1082.52
627.86	1087.34
628.20	1086.31
628.55	1083.27
628.89	1079.17
629.24	1074.96
629.58	1076.55
629.93	1077.18
630.28	1081.47
630.62	1085.40
630.97	1086.92
631.31	1085.68
631.66	1084.07
632.00	1081.87
632.35	1082.73
632.69	1083.76
633.04	1082.76
633.38	1082.26
633.73	1077.86
634.07	1074.52
634.42	1074.52
634.76	1074.28
635.11	1076.39
635.45	1078.47
635.79	1080.32
636.14	1078.47
636.48	1077.82
636.83	1076.53
637.17	1082.10
637.52	1082.31
637.86	1080.18
638.21	1082.47
638.55	1084.70
638.89	1080.63
639.24	1081.12
639.58	1083.43
639.93	1084.25
640.27	1082.24
640.61	1084.02
640.96	1081.68
641.30	1083.48
641.65	1081.80
641.99	1083.01
642.33	1085.38
642.68	1087.93
643.02	1087.09
643.37	1087.53
643.71	1087.86
644.05	1083.93
644.40	1083.69
644.74	1081.23
645.08	1080.41
645.43	1079.46
645.77	1079.85
646.11	1075.83
646.46	1080.95
646.80	1083.18
647.14	1080.13
647.49	1078.17
647.83	1081.77
648.17	1080.02
648.52	1079.20
648.86	1083.06
649.20	1083.41
649.55	1082.90
649.89	1083.48
650.23	1082.43
650.57	1086.50
650.92	1087.88
651.26	1084.18
651.60	1084.00
651.95	1083.04
652.29	1076.15
652.63	1076.23
652.97	1078.14
653.32	1075.48
653.66	1074.52
654.00	1074.98
654.34	1079.24
654.69	1083.48
655.03	1087.41
655.37	1090.29
655.71	1090.78
656.05	1084.67
656.40	1080.74
656.74	1078.61
657.08	1078.12
657.42	1077.91
657.76	1080.34
658.11	1082.40
658.45	1084.84
658.79	1085.63
659.13	1088.33
659.47	1082.66
659.82	1081.80
660.16	1080.91
660.50	1079.53
660.84	1076.95
661.18	1082.10
661.52	1084.72
661.87	1081.63
662.21	1083.95
662.55	1086.13
662.89	1086.38
663.23	1084.21
663.57	1085.96
663.91	1084.25
664.25	1080.81
664.60	1078.78
664.94	1077.07
665.28	1077.65
665.62	1077.51
665.96	1082.90
666.30	1086.76
666.64	1091.30
666.98	1090.81
667.32	1090.95
667.66	1087.74
668.01	1085.68
668.35	1084.49
668.69	1083.34
669.03	1080.13
669.37	1079.22
669.71	1076.81
670.05	1073.91
670.39	1077.25
670.73	1077.18
671.07	1077.72
671.41	1076.08
671.75	1077.98
672.09	1073.70
672.43	1075.73
672.77	1078.05
673.11	1084.65
673.45	1083.22
673.79	1083.06
674.13	1083.50
674.47	1082.10
674.81	1078.89
675.15	1078.54
675.49	1080.02
675.83	1080.39
676.17	1082.40
676.51	1083.41
676.85	1086.27
677.19	1085.70
677.53	1083.34
677.87	1081.23
678.21	1080.46
678.55	1077.98
678.89	1078.80
679.23	1082.73
679.57	1081.96
679.90	1081.47
680.24	1081.33
680.58	1080.56
680.92	1078.40
681.26	1081.05
681.60	1081.87
681.94	1081.89
682.28	1083.60
682.62	1084.91
682.96	1081.73
683.29	1080.16
683.63	1082.17
683.97	1081.30
684.31	1079.76
684.65	1081.28
684.99	1081.26
685.33	1077.77
685.67	1077.51
686.00	1076.76
686.34	1077.23
686.68	1080.34
687.02	1082.64
687.36	1083.13
687.70	1086.10
688.03	1085.38
688.37	1085.45
688.71	1085.10
689.05	1084.77
689.39	1086.15
689.72	1086.64
690.06	1083.74
690.40	1084.11
690.74	1085.73
691.08	1083.25
691.41	1083.13
691.75	1084.98
692.09	1085.07
692.43	1084.77
692.76	1086.36
693.10	1083.95
693.44	1083.29
693.78	1083.29
694.11	1083.08
694.45	1080.09
694.79	1080.98
695.13	1080.79
695.46	1081.28
695.80	1078.92
696.14	1079.55
696.48	1080.02
696.81	1080.91
697.15	1080.93
697.49	1081.96
697.82	1086.08
698.16	1087.60
698.50	1087.11
698.83	1087.53
699.17	1085.21
699.51	1082.99
699.84	1081.07
700.18	1079.57
700.52	1076.06
700.85	1081.37
701.19	1081.44
701.53	1079.78
701.86	1078.99
702.20	1080.98
702.54	1077.44
702.87	1077.07
703.21	1081.02
703.55	1082.24
703.88	1082.50
704.22	1085.96
704.55	1087.30
704.89	1087.27
705.23	1089.07
705.56	1086.50
705.90	1084.02
706.23	1081.80
706.57	1080.16
706.91	1079.38
707.24	1082.10
707.58	1080.04
707.91	1078.99
708.25	1079.27
708.58	1079.46
708.92	1080.79
709.26	1083.79
709.59	1085.33
709.93	1083.86
710.26	1084.98
710.60	1083.34
710.93	1084.07
711.27	1081.07
711.60	1080.93
711.94	1076.97
712.27	1075.22
712.61	1074.17
712.94	1077.77
713.28	1078.24
713.61	1079.60
713.95	1083.76
714.28	1082.99
714.62	1082.01
714.95	1082.22
715.29	1083.79
715.62	1081.37
715.96	1078.87
716.29	1079.88
716.63	1079.08
716.96	1079.29
717.29	1079.10
717.63	1080.06
717.96	1076.90
718.30	1077.82
718.63	1078.66
718.97	1076.41
719.30	1078.14
719.63	1078.57
719.97	1078.89
720.30	1076.32
720.64	1075.99
720.97	1078.33
721.30	1080.30
721.64	1078.10
721.97	1078.26
722.31	1081.98
722.64	1082.66
722.97	1081.51
723.31	1084.56
723.64	1086.62
723.97	1082.73
724.31	1077.14
724.64	1079.41
724.98	1077.49
725.31	1076.97
725.64	1080.18
725.98	1082.99
726.31	1079.34
726.64	1080.65
726.97	1077.18
727.31	1076.72
727.64	1074.07
727.97	1073.95
728.31	1073.56
728.64	1075.29
728.97	1073.23
729.31	1074.07
729.64	1074.87
729.97	1075.05
730.30	1076.39
730.64	1078.87
730.97	1079.43
731.30	1082.22
731.63	1081.16
731.97	1082.03
732.30	1082.87
732.63	1080.65
732.96	1081.44
733.30	1081.84
733.63	1080.98
733.96	1079.06
734.29	1082.76
734.63	1081.77
734.96	1084.53
735.29	1084.25
735.62	1085.26
735.95	1085.35
736.29	1084.49
736.62	1080.44
736.95	1076.74
737.28	1074.42
737.61	1072.08
737.94	1071.45
738.28	1074.17
738.61	1077.47
738.94	1078.57
739.27	1081.40
739.60	1079.10
739.93	1079.24
740.27	1079.17
740.60	1080.95
740.93	1079.71
741.26	1081.82
741.59	1079.90
741.92	1081.33
742.25	1082.24
742.58	1081.70
742.91	1082.05
743.25	1081.40
743.58	1081.19
743.91	1078.82
744.24	1076.06
744.57	1073.72
744.90	1071.52
745.23	1068.95
745.56	1069.06
745.89	1073.00
746.22	1073.32
746.55	1077.04
746.88	1077.72
747.21	1080.39
747.54	1079.24
747.87	1079.95
748.20	1080.11
748.53	1080.44
748.87	1078.05
749.20	1080.72
749.53	1079.85
749.86	1077.86
750.19	1078.28
750.52	1080.60
750.85	1079.15
751.18	1079.62
751.51	1081.44
751.84	1079.34
752.16	1078.94
752.49	1079.10
752.82	1079.71
753.15	1081.49
753.48	1083.71
753.81	1082.83
754.14	1081.28
754.47	1082.40
754.80	1080.84
755.13	1080.11
755.46	1079.27
755.79	1076.53
756.12	1075.43
756.45	1075.38
756.78	1077.09
757.11	1079.22
757.43	1082.78
757.76	1086.29
758.09	1087.25
758.42	1087.72
758.75	1087.04
759.08	1088.49
759.41	1083.43
759.74	1083.74
760.07	1083.15
760.39	1080.60
760.72	1078.75
761.05	1083.01
761.38	1080.53
761.71	1077.89
762.04	1080.95
762.36	1081.63
762.69	1082.31
763.02	1083.60
763.35	1085.35
763.68	1083.32
764.01	1082.31
764.33	1077.40
764.66	1078.47
764.99	1079.81
765.32	1078.17
765.65	1079.88
765.97	1083.79
766.30	1081.21
766.63	1079.64
766.96	1080.18
767.28	1077.75
767.61	1078.40
767.94	1081.66
768.27	1080.41
768.59	1081.00
768.92	1080.39
769.25	1080.53
769.58	1077.02
769.90	1074.98
770.23	1078.64
770.56	1079.78
770.89	1076.30
771.21	1075.90
771.54	1077.82
771.87	1072.67
772.19	1069.37
772.52	1071.97
772.85	1072.81
773.17	1072.64
773.50	1072.36
773.83	1075.41
774.15	1073.95
774.48	1075.15
774.81	1074.96
775.13	1077.18
775.46	1077.37
775.79	1078.33
776.11	1076.23
776.44	1077.30
776.77	1077.86
777.09	1078.80
777.42	1079.95
777.74	1082.38
778.07	1084.70
778.40	1087.37
778.72	1086.52
779.05	1085.45
779.37	1084.49
779.70	1082.52
780.03	1083.60
780.35	1085.75
780.68	1085.03
781.00	1085.31
781.33	1087.23
781.65	1084.04
781.98	1082.38
782.31	1083.62
782.63	1082.54
782.96	1078.05
783.28	1076.74
783.61	1074.68
783.93	1073.04
784.26	1077.25
784.58	1081.75
784.91	1081.49
785.23	1084.07
785.56	1084.89
785.88	1079.48
786.21	1074.96
786.53	1075.52
786.86	1075.13
787.18	1071.64
787.51	1073.44
787.83	1079.55
788.16	1077.25
788.48	1076.01
788.81	1078.14
789.13	1079.38
789.46	1076.67
789.78	1080.30
790.10	1080.58
790.43	1078.38
790.75	1078.03
791.08	1076.08
791.40	1074.68
791.73	1077.28
792.05	1082.22
792.37	1081.02
792.70	1082.38
793.02	1083.48
793.35	1083.18
793.67	1082.64
793.99	1081.87
794.32	1082.22
794.64	1079.99
794.96	1076.53
795.29	1075.10
795.61	1076.46
795.93	1075.22
796.26	1078.00
796.58	1078.80
796.91	1078.73
797.23	1081.07
797.55	1082.15
797.87	1080.48
798.20	1080.86
798.52	1082.92
798.84	1080.74
799.17	1080.70
799.49	1078.19
799.81	1078.96
800.14	1074.38
800.46	1078.14
800.78	1076.72
801.10	1079.46
801.43	1079.85
801.75	1081.75
802.07	1077.04
802.40	1076.37
802.72	1074.66
803.04	1072.36
803.36	1073.65
803.69	1073.49
804.01	1073.53
804.33	1071.71
804.65	1072.08
804.97	1072.92
805.30	1077.30
805.62	1080.84
805.94	1084.25
806.26	1086.43
806.58	1083.22
806.91	1079.90
807.23	1079.67
807.55	1078.40
807.87	1079.74
808.19	1078.78
808.52	1079.31
808.84	1078.66
809.16	1080.88
809.48	1078.38
809.80	1080.63
810.12	1078.24
810.44	1078.19
810.77	1078.54
811.09	1078.85
811.41	1077.89
811.73	1079.06
812.05	1079.01
812.37	1075.71
812.69	1076.81
813.01	1078.38
813.33	1078.66
813.66	1080.18
813.98	1080.58
814.30	1078.99
814.62	1079.06
814.94	1081.51
815.26	1075.71
815.58	1076.93
815.90	1079.64
816.22	1077.96
816.54	1075.27
816.86	1076.74
817.18	1077.82
817.50	1071.54
817.82	1070.68
818.14	1070.05
818.46	1073.23
818.78	1074.07
819.10	1078.00
819.42	1077.33
819.74	1075.92
820.06	1073.84
820.38	1073.70
820.70	1073.95
821.02	1077.37
821.34	1080.93
821.66	1081.05
821.98	1080.84
822.30	1081.02
822.62	1081.75
822.94	1083.69
823.26	1084.67
823.58	1083.46
823.90	1085.61
824.22	1086.10
824.54	1083.62
824.86	1084.67
825.18	1082.83
825.50	1082.47
825.81	1081.26
826.13	1080.02
826.45	1079.03
826.77	1079.78
827.09	1078.26
827.41	1078.14
827.73	1077.96
828.05	1079.27
828.36	1082.57
828.68	1079.90
829.00	1079.03
829.32	1081.23
829.64	1078.14
829.96	1076.32
830.28	1079.08
830.59	1079.53
830.91	1078.12
831.23	1082.26
831.55	1082.08
831.87	1079.10
832.19	1079.95
832.50	1077.28
832.82	1075.15
833.14	1073.30
833.46	1074.19
833.78	1072.97
834.09	1076.25
834.41	1075.97
834.73	1076.88
835.05	1075.73
835.36	1074.56
835.68	1074.94
836.00	1075.34
836.32	1077.61
836.63	1079.08
836.95	1079.60
837.27	1079.81
837.59	1078.75
837.90	1077.35
838.22	1079.92
838.54	1082.19
838.85	1081.63
839.17	1084.25
839.49	1083.69
839.80	1082.76
840.12	1079.97
840.44	1076.04
840.76	1072.39
841.07	1071.64
841.39	1069.30
841.71	1072.27
842.02	1075.85
842.34	1075.59
842.65	1076.65
842.97	1079.88
843.29	1077.84
843.60	1077.04
843.92	1080.88
844.24	1080.58
844.55	1080.60
844.87	1080.48
845.18	1079.62
845.50	1077.09
845.82	1077.51
846.13	1075.92
846.45	1074.45
846.76	1076.81
847.08	1075.87
847.40	1073.79
847.71	1073.60
848.03	1074.56
848.34	1075.20
848.66	1075.22
848.97	1077.82
849.29	1077.44
849.60	1080.48
849.92	1076.44
850.24	1075.59
850.55	1078.64
850.87	1076.34
851.18	1073.51
851.50	1075.45
851.81	1075.59
852.13	1070.19
852.44	1072.13
852.76	1073.86
853.07	1070.02
853.39	1073.32
853.70	1075.87
854.01	1078.75
854.33	1075.05
854.64	1077.49
854.96	1075.90
855.27	1074.68
855.59	1070.49
855.90	1073.07
856.22	1076.93
856.53	1077.21
856.84	1075.92
857.16	1078.50
857.47	1077.51
857.79	1076.27
858.10	1073.51
858.41	1073.23
858.73	1071.87
859.04	1073.35
859.36	1073.09
859.67	1075.27
859.98	1076.62
860.30	1077.63
860.61	1079.13
860.92	1078.57
861.24	1079.10
861.55	1080.30
861.87	1081.37
862.18	1084.00
862.49	1084.53
862.81	1085.24
863.12	1084.72
863.43	1085.19
863.74	1082.40
864.06	1080.58
864.37	1081.14
864.68	1079.78
865.00	1078.17
865.31	1077.51
865.62	1080.41
865.94	1080.30
866.25	1080.51
866.56	1080.67
866.87	1080.20
867.19	1080.06
867.50	1079.85
867.81	1082.54
868.12	1082.54
868.44	1084.23
868.75	1085.77
869.06	1087.90
869.37	1085.31
869.68	1086.92
870.00	1084.16
870.31	1080.70
870.62	1075.94
870.93	1079.36
871.24	1077.89
871.56	1077.51
871.87	1076.55
872.18	1078.96
872.49	1074.26
872.80	1072.81
873.12	1074.45
873.43	1075.99
873.74	1078.00
874.05	1082.15
874.36	1084.77
874.67	1083.46
874.98	1083.08
875.29	1081.70
875.61	1078.28
875.92	1076.88
876.23	1078.50
876.54	1077.82
876.85	1074.73
877.16	1076.55
877.47	1075.13
877.78	1073.84
878.09	1072.88
878.40	1073.84
878.72	1074.75
879.03	1077.77
879.34	1078.31
879.65	1077.86
879.96	1080.09
880.27	1079.01
880.58	1075.69
880.89	1074.35
881.20	1078.71
881.51	1076.55
881.82	1077.96
882.13	1080.53
882.44	1080.79
882.75	1078.19
883.06	1080.51
883.37	1078.03
883.68	1076.11
883.99	1077.35
884.30	1079.99
884.61	1078.92
884.92	1078.82
885.23	1078.75
885.54	1078.45
885.85	1073.95
886.16	1070.84
886.47	1072.71
886.78	1074.07
887.08	1073.98
887.39	1072.46
887.70	1074.77
888.01	1074.61
888.32	1074.94
888.63	1073.39
888.94	1077.84
889.25	1079.50
889.56	1077.89
889.87	1078.21
890.17	1079.34
890.48	1080.04
890.79	1080.67
891.10	1083.39
891.41	1078.64
891.72	1078.00
892.03	1074.54
892.34	1071.52
892.64	1069.91
892.95	1075.90
893.26	1075.85
893.57	1076.30
893.88	1074.98
894.18	1076.72
894.49	1074.89
894.80	1076.15
895.11	1079.01
895.42	1079.81
895.72	1075.69
896.03	1073.42
896.34	1073.65
896.65	1071.97
896.96	1072.04
897.26	1074.73
897.57	1077.91
897.88	1077.40
898.19	1074.73
898.49	1075.20
898.80	1072.34
899.11	1071.57
899.41	1070.75
899.72	1072.74
900.03	1075.34
900.34	1074.63
900.64	1073.91
900.95	1074.56
901.26	1077.28
901.56	1077.04
901.87	1079.20
902.18	1077.51
902.48	1079.85
902.79	1079.01
903.10	1075.22
903.40	1074.12
903.71	1075.62
904.02	1075.13
904.32	1072.92
904.63	1075.08
904.94	1073.93
905.24	1074.49
905.55	1069.09
905.85	1069.98
906.16	1070.89
906.47	1075.10
906.77	1076.51
907.08	1081.19
907.38	1081.21
907.69	1079.17
908.00	1077.14
908.30	1075.78
908.61	1075.10
908.91	1076.72
909.22	1077.56
909.52	1078.47
909.83	1081.63
910.14	1081.91
910.44	1082.92
910.75	1084.60
911.05	1083.29
911.36	1080.74
911.66	1080.60
911.97	1079.24
912.27	1078.71
912.58	1076.39
912.88	1078.21
913.19	1076.67
913.49	1074.24
913.80	1073.42
914.10	1074.40
914.41	1069.51
914.71	1070.72
915.01	1072.74
915.32	1073.79
915.62	1077.09
915.93	1078.31
916.23	1079.71
916.54	1079.53
916.84	1078.00
917.15	1077.98
917.45	1078.12
917.75	1076.60
918.06	1075.13
918.36	1074.35
918.67	1074.70
918.97	1075.66
919.27	1075.38
919.58	1076.06
919.88	1078.40
920.18	1073.95
920.49	1075.34
920.79	1075.59
921.10	1079.13
921.40	1078.82
921.70	1082.80
922.01	1083.69
922.31	1082.92
922.61	1078.80
922.92	1081.70
923.22	1081.00
923.52	1077.82
923.82	1076.62
924.13	1076.34
924.43	1072.64
924.73	1073.93
925.04	1073.28
925.34	1072.95
925.64	1075.03
925.94	1076.95
926.25	1076.11
926.55	1077.72
926.85	1084.11
927.15	1084.11
927.46	1081.87
927.76	1084.09
928.06	1084.60
928.36	1079.41
928.67	1077.49
928.97	1080.60
929.27	1077.56
929.57	1076.08
929.87	1078.57
930.18	1079.69
930.48	1076.55
930.78	1076.44
931.08	1073.28
931.38	1072.20
931.69	1069.86
931.99	1070.94
932.29	1072.04
932.59	1073.91
932.89	1077.21
933.19	1081.23
933.49	1083.39
933.80	1083.50
934.10	1084.67
934.40	1081.63
934.70	1081.09
935.00	1080.72
935.30	1078.66
935.60	1079.78
935.90	1078.36
936.20	1077.91
936.50	1077.77
936.81	1077.49
937.11	1076.48
937.41	1076.46
937.71	1077.30
938.01	1072.48
938.31	1072.90
938.61	1071.78
938.91	1073.98
939.21	1073.14
939.51	1076.44
939.81	1078.28
940.11	1080.48
940.41	1079.69
940.71	1078.24
941.01	1074.26
941.31	1075.38
941.61	1076.79
941.91	1080.02
942.21	1084.16
942.51	1089.07
942.81	1088.54
943.11	1089.17
943.41	1085.19
943.71	1081.02
944.01	1079.20
944.31	1077.07
944.61	1073.81
944.90	1073.79
945.20	1077.16
945.50	1076.79
945.80	1077.02
946.10	1075.59
946.40	1074.47
946.70	1074.19
947.00	1071.64
947.30	1067.66
947.60	1068.69
947.89	1069.23
948.19	1066.84
948.49	1071.71
948.79	1075.08
949.09	1074.12
949.39	1073.09
949.69	1073.23
949.98	1073.84
950.28	1075.64
950.58	1077.82
950.88	1078.94
951.18	1078.38
951.48	1075.20
951.77	1075.13
952.07	1075.78
952.37	1075.94
952.67	1076.32
952.97	1077.63
953.26	1078.10
953.56	1079.60
953.86	1080.53
954.16	1076.88
954.45	1077.79
954.75	1074.84
955.05	1073.91
955.35	1071.57
955.64	1077.82
955.94	1076.53
956.24	1078.85
956.54	1077.07
956.83	1078.54
957.13	1075.85
957.43	1077.79
957.72	1078.64
958.02	1080.81
958.32	1081.19
958.61	1081.40
958.91	1076.20
959.21	1073.79
959.50	1072.97
959.80	1074.47
960.10	1073.35
960.39	1077.44
960.69	1079.06
960.99	1076.69
961.28	1075.31
961.58	1076.65
961.87	1074.63
962.17	1072.08
962.47	1071.01
962.76	1072.20
963.06	1070.23
963.36	1069.58
963.65	1072.46
963.95	1077.82
964.24	1076.55
964.54	1078.47
964.83	1078.52
965.13	1077.58
965.42	1076.06
965.72	1076.25
966.02	1079.41
966.31	1082.17
966.61	1081.73
966.90	1081.21
967.20	1079.31
967.49	1077.49
967.79	1075.17
968.08	1079.31
968.38	1081.89
968.67	1086.15
968.97	1081.05
969.26	1081.05
969.56	1077.65
969.85	1072.41
970.15	1068.45
970.44	1071.43
970.74	1072.78
971.03	1071.19
971.32	1072.15
971.62	1074.77
971.91	1076.93
972.21	1078.21
972.50	1080.84
972.80	1082.90
973.09	1082.80
973.38	1082.10
973.68	1078.07
973.97	1075.90
974.27	1074.91
974.56	1074.52
974.85	1074.63
975.15	1077.21
975.44	1077.82
975.73	1079.36
976.03	1076.06
976.32	1075.27
976.61	1074.10
976.91	1076.55
977.20	1074.59
977.49	1078.24
977.79	1075.01
978.08	1073.88
978.37	1070.54
978.67	1072.85
978.96	1073.74
979.25	1077.51
979.55	1080.30
979.84	1082.78
980.13	1078.12
980.42	1075.62
980.72	1074.00
981.01	1074.45
981.30	1073.11
981.59	1079.46
981.89	1082.45
982.18	1082.61
982.47	1079.69
982.76	1079.27
983.06	1074.61
983.35	1073.00
983.64	1072.88
983.93	1076.27
984.22	1076.90
984.52	1076.20
984.81	1076.11
985.10	1076.30
985.39	1073.44
985.68	1072.71
985.97	1072.62
986.27	1073.70
986.56	1076.74
986.85	1080.88
987.14	1083.39
987.43	1084.44
987.72	1085.19
988.01	1083.11
988.31	1083.97
988.60	1084.63
988.89	1085.49
989.18	1083.60
989.47	1084.60
989.76	1079.43
990.05	1076.18
990.34	1074.21
990.63	1073.93
990.92	1073.44
991.21	1073.65
991.51	1075.50
991.80	1074.03
992.09	1076.62
992.38	1074.91
992.67	1074.56
992.96	1073.30
993.25	1078.47
993.54	1075.55
993.83	1076.86
994.12	1079.55
994.41	1080.60
994.70	1078.61
994.99	1076.01
995.28	1076.25
995.57	1076.30
995.86	1074.38
996.15	1073.18
996.44	1076.88
996.73	1076.74
997.02	1074.38
997.31	1076.46
997.59	1078.50
997.88	1079.55
998.17	1078.96
998.46	1081.37
998.75	1080.11
999.04	1078.68
999.33	1075.08
999.62	1074.33
999.91	1074.96
1000.20	1076.13
1000.49	1076.86
1000.77	1080.91
1001.06	1082.52
1001.35	1081.47
1001.64	1082.33
1001.93	1083.95
1002.22	1080.39
1002.51	1081.09
1002.79	1081.63
1003.08	1078.12
1003.37	1077.09
1003.66	1077.42
1003.95	1077.54
1004.23	1078.57
1004.52	1080.25
1004.81	1079.03
1005.10	1082.12
1005.39	1080.44
1005.67	1077.47
1005.96	1074.47
1006.25	1074.75
1006.54	1075.50
1006.83	1075.90
1007.11	1078.78
1007.40	1081.37
1007.69	1080.56
1007.97	1075.55
1008.26	1073.95
1008.55	1071.40
1008.84	1071.82
1009.12	1070.30
1009.41	1071.80
1009.70	1073.70
1009.98	1073.16
1010.27	1073.74
1010.56	1076.79
1010.85	1077.61
1011.13	1077.72
1011.42	1076.55
1011.71	1072.43
1011.99	1069.13
1012.28	1067.24
1012.56	1066.51
1012.85	1071.94
1013.14	1072.34
1013.42	1073.49
1013.71	1073.86
1014.00	1075.01
1014.28	1071.31
1014.57	1074.05
1014.85	1073.39
1015.14	1075.05
1015.43	1074.82
1015.71	1074.96
1016.00	1075.62
1016.28	1079.34
1016.57	1077.51
1016.85	1077.25
1017.14	1076.20
1017.43	1073.46
1017.71	1071.68
1018.00	1074.03
1018.28	1074.19
1018.57	1074.33
1018.85	1080.39
1019.14	1079.48
1019.42	1080.70
1019.71	1079.20
1019.99	1078.87
1020.28	1074.38
1020.56	1074.73
1020.85	1074.75
1021.13	1075.36
1021.42	1075.99
1021.70	1077.25
1021.99	1077.35
1022.27	1074.47
1022.55	1072.43
1022.84	1074.54
>>>>>End Processed Spectral Data<<<<<
