SpectraSuite Data File
++++++++++++++++++++++++++++++++++++
Date: Mon Aug 26 10:22:10 PDT 2019
User: corrico
Dark Spectrum Present: No
Reference Spectrum Present: No
Number of Sampled Component Spectra: 1
Spectrometers: USB2+H06089
Integration Time (usec): 2000 (USB2+H06089)
Spectra Averaged: 20 (USB2+H06089)
Boxcar Smoothing: 2 (USB2+H06089)
Correct for Electrical Dark: No (USB2+H06089)
Strobe/Lamp Enabled: No (USB2+H06089)
Correct for Detector Non-linearity: No (USB2+H06089)
Correct for Stray Light: No (USB2+H06089)
Number of Pixels in Processed Spectrum: 2048
>>>>>Begin Processed Spectral Data<<<<<
339.70	1022.93
340.07	1022.93
340.45	984.66
340.82	962.31
341.19	941.88
341.57	918.22
341.94	908.48
342.31	902.11
342.69	897.15
343.06	894.51
343.43	891.46
343.81	893.97
344.18	897.74
344.55	901.22
344.93	902.14
345.30	909.34
345.67	916.25
346.04	922.17
346.42	930.41
346.79	941.64
347.16	951.78
347.54	962.26
347.91	971.72
348.28	981.55
348.65	989.18
349.03	996.83
349.40	1005.28
349.77	1012.28
350.14	1019.65
350.52	1027.38
350.89	1030.14
351.26	1035.76
351.63	1046.78
352.01	1052.38
352.38	1057.36
352.75	1065.29
353.12	1068.22
353.50	1068.62
353.87	1074.40
354.24	1076.08
354.61	1076.15
354.98	1078.89
355.36	1080.23
355.73	1079.27
356.10	1079.17
356.47	1085.45
356.84	1083.69
357.22	1083.41
357.59	1083.86
357.96	1083.04
358.33	1079.67
358.70	1077.28
359.08	1075.38
359.45	1072.34
359.82	1074.77
360.19	1071.68
360.56	1076.95
360.94	1077.89
361.31	1079.10
361.68	1078.38
362.05	1079.83
362.42	1077.14
362.79	1077.89
363.16	1077.54
363.54	1076.65
363.91	1075.38
364.28	1075.66
364.65	1077.28
365.02	1077.44
365.39	1077.00
365.76	1077.35
366.14	1075.78
366.51	1074.19
366.88	1073.95
367.25	1074.96
367.62	1072.92
367.99	1074.07
368.36	1072.62
368.73	1072.64
369.10	1072.50
369.48	1073.49
369.85	1073.04
370.22	1073.32
370.59	1074.77
370.96	1073.60
371.33	1076.04
371.70	1074.38
372.07	1074.17
372.44	1073.00
372.81	1076.23
373.18	1075.83
373.55	1076.83
373.93	1078.00
374.30	1079.55
374.67	1074.87
375.04	1075.41
375.41	1075.27
375.78	1075.50
376.15	1074.33
376.52	1075.31
376.89	1074.54
377.26	1077.98
377.63	1077.00
378.00	1076.55
378.37	1078.50
378.74	1077.84
379.11	1075.57
379.48	1074.40
379.85	1076.69
380.22	1075.31
380.59	1081.30
380.96	1084.67
381.33	1084.77
381.70	1086.36
382.07	1086.62
382.44	1082.83
382.81	1082.03
383.18	1086.55
383.55	1083.25
383.92	1085.99
384.29	1088.26
384.66	1086.43
385.03	1085.99
385.40	1087.13
385.77	1083.43
386.14	1080.67
386.51	1084.16
386.88	1083.57
387.25	1081.44
387.62	1083.32
387.99	1082.97
388.36	1080.02
388.73	1077.23
389.10	1078.43
389.46	1080.79
389.83	1081.33
390.20	1084.16
390.57	1085.99
390.94	1084.89
391.31	1084.42
391.68	1083.48
392.05	1083.22
392.42	1085.70
392.79	1089.05
393.16	1087.83
393.53	1088.61
393.89	1087.88
394.26	1082.80
394.63	1082.87
395.00	1081.35
395.37	1084.09
395.74	1085.00
396.11	1088.70
396.48	1084.96
396.84	1088.12
397.21	1081.70
397.58	1079.95
397.95	1078.10
398.32	1080.88
398.69	1079.08
399.06	1081.61
399.42	1079.78
399.79	1082.12
400.16	1080.70
400.53	1085.66
400.90	1088.98
401.27	1093.62
401.64	1093.76
402.00	1094.18
402.37	1088.12
402.74	1087.97
403.11	1084.11
403.48	1083.15
403.84	1083.95
404.21	1086.27
404.58	1088.58
404.95	1089.64
405.32	1090.41
405.68	1092.98
406.05	1093.83
406.42	1091.67
406.79	1090.78
407.16	1091.58
407.52	1089.92
407.89	1089.66
408.26	1089.45
408.63	1090.22
408.99	1088.44
409.36	1089.22
409.73	1088.58
410.10	1091.60
410.47	1094.27
410.83	1098.20
411.20	1097.73
411.57	1098.27
411.94	1099.14
412.30	1097.22
412.67	1094.46
413.04	1093.78
413.40	1092.68
413.77	1090.08
414.14	1091.06
414.51	1092.73
414.87	1095.60
415.24	1098.46
415.61	1101.62
415.97	1104.66
416.34	1107.14
416.71	1108.27
417.08	1109.69
417.44	1107.66
417.81	1107.80
418.18	1108.95
418.54	1109.84
418.91	1108.81
419.28	1110.58
419.64	1112.97
420.01	1111.89
420.38	1110.63
420.74	1115.43
421.11	1117.35
421.48	1116.69
421.84	1119.01
422.21	1122.64
422.58	1124.58
422.94	1127.30
423.31	1131.13
423.68	1134.97
424.04	1139.51
424.41	1140.05
424.77	1141.71
425.14	1147.54
425.51	1149.60
425.87	1155.41
426.24	1164.79
426.61	1174.90
426.97	1180.92
427.34	1191.36
427.70	1200.18
428.07	1207.95
428.44	1213.10
428.80	1221.64
429.17	1230.40
429.53	1238.66
429.90	1249.03
430.27	1261.99
430.63	1274.56
431.00	1287.08
431.36	1302.77
431.73	1317.96
432.09	1336.42
432.46	1357.86
432.83	1379.79
433.19	1402.80
433.56	1426.18
433.92	1449.03
434.29	1472.13
434.65	1498.76
435.02	1523.13
435.38	1554.79
435.75	1587.61
436.11	1628.12
436.48	1667.56
436.84	1708.03
437.21	1751.05
437.57	1801.91
437.94	1848.23
438.30	1906.53
438.67	1973.31
439.03	2038.51
439.40	2108.78
439.76	2179.04
440.13	2248.74
440.49	2321.30
440.86	2402.51
441.22	2483.50
441.59	2572.41
441.95	2674.18
442.32	2780.23
442.68	2893.84
443.05	3015.17
443.41	3147.01
443.78	3276.91
444.14	3415.05
444.51	3555.98
444.87	3721.57
445.24	3880.33
445.60	4062.09
445.96	4253.64
446.33	4459.75
446.69	4654.72
447.06	4874.33
447.42	5095.58
447.79	5324.51
448.15	5599.83
448.51	5879.22
448.88	6205.39
449.24	6504.82
449.61	6853.35
449.97	7197.57
450.33	7580.62
450.70	7934.14
451.06	8362.73
451.43	8768.93
451.79	9218.43
452.15	9707.51
452.52	10249.09
452.88	10796.54
453.24	11436.42
453.61	12154.10
453.97	12861.15
454.34	13552.22
454.70	14370.23
455.06	15165.17
455.43	15909.21
455.79	16594.61
456.15	17419.76
456.52	18162.07
456.88	19078.43
457.24	19980.64
457.61	21095.90
457.97	22125.44
458.33	23243.63
458.70	24310.44
459.06	25333.19
459.42	26343.81
459.79	27302.98
460.15	28348.52
460.51	29314.98
460.88	30400.94
461.24	31382.35
461.60	32508.00
461.96	33554.90
462.33	34601.52
462.69	35639.31
463.05	36770.75
463.42	37794.41
463.78	38722.99
464.14	39462.84
464.50	40195.21
464.87	40743.20
465.23	41080.24
465.59	41473.12
465.95	41806.13
466.32	42043.60
466.68	42270.29
467.04	42441.73
467.40	42470.31
467.77	42586.66
468.13	42497.11
468.49	42323.13
468.85	42214.44
469.22	42093.79
469.58	41853.48
469.94	41736.78
470.30	41553.24
470.66	41186.62
471.03	40701.68
471.39	40330.31
471.75	39608.86
472.11	38888.77
472.47	38398.81
472.84	37848.99
473.20	37099.04
473.56	36711.58
473.92	36140.00
474.28	35496.19
474.65	34843.74
475.01	34185.93
475.37	33345.96
475.73	32660.28
476.09	31958.92
476.45	31314.85
476.81	30751.01
477.18	30209.15
477.54	29739.60
477.90	29286.19
478.26	28735.23
478.62	28220.35
478.98	27761.02
479.34	27288.59
479.71	26734.51
480.07	26288.12
480.43	25862.36
480.79	25387.91
481.15	24934.45
481.51	24554.77
481.87	24230.07
482.23	23843.60
482.59	23513.05
482.96	23180.06
483.32	22853.46
483.68	22442.95
484.04	22113.62
484.40	21715.58
484.76	21294.26
485.12	20869.22
485.48	20436.34
485.84	19929.73
486.20	19486.13
486.56	19050.49
486.92	18654.98
487.28	18269.87
487.64	17879.33
488.00	17496.21
488.37	17100.47
488.73	16666.95
489.09	16212.89
489.45	15783.73
489.81	15335.56
490.17	14908.25
490.53	14501.30
490.89	14088.43
491.25	13676.59
491.61	13275.85
491.97	12870.54
492.33	12466.11
492.69	12109.91
493.05	11777.74
493.41	11451.87
493.77	11134.28
494.13	10837.92
494.49	10543.93
494.85	10255.17
495.21	9986.88
495.57	9732.72
495.93	9469.69
496.29	9219.89
496.64	8990.61
497.00	8734.11
497.36	8473.02
497.72	8230.73
498.08	8002.53
498.44	7763.70
498.80	7556.68
499.16	7356.21
499.52	7158.67
499.88	6971.71
500.24	6805.20
500.60	6640.71
500.96	6488.57
501.32	6336.51
501.68	6169.11
502.03	5994.49
502.39	5824.33
502.75	5650.92
503.11	5488.16
503.47	5351.49
503.83	5225.74
504.19	5101.36
504.55	4985.27
504.91	4880.09
505.26	4759.64
505.62	4640.72
505.98	4526.46
506.34	4417.48
506.70	4295.98
507.06	4189.07
507.42	4084.16
507.78	3985.86
508.13	3894.02
508.49	3814.68
508.85	3739.50
509.21	3661.28
509.57	3581.60
509.93	3499.50
510.28	3410.49
510.64	3322.84
511.00	3242.13
511.36	3168.22
511.72	3095.52
512.07	3033.69
512.43	2977.93
512.79	2921.97
513.15	2860.18
513.51	2803.10
513.86	2746.88
514.22	2688.41
514.58	2631.63
514.94	2584.89
515.30	2539.22
515.65	2492.81
516.01	2452.20
516.37	2413.65
516.73	2373.86
517.08	2339.72
517.44	2302.81
517.80	2262.83
518.16	2223.91
518.51	2193.36
518.87	2159.45
519.23	2127.80
519.59	2098.31
519.94	2068.00
520.30	2035.00
520.66	2002.09
521.01	1969.05
521.37	1937.52
521.73	1914.18
522.09	1886.85
522.44	1866.13
522.80	1846.40
523.16	1828.22
523.51	1805.02
523.87	1784.75
524.23	1762.07
524.58	1737.10
524.94	1721.82
525.30	1703.49
525.65	1682.40
526.01	1662.32
526.37	1646.01
526.72	1625.36
527.08	1604.11
527.44	1591.10
527.79	1575.63
528.15	1563.38
528.51	1545.97
528.86	1536.09
529.22	1519.78
529.58	1502.58
529.93	1487.27
530.29	1474.63
530.65	1458.90
531.00	1445.80
531.36	1436.57
531.71	1426.70
532.07	1415.91
532.43	1408.39
532.78	1403.13
533.14	1391.40
533.49	1381.13
533.85	1370.34
534.21	1361.98
534.56	1351.82
534.92	1347.73
535.27	1340.14
535.63	1334.92
535.98	1328.11
536.34	1318.63
536.69	1310.11
537.05	1307.17
537.41	1297.34
537.76	1286.87
538.12	1280.93
538.47	1277.09
538.83	1268.73
539.18	1270.28
539.54	1266.04
539.89	1262.65
540.25	1255.07
540.60	1250.48
540.96	1238.89
541.31	1235.83
541.67	1229.13
542.02	1224.66
542.38	1218.55
542.73	1214.53
543.09	1209.24
543.44	1207.06
543.80	1204.18
544.15	1202.57
544.51	1201.79
544.86	1198.73
545.22	1195.52
545.57	1190.05
545.93	1185.39
546.28	1181.95
546.64	1180.40
546.99	1176.77
547.35	1177.17
547.70	1176.42
548.05	1173.05
548.41	1170.43
548.76	1168.77
549.12	1167.23
549.47	1163.67
549.83	1163.34
550.18	1160.37
550.53	1159.71
550.89	1157.14
551.24	1156.34
551.60	1155.27
551.95	1154.84
552.30	1153.51
552.66	1149.51
553.01	1146.11
553.37	1142.28
553.72	1138.74
554.07	1135.21
554.43	1137.38
554.78	1138.39
555.13	1137.43
555.49	1137.17
555.84	1134.64
556.19	1130.34
556.55	1128.47
556.90	1132.16
557.26	1133.36
557.61	1134.41
557.96	1131.34
558.32	1128.93
558.67	1123.71
559.02	1120.48
559.37	1119.03
559.73	1120.30
560.08	1120.37
560.43	1117.23
560.79	1114.70
561.14	1115.08
561.49	1114.47
561.85	1112.92
562.20	1112.74
562.55	1115.17
562.90	1113.86
563.26	1115.03
563.61	1116.83
563.96	1115.87
564.32	1114.87
564.67	1114.77
565.02	1110.63
565.37	1105.62
565.73	1106.14
566.08	1101.08
566.43	1095.49
566.78	1096.92
567.14	1100.19
567.49	1099.75
567.84	1101.88
568.19	1105.22
568.54	1105.62
568.90	1104.26
569.25	1105.58
569.60	1106.89
569.95	1109.30
570.31	1107.87
570.66	1106.75
571.01	1106.28
571.36	1102.91
571.71	1098.30
572.06	1097.13
572.42	1100.12
572.77	1100.99
573.12	1101.85
573.47	1103.07
573.82	1104.17
574.18	1100.15
574.53	1099.91
574.88	1101.15
575.23	1098.37
575.58	1096.14
575.93	1096.52
576.28	1093.43
576.64	1090.43
576.99	1092.47
577.34	1093.57
577.69	1091.95
578.04	1092.02
578.39	1096.70
578.74	1095.00
579.09	1094.41
579.44	1094.11
579.80	1092.21
580.15	1086.24
580.50	1088.86
580.85	1086.24
581.20	1089.03
581.55	1092.80
581.90	1094.74
582.25	1095.86
582.60	1096.31
582.95	1093.08
583.30	1089.52
583.65	1088.49
584.00	1086.34
584.35	1089.45
584.71	1092.07
585.06	1093.08
585.41	1097.15
585.76	1094.65
586.11	1093.69
586.46	1091.70
586.81	1093.19
587.16	1089.85
587.51	1089.57
587.86	1088.51
588.21	1087.46
588.56	1086.27
588.91	1089.26
589.26	1090.50
589.61	1090.24
589.96	1090.88
590.31	1091.51
590.66	1089.45
591.01	1092.49
591.36	1090.32
591.71	1089.45
592.06	1087.67
592.41	1085.94
592.76	1084.51
593.10	1086.90
593.45	1086.17
593.80	1087.62
594.15	1087.76
594.50	1085.66
594.85	1087.30
595.20	1088.91
595.55	1088.09
595.90	1090.10
596.25	1092.42
596.60	1089.96
596.95	1090.39
597.30	1087.90
597.64	1097.78
597.99	1095.49
598.34	1101.53
598.69	1099.33
599.04	1100.33
599.39	1087.09
599.74	1085.82
600.09	1081.28
600.44	1080.39
600.78	1078.40
601.13	1082.83
601.48	1083.60
601.83	1079.88
602.18	1079.15
602.53	1081.96
602.88	1079.43
603.22	1078.75
603.57	1079.01
603.92	1082.50
604.27	1084.53
604.62	1083.62
604.97	1083.11
605.31	1085.87
605.66	1084.84
606.01	1084.86
606.36	1085.31
606.71	1086.13
607.05	1084.51
607.40	1088.84
607.75	1083.97
608.10	1084.18
608.44	1085.87
608.79	1085.24
609.14	1080.98
609.49	1084.16
609.84	1085.35
610.18	1083.76
610.53	1080.95
610.88	1081.19
611.23	1079.71
611.57	1078.80
611.92	1080.51
612.27	1085.84
612.62	1082.50
612.96	1082.29
613.31	1082.80
613.66	1083.04
614.00	1084.04
614.35	1084.32
614.70	1088.00
615.05	1087.37
615.39	1085.33
615.74	1084.07
616.09	1086.45
616.43	1083.64
616.78	1080.74
617.13	1080.13
617.47	1078.24
617.82	1078.59
618.17	1079.24
618.51	1083.39
618.86	1081.58
619.21	1081.49
619.55	1082.40
619.90	1079.13
620.25	1080.39
620.59	1080.56
620.94	1079.48
621.29	1077.49
621.63	1078.75
621.98	1075.73
622.32	1079.67
622.67	1080.65
623.02	1084.35
623.36	1082.90
623.71	1081.63
624.05	1078.52
624.40	1077.14
624.75	1073.79
625.09	1075.92
625.44	1076.32
625.78	1079.20
626.13	1078.33
626.48	1079.48
626.82	1080.32
627.17	1082.15
627.51	1078.99
627.86	1082.78
628.20	1081.98
628.55	1081.28
628.89	1081.00
629.24	1083.36
629.58	1081.21
629.93	1077.70
630.28	1077.14
630.62	1075.64
630.97	1072.83
631.31	1073.88
631.66	1074.80
632.00	1075.66
632.35	1077.42
632.69	1079.13
633.04	1081.49
633.38	1085.61
633.73	1086.97
634.07	1086.10
634.42	1085.42
634.76	1084.21
635.11	1083.60
635.45	1082.19
635.79	1082.83
636.14	1085.87
636.48	1086.31
636.83	1085.54
637.17	1085.56
637.52	1085.52
637.86	1082.85
638.21	1082.80
638.55	1084.77
638.89	1084.00
639.24	1085.94
639.58	1088.82
639.93	1089.10
640.27	1084.32
640.61	1083.15
640.96	1079.08
641.30	1078.94
641.65	1075.78
641.99	1078.40
642.33	1077.65
642.68	1079.34
643.02	1077.44
643.37	1075.90
643.71	1075.36
644.05	1076.41
644.40	1075.29
644.74	1074.38
645.08	1077.75
645.43	1079.43
645.77	1078.80
646.11	1079.29
646.46	1074.61
646.80	1074.12
647.14	1073.25
647.49	1076.86
647.83	1075.87
648.17	1081.19
648.52	1082.31
648.86	1083.25
649.20	1078.43
649.55	1079.34
649.89	1079.10
650.23	1078.24
650.57	1077.21
650.92	1079.38
651.26	1077.75
651.60	1078.38
651.95	1081.07
652.29	1080.98
652.63	1079.29
652.97	1079.69
653.32	1079.57
653.66	1076.30
654.00	1078.89
654.34	1080.34
654.69	1082.92
655.03	1084.28
655.37	1083.46
655.71	1078.66
656.05	1081.21
656.40	1077.61
656.74	1078.64
657.08	1077.86
657.42	1075.08
657.76	1072.20
658.11	1073.58
658.45	1070.87
658.79	1072.90
659.13	1079.36
659.47	1081.23
659.82	1082.85
660.16	1084.56
660.50	1081.82
660.84	1081.12
661.18	1076.93
661.52	1075.31
661.87	1073.14
662.21	1077.33
662.55	1076.51
662.89	1079.15
663.23	1081.00
663.57	1082.38
663.91	1079.57
664.25	1079.48
664.60	1077.47
664.94	1078.14
665.28	1076.97
665.62	1076.76
665.96	1078.10
666.30	1079.50
666.64	1076.69
666.98	1077.82
667.32	1078.92
667.66	1078.00
668.01	1079.20
668.35	1080.39
668.69	1076.23
669.03	1078.78
669.37	1078.00
669.71	1078.05
670.05	1076.76
670.39	1080.16
670.73	1078.50
671.07	1076.76
671.41	1076.15
671.75	1078.40
672.09	1075.55
672.43	1076.86
672.77	1079.57
673.11	1081.05
673.45	1079.67
673.79	1084.28
674.13	1081.89
674.47	1082.29
674.81	1077.96
675.15	1078.33
675.49	1078.45
675.83	1077.16
676.17	1077.51
676.51	1082.24
676.85	1084.23
677.19	1082.50
677.53	1082.78
677.87	1082.17
678.21	1080.23
678.55	1079.17
678.89	1077.82
679.23	1078.03
679.57	1074.47
679.90	1074.56
680.24	1074.87
680.58	1078.40
680.92	1081.66
681.26	1085.52
681.60	1089.05
681.94	1086.92
682.28	1083.76
682.62	1082.80
682.96	1079.15
683.29	1078.28
683.63	1079.69
683.97	1079.15
684.31	1076.74
684.65	1080.37
684.99	1079.97
685.33	1077.07
685.67	1080.18
686.00	1082.05
686.34	1080.70
686.68	1077.07
687.02	1080.58
687.36	1079.17
687.70	1079.03
688.03	1077.30
688.37	1080.63
688.71	1080.06
689.05	1079.50
689.39	1080.58
689.72	1081.54
690.06	1081.37
690.40	1081.05
690.74	1080.93
691.08	1079.13
691.41	1079.57
691.75	1079.60
692.09	1077.51
692.43	1076.72
692.76	1077.09
693.10	1077.25
693.44	1076.20
693.78	1075.78
694.11	1078.14
694.45	1080.74
694.79	1081.44
695.13	1082.19
695.46	1085.45
695.80	1083.95
696.14	1083.81
696.48	1082.57
696.81	1080.32
697.15	1081.42
697.49	1078.96
697.82	1076.93
698.16	1077.40
698.50	1080.58
698.83	1077.75
699.17	1082.52
699.51	1084.16
699.84	1085.75
700.18	1082.92
700.52	1082.83
700.85	1077.86
701.19	1078.00
701.53	1078.47
701.86	1078.64
702.20	1079.53
702.54	1082.64
702.87	1080.27
703.21	1079.38
703.55	1079.13
703.88	1078.00
704.22	1077.09
704.55	1076.06
704.89	1072.88
705.23	1072.71
705.56	1075.13
705.90	1079.10
706.23	1077.96
706.57	1082.40
706.91	1084.60
707.24	1084.81
707.58	1081.33
707.91	1082.94
708.25	1078.64
708.58	1077.28
708.92	1076.20
709.26	1076.72
709.59	1078.50
709.93	1083.22
710.26	1083.74
710.60	1081.94
710.93	1083.48
711.27	1084.51
711.60	1082.73
711.94	1079.90
712.27	1081.30
712.61	1080.46
712.94	1079.81
713.28	1079.90
713.61	1077.79
713.95	1077.77
714.28	1078.57
714.62	1076.83
714.95	1075.13
715.29	1079.69
715.62	1078.00
715.96	1075.76
716.29	1074.91
716.63	1075.80
716.96	1076.46
717.29	1077.56
717.63	1077.00
717.96	1079.24
718.30	1079.22
718.63	1077.98
718.97	1078.82
719.30	1079.95
719.63	1077.84
719.97	1075.73
720.30	1073.63
720.64	1074.45
720.97	1073.95
721.30	1077.09
721.64	1077.23
721.97	1078.05
722.31	1076.27
722.64	1075.27
722.97	1071.03
723.31	1076.97
723.64	1076.04
723.97	1076.51
724.31	1078.40
724.64	1081.51
724.98	1075.99
725.31	1078.21
725.64	1078.71
725.98	1075.01
726.31	1072.81
726.64	1074.21
726.97	1074.12
727.31	1073.91
727.64	1074.49
727.97	1076.18
728.31	1077.84
728.64	1077.21
728.97	1074.68
729.31	1076.62
729.64	1076.95
729.97	1078.07
730.30	1079.15
730.64	1082.97
730.97	1083.27
731.30	1084.42
731.63	1079.57
731.97	1080.84
732.30	1077.96
732.63	1076.48
732.96	1076.41
733.30	1076.97
733.63	1075.85
733.96	1077.16
734.29	1081.42
734.63	1078.92
734.96	1077.82
735.29	1077.84
735.62	1078.50
735.95	1075.01
736.29	1077.54
736.62	1081.30
736.95	1077.75
737.28	1078.61
737.61	1079.31
737.94	1077.96
738.28	1075.57
738.61	1080.09
738.94	1077.42
739.27	1076.08
739.60	1072.57
739.93	1074.33
740.27	1072.13
740.60	1073.56
740.93	1077.02
741.26	1082.90
741.59	1081.47
741.92	1083.06
742.25	1081.44
742.58	1077.49
742.91	1073.02
743.25	1074.19
743.58	1075.38
743.91	1076.74
744.24	1077.84
744.57	1079.03
744.90	1078.43
745.23	1076.51
745.56	1074.07
745.89	1073.56
746.22	1073.25
746.55	1074.31
746.88	1074.96
747.21	1079.31
747.54	1079.27
747.87	1083.20
748.20	1084.96
748.53	1086.55
748.87	1082.26
749.20	1082.54
749.53	1080.84
749.86	1077.56
750.19	1076.74
750.52	1078.66
750.85	1079.46
751.18	1077.79
751.51	1080.56
751.84	1078.45
752.16	1080.56
752.49	1080.34
752.82	1081.63
753.15	1077.91
753.48	1079.67
753.81	1078.59
754.14	1080.39
754.47	1078.43
754.80	1078.94
755.13	1078.10
755.46	1077.77
755.79	1075.22
756.12	1074.70
756.45	1075.78
756.78	1075.29
757.11	1071.85
757.43	1070.12
757.76	1071.12
758.09	1067.87
758.42	1067.03
758.75	1070.05
759.08	1069.53
759.41	1070.00
759.74	1073.14
760.07	1072.25
760.39	1070.26
760.72	1073.46
761.05	1072.95
761.38	1071.50
761.71	1071.85
762.04	1073.16
762.36	1073.65
762.69	1075.71
763.02	1079.62
763.35	1083.34
763.68	1081.56
764.01	1079.62
764.33	1076.13
764.66	1071.54
764.99	1068.22
765.32	1072.46
765.65	1074.21
765.97	1074.00
766.30	1079.43
766.63	1080.93
766.96	1077.07
767.28	1075.59
767.61	1075.85
767.94	1070.33
768.27	1069.81
768.59	1070.96
768.92	1073.30
769.25	1073.58
769.58	1075.08
769.90	1073.49
770.23	1073.77
770.56	1071.45
770.89	1072.43
771.21	1072.13
771.54	1071.80
771.87	1071.19
772.19	1072.62
772.52	1071.33
772.85	1072.81
773.17	1072.20
773.50	1072.78
773.83	1073.37
774.15	1074.10
774.48	1070.84
774.81	1078.73
775.13	1079.24
775.46	1079.78
775.79	1079.53
776.11	1081.40
776.44	1075.90
776.77	1075.62
777.09	1073.74
777.42	1076.51
777.74	1077.68
778.07	1078.38
778.40	1081.16
778.72	1082.50
779.05	1082.92
779.37	1087.67
779.70	1088.70
780.03	1087.27
780.35	1085.17
780.68	1082.38
781.00	1078.78
781.33	1078.36
781.65	1074.68
781.98	1075.45
782.31	1074.96
782.63	1073.65
782.96	1073.56
783.28	1076.81
783.61	1079.88
783.93	1082.47
784.26	1082.99
784.58	1082.76
784.91	1085.52
785.23	1083.01
785.56	1084.09
785.88	1081.28
786.21	1079.31
786.53	1073.58
786.86	1071.78
787.18	1069.20
787.51	1070.61
787.83	1069.55
788.16	1070.54
788.48	1074.00
788.81	1073.91
789.13	1075.05
789.46	1075.43
789.78	1079.78
790.10	1080.44
790.43	1080.39
790.75	1081.28
791.08	1083.43
791.40	1081.19
791.73	1078.54
792.05	1078.28
792.37	1075.48
792.70	1073.74
793.02	1071.12
793.35	1071.99
793.67	1071.50
793.99	1074.82
794.32	1077.56
794.64	1075.48
794.96	1074.89
795.29	1078.45
795.61	1076.01
795.93	1073.30
796.26	1078.05
796.58	1078.87
796.91	1074.77
797.23	1074.87
797.55	1073.02
797.87	1072.22
798.20	1070.54
798.52	1070.02
798.84	1069.98
799.17	1074.94
799.49	1072.97
799.81	1074.24
800.14	1075.38
800.46	1076.79
800.78	1074.52
801.10	1076.46
801.43	1075.34
801.75	1077.72
802.07	1078.99
802.40	1081.14
802.72	1081.89
803.04	1085.24
803.36	1082.43
803.69	1080.11
804.01	1079.55
804.33	1078.00
804.65	1073.49
804.97	1075.41
805.30	1074.75
805.62	1076.06
805.94	1074.03
806.26	1076.27
806.58	1075.48
806.91	1076.37
807.23	1074.94
807.55	1077.75
807.87	1076.34
808.19	1075.62
808.52	1077.04
808.84	1074.42
809.16	1074.35
809.48	1076.74
809.80	1078.99
810.12	1074.96
810.44	1072.25
810.77	1069.98
811.09	1071.73
811.41	1070.63
811.73	1073.51
812.05	1077.93
812.37	1081.63
812.69	1077.68
813.01	1073.65
813.33	1072.46
813.66	1071.45
813.98	1068.81
814.30	1068.92
814.62	1071.22
814.94	1073.11
815.26	1070.84
815.58	1070.51
815.90	1071.85
816.22	1074.31
816.54	1071.71
816.86	1073.79
817.18	1076.13
817.50	1076.41
817.82	1072.97
818.14	1073.39
818.46	1075.78
818.78	1077.61
819.10	1076.65
819.42	1080.65
819.74	1080.18
820.06	1078.47
820.38	1075.64
820.70	1074.59
821.02	1071.61
821.34	1074.42
821.66	1076.53
821.98	1076.81
822.30	1081.94
822.62	1083.01
822.94	1081.82
823.26	1080.98
823.58	1080.58
823.90	1077.56
824.22	1080.11
824.54	1080.37
824.86	1080.93
825.18	1082.52
825.50	1082.54
825.81	1077.61
826.13	1078.12
826.45	1077.30
826.77	1075.64
827.09	1071.36
827.41	1072.34
827.73	1071.71
828.05	1071.45
828.36	1069.11
828.68	1073.46
829.00	1075.73
829.32	1076.34
829.64	1076.97
829.96	1078.54
830.28	1080.06
830.59	1078.80
830.91	1076.18
831.23	1074.47
831.55	1076.86
831.87	1074.40
832.19	1075.50
832.50	1077.49
832.82	1077.75
833.14	1076.97
833.46	1077.04
833.78	1073.65
834.09	1074.12
834.41	1075.85
834.73	1079.08
835.05	1080.11
835.36	1083.11
835.68	1082.73
836.00	1080.23
836.32	1078.26
836.63	1075.24
836.95	1072.69
837.27	1072.48
837.59	1074.59
837.90	1075.66
838.22	1077.68
838.54	1079.57
838.85	1079.53
839.17	1080.48
839.49	1079.01
839.80	1079.97
840.12	1081.33
840.44	1080.51
840.76	1076.58
841.07	1075.66
841.39	1074.45
841.71	1071.47
842.02	1072.71
842.34	1076.72
842.65	1076.39
842.97	1076.58
843.29	1076.90
843.60	1077.09
843.92	1077.04
844.24	1077.49
844.55	1074.77
844.87	1075.55
845.18	1073.70
845.50	1069.77
845.82	1066.09
846.13	1067.07
846.45	1068.36
846.76	1071.33
847.08	1071.31
847.40	1073.70
847.71	1076.44
848.03	1074.42
848.34	1074.63
848.66	1078.38
848.97	1080.09
849.29	1078.92
849.60	1081.87
849.92	1079.60
850.24	1077.25
850.55	1077.25
850.87	1074.52
851.18	1072.29
851.50	1068.99
851.81	1071.31
852.13	1070.80
852.44	1072.46
852.76	1074.94
853.07	1078.85
853.39	1078.00
853.70	1076.95
854.01	1077.96
854.33	1074.77
854.64	1073.84
854.96	1073.95
855.27	1074.52
855.59	1075.59
855.90	1076.04
856.22	1076.90
856.53	1075.01
856.84	1076.39
857.16	1076.08
857.47	1077.30
857.79	1077.37
858.10	1078.94
858.41	1078.12
858.73	1078.52
859.04	1077.09
859.36	1077.49
859.67	1077.82
859.98	1076.97
860.30	1075.13
860.61	1075.57
860.92	1072.48
861.24	1072.29
861.55	1072.11
861.87	1071.54
862.18	1071.10
862.49	1074.80
862.81	1076.04
863.12	1074.91
863.43	1072.06
863.74	1075.29
864.06	1073.30
864.37	1071.19
864.68	1070.14
865.00	1072.62
865.31	1068.57
865.62	1067.24
865.94	1069.58
866.25	1069.37
866.56	1071.17
866.87	1073.28
867.19	1073.84
867.50	1071.17
867.81	1071.92
868.12	1070.77
868.44	1072.83
868.75	1071.38
869.06	1072.97
869.37	1071.92
869.68	1070.68
870.00	1068.10
870.31	1070.91
870.62	1071.47
870.93	1076.04
871.24	1079.85
871.56	1080.09
871.87	1078.47
872.18	1076.72
872.49	1076.62
872.80	1077.07
873.12	1075.08
873.43	1074.38
873.74	1074.73
874.05	1070.19
874.36	1069.20
874.67	1070.80
874.98	1071.80
875.29	1074.03
875.61	1075.50
875.92	1071.29
876.23	1072.11
876.54	1075.80
876.85	1071.85
877.16	1072.64
877.47	1076.08
877.78	1075.31
878.09	1072.32
878.40	1070.51
878.72	1070.75
879.03	1068.03
879.34	1069.34
879.65	1069.06
879.96	1074.28
880.27	1073.11
880.58	1072.67
880.89	1073.25
881.20	1074.59
881.51	1075.57
881.82	1076.83
882.13	1078.66
882.44	1075.50
882.75	1074.80
883.06	1070.30
883.37	1069.91
883.68	1071.38
883.99	1071.75
884.30	1070.63
884.61	1071.54
884.92	1068.10
885.23	1066.21
885.54	1069.18
885.85	1070.77
886.16	1071.03
886.47	1074.35
886.78	1075.48
887.08	1076.93
887.39	1075.83
887.70	1076.41
888.01	1076.88
888.32	1078.59
888.63	1076.72
888.94	1075.76
889.25	1075.64
889.56	1079.43
889.87	1076.90
890.17	1076.69
890.48	1077.86
890.79	1081.49
891.10	1077.14
891.41	1078.57
891.72	1078.80
892.03	1082.15
892.34	1078.10
892.64	1077.77
892.95	1076.93
893.26	1075.59
893.57	1075.01
893.88	1072.27
894.18	1073.09
894.49	1073.79
894.80	1074.42
895.11	1071.97
895.42	1074.75
895.72	1076.95
896.03	1074.98
896.34	1076.46
896.65	1074.38
896.96	1072.27
897.26	1073.21
897.57	1075.31
897.88	1076.88
898.19	1080.06
898.49	1080.30
898.80	1076.93
899.11	1076.34
899.41	1072.78
899.72	1071.71
900.03	1074.82
900.34	1075.38
900.64	1074.56
900.95	1074.21
901.26	1073.42
901.56	1071.94
901.87	1074.05
902.18	1072.53
902.48	1072.97
902.79	1073.81
903.10	1074.56
903.40	1070.84
903.71	1074.94
904.02	1076.39
904.32	1076.69
904.63	1074.56
904.94	1073.93
905.24	1072.90
905.55	1073.02
905.85	1074.19
906.16	1073.35
906.47	1076.51
906.77	1076.11
907.08	1074.42
907.38	1073.72
907.69	1076.65
908.00	1072.20
908.30	1070.98
908.61	1072.06
908.91	1073.77
909.22	1071.99
909.52	1076.48
909.83	1077.86
910.14	1075.99
910.44	1074.17
910.75	1077.44
911.05	1074.49
911.36	1074.10
911.66	1074.07
911.97	1072.13
912.27	1070.44
912.58	1072.71
912.88	1072.83
913.19	1072.32
913.49	1071.99
913.80	1070.96
914.10	1073.02
914.41	1075.45
914.71	1078.26
915.01	1078.26
915.32	1077.61
915.62	1076.46
915.93	1076.15
916.23	1076.41
916.54	1078.61
916.84	1080.51
917.15	1079.01
917.45	1075.94
917.75	1074.94
918.06	1073.35
918.36	1071.22
918.67	1070.09
918.97	1070.12
919.27	1069.55
919.58	1073.51
919.88	1074.84
920.18	1074.80
920.49	1074.66
920.79	1075.38
921.10	1072.71
921.40	1073.11
921.70	1075.36
922.01	1079.50
922.31	1077.25
922.61	1079.01
922.92	1081.77
923.22	1083.13
923.52	1080.04
923.82	1081.33
924.13	1076.65
924.43	1075.27
924.73	1071.38
925.04	1067.75
925.34	1067.66
925.64	1068.36
925.94	1067.92
926.25	1070.58
926.55	1074.33
926.85	1075.99
927.15	1077.25
927.46	1075.34
927.76	1073.56
928.06	1073.44
928.36	1070.82
928.67	1070.44
928.97	1072.81
929.27	1075.03
929.57	1076.55
929.87	1078.57
930.18	1081.61
930.48	1083.67
930.78	1080.65
931.08	1080.27
931.38	1076.74
931.69	1075.64
931.99	1070.82
932.29	1074.49
932.59	1073.58
932.89	1076.72
933.19	1076.30
933.49	1077.96
933.80	1076.25
934.10	1077.35
934.40	1074.56
934.70	1073.09
935.00	1073.35
935.30	1076.06
935.60	1075.01
935.90	1077.84
936.20	1079.57
936.50	1081.63
936.81	1079.17
937.11	1081.61
937.41	1079.95
937.71	1074.35
938.01	1070.94
938.31	1070.40
938.61	1067.61
938.91	1066.77
939.21	1072.85
939.51	1075.69
939.81	1074.31
940.11	1073.35
940.41	1075.36
940.71	1075.41
941.01	1073.56
941.31	1079.31
941.61	1078.75
941.91	1078.26
942.21	1076.48
942.51	1077.28
942.81	1076.32
943.11	1078.14
943.41	1078.47
943.71	1078.87
944.01	1077.98
944.31	1075.52
944.61	1076.53
944.90	1075.43
945.20	1074.73
945.50	1074.28
945.80	1073.35
946.10	1072.85
946.40	1073.88
946.70	1073.49
947.00	1075.24
947.30	1078.85
947.60	1079.50
947.89	1080.79
948.19	1082.69
948.49	1080.32
948.79	1078.40
949.09	1075.66
949.39	1073.35
949.69	1072.53
949.98	1071.99
950.28	1067.52
950.58	1070.54
950.88	1070.33
951.18	1073.04
951.48	1076.83
951.77	1079.90
952.07	1076.97
952.37	1079.17
952.67	1077.54
952.97	1075.78
953.26	1074.10
953.56	1077.16
953.86	1074.31
954.16	1075.17
954.45	1076.27
954.75	1077.61
955.05	1076.51
955.35	1078.61
955.64	1078.31
955.94	1078.24
956.24	1078.07
956.54	1076.88
956.83	1078.21
957.13	1075.10
957.43	1077.72
957.72	1076.81
958.02	1079.03
958.32	1077.79
958.61	1077.18
958.91	1072.67
959.21	1073.63
959.50	1070.05
959.80	1068.55
960.10	1069.02
960.39	1068.13
960.69	1065.65
960.99	1066.75
961.28	1069.84
961.58	1073.14
961.87	1072.64
962.17	1074.82
962.47	1073.35
962.76	1072.27
963.06	1070.16
963.36	1072.85
963.65	1074.52
963.95	1076.30
964.24	1075.24
964.54	1077.18
964.83	1077.33
965.13	1073.09
965.42	1071.08
965.72	1073.93
966.02	1069.70
966.31	1066.86
966.61	1066.79
966.90	1067.66
967.20	1066.54
967.49	1070.61
967.79	1074.10
968.08	1077.35
968.38	1077.21
968.67	1074.61
968.97	1072.06
969.26	1070.47
969.56	1069.30
969.85	1071.80
970.15	1075.10
970.44	1076.69
970.74	1074.68
971.03	1074.26
971.32	1072.15
971.62	1070.28
971.91	1069.55
972.21	1069.70
972.50	1070.54
972.80	1070.80
973.09	1068.48
973.38	1067.07
973.68	1068.48
973.97	1071.31
974.27	1074.82
974.56	1077.23
974.85	1081.05
975.15	1084.14
975.44	1082.85
975.73	1079.13
976.03	1079.31
976.32	1076.76
976.61	1073.42
976.91	1072.53
977.20	1072.83
977.49	1074.38
977.79	1076.53
978.08	1074.00
978.37	1073.56
978.67	1074.47
978.96	1073.51
979.25	1072.41
979.55	1077.37
979.84	1079.01
980.13	1080.39
980.42	1078.00
980.72	1080.06
981.01	1076.97
981.30	1079.64
981.59	1075.69
981.89	1075.29
982.18	1072.62
982.47	1075.29
982.76	1072.60
983.06	1072.43
983.35	1075.97
983.64	1076.32
983.93	1076.72
984.22	1076.34
984.52	1077.47
984.81	1074.42
985.10	1073.67
985.39	1071.78
985.68	1069.39
985.97	1070.23
986.27	1070.49
986.56	1069.84
986.85	1067.78
987.14	1069.02
987.43	1068.24
987.72	1071.26
988.01	1073.32
988.31	1076.65
988.60	1076.55
988.89	1077.02
989.18	1073.67
989.47	1067.59
989.76	1069.79
990.05	1070.28
990.34	1072.34
990.63	1073.63
990.92	1080.27
991.21	1076.65
991.51	1076.74
991.80	1073.95
992.09	1074.56
992.38	1071.50
992.67	1072.43
992.96	1070.21
993.25	1070.63
993.54	1071.31
993.83	1073.09
994.12	1070.44
994.41	1072.88
994.70	1073.65
994.99	1069.58
995.28	1071.31
995.57	1071.40
995.86	1069.11
996.15	1071.40
996.44	1074.12
996.73	1074.12
997.02	1074.87
997.31	1074.12
997.59	1072.25
997.88	1069.11
998.17	1068.78
998.46	1069.84
998.75	1069.51
999.04	1071.12
999.33	1075.90
999.62	1074.98
999.91	1070.70
1000.20	1075.87
1000.49	1077.02
1000.77	1075.34
1001.06	1072.55
1001.35	1076.48
1001.64	1072.90
1001.93	1070.61
1002.22	1073.25
1002.51	1072.92
1002.79	1076.06
1003.08	1076.93
1003.37	1075.57
1003.66	1073.37
1003.95	1077.33
1004.23	1076.55
1004.52	1077.00
1004.81	1078.57
1005.10	1077.49
1005.39	1077.98
1005.67	1078.47
1005.96	1080.18
1006.25	1078.78
1006.54	1078.05
1006.83	1076.88
1007.11	1074.68
1007.40	1071.82
1007.69	1073.67
1007.97	1072.50
1008.26	1072.04
1008.55	1070.35
1008.84	1073.09
1009.12	1073.49
1009.41	1077.56
1009.70	1075.59
1009.98	1076.53
1010.27	1072.78
1010.56	1070.94
1010.85	1068.20
1011.13	1070.42
1011.42	1070.91
1011.71	1076.27
1011.99	1077.72
1012.28	1080.18
1012.56	1080.84
1012.85	1079.97
1013.14	1077.42
1013.42	1077.68
1013.71	1076.11
1014.00	1076.97
1014.28	1077.23
1014.57	1078.07
1014.85	1077.51
1015.14	1081.02
1015.43	1080.70
1015.71	1082.54
1016.00	1081.61
1016.28	1079.31
1016.57	1076.86
1016.85	1076.72
1017.14	1075.76
1017.43	1075.97
1017.71	1077.54
1018.00	1078.14
1018.28	1073.98
1018.57	1074.24
1018.85	1077.65
1019.14	1079.08
1019.42	1078.21
1019.71	1080.18
1019.99	1079.31
1020.28	1075.31
1020.56	1074.47
1020.85	1074.45
1021.13	1072.60
1021.42	1072.50
1021.70	1069.84
1021.99	1069.62
1022.27	1069.48
1022.55	1076.88
1022.84	1075.36
>>>>>End Processed Spectral Data<<<<<
