SpectraSuite Data File
++++++++++++++++++++++++++++++++++++
Date: Mon Aug 26 10:22:15 PDT 2019
User: corrico
Dark Spectrum Present: No
Reference Spectrum Present: No
Number of Sampled Component Spectra: 1
Spectrometers: USB2+H06089
Integration Time (usec): 2000 (USB2+H06089)
Spectra Averaged: 20 (USB2+H06089)
Boxcar Smoothing: 2 (USB2+H06089)
Correct for Electrical Dark: No (USB2+H06089)
Strobe/Lamp Enabled: No (USB2+H06089)
Correct for Detector Non-linearity: No (USB2+H06089)
Correct for Stray Light: No (USB2+H06089)
Number of Pixels in Processed Spectrum: 2048
>>>>>Begin Processed Spectral Data<<<<<
339.70	1027.03
340.07	1027.03
340.45	994.12
340.82	970.57
341.19	946.16
341.57	922.22
341.94	908.15
342.31	901.74
342.69	898.18
343.06	896.78
343.43	894.13
343.81	894.60
344.18	896.61
344.55	898.72
344.93	904.66
345.30	910.59
345.67	917.21
346.04	927.46
346.42	937.71
346.79	946.11
347.16	953.32
347.54	963.62
347.91	971.14
348.28	981.53
348.65	990.77
349.03	1001.84
349.40	1012.54
349.77	1021.71
350.14	1028.15
350.52	1033.25
350.89	1035.80
351.26	1038.21
351.63	1043.27
352.01	1049.36
352.38	1056.05
352.75	1065.51
353.12	1071.61
353.50	1071.68
353.87	1075.66
354.24	1076.23
354.61	1078.92
354.98	1078.45
355.36	1082.71
355.73	1082.92
356.10	1082.50
356.47	1080.93
356.84	1081.98
357.22	1086.27
357.59	1085.82
357.96	1090.27
358.33	1092.63
358.70	1094.60
359.08	1088.58
359.45	1084.77
359.82	1079.57
360.19	1077.91
360.56	1074.33
360.94	1075.31
361.31	1078.31
361.68	1079.90
362.05	1080.20
362.42	1079.57
362.79	1076.74
363.16	1080.30
363.54	1077.77
363.91	1075.38
364.28	1079.48
364.65	1082.92
365.02	1075.92
365.39	1077.77
365.76	1077.84
366.14	1075.20
366.51	1072.76
366.88	1074.07
367.25	1072.34
367.62	1074.42
367.99	1074.40
368.36	1076.67
368.73	1076.13
369.10	1077.98
369.48	1080.16
369.85	1077.96
370.22	1075.34
370.59	1079.01
370.96	1079.57
371.33	1074.56
371.70	1073.35
372.07	1074.77
372.44	1071.52
372.81	1070.84
373.18	1071.75
373.55	1077.33
373.93	1075.55
374.30	1075.87
374.67	1074.75
375.04	1077.68
375.41	1077.98
375.78	1077.18
376.15	1078.28
376.52	1081.54
376.89	1079.22
377.26	1075.97
377.63	1077.35
378.00	1074.94
378.37	1074.59
378.74	1072.97
379.11	1073.46
379.48	1075.22
379.85	1078.61
380.22	1076.93
380.59	1078.10
380.96	1077.58
381.33	1076.06
381.70	1077.51
382.07	1082.05
382.44	1081.09
382.81	1084.11
383.18	1084.02
383.55	1080.81
383.92	1077.77
384.29	1079.17
384.66	1076.39
385.03	1076.86
385.40	1078.40
385.77	1079.43
386.14	1080.70
386.51	1083.81
386.88	1085.47
387.25	1087.95
387.62	1087.46
387.99	1091.25
388.36	1091.95
388.73	1089.17
389.10	1088.93
389.46	1088.58
389.83	1083.83
390.20	1082.22
390.57	1085.52
390.94	1083.67
391.31	1085.47
391.68	1085.99
392.05	1086.85
392.42	1086.80
392.79	1086.64
393.16	1085.38
393.53	1089.31
393.89	1090.67
394.26	1088.51
394.63	1088.89
395.00	1085.73
395.37	1081.66
395.74	1081.42
396.11	1083.13
396.48	1080.58
396.84	1082.08
397.21	1084.74
397.58	1084.14
397.95	1085.91
398.32	1087.88
398.69	1090.57
399.06	1089.26
399.42	1091.34
399.79	1090.62
400.16	1092.45
400.53	1090.85
400.90	1090.48
401.27	1085.47
401.64	1087.25
402.00	1084.93
402.37	1086.80
402.74	1088.21
403.11	1093.43
403.48	1092.40
403.84	1092.70
404.21	1091.63
404.58	1090.64
404.95	1087.53
405.32	1085.59
405.68	1088.42
406.05	1089.07
406.42	1088.23
406.79	1088.58
407.16	1092.45
407.52	1091.58
407.89	1091.44
408.26	1090.99
408.63	1091.46
408.99	1088.58
409.36	1089.96
409.73	1088.12
410.10	1091.04
410.47	1095.09
410.83	1097.03
411.20	1097.45
411.57	1102.18
411.94	1104.22
412.30	1099.98
412.67	1098.74
413.04	1098.88
413.40	1096.40
413.77	1096.28
414.14	1098.65
414.51	1100.19
414.87	1097.48
415.24	1101.83
415.61	1099.96
415.97	1100.43
416.34	1101.01
416.71	1105.36
417.08	1104.03
417.44	1107.47
417.81	1108.76
418.18	1111.85
418.54	1111.57
418.91	1113.60
419.28	1113.65
419.64	1114.66
420.01	1112.78
420.38	1115.38
420.74	1116.44
421.11	1115.90
421.48	1116.86
421.84	1118.66
422.21	1117.04
422.58	1117.56
422.94	1122.73
423.31	1124.23
423.68	1127.93
424.04	1135.42
424.41	1140.10
424.77	1140.59
425.14	1145.20
425.51	1149.11
425.87	1150.79
426.24	1155.57
426.61	1163.93
426.97	1171.44
427.34	1177.64
427.70	1186.23
428.07	1191.87
428.44	1197.72
428.80	1204.51
429.17	1213.29
429.53	1222.58
429.90	1234.59
430.27	1243.27
430.63	1252.96
431.00	1265.48
431.36	1277.53
431.73	1286.73
432.09	1297.90
432.46	1313.02
432.83	1324.74
433.19	1339.70
433.56	1356.36
433.92	1383.23
434.29	1404.39
434.65	1428.71
435.02	1456.42
435.38	1485.94
435.75	1511.17
436.11	1543.09
436.48	1579.07
436.84	1611.06
437.21	1646.66
437.57	1679.10
437.94	1721.09
438.30	1764.67
438.67	1814.50
439.03	1868.03
439.40	1932.16
439.76	1990.63
440.13	2054.08
440.49	2123.71
440.86	2194.93
441.22	2273.50
441.59	2355.66
441.95	2441.16
442.32	2525.60
442.68	2626.74
443.05	2718.72
443.41	2817.12
443.78	2924.38
444.14	3043.05
444.51	3157.87
444.87	3302.80
445.24	3448.83
445.60	3603.77
445.96	3759.27
446.33	3932.22
446.69	4096.66
447.06	4275.67
447.42	4473.00
447.79	4682.22
448.15	4914.38
448.51	5158.10
448.88	5439.62
449.24	5693.45
449.61	5976.96
449.97	6258.99
450.33	6556.66
450.70	6823.62
451.06	7157.55
451.43	7472.18
451.79	7844.09
452.15	8269.35
452.52	8746.39
452.88	9244.74
453.24	9826.04
453.61	10462.80
453.97	11054.21
454.34	11628.32
454.70	12288.89
455.06	12935.11
455.43	13564.67
455.79	14173.70
456.15	14914.08
456.52	15604.63
456.88	16409.38
457.24	17151.19
457.61	18045.81
457.97	18870.31
458.33	19694.34
458.70	20498.32
459.06	21312.92
459.42	22188.89
459.79	22978.40
460.15	23916.04
460.51	24816.77
460.88	25776.02
461.24	26574.86
461.60	27576.31
461.96	28462.95
462.33	29322.44
462.69	30159.02
463.05	31107.15
463.42	31898.18
463.78	32642.47
464.14	33271.00
464.50	33915.11
464.87	34368.17
465.23	34690.86
465.59	34983.03
465.95	35224.50
466.32	35438.36
466.68	35661.41
467.04	35809.17
467.40	35986.81
467.77	36189.36
468.13	36213.40
468.49	36142.48
468.85	36068.29
469.22	35873.70
469.58	35505.74
469.94	35207.37
470.30	34877.33
470.66	34469.00
471.03	33868.35
471.39	33465.99
471.75	32811.17
472.11	32201.00
472.47	31794.94
472.84	31439.90
473.20	30932.05
473.56	30632.63
473.92	30155.95
474.28	29625.05
474.65	29143.86
475.01	28681.46
475.37	28133.73
475.73	27714.73
476.09	27214.58
476.45	26710.01
476.81	26174.56
477.18	25637.25
477.54	25154.16
477.90	24729.09
478.26	24244.39
478.62	23842.83
478.98	23498.98
479.34	23141.93
479.71	22692.43
480.07	22328.87
480.43	21965.01
480.79	21578.41
481.15	21205.49
481.51	20909.76
481.87	20636.71
482.23	20313.53
482.59	20025.34
482.96	19725.01
483.32	19409.99
483.68	19033.40
484.04	18687.02
484.40	18292.20
484.76	17913.95
485.12	17519.80
485.48	17174.03
485.84	16815.63
486.20	16458.25
486.56	16081.52
486.92	15778.00
487.28	15429.42
487.64	15058.23
488.00	14720.85
488.37	14376.79
488.73	13986.08
489.09	13596.76
489.45	13277.53
489.81	12933.26
490.17	12608.93
490.53	12313.00
490.89	12009.55
491.25	11683.28
491.61	11376.50
491.97	11044.75
492.33	10703.20
492.69	10400.26
493.05	10090.05
493.41	9801.79
493.77	9523.05
494.13	9273.27
494.49	9008.96
494.85	8758.57
495.21	8513.53
495.57	8294.55
495.93	8056.31
496.29	7836.77
496.64	7645.27
497.00	7442.79
497.36	7239.84
497.72	7061.26
498.08	6879.12
498.44	6694.07
498.80	6514.93
499.16	6335.85
499.52	6156.19
499.88	6015.11
500.24	5878.63
500.60	5740.02
500.96	5619.42
501.32	5501.97
501.68	5364.98
502.03	5230.02
502.39	5106.84
502.75	4972.70
503.11	4837.72
503.47	4710.73
503.83	4577.25
504.19	4449.22
504.55	4340.76
504.91	4239.74
505.26	4141.41
505.62	4065.18
505.98	3975.40
506.34	3873.14
506.70	3783.78
507.06	3697.63
507.42	3601.62
507.78	3524.43
508.13	3450.30
508.49	3372.20
508.85	3300.69
509.21	3232.54
509.57	3164.90
509.93	3099.59
510.28	3030.31
510.64	2968.29
511.00	2900.39
511.36	2837.99
511.72	2785.28
512.07	2734.92
512.43	2678.98
512.79	2628.40
513.15	2576.41
513.51	2521.58
513.86	2472.07
514.22	2431.07
514.58	2390.69
514.94	2351.51
515.30	2316.55
515.65	2278.63
516.01	2239.82
516.37	2205.84
516.73	2172.88
517.08	2140.33
517.44	2109.17
517.80	2078.02
518.16	2048.06
518.51	2021.99
518.87	1990.51
519.23	1964.95
519.59	1942.50
519.94	1918.42
520.30	1890.19
520.66	1867.21
521.01	1844.08
521.37	1817.57
521.73	1798.05
522.09	1778.32
522.44	1759.83
522.80	1741.94
523.16	1723.73
523.51	1700.75
523.87	1680.79
524.23	1663.79
524.58	1642.59
524.94	1621.17
525.30	1602.40
525.65	1587.54
526.01	1568.91
526.37	1552.10
526.72	1538.97
527.08	1527.08
527.44	1512.99
527.79	1500.94
528.15	1489.70
528.51	1477.07
528.86	1463.42
529.22	1450.08
529.58	1435.08
529.93	1422.51
530.29	1411.74
530.65	1402.05
531.00	1390.16
531.36	1381.24
531.71	1374.13
532.07	1366.90
532.43	1355.12
532.78	1350.18
533.14	1345.41
533.49	1336.31
533.85	1330.24
534.21	1323.99
534.56	1315.17
534.92	1305.71
535.27	1296.59
535.63	1289.40
535.98	1283.32
536.34	1276.79
536.69	1273.09
537.05	1268.50
537.41	1263.77
537.76	1259.51
538.12	1257.69
538.47	1248.56
538.83	1244.42
539.18	1240.53
539.54	1235.87
539.89	1229.97
540.25	1227.89
540.60	1227.73
540.96	1222.72
541.31	1220.94
541.67	1214.62
542.02	1212.51
542.38	1208.42
542.73	1205.05
543.09	1199.34
543.44	1200.13
543.80	1195.05
544.15	1190.00
544.51	1184.83
544.86	1180.85
545.22	1175.21
545.57	1175.39
545.93	1172.44
546.28	1170.17
546.64	1168.40
546.99	1171.27
547.35	1168.11
547.70	1167.11
548.05	1164.14
548.41	1164.63
548.76	1160.32
549.12	1157.51
549.47	1155.41
549.83	1157.14
550.18	1154.14
550.53	1150.61
550.89	1149.13
551.24	1145.69
551.60	1140.64
551.95	1142.95
552.30	1140.64
552.66	1140.03
553.01	1137.43
553.37	1137.55
553.72	1133.36
554.07	1134.13
554.43	1133.31
554.78	1131.86
555.13	1133.19
555.49	1131.70
555.84	1130.41
556.19	1129.87
556.55	1130.76
556.90	1128.84
557.26	1124.91
557.61	1123.04
557.96	1122.38
558.32	1123.86
558.67	1120.98
559.02	1125.14
559.37	1125.24
559.73	1120.37
560.08	1115.94
560.43	1116.72
560.79	1112.18
561.14	1109.44
561.49	1113.49
561.85	1116.30
562.20	1115.45
562.55	1116.32
562.90	1117.30
563.26	1115.24
563.61	1111.47
563.96	1108.31
564.32	1107.68
564.67	1109.34
565.02	1109.02
565.37	1113.86
565.73	1113.42
566.08	1112.88
566.43	1111.26
566.78	1110.42
567.14	1106.37
567.49	1109.09
567.84	1110.26
568.19	1107.45
568.54	1108.20
568.90	1106.49
569.25	1105.13
569.60	1099.49
569.95	1099.82
570.31	1097.08
570.66	1096.49
571.01	1094.72
571.36	1095.04
571.71	1093.40
572.06	1095.53
572.42	1095.30
572.77	1097.52
573.12	1101.03
573.47	1100.96
573.82	1100.38
574.18	1100.99
574.53	1096.80
574.88	1093.59
575.23	1095.49
575.58	1094.65
575.93	1093.66
576.28	1096.94
576.64	1097.06
576.99	1097.99
577.34	1096.00
577.69	1096.70
578.04	1095.96
578.39	1094.86
578.74	1093.05
579.09	1095.70
579.44	1094.25
579.80	1095.49
580.15	1093.52
580.50	1094.97
580.85	1093.85
581.20	1094.74
581.55	1093.47
581.90	1096.05
582.25	1090.10
582.60	1087.72
582.95	1086.85
583.30	1086.69
583.65	1085.38
584.00	1088.12
584.35	1087.67
584.71	1087.95
585.06	1086.03
585.41	1086.15
585.76	1086.01
586.11	1086.69
586.46	1087.11
586.81	1087.18
587.16	1088.58
587.51	1089.03
587.86	1089.85
588.21	1088.04
588.56	1086.66
588.91	1086.55
589.26	1088.75
589.61	1085.87
589.96	1084.77
590.31	1086.57
590.66	1087.18
591.01	1085.87
591.36	1086.52
591.71	1087.74
592.06	1087.90
592.41	1086.87
592.76	1086.94
593.10	1086.06
593.45	1088.40
593.80	1086.38
594.15	1083.95
594.50	1081.40
594.85	1083.57
595.20	1081.80
595.55	1086.99
595.90	1088.79
596.25	1087.25
596.60	1088.33
596.95	1089.66
597.30	1085.26
597.64	1098.51
597.99	1102.88
598.34	1102.32
598.69	1102.70
599.04	1101.62
599.39	1089.07
599.74	1088.86
600.09	1088.65
600.44	1085.26
600.78	1085.63
601.13	1088.96
601.48	1088.89
601.83	1088.21
602.18	1089.75
602.53	1089.75
602.88	1084.28
603.22	1083.90
603.57	1085.07
603.92	1087.25
604.27	1089.94
604.62	1087.69
604.97	1086.38
605.31	1083.79
605.66	1081.98
606.01	1077.91
606.36	1083.20
606.71	1085.17
607.05	1086.83
607.40	1085.73
607.75	1087.74
608.10	1090.48
608.44	1086.27
608.79	1086.38
609.14	1087.65
609.49	1088.14
609.84	1083.95
610.18	1086.52
610.53	1082.54
610.88	1082.71
611.23	1082.22
611.57	1083.62
611.92	1081.35
612.27	1081.94
612.62	1083.04
612.96	1084.67
613.31	1082.57
613.66	1085.05
614.00	1087.95
614.35	1083.88
614.70	1078.64
615.05	1077.79
615.39	1072.57
615.74	1071.61
616.09	1075.22
616.43	1079.17
616.78	1082.08
617.13	1087.06
617.47	1088.16
617.82	1085.84
618.17	1084.07
618.51	1080.44
618.86	1081.58
619.21	1083.60
619.55	1083.81
619.90	1084.67
620.25	1088.75
620.59	1085.66
620.94	1082.36
621.29	1084.53
621.63	1086.43
621.98	1084.07
622.32	1084.00
622.67	1085.96
623.02	1085.59
623.36	1081.19
623.71	1082.36
624.05	1084.28
624.40	1079.69
624.75	1078.50
625.09	1081.75
625.44	1079.20
625.78	1077.72
626.13	1081.21
626.48	1080.09
626.82	1078.92
627.17	1079.57
627.51	1081.05
627.86	1081.91
628.20	1082.29
628.55	1082.52
628.89	1085.40
629.24	1086.52
629.58	1085.07
629.93	1083.57
630.28	1084.96
630.62	1082.45
630.97	1078.87
631.31	1080.09
631.66	1083.74
632.00	1080.84
632.35	1082.17
632.69	1084.28
633.04	1086.06
633.38	1083.64
633.73	1086.48
634.07	1085.07
634.42	1084.32
634.76	1079.15
635.11	1079.71
635.45	1079.55
635.79	1080.72
636.14	1081.66
636.48	1086.15
636.83	1084.67
637.17	1083.20
637.52	1080.70
637.86	1078.50
638.21	1076.08
638.55	1076.55
638.89	1076.44
639.24	1081.19
639.58	1081.98
639.93	1082.50
640.27	1082.61
640.61	1081.87
640.96	1076.41
641.30	1075.38
641.65	1075.76
641.99	1077.89
642.33	1079.31
642.68	1081.12
643.02	1082.31
643.37	1082.26
643.71	1081.68
644.05	1083.88
644.40	1085.73
644.74	1087.06
645.08	1085.12
645.43	1084.81
645.77	1082.73
646.11	1083.67
646.46	1080.27
646.80	1083.64
647.14	1081.33
647.49	1080.27
647.83	1077.33
648.17	1078.68
648.52	1076.86
648.86	1075.48
649.20	1076.53
649.55	1075.99
649.89	1078.96
650.23	1077.82
650.57	1080.86
650.92	1080.53
651.26	1083.20
651.60	1082.52
651.95	1085.94
652.29	1084.74
652.63	1085.31
652.97	1081.30
653.32	1078.87
653.66	1076.69
654.00	1076.46
654.34	1075.20
654.69	1076.60
655.03	1077.89
655.37	1079.92
655.71	1083.90
656.05	1085.47
656.40	1084.28
656.74	1083.13
657.08	1079.15
657.42	1077.30
657.76	1077.82
658.11	1079.31
658.45	1082.40
658.79	1083.83
659.13	1083.36
659.47	1082.50
659.82	1084.00
660.16	1082.22
660.50	1082.22
660.84	1081.68
661.18	1080.11
661.52	1080.25
661.87	1077.82
662.21	1076.93
662.55	1076.76
662.89	1080.37
663.23	1081.68
663.57	1081.68
663.91	1081.56
664.25	1085.03
664.60	1083.57
664.94	1081.35
665.28	1083.60
665.62	1084.21
665.96	1080.06
666.30	1083.53
666.64	1083.60
666.98	1084.39
667.32	1083.27
667.66	1082.57
668.01	1078.31
668.35	1079.17
668.69	1076.01
669.03	1077.70
669.37	1081.94
669.71	1081.09
670.05	1079.95
670.39	1081.84
670.73	1081.94
671.07	1081.28
671.41	1081.14
671.75	1080.11
672.09	1082.90
672.43	1083.55
672.77	1080.60
673.11	1081.00
673.45	1079.85
673.79	1076.01
674.13	1072.15
674.47	1075.64
674.81	1076.18
675.15	1079.06
675.49	1080.88
675.83	1082.85
676.17	1083.86
676.51	1084.49
676.85	1082.99
677.19	1083.60
677.53	1084.84
677.87	1080.91
678.21	1080.09
678.55	1079.31
678.89	1078.14
679.23	1079.27
679.57	1079.81
679.90	1079.27
680.24	1081.42
680.58	1083.67
680.92	1082.92
681.26	1084.25
681.60	1087.44
681.94	1086.90
682.28	1086.08
682.62	1083.53
682.96	1081.84
683.29	1078.99
683.63	1081.12
683.97	1080.25
684.31	1084.79
684.65	1082.59
684.99	1082.66
685.33	1081.26
685.67	1081.75
686.00	1078.59
686.34	1081.84
686.68	1081.00
687.02	1078.36
687.36	1077.63
687.70	1078.12
688.03	1078.31
688.37	1081.07
688.71	1081.91
689.05	1081.49
689.39	1079.78
689.72	1080.23
690.06	1081.89
690.40	1082.05
690.74	1083.74
691.08	1086.59
691.41	1085.03
691.75	1084.63
692.09	1083.97
692.43	1080.65
692.76	1080.18
693.10	1083.83
693.44	1078.33
693.78	1080.41
694.11	1082.38
694.45	1081.42
694.79	1078.05
695.13	1081.44
695.46	1080.81
695.80	1082.26
696.14	1080.86
696.48	1083.46
696.81	1084.02
697.15	1083.71
697.49	1080.53
697.82	1081.23
698.16	1078.71
698.50	1078.85
698.83	1077.04
699.17	1077.63
699.51	1077.42
699.84	1078.80
700.18	1080.51
700.52	1083.11
700.85	1084.51
701.19	1085.54
701.53	1084.25
701.86	1081.63
702.20	1077.91
702.54	1077.40
702.87	1076.30
703.21	1074.61
703.55	1074.89
703.88	1077.18
704.22	1078.21
704.55	1077.91
704.89	1077.42
705.23	1076.90
705.56	1078.82
705.90	1077.16
706.23	1079.08
706.57	1080.98
706.91	1079.64
707.24	1078.26
707.58	1082.47
707.91	1084.86
708.25	1086.50
708.58	1090.78
708.92	1091.49
709.26	1087.09
709.59	1082.85
709.93	1081.75
710.26	1079.15
710.60	1082.01
710.93	1083.50
711.27	1082.87
711.60	1082.57
711.94	1078.19
712.27	1073.74
712.61	1072.74
712.94	1075.85
713.28	1076.55
713.61	1078.21
713.95	1080.65
714.28	1081.70
714.62	1078.68
714.95	1079.31
715.29	1081.00
715.62	1077.51
715.96	1077.21
716.29	1077.00
716.63	1074.73
716.96	1074.87
717.29	1077.84
717.63	1081.42
717.96	1084.04
718.30	1083.62
718.63	1085.03
718.97	1083.01
719.30	1081.63
719.63	1079.31
719.97	1082.17
720.30	1081.94
720.64	1083.43
720.97	1081.61
721.30	1086.87
721.64	1084.79
721.97	1083.46
722.31	1084.56
722.64	1083.27
722.97	1078.45
723.31	1076.95
723.64	1076.86
723.97	1078.28
724.31	1077.04
724.64	1080.34
724.98	1084.25
725.31	1086.22
725.64	1080.27
725.98	1082.50
726.31	1080.93
726.64	1076.11
726.97	1075.10
727.31	1080.53
727.64	1081.26
727.97	1081.47
728.31	1089.45
728.64	1088.91
728.97	1084.25
729.31	1079.64
729.64	1079.90
729.97	1074.38
730.30	1074.26
730.64	1077.70
730.97	1081.44
731.30	1083.97
731.63	1083.15
731.97	1080.98
732.30	1081.16
732.63	1077.91
732.96	1074.89
733.30	1075.03
733.63	1079.13
733.96	1075.45
734.29	1078.61
734.63	1076.86
734.96	1076.23
735.29	1073.53
735.62	1074.42
735.95	1073.18
736.29	1073.37
736.62	1074.70
736.95	1076.72
737.28	1078.85
737.61	1079.06
737.94	1078.36
738.28	1075.57
738.61	1074.96
738.94	1076.83
739.27	1080.58
739.60	1082.61
739.93	1087.67
740.27	1084.96
740.60	1083.04
740.93	1077.75
741.26	1076.97
741.59	1074.35
741.92	1075.52
742.25	1074.47
742.58	1076.93
742.91	1080.84
743.25	1081.49
743.58	1083.93
743.91	1085.33
744.24	1083.06
744.57	1079.57
744.90	1078.12
745.23	1077.84
745.56	1076.06
745.89	1077.84
746.22	1079.95
746.55	1082.59
746.88	1083.36
747.21	1082.57
747.54	1084.18
747.87	1081.66
748.20	1081.63
748.53	1079.57
748.87	1080.58
749.20	1079.76
749.53	1082.43
749.86	1083.22
750.19	1083.93
750.52	1083.60
750.85	1082.05
751.18	1079.43
751.51	1079.01
751.84	1078.26
752.16	1079.34
752.49	1082.69
752.82	1086.62
753.15	1088.42
753.48	1088.79
753.81	1088.79
754.14	1086.83
754.47	1082.03
754.80	1081.42
755.13	1081.12
755.46	1080.70
755.79	1079.34
756.12	1080.63
756.45	1077.96
756.78	1077.00
757.11	1079.10
757.43	1079.60
757.76	1082.36
758.09	1084.84
758.42	1085.47
758.75	1084.00
759.08	1084.60
759.41	1084.04
759.74	1081.68
760.07	1079.06
760.39	1078.94
760.72	1078.85
761.05	1077.98
761.38	1078.92
761.71	1081.30
762.04	1079.55
762.36	1082.43
762.69	1082.90
763.02	1083.22
763.35	1083.20
763.68	1088.61
764.01	1084.16
764.33	1082.08
764.66	1081.44
764.99	1079.74
765.32	1075.87
765.65	1077.37
765.97	1077.93
766.30	1075.64
766.63	1076.41
766.96	1077.07
767.28	1075.03
767.61	1074.24
767.94	1076.93
768.27	1079.78
768.59	1081.35
768.92	1085.54
769.25	1084.49
769.58	1083.46
769.90	1081.82
770.23	1077.61
770.56	1075.24
770.89	1077.35
771.21	1079.95
771.54	1082.78
771.87	1081.33
772.19	1084.25
772.52	1084.25
772.85	1081.84
773.17	1078.45
773.50	1081.16
773.83	1076.67
774.15	1074.24
774.48	1071.40
774.81	1070.54
775.13	1072.34
775.46	1075.29
775.79	1075.27
776.11	1077.51
776.44	1079.67
776.77	1077.65
777.09	1076.65
777.42	1078.19
777.74	1076.25
778.07	1075.45
778.40	1074.68
778.72	1074.19
779.05	1075.69
779.37	1079.20
779.70	1082.10
780.03	1083.20
780.35	1084.30
780.68	1085.19
781.00	1085.89
781.33	1086.38
781.65	1085.10
781.98	1085.96
782.31	1082.71
782.63	1078.61
782.96	1074.75
783.28	1076.37
783.61	1076.48
783.93	1075.50
784.26	1076.15
784.58	1076.95
784.91	1074.45
785.23	1072.46
785.56	1072.95
785.88	1072.34
786.21	1072.76
786.53	1074.14
786.86	1072.78
787.18	1072.41
787.51	1075.57
787.83	1075.64
788.16	1078.57
788.48	1078.68
788.81	1082.50
789.13	1081.96
789.46	1083.76
789.78	1080.98
790.10	1083.34
790.43	1081.28
790.75	1080.79
791.08	1078.89
791.40	1080.98
791.73	1081.91
792.05	1079.81
792.37	1079.36
792.70	1078.80
793.02	1078.36
793.35	1074.77
793.67	1076.76
793.99	1075.08
794.32	1074.84
794.64	1074.19
794.96	1076.48
795.29	1077.11
795.61	1080.20
795.93	1080.74
796.26	1078.78
796.58	1074.59
796.91	1070.63
797.23	1071.15
797.55	1070.12
797.87	1072.39
798.20	1075.41
798.52	1078.64
798.84	1077.21
799.17	1077.00
799.49	1076.95
799.81	1075.83
800.14	1074.03
800.46	1071.92
800.78	1075.69
801.10	1074.84
801.43	1074.70
801.75	1073.07
802.07	1073.67
802.40	1070.96
802.72	1072.50
803.04	1073.49
803.36	1076.88
803.69	1077.96
804.01	1078.54
804.33	1080.93
804.65	1082.61
804.97	1085.19
805.30	1083.79
805.62	1083.60
805.94	1083.48
806.26	1082.59
806.58	1080.56
806.91	1081.44
807.23	1081.44
807.55	1080.04
807.87	1079.99
808.19	1079.62
808.52	1078.66
808.84	1078.73
809.16	1077.33
809.48	1075.85
809.80	1075.22
810.12	1073.93
810.44	1072.06
810.77	1069.72
811.09	1073.74
811.41	1075.78
811.73	1078.21
812.05	1075.64
812.37	1079.06
812.69	1075.17
813.01	1074.40
813.33	1074.33
813.66	1077.98
813.98	1076.23
814.30	1079.50
814.62	1077.68
814.94	1077.25
815.26	1076.04
815.58	1074.19
815.90	1070.40
816.22	1075.20
816.54	1076.11
816.86	1079.24
817.18	1079.83
817.50	1082.85
817.82	1081.21
818.14	1080.79
818.46	1079.31
818.78	1079.71
819.10	1077.07
819.42	1074.68
819.74	1075.29
820.06	1073.00
820.38	1072.34
820.70	1073.25
821.02	1073.30
821.34	1076.55
821.66	1079.62
821.98	1082.15
822.30	1082.03
822.62	1082.54
822.94	1079.10
823.26	1078.59
823.58	1077.68
823.90	1080.25
824.22	1080.86
824.54	1079.97
824.86	1078.36
825.18	1078.75
825.50	1075.78
825.81	1078.07
826.13	1080.67
826.45	1081.00
826.77	1079.27
827.09	1081.00
827.41	1077.56
827.73	1073.46
828.05	1074.87
828.36	1077.07
828.68	1076.88
829.00	1075.71
829.32	1076.65
829.64	1075.38
829.96	1077.33
830.28	1076.39
830.59	1074.91
830.91	1075.22
831.23	1077.54
831.55	1077.18
831.87	1076.25
832.19	1079.55
832.50	1083.81
832.82	1079.13
833.14	1077.68
833.46	1080.04
833.78	1081.84
834.09	1075.01
834.41	1078.28
834.73	1081.40
835.05	1079.29
835.36	1081.19
835.68	1086.38
836.00	1085.21
836.32	1082.80
836.63	1085.19
836.95	1080.30
837.27	1077.28
837.59	1077.51
837.90	1076.55
838.22	1074.77
838.54	1072.97
838.85	1074.35
839.17	1076.20
839.49	1071.75
839.80	1069.02
840.12	1072.78
840.44	1074.19
840.76	1071.15
841.07	1073.65
841.39	1074.56
841.71	1074.26
842.02	1071.82
842.34	1071.66
842.65	1073.53
842.97	1073.49
843.29	1076.48
843.60	1077.98
843.92	1082.40
844.24	1080.91
844.55	1083.39
844.87	1078.96
845.18	1079.10
845.50	1072.62
845.82	1073.98
846.13	1073.28
846.45	1075.71
846.76	1072.67
847.08	1076.18
847.40	1076.20
847.71	1076.67
848.03	1076.06
848.34	1077.18
848.66	1076.39
848.97	1075.48
849.29	1074.59
849.60	1069.91
849.92	1071.82
850.24	1068.69
850.55	1069.25
850.87	1070.89
851.18	1074.77
851.50	1072.97
851.81	1078.40
852.13	1080.48
852.44	1077.68
852.76	1077.96
853.07	1077.70
853.39	1076.65
853.70	1073.63
854.01	1075.48
854.33	1076.93
854.64	1076.58
854.96	1078.66
855.27	1078.99
855.59	1079.81
855.90	1077.54
856.22	1078.05
856.53	1077.65
856.84	1078.80
857.16	1079.15
857.47	1078.96
857.79	1079.69
858.10	1075.59
858.41	1074.03
858.73	1072.53
859.04	1077.28
859.36	1076.04
859.67	1078.43
859.98	1081.14
860.30	1080.02
860.61	1078.99
860.92	1080.74
861.24	1080.34
861.55	1082.05
861.87	1085.70
862.18	1083.25
862.49	1082.19
862.81	1081.66
863.12	1077.86
863.43	1074.73
863.74	1071.78
864.06	1070.91
864.37	1068.45
864.68	1068.92
865.00	1071.36
865.31	1074.73
865.62	1075.31
865.94	1077.82
866.25	1077.72
866.56	1074.56
866.87	1075.29
867.19	1076.34
867.50	1078.75
867.81	1081.44
868.12	1085.47
868.44	1082.73
868.75	1081.68
869.06	1079.95
869.37	1076.32
869.68	1075.34
870.00	1076.67
870.31	1077.23
870.62	1078.75
870.93	1079.69
871.24	1077.84
871.56	1074.77
871.87	1076.48
872.18	1077.07
872.49	1080.11
872.80	1079.67
873.12	1081.77
873.43	1082.05
873.74	1080.70
874.05	1077.33
874.36	1078.82
874.67	1079.17
874.98	1080.04
875.29	1081.37
875.61	1082.15
875.92	1083.46
876.23	1084.21
876.54	1081.82
876.85	1078.66
877.16	1078.31
877.47	1075.13
877.78	1073.79
878.09	1071.59
878.40	1072.11
878.72	1073.42
879.03	1075.01
879.34	1074.66
879.65	1078.05
879.96	1078.94
880.27	1078.03
880.58	1078.36
880.89	1078.21
881.20	1075.22
881.51	1075.29
881.82	1076.04
882.13	1076.18
882.44	1078.03
882.75	1077.58
883.06	1077.75
883.37	1077.14
883.68	1077.56
883.99	1075.17
884.30	1078.05
884.61	1079.97
884.92	1078.21
885.23	1074.77
885.54	1075.29
885.85	1072.90
886.16	1073.30
886.47	1074.47
886.78	1077.00
887.08	1077.18
887.39	1077.98
887.70	1073.32
888.01	1075.38
888.32	1078.78
888.63	1079.22
888.94	1077.98
889.25	1078.21
889.56	1072.60
889.87	1067.42
890.17	1071.19
890.48	1074.33
890.79	1078.12
891.10	1081.12
891.41	1083.55
891.72	1079.67
892.03	1077.51
892.34	1077.96
892.64	1077.11
892.95	1073.37
893.26	1075.94
893.57	1076.51
893.88	1073.25
894.18	1073.46
894.49	1080.02
894.80	1079.62
895.11	1080.16
895.42	1081.14
895.72	1085.14
896.03	1080.84
896.34	1081.19
896.65	1082.17
896.96	1079.34
897.26	1077.77
897.57	1078.66
897.88	1078.03
898.19	1079.85
898.49	1082.17
898.80	1082.69
899.11	1078.05
899.41	1077.86
899.72	1076.41
900.03	1077.65
900.34	1076.01
900.64	1078.85
900.95	1076.76
901.26	1078.61
901.56	1075.80
901.87	1076.08
902.18	1073.53
902.48	1072.34
902.79	1066.96
903.10	1067.03
903.40	1065.93
903.71	1069.62
904.02	1071.24
904.32	1073.56
904.63	1074.82
904.94	1074.28
905.24	1074.94
905.55	1074.26
905.85	1074.66
906.16	1074.07
906.47	1076.90
906.77	1077.47
907.08	1078.61
907.38	1077.89
907.69	1077.56
908.00	1075.13
908.30	1075.59
908.61	1075.73
908.91	1077.09
909.22	1078.82
909.52	1081.75
909.83	1079.83
910.14	1077.75
910.44	1078.28
910.75	1078.75
911.05	1075.99
911.36	1074.63
911.66	1075.76
911.97	1072.95
912.27	1074.21
912.58	1074.47
912.88	1077.02
913.19	1078.47
913.49	1077.23
913.80	1075.13
914.10	1074.49
914.41	1074.07
914.71	1072.92
915.01	1076.01
915.32	1074.77
915.62	1076.30
915.93	1075.52
916.23	1077.16
916.54	1076.27
916.84	1076.37
917.15	1074.05
917.45	1073.74
917.75	1073.16
918.06	1072.50
918.36	1070.94
918.67	1073.72
918.97	1075.34
919.27	1075.59
919.58	1076.60
919.88	1078.94
920.18	1077.89
920.49	1074.12
920.79	1075.34
921.10	1074.59
921.40	1073.04
921.70	1075.01
922.01	1079.83
922.31	1077.16
922.61	1076.32
922.92	1077.84
923.22	1077.63
923.52	1073.88
923.82	1077.37
924.13	1079.34
924.43	1081.98
924.73	1082.15
925.04	1084.00
925.34	1081.33
925.64	1079.57
925.94	1075.50
926.25	1071.66
926.55	1068.59
926.85	1066.47
927.15	1068.29
927.46	1071.80
927.76	1071.94
928.06	1075.90
928.36	1080.77
928.67	1079.29
928.97	1078.31
929.27	1076.44
929.57	1073.88
929.87	1072.74
930.18	1073.07
930.48	1072.50
930.78	1074.24
931.08	1076.39
931.38	1072.34
931.69	1074.40
931.99	1072.55
932.29	1071.66
932.59	1070.33
932.89	1074.66
933.19	1074.59
933.49	1076.72
933.80	1078.12
934.10	1080.48
934.40	1080.53
934.70	1077.93
935.00	1075.43
935.30	1076.13
935.60	1074.84
935.90	1075.97
936.20	1076.93
936.50	1078.47
936.81	1078.03
937.11	1078.31
937.41	1075.10
937.71	1073.25
938.01	1074.05
938.31	1078.61
938.61	1077.82
938.91	1076.53
939.21	1076.79
939.51	1077.14
939.81	1074.14
940.11	1072.08
940.41	1073.77
940.71	1075.85
941.01	1074.91
941.31	1072.01
941.61	1077.14
941.91	1076.53
942.21	1076.62
942.51	1078.50
942.81	1082.59
943.11	1079.34
943.41	1079.60
943.71	1078.07
944.01	1077.07
944.31	1073.53
944.61	1072.64
944.90	1073.84
945.20	1076.74
945.50	1074.96
945.80	1078.26
946.10	1078.85
946.40	1077.63
946.70	1078.31
947.00	1077.65
947.30	1075.50
947.60	1078.31
947.89	1077.68
948.19	1073.28
948.49	1072.32
948.79	1073.21
949.09	1071.43
949.39	1070.21
949.69	1072.18
949.98	1076.67
950.28	1078.87
950.58	1078.75
950.88	1080.81
951.18	1082.92
951.48	1077.16
951.77	1074.91
952.07	1074.28
952.37	1074.47
952.67	1073.32
952.97	1080.41
953.26	1082.38
953.56	1082.80
953.86	1080.77
954.16	1078.99
954.45	1073.07
954.75	1068.13
955.05	1066.84
955.35	1066.77
955.64	1067.99
955.94	1069.77
956.24	1075.17
956.54	1075.80
956.83	1080.09
957.13	1080.84
957.43	1082.80
957.72	1081.16
958.02	1083.60
958.32	1083.04
958.61	1079.97
958.91	1081.73
959.21	1080.18
959.50	1079.31
959.80	1077.68
960.10	1080.04
960.39	1077.93
960.69	1077.72
960.99	1077.14
961.28	1076.95
961.58	1073.30
961.87	1073.04
962.17	1073.09
962.47	1072.34
962.76	1070.26
963.06	1074.56
963.36	1075.73
963.65	1077.42
963.95	1080.23
964.24	1085.33
964.54	1084.93
964.83	1084.74
965.13	1080.34
965.42	1078.78
965.72	1077.18
966.02	1076.25
966.31	1074.28
966.61	1077.00
966.90	1076.13
967.20	1073.14
967.49	1073.72
967.79	1071.45
968.08	1073.00
968.38	1069.88
968.67	1073.21
968.97	1072.39
969.26	1075.20
969.56	1072.53
969.85	1077.18
970.15	1075.85
970.44	1077.37
970.74	1076.81
971.03	1079.20
971.32	1078.05
971.62	1078.38
971.91	1077.65
972.21	1078.57
972.50	1078.96
972.80	1079.88
973.09	1078.14
973.38	1077.96
973.68	1077.07
973.97	1077.58
974.27	1075.50
974.56	1075.76
974.85	1076.48
975.15	1075.45
975.44	1074.70
975.73	1074.35
976.03	1074.87
976.32	1074.52
976.61	1077.02
976.91	1075.43
977.20	1074.03
977.49	1076.62
977.79	1078.75
978.08	1082.31
978.37	1083.50
978.67	1086.80
978.96	1086.97
979.25	1083.76
979.55	1082.59
979.84	1082.97
980.13	1083.55
980.42	1080.65
980.72	1082.01
981.01	1080.63
981.30	1080.27
981.59	1076.58
981.89	1078.12
982.18	1076.86
982.47	1073.88
982.76	1072.13
983.06	1073.84
983.35	1071.68
983.64	1072.22
983.93	1074.38
984.22	1075.50
984.52	1076.15
984.81	1074.14
985.10	1074.91
985.39	1073.65
985.68	1073.18
985.97	1072.97
986.27	1076.58
986.56	1075.22
986.85	1074.89
987.14	1075.03
987.43	1078.19
987.72	1077.18
988.01	1075.17
988.31	1079.88
988.60	1078.78
988.89	1074.68
989.18	1073.09
989.47	1074.17
989.76	1067.99
990.05	1068.03
990.34	1070.61
990.63	1071.71
990.92	1075.38
991.21	1077.54
991.51	1077.02
991.80	1077.75
992.09	1078.47
992.38	1075.17
992.67	1076.88
992.96	1076.83
993.25	1075.38
993.54	1075.08
993.83	1079.06
994.12	1078.40
994.41	1082.08
994.70	1083.60
994.99	1084.16
995.28	1083.88
995.57	1085.96
995.86	1085.24
996.15	1082.17
996.44	1085.00
996.73	1081.96
997.02	1080.72
997.31	1077.23
997.59	1081.66
997.88	1082.15
998.17	1080.81
998.46	1078.61
998.75	1080.25
999.04	1078.85
999.33	1078.40
999.62	1081.66
999.91	1078.99
1000.20	1080.63
1000.49	1078.59
1000.77	1075.22
1001.06	1073.53
1001.35	1074.52
1001.64	1075.13
1001.93	1075.03
1002.22	1076.41
1002.51	1075.76
1002.79	1078.52
1003.08	1076.86
1003.37	1076.04
1003.66	1076.13
1003.95	1078.61
1004.23	1075.05
1004.52	1073.30
1004.81	1074.33
1005.10	1070.98
1005.39	1070.12
1005.67	1073.46
1005.96	1073.72
1006.25	1073.32
1006.54	1075.80
1006.83	1075.34
1007.11	1072.92
1007.40	1074.87
1007.69	1077.54
1007.97	1079.38
1008.26	1080.13
1008.55	1084.81
1008.84	1086.71
1009.12	1084.09
1009.41	1081.23
1009.70	1080.77
1009.98	1079.17
1010.27	1076.34
1010.56	1077.79
1010.85	1079.48
1011.13	1078.54
1011.42	1076.67
1011.71	1077.25
1011.99	1074.98
1012.28	1073.67
1012.56	1072.39
1012.85	1072.97
1013.14	1072.27
1013.42	1074.59
1013.71	1077.07
1014.00	1077.18
1014.28	1076.69
1014.57	1078.57
1014.85	1074.49
1015.14	1073.98
1015.43	1075.38
1015.71	1075.31
1016.00	1074.52
1016.28	1074.40
1016.57	1071.68
1016.85	1073.28
1017.14	1074.12
1017.43	1075.03
1017.71	1080.25
1018.00	1080.91
1018.28	1079.34
1018.57	1077.21
1018.85	1074.68
1019.14	1069.84
1019.42	1069.60
1019.71	1068.59
1019.99	1072.08
1020.28	1072.97
1020.56	1069.88
1020.85	1071.17
1021.13	1071.82
1021.42	1068.71
1021.70	1068.67
1021.99	1076.11
1022.27	1078.45
1022.55	1085.07
1022.84	1091.63
>>>>>End Processed Spectral Data<<<<<
