SpectraSuite Data File
++++++++++++++++++++++++++++++++++++
Date: Mon Aug 26 10:22:06 PDT 2019
User: corrico
Dark Spectrum Present: No
Reference Spectrum Present: No
Number of Sampled Component Spectra: 1
Spectrometers: USB2+H06089
Integration Time (usec): 2000 (USB2+H06089)
Spectra Averaged: 20 (USB2+H06089)
Boxcar Smoothing: 2 (USB2+H06089)
Correct for Electrical Dark: No (USB2+H06089)
Strobe/Lamp Enabled: No (USB2+H06089)
Correct for Detector Non-linearity: No (USB2+H06089)
Correct for Stray Light: No (USB2+H06089)
Number of Pixels in Processed Spectrum: 2048
>>>>>Begin Processed Spectral Data<<<<<
339.70	1032.88
340.07	1032.88
340.45	999.15
340.82	975.25
341.19	950.68
341.57	926.99
341.94	913.93
342.31	906.77
342.69	904.17
343.06	900.24
343.43	897.85
343.81	899.73
344.18	898.48
344.55	901.27
344.93	908.29
345.30	912.90
345.67	918.45
346.04	926.10
346.42	934.20
346.79	941.04
347.16	949.93
347.54	962.48
347.91	973.10
348.28	979.82
348.65	991.40
349.03	1000.86
349.40	1009.15
349.77	1019.47
350.14	1031.03
350.52	1036.72
350.89	1044.28
351.26	1045.68
351.63	1048.61
352.01	1056.56
352.38	1061.76
352.75	1064.08
353.12	1074.10
353.50	1077.33
353.87	1077.75
354.24	1079.10
354.61	1081.33
354.98	1080.39
355.36	1082.40
355.73	1083.13
356.10	1083.86
356.47	1085.87
356.84	1086.55
357.22	1089.07
357.59	1088.28
357.96	1088.42
358.33	1087.67
358.70	1086.92
359.08	1083.74
359.45	1082.29
359.82	1080.27
360.19	1078.80
360.56	1078.00
360.94	1077.98
361.31	1077.47
361.68	1079.90
362.05	1080.67
362.42	1079.22
362.79	1080.74
363.16	1079.64
363.54	1079.55
363.91	1078.40
364.28	1081.54
364.65	1078.71
365.02	1079.03
365.39	1078.10
365.76	1078.96
366.14	1076.15
366.51	1079.31
366.88	1077.00
367.25	1076.74
367.62	1075.45
367.99	1074.73
368.36	1071.19
368.73	1073.30
369.10	1074.66
369.48	1076.58
369.85	1076.86
370.22	1077.82
370.59	1077.28
370.96	1076.83
371.33	1073.84
371.70	1075.48
372.07	1077.44
372.44	1078.36
372.81	1075.43
373.18	1076.95
373.55	1073.07
373.93	1073.95
374.30	1074.80
374.67	1075.78
375.04	1076.90
375.41	1080.74
375.78	1077.37
376.15	1077.82
376.52	1079.67
376.89	1078.36
377.26	1080.04
377.63	1080.27
378.00	1080.74
378.37	1081.84
378.74	1083.32
379.11	1084.46
379.48	1086.97
379.85	1087.81
380.22	1084.09
380.59	1084.51
380.96	1082.78
381.33	1080.46
381.70	1079.50
382.07	1080.32
382.44	1079.34
382.81	1078.59
383.18	1080.88
383.55	1080.93
383.92	1083.88
384.29	1083.04
384.66	1082.80
385.03	1083.43
385.40	1082.50
385.77	1081.33
386.14	1083.74
386.51	1084.67
386.88	1084.65
387.25	1086.06
387.62	1085.33
387.99	1085.63
388.36	1082.22
388.73	1079.99
389.10	1080.44
389.46	1079.81
389.83	1079.97
390.20	1083.53
390.57	1083.50
390.94	1083.41
391.31	1086.66
391.68	1082.92
392.05	1082.87
392.42	1081.21
392.79	1080.44
393.16	1079.22
393.53	1083.57
393.89	1084.79
394.26	1087.53
394.63	1086.13
395.00	1085.28
395.37	1085.82
395.74	1084.49
396.11	1085.96
396.48	1087.86
396.84	1089.00
397.21	1088.14
397.58	1090.95
397.95	1092.47
398.32	1093.62
398.69	1092.54
399.06	1092.59
399.42	1090.48
399.79	1089.80
400.16	1088.96
400.53	1088.37
400.90	1088.49
401.27	1090.76
401.64	1090.27
402.00	1090.74
402.37	1093.08
402.74	1093.05
403.11	1094.08
403.48	1094.81
403.84	1095.46
404.21	1095.63
404.58	1094.43
404.95	1093.03
405.32	1092.07
405.68	1092.56
406.05	1094.53
406.42	1098.86
406.79	1097.66
407.16	1100.31
407.52	1101.48
407.89	1103.07
408.26	1097.92
408.63	1098.20
408.99	1094.90
409.36	1092.87
409.73	1089.24
410.10	1091.46
410.47	1090.53
410.83	1091.98
411.20	1094.34
411.57	1097.36
411.94	1101.20
412.30	1104.87
412.67	1105.20
413.04	1105.08
413.40	1103.98
413.77	1099.35
414.14	1095.72
414.51	1097.01
414.87	1097.73
415.24	1101.67
415.61	1104.90
415.97	1106.14
416.34	1109.37
416.71	1110.21
417.08	1107.49
417.44	1106.02
417.81	1109.48
418.18	1110.37
418.54	1111.01
418.91	1114.26
419.28	1120.77
419.64	1120.37
420.01	1118.61
420.38	1120.25
420.74	1118.96
421.11	1119.06
421.48	1122.73
421.84	1125.87
422.21	1129.36
422.58	1133.66
422.94	1133.66
423.31	1135.63
423.68	1138.48
424.04	1137.80
424.41	1137.78
424.77	1145.01
425.14	1153.51
425.51	1159.10
425.87	1168.37
426.24	1180.22
426.61	1184.43
426.97	1187.68
427.34	1193.04
427.70	1201.07
428.07	1204.95
428.44	1211.65
428.80	1219.96
429.17	1230.72
429.53	1239.27
429.90	1250.17
430.27	1263.12
430.63	1275.59
431.00	1287.97
431.36	1302.95
431.73	1318.03
432.09	1336.77
432.46	1354.49
432.83	1374.53
433.19	1395.47
433.56	1418.32
433.92	1443.06
434.29	1470.23
434.65	1499.91
435.02	1526.92
435.38	1562.12
435.75	1598.35
436.11	1635.36
436.48	1678.12
436.84	1724.46
437.21	1768.88
437.57	1813.03
437.94	1862.20
438.30	1908.29
438.67	1967.69
439.03	2032.94
439.40	2103.53
439.76	2172.93
440.13	2252.81
440.49	2330.40
440.86	2402.42
441.22	2483.94
441.59	2577.35
441.95	2676.57
442.32	2783.04
442.68	2905.40
443.05	3027.72
443.41	3155.11
443.78	3280.71
444.14	3416.06
444.51	3550.29
444.87	3724.49
445.24	3891.61
445.60	4073.00
445.96	4259.73
446.33	4480.65
446.69	4677.56
447.06	4896.54
447.42	5125.80
447.79	5364.11
448.15	5632.41
448.51	5909.22
448.88	6239.42
449.24	6548.73
449.61	6912.23
449.97	7265.35
450.33	7649.76
450.70	7997.42
451.06	8435.97
451.43	8834.24
451.79	9292.14
452.15	9781.68
452.52	10321.67
452.88	10872.96
453.24	11506.03
453.61	12208.77
453.97	12912.97
454.34	13636.20
454.70	14433.71
455.06	15241.47
455.43	16002.10
455.79	16697.55
456.15	17497.77
456.52	18268.75
456.88	19183.71
457.24	20093.48
457.61	21211.71
457.97	22263.46
458.33	23360.49
458.70	24395.54
459.06	25385.33
459.42	26393.24
459.79	27326.85
460.15	28390.30
460.51	29399.45
460.88	30504.06
461.24	31481.24
461.60	32624.87
461.96	33658.64
462.33	34704.67
462.69	35768.23
463.05	36934.52
463.42	37997.10
463.78	38965.10
464.14	39734.60
464.50	40472.94
464.87	40973.02
465.23	41279.28
465.59	41650.54
465.95	41964.56
466.32	42193.75
466.68	42464.08
467.04	42661.69
467.40	42710.54
467.77	42825.20
468.13	42740.73
468.49	42563.41
468.85	42432.58
469.22	42277.38
469.58	42031.48
469.94	41909.89
470.30	41722.46
470.66	41365.67
471.03	40871.35
471.39	40504.75
471.75	39784.89
472.11	39050.18
472.47	38541.46
472.84	38016.71
473.20	37287.75
473.56	36901.61
473.92	36341.01
474.28	35724.21
474.65	35090.36
475.01	34414.75
475.37	33538.07
475.73	32855.39
476.09	32143.98
476.45	31484.61
476.81	30926.13
477.18	30390.05
477.54	29915.39
477.90	29464.00
478.26	28880.34
478.62	28365.05
478.98	27957.16
479.34	27541.69
479.71	26969.13
480.07	26549.80
480.43	26112.28
480.79	25597.20
481.15	25080.95
481.51	24709.60
481.87	24366.69
482.23	24006.08
482.59	23689.03
482.96	23367.89
483.32	23059.66
483.68	22679.23
484.04	22313.54
484.40	21904.75
484.76	21486.05
485.12	21031.56
485.48	20588.48
485.84	20101.01
486.20	19671.78
486.56	19218.35
486.92	18815.94
487.28	18414.98
487.64	18016.23
488.00	17621.78
488.37	17234.00
488.73	16797.16
489.09	16323.25
489.45	15864.95
489.81	15397.38
490.17	14953.75
490.53	14556.28
490.89	14160.62
491.25	13761.69
491.61	13363.66
491.97	12964.13
492.33	12559.31
492.69	12210.29
493.05	11884.49
493.41	11561.73
493.77	11248.59
494.13	10941.09
494.49	10631.11
494.85	10339.13
495.21	10054.17
495.57	9773.47
495.93	9505.17
496.29	9251.08
496.64	9020.19
497.00	8770.74
497.36	8520.23
497.72	8272.37
498.08	8045.59
498.44	7805.97
498.80	7595.44
499.16	7412.27
499.52	7222.07
499.88	7044.12
500.24	6880.52
500.60	6716.68
500.96	6551.39
501.32	6398.35
501.68	6226.20
502.03	6036.24
502.39	5877.72
502.75	5702.48
503.11	5545.34
503.47	5397.60
503.83	5269.32
504.19	5133.26
504.55	5018.09
504.91	4897.03
505.26	4786.51
505.62	4674.00
505.98	4567.39
506.34	4449.66
506.70	4336.12
507.06	4224.71
507.42	4123.09
507.78	4019.40
508.13	3931.96
508.49	3851.26
508.85	3772.12
509.21	3689.13
509.57	3608.45
509.93	3520.38
510.28	3427.95
510.64	3346.24
511.00	3260.76
511.36	3184.74
511.72	3113.03
512.07	3055.41
512.43	2987.37
512.79	2928.45
513.15	2867.88
513.51	2807.75
513.86	2747.41
514.22	2699.55
514.58	2649.21
514.94	2604.99
515.30	2562.49
515.65	2520.83
516.01	2476.05
516.37	2435.09
516.73	2393.53
517.08	2353.36
517.44	2306.71
517.80	2265.33
518.16	2227.70
518.51	2193.64
518.87	2161.98
519.23	2134.69
519.59	2108.87
519.94	2077.65
520.30	2044.48
520.66	2013.24
521.01	1982.83
521.37	1947.00
521.73	1921.56
522.09	1894.41
522.44	1869.39
522.80	1844.01
523.16	1824.28
523.51	1800.36
523.87	1783.18
524.23	1759.99
524.58	1740.14
524.94	1723.27
525.30	1703.32
525.65	1682.82
526.01	1666.72
526.37	1648.65
526.72	1631.31
527.08	1614.41
527.44	1596.22
527.79	1582.32
528.15	1566.36
528.51	1548.26
528.86	1535.60
529.22	1524.34
529.58	1511.07
529.93	1500.94
530.29	1488.16
530.65	1474.12
531.00	1456.73
531.36	1440.55
531.71	1426.44
532.07	1415.28
532.43	1405.59
532.78	1396.34
533.14	1387.19
533.49	1380.24
533.85	1371.02
534.21	1361.58
534.56	1354.70
534.92	1350.23
535.27	1341.85
535.63	1335.28
535.98	1328.61
536.34	1321.09
536.69	1314.00
537.05	1306.23
537.41	1298.27
537.76	1293.22
538.12	1288.68
538.47	1280.90
538.83	1275.43
539.18	1270.51
539.54	1265.20
539.89	1261.06
540.25	1255.67
540.60	1252.16
540.96	1249.85
541.31	1241.37
541.67	1237.28
542.02	1235.90
542.38	1232.57
542.73	1226.28
543.09	1222.67
543.44	1216.52
543.80	1213.52
544.15	1208.84
544.51	1204.77
544.86	1204.09
545.22	1201.61
545.57	1196.72
545.93	1195.50
546.28	1194.80
546.64	1192.20
546.99	1189.98
547.35	1188.83
547.70	1185.69
548.05	1183.26
548.41	1182.04
548.76	1181.32
549.12	1176.31
549.47	1172.28
549.83	1171.23
550.18	1168.16
550.53	1166.22
550.89	1165.94
551.24	1163.53
551.60	1160.72
551.95	1155.31
552.30	1150.16
552.66	1147.92
553.01	1149.65
553.37	1149.93
553.72	1151.89
554.07	1153.46
554.43	1151.01
554.78	1150.56
555.13	1148.27
555.49	1143.63
555.84	1139.51
556.19	1139.14
556.55	1134.48
556.90	1132.77
557.26	1130.97
557.61	1129.10
557.96	1126.43
558.32	1126.57
558.67	1122.36
559.02	1126.92
559.37	1128.28
559.73	1127.34
560.08	1128.33
560.43	1133.05
560.79	1130.92
561.14	1129.47
561.49	1129.40
561.85	1126.64
562.20	1120.95
562.55	1117.54
562.90	1118.00
563.26	1117.56
563.61	1115.38
563.96	1116.53
564.32	1117.09
564.67	1115.22
565.02	1114.49
565.37	1115.83
565.73	1117.49
566.08	1116.67
566.43	1117.98
566.78	1117.98
567.14	1116.25
567.49	1112.69
567.84	1109.11
568.19	1106.02
568.54	1104.26
568.90	1102.42
569.25	1103.28
569.60	1107.64
569.95	1112.60
570.31	1111.29
570.66	1108.45
571.01	1104.90
571.36	1105.79
571.71	1099.09
572.06	1102.16
572.42	1102.95
572.77	1107.45
573.12	1102.95
573.47	1101.03
573.82	1097.48
574.18	1098.25
574.53	1096.99
574.88	1097.76
575.23	1100.47
575.58	1102.77
575.93	1102.28
576.28	1098.32
576.64	1095.51
576.99	1097.57
577.34	1097.27
577.69	1095.30
578.04	1095.96
578.39	1098.25
578.74	1096.26
579.09	1092.33
579.44	1093.90
579.80	1095.89
580.15	1095.07
580.50	1095.67
580.85	1095.96
581.20	1098.93
581.55	1096.12
581.90	1093.80
582.25	1092.47
582.60	1094.95
582.95	1092.63
583.30	1093.83
583.65	1096.82
584.00	1095.09
584.35	1095.28
584.71	1093.47
585.06	1094.46
585.41	1093.22
585.76	1094.50
586.11	1095.93
586.46	1096.52
586.81	1094.11
587.16	1093.08
587.51	1091.65
587.86	1085.96
588.21	1086.71
588.56	1088.89
588.91	1089.07
589.26	1089.03
589.61	1092.82
589.96	1093.55
590.31	1095.07
590.66	1096.10
591.01	1097.27
591.36	1097.31
591.71	1095.60
592.06	1092.28
592.41	1093.78
592.76	1094.53
593.10	1092.26
593.45	1095.70
593.80	1095.30
594.15	1092.96
594.50	1089.87
594.85	1088.96
595.20	1084.00
595.55	1085.07
595.90	1087.86
596.25	1092.28
596.60	1094.20
596.95	1093.69
597.30	1091.51
597.64	1097.80
597.99	1098.41
598.34	1097.08
598.69	1096.59
599.04	1098.86
599.39	1090.46
599.74	1087.02
600.09	1087.79
600.44	1089.47
600.78	1090.13
601.13	1090.71
601.48	1093.38
601.83	1091.58
602.18	1090.69
602.53	1087.83
602.88	1083.62
603.22	1080.37
603.57	1084.30
603.92	1084.74
604.27	1086.36
604.62	1088.72
604.97	1091.39
605.31	1090.46
605.66	1092.19
606.01	1090.81
606.36	1089.64
606.71	1087.90
607.05	1085.38
607.40	1084.56
607.75	1087.11
608.10	1086.62
608.44	1088.47
608.79	1089.78
609.14	1091.53
609.49	1090.39
609.84	1092.45
610.18	1089.50
610.53	1089.31
610.88	1087.55
611.23	1085.99
611.57	1086.31
611.92	1085.52
612.27	1085.45
612.62	1084.70
612.96	1085.87
613.31	1083.97
613.66	1082.45
614.00	1080.67
614.35	1081.63
614.70	1081.07
615.05	1081.19
615.39	1083.74
615.74	1084.63
616.09	1085.07
616.43	1086.78
616.78	1087.37
617.13	1086.90
617.47	1087.62
617.82	1086.17
618.17	1082.22
618.51	1081.61
618.86	1081.77
619.21	1081.51
619.55	1082.10
619.90	1084.44
620.25	1087.67
620.59	1088.02
620.94	1088.79
621.29	1088.33
621.63	1089.64
621.98	1086.69
622.32	1086.57
622.67	1084.65
623.02	1083.32
623.36	1079.67
623.71	1081.87
624.05	1082.73
624.40	1082.24
624.75	1083.67
625.09	1089.03
625.44	1087.32
625.78	1087.13
626.13	1088.61
626.48	1089.61
626.82	1085.99
627.17	1084.25
627.51	1082.71
627.86	1080.72
628.20	1078.80
628.55	1076.67
628.89	1078.05
629.24	1078.24
629.58	1079.99
629.93	1079.88
630.28	1080.84
630.62	1082.33
630.97	1083.55
631.31	1086.87
631.66	1090.29
632.00	1091.88
632.35	1088.96
632.69	1086.94
633.04	1082.50
633.38	1079.92
633.73	1079.97
634.07	1085.54
634.42	1086.50
634.76	1085.70
635.11	1087.55
635.45	1085.96
635.79	1082.45
636.14	1081.21
636.48	1083.41
636.83	1082.19
637.17	1083.76
637.52	1081.84
637.86	1082.31
638.21	1082.43
638.55	1085.66
638.89	1082.36
639.24	1085.47
639.58	1085.63
639.93	1087.30
640.27	1083.06
640.61	1088.16
640.96	1083.76
641.30	1086.62
641.65	1086.94
641.99	1087.48
642.33	1085.42
642.68	1088.30
643.02	1086.83
643.37	1084.67
643.71	1085.87
644.05	1085.59
644.40	1083.13
644.74	1080.93
645.08	1081.84
645.43	1081.21
645.77	1082.52
646.11	1086.59
646.46	1088.40
646.80	1086.90
647.14	1085.75
647.49	1085.05
647.83	1083.01
648.17	1084.67
648.52	1084.09
648.86	1082.71
649.20	1080.60
649.55	1084.04
649.89	1082.36
650.23	1083.79
650.57	1084.35
650.92	1087.11
651.26	1082.54
651.60	1081.33
651.95	1081.51
652.29	1081.23
652.63	1080.51
652.97	1083.74
653.32	1084.72
653.66	1083.20
654.00	1084.72
654.34	1085.82
654.69	1086.29
655.03	1085.52
655.37	1084.65
655.71	1080.86
656.05	1077.72
656.40	1076.65
656.74	1077.23
657.08	1078.28
657.42	1083.29
657.76	1083.93
658.11	1080.77
658.45	1082.50
658.79	1083.41
659.13	1082.71
659.47	1084.09
659.82	1084.28
660.16	1082.71
660.50	1080.81
660.84	1080.98
661.18	1083.25
661.52	1082.94
661.87	1083.95
662.21	1086.36
662.55	1085.35
662.89	1083.41
663.23	1084.91
663.57	1088.02
663.91	1086.85
664.25	1086.17
664.60	1086.48
664.94	1087.25
665.28	1085.89
665.62	1086.34
665.96	1087.74
666.30	1087.72
666.64	1088.26
666.98	1087.37
667.32	1087.53
667.66	1083.88
668.01	1081.49
668.35	1080.23
668.69	1077.89
669.03	1077.65
669.37	1080.95
669.71	1081.05
670.05	1081.40
670.39	1080.74
670.73	1081.26
671.07	1078.17
671.41	1079.06
671.75	1080.20
672.09	1080.77
672.43	1080.79
672.77	1081.30
673.11	1082.54
673.45	1082.19
673.79	1083.20
674.13	1081.63
674.47	1083.57
674.81	1084.79
675.15	1082.97
675.49	1085.10
675.83	1088.42
676.17	1088.28
676.51	1085.54
676.85	1085.77
677.19	1081.77
677.53	1078.40
677.87	1078.43
678.21	1078.07
678.55	1077.98
678.89	1079.08
679.23	1082.12
679.57	1081.33
679.90	1080.60
680.24	1081.87
680.58	1081.77
680.92	1079.62
681.26	1085.17
681.60	1086.97
681.94	1088.26
682.28	1085.26
682.62	1084.91
682.96	1081.56
683.29	1081.40
683.63	1078.03
683.97	1080.32
684.31	1082.26
684.65	1079.92
684.99	1083.20
685.33	1083.04
685.67	1083.97
686.00	1081.54
686.34	1081.58
686.68	1078.45
687.02	1079.29
687.36	1081.68
687.70	1081.66
688.03	1083.27
688.37	1081.66
688.71	1082.83
689.05	1077.16
689.39	1073.70
689.72	1072.01
690.06	1076.30
690.40	1075.13
690.74	1078.94
691.08	1083.34
691.41	1086.22
691.75	1081.61
692.09	1080.56
692.43	1079.22
692.76	1077.28
693.10	1075.64
693.44	1079.15
693.78	1081.75
694.11	1082.83
694.45	1086.08
694.79	1085.52
695.13	1082.85
695.46	1080.95
695.80	1076.83
696.14	1075.50
696.48	1074.31
696.81	1074.21
697.15	1076.06
697.49	1084.65
697.82	1083.71
698.16	1085.59
698.50	1087.41
698.83	1087.23
699.17	1081.63
699.51	1079.74
699.84	1079.95
700.18	1079.76
700.52	1078.40
700.85	1078.66
701.19	1079.48
701.53	1077.56
701.86	1076.39
702.20	1074.82
702.54	1074.14
702.87	1078.50
703.21	1078.96
703.55	1079.36
703.88	1082.80
704.22	1085.54
704.55	1084.09
704.89	1087.55
705.23	1087.04
705.56	1086.08
705.90	1083.93
706.23	1083.83
706.57	1079.20
706.91	1083.55
707.24	1082.52
707.58	1082.80
707.91	1084.14
708.25	1088.40
708.58	1084.70
708.92	1082.50
709.26	1081.56
709.59	1081.75
709.93	1081.54
710.26	1082.19
710.60	1088.09
710.93	1088.79
711.27	1085.26
711.60	1081.02
711.94	1080.27
712.27	1080.25
712.61	1080.41
712.94	1080.86
713.28	1080.51
713.61	1081.68
713.95	1079.81
714.28	1082.99
714.62	1086.71
714.95	1088.56
715.29	1087.81
715.62	1087.51
715.96	1084.89
716.29	1081.70
716.63	1082.80
716.96	1079.29
717.29	1078.57
717.63	1079.69
717.96	1077.84
718.30	1077.37
718.63	1080.20
718.97	1081.84
719.30	1081.94
719.63	1083.79
719.97	1085.94
720.30	1086.78
720.64	1084.65
720.97	1085.56
721.30	1085.89
721.64	1082.69
721.97	1081.35
722.31	1080.72
722.64	1075.97
722.97	1076.23
723.31	1076.23
723.64	1079.36
723.97	1080.60
724.31	1083.83
724.64	1083.90
724.98	1081.89
725.31	1079.69
725.64	1080.18
725.98	1079.38
726.31	1078.96
726.64	1084.25
726.97	1081.89
727.31	1080.04
727.64	1078.85
727.97	1078.50
728.31	1074.98
728.64	1077.98
728.97	1078.92
729.31	1081.73
729.64	1084.81
729.97	1086.34
730.30	1084.04
730.64	1083.71
730.97	1083.71
731.30	1081.91
731.63	1082.47
731.97	1084.32
732.30	1084.65
732.63	1083.36
732.96	1081.23
733.30	1080.02
733.63	1076.74
733.96	1075.34
734.29	1075.03
734.63	1073.77
734.96	1075.59
735.29	1079.41
735.62	1080.81
735.95	1080.72
736.29	1080.88
736.62	1079.62
736.95	1080.56
737.28	1082.26
737.61	1082.19
737.94	1083.90
738.28	1083.71
738.61	1080.25
738.94	1078.43
739.27	1079.13
739.60	1081.51
739.93	1078.96
740.27	1082.01
740.60	1082.90
740.93	1080.67
741.26	1079.69
741.59	1080.70
741.92	1078.78
742.25	1079.38
742.58	1083.88
742.91	1083.86
743.25	1086.43
743.58	1087.37
743.91	1088.16
744.24	1085.47
744.57	1086.13
744.90	1087.27
745.23	1085.17
745.56	1081.14
745.89	1082.10
746.22	1078.64
746.55	1078.14
746.88	1080.09
747.21	1079.69
747.54	1077.98
747.87	1078.71
748.20	1076.32
748.53	1075.10
748.87	1080.34
749.20	1082.22
749.53	1084.30
749.86	1082.38
750.19	1079.97
750.52	1075.80
750.85	1075.55
751.18	1075.01
751.51	1075.57
751.84	1076.34
752.16	1080.11
752.49	1080.88
752.82	1080.44
753.15	1082.80
753.48	1085.40
753.81	1082.38
754.14	1080.60
754.47	1077.58
754.80	1079.13
755.13	1080.23
755.46	1079.71
755.79	1078.85
756.12	1083.08
756.45	1081.02
756.78	1077.25
757.11	1077.93
757.43	1077.68
757.76	1074.52
758.09	1075.34
758.42	1077.28
758.75	1077.70
759.08	1076.67
759.41	1078.61
759.74	1074.82
760.07	1073.39
760.39	1073.56
760.72	1077.23
761.05	1075.36
761.38	1076.79
761.71	1078.82
762.04	1076.25
762.36	1074.35
762.69	1077.89
763.02	1078.73
763.35	1077.18
763.68	1080.70
764.01	1080.39
764.33	1080.13
764.66	1081.49
764.99	1084.65
765.32	1082.87
765.65	1086.62
765.97	1085.87
766.30	1085.10
766.63	1082.10
766.96	1082.97
767.28	1080.48
767.61	1080.70
767.94	1083.43
768.27	1086.43
768.59	1084.89
768.92	1083.95
769.25	1084.70
769.58	1080.04
769.90	1076.11
770.23	1076.48
770.56	1077.07
770.89	1074.66
771.21	1076.74
771.54	1079.90
771.87	1078.17
772.19	1078.66
772.52	1078.14
772.85	1078.38
773.17	1079.76
773.50	1084.63
773.83	1085.68
774.15	1086.29
774.48	1086.83
774.81	1083.86
775.13	1080.72
775.46	1078.73
775.79	1075.85
776.11	1072.11
776.44	1070.96
776.77	1074.31
777.09	1077.75
777.42	1082.24
777.74	1085.54
778.07	1089.10
778.40	1083.27
778.72	1081.87
779.05	1082.59
779.37	1082.01
779.70	1080.60
780.03	1080.56
780.35	1079.27
780.68	1076.30
781.00	1075.36
781.33	1075.69
781.65	1078.71
781.98	1077.91
782.31	1075.57
782.63	1074.66
782.96	1074.03
783.28	1074.91
783.61	1076.95
783.93	1077.84
784.26	1080.30
784.58	1080.84
784.91	1080.48
785.23	1077.25
785.56	1079.48
785.88	1080.09
786.21	1079.71
786.53	1079.48
786.86	1081.12
787.18	1083.62
787.51	1082.76
787.83	1080.58
788.16	1080.16
788.48	1078.94
788.81	1078.05
789.13	1077.61
789.46	1077.51
789.78	1079.01
790.10	1080.27
790.43	1076.86
790.75	1074.47
791.08	1074.54
791.40	1073.07
791.73	1071.59
792.05	1074.98
792.37	1079.57
792.70	1080.46
793.02	1083.97
793.35	1086.50
793.67	1083.71
793.99	1081.80
794.32	1081.98
794.64	1080.86
794.96	1080.09
795.29	1079.78
795.61	1080.06
795.93	1080.60
796.26	1081.73
796.58	1081.77
796.91	1084.65
797.23	1083.74
797.55	1085.80
797.87	1083.36
798.20	1083.08
798.52	1082.90
798.84	1083.15
799.17	1080.84
799.49	1080.70
799.81	1079.27
800.14	1077.23
800.46	1076.25
800.78	1073.37
801.10	1074.77
801.43	1075.73
801.75	1077.89
802.07	1080.18
802.40	1082.78
802.72	1077.61
803.04	1078.66
803.36	1079.03
803.69	1079.74
804.01	1081.58
804.33	1085.52
804.65	1085.68
804.97	1086.17
805.30	1081.19
805.62	1079.53
805.94	1079.15
806.26	1078.87
806.58	1075.87
806.91	1080.18
807.23	1083.71
807.55	1082.22
807.87	1080.37
808.19	1077.96
808.52	1077.54
808.84	1072.32
809.16	1072.32
809.48	1073.95
809.80	1076.83
810.12	1076.53
810.44	1082.92
810.77	1083.81
811.09	1085.05
811.41	1090.03
811.73	1089.89
812.05	1084.67
812.37	1086.73
812.69	1086.38
813.01	1081.77
813.33	1079.34
813.66	1080.95
813.98	1081.58
814.30	1078.26
814.62	1076.08
814.94	1079.31
815.26	1080.70
815.58	1078.52
815.90	1076.90
816.22	1079.10
816.54	1078.75
816.86	1077.47
817.18	1078.96
817.50	1083.74
817.82	1086.20
818.14	1085.10
818.46	1084.65
818.78	1082.76
819.10	1080.32
819.42	1077.11
819.74	1076.90
820.06	1080.11
820.38	1076.72
820.70	1078.52
821.02	1078.68
821.34	1080.25
821.66	1076.83
821.98	1081.58
822.30	1080.77
822.62	1083.20
822.94	1083.62
823.26	1084.70
823.58	1085.33
823.90	1086.55
824.22	1081.89
824.54	1078.12
824.86	1076.23
825.18	1074.91
825.50	1073.09
825.81	1073.56
826.13	1073.70
826.45	1074.89
826.77	1070.35
827.09	1070.77
827.41	1074.40
827.73	1079.55
828.05	1078.33
828.36	1080.74
828.68	1079.88
829.00	1080.02
829.32	1075.87
829.64	1075.90
829.96	1078.59
830.28	1080.51
830.59	1077.54
830.91	1080.02
831.23	1081.49
831.55	1079.20
831.87	1076.39
832.19	1078.57
832.50	1079.97
832.82	1079.15
833.14	1076.74
833.46	1079.71
833.78	1083.34
834.09	1081.63
834.41	1080.02
834.73	1083.69
835.05	1082.03
835.36	1078.82
835.68	1075.73
836.00	1078.40
836.32	1077.28
836.63	1075.43
836.95	1075.97
837.27	1076.32
837.59	1071.99
837.90	1071.54
838.22	1072.64
838.54	1069.53
838.85	1069.84
839.17	1074.61
839.49	1075.10
839.80	1075.64
840.12	1077.56
840.44	1079.41
840.76	1079.36
841.07	1081.12
841.39	1081.40
841.71	1081.66
842.02	1079.78
842.34	1078.99
842.65	1076.34
842.97	1075.83
843.29	1075.43
843.60	1076.44
843.92	1076.93
844.24	1079.48
844.55	1078.05
844.87	1078.75
845.18	1080.20
845.50	1077.47
845.82	1078.19
846.13	1081.98
846.45	1082.78
846.76	1081.70
847.08	1085.05
847.40	1082.15
847.71	1081.75
848.03	1079.20
848.34	1078.00
848.66	1075.45
848.97	1073.84
849.29	1074.31
849.60	1074.89
849.92	1075.87
850.24	1076.65
850.55	1078.24
850.87	1075.38
851.18	1073.60
851.50	1075.29
851.81	1075.15
852.13	1076.53
852.44	1076.53
852.76	1075.92
853.07	1075.22
853.39	1075.87
853.70	1076.72
854.01	1079.13
854.33	1083.13
854.64	1081.35
854.96	1079.76
855.27	1080.09
855.59	1080.02
855.90	1079.29
856.22	1082.76
856.53	1083.15
856.84	1080.25
857.16	1079.34
857.47	1077.75
857.79	1075.85
858.10	1078.10
858.41	1077.98
858.73	1077.35
859.04	1078.14
859.36	1077.70
859.67	1075.10
859.98	1076.04
860.30	1075.73
860.61	1075.08
860.92	1073.16
861.24	1074.40
861.55	1073.39
861.87	1073.86
862.18	1074.52
862.49	1075.99
862.81	1074.82
863.12	1078.94
863.43	1080.74
863.74	1080.16
864.06	1081.21
864.37	1080.70
864.68	1077.18
865.00	1075.97
865.31	1077.91
865.62	1079.95
865.94	1080.09
866.25	1081.44
866.56	1081.42
866.87	1079.90
867.19	1072.57
867.50	1074.89
867.81	1072.18
868.12	1072.27
868.44	1069.55
868.75	1077.58
869.06	1078.82
869.37	1080.44
869.68	1075.99
870.00	1079.36
870.31	1076.34
870.62	1073.72
870.93	1073.84
871.24	1079.43
871.56	1077.28
871.87	1078.14
872.18	1077.58
872.49	1078.14
872.80	1076.81
873.12	1080.53
873.43	1081.37
873.74	1078.87
874.05	1079.85
874.36	1080.93
874.67	1079.83
874.98	1077.65
875.29	1077.14
875.61	1077.70
875.92	1074.98
876.23	1073.37
876.54	1070.65
876.85	1074.17
877.16	1073.37
877.47	1075.20
877.78	1073.46
878.09	1075.31
878.40	1073.32
878.72	1071.66
879.03	1070.30
879.34	1071.45
879.65	1074.82
879.96	1077.11
880.27	1077.82
880.58	1081.70
880.89	1082.87
881.20	1079.46
881.51	1078.05
881.82	1081.54
882.13	1074.73
882.44	1073.91
882.75	1074.73
883.06	1075.99
883.37	1071.85
883.68	1075.20
883.99	1075.66
884.30	1076.27
884.61	1075.62
884.92	1077.51
885.23	1075.17
885.54	1077.51
885.85	1076.53
886.16	1077.28
886.47	1075.83
886.78	1079.46
887.08	1079.38
887.39	1081.75
887.70	1082.10
888.01	1082.78
888.32	1079.27
888.63	1078.61
888.94	1077.28
889.25	1075.36
889.56	1076.62
889.87	1080.79
890.17	1078.92
890.48	1075.62
890.79	1077.79
891.10	1075.97
891.41	1076.01
891.72	1077.40
892.03	1081.54
892.34	1078.43
892.64	1079.43
892.95	1078.87
893.26	1079.29
893.57	1078.07
893.88	1078.73
894.18	1081.98
894.49	1082.97
894.80	1081.63
895.11	1080.67
895.42	1080.77
895.72	1080.23
896.03	1079.88
896.34	1083.29
896.65	1086.50
896.96	1089.17
897.26	1087.13
897.57	1086.55
897.88	1085.49
898.19	1085.35
898.49	1081.42
898.80	1082.17
899.11	1079.53
899.41	1077.35
899.72	1075.15
900.03	1080.09
900.34	1078.68
900.64	1078.66
900.95	1076.88
901.26	1076.34
901.56	1071.43
901.87	1069.32
902.18	1071.03
902.48	1075.57
902.79	1076.25
903.10	1079.20
903.40	1082.17
903.71	1080.74
904.02	1076.46
904.32	1075.62
904.63	1075.83
904.94	1073.84
905.24	1076.88
905.55	1080.11
905.85	1079.24
906.16	1079.10
906.47	1078.38
906.77	1077.25
907.08	1072.74
907.38	1075.83
907.69	1075.64
908.00	1075.76
908.30	1074.80
908.61	1078.24
908.91	1077.82
909.22	1073.79
909.52	1074.03
909.83	1077.61
910.14	1076.27
910.44	1072.53
910.75	1074.24
911.05	1075.90
911.36	1070.82
911.66	1072.60
911.97	1077.09
912.27	1078.47
912.58	1079.67
912.88	1081.19
913.19	1079.78
913.49	1078.64
913.80	1080.37
914.10	1079.90
914.41	1077.96
914.71	1074.94
915.01	1076.01
915.32	1075.27
915.62	1073.35
915.93	1076.34
916.23	1080.09
916.54	1075.73
916.84	1074.19
917.15	1075.22
917.45	1074.24
917.75	1075.52
918.06	1075.31
918.36	1074.84
918.67	1075.94
918.97	1076.37
919.27	1077.21
919.58	1081.16
919.88	1083.48
920.18	1082.90
920.49	1081.05
920.79	1079.43
921.10	1078.21
921.40	1077.58
921.70	1076.86
922.01	1076.93
922.31	1072.04
922.61	1072.20
922.92	1076.48
923.22	1075.36
923.52	1076.20
923.82	1080.51
924.13	1081.23
924.43	1078.59
924.73	1080.74
925.04	1079.43
925.34	1081.23
925.64	1078.87
925.94	1077.54
926.25	1076.53
926.55	1077.91
926.85	1076.67
927.15	1076.62
927.46	1078.10
927.76	1077.47
928.06	1079.20
928.36	1079.34
928.67	1079.55
928.97	1077.58
929.27	1080.67
929.57	1081.40
929.87	1079.36
930.18	1078.99
930.48	1080.70
930.78	1079.03
931.08	1078.24
931.38	1078.57
931.69	1079.69
931.99	1078.12
932.29	1076.34
932.59	1078.00
932.89	1079.99
933.19	1079.46
933.49	1078.14
933.80	1079.99
934.10	1076.01
934.40	1074.00
934.70	1074.56
935.00	1076.86
935.30	1073.74
935.60	1075.85
935.90	1078.24
936.20	1077.47
936.50	1077.18
936.81	1078.68
937.11	1076.74
937.41	1075.55
937.71	1076.83
938.01	1078.59
938.31	1080.02
938.61	1082.10
938.91	1081.98
939.21	1081.33
939.51	1080.93
939.81	1079.38
940.11	1076.23
940.41	1074.80
940.71	1072.88
941.01	1072.11
941.31	1072.85
941.61	1078.14
941.91	1080.84
942.21	1085.89
942.51	1085.70
942.81	1086.13
943.11	1083.01
943.41	1080.34
943.71	1079.41
944.01	1082.71
944.31	1082.45
944.61	1082.78
944.90	1085.28
945.20	1081.80
945.50	1077.02
945.80	1076.58
946.10	1078.57
946.40	1079.57
946.70	1084.74
947.00	1086.59
947.30	1087.58
947.60	1085.00
947.89	1083.93
948.19	1081.75
948.49	1081.16
948.79	1082.38
949.09	1081.23
949.39	1079.17
949.69	1078.21
949.98	1078.38
950.28	1075.97
950.58	1075.55
950.88	1075.50
951.18	1074.94
951.48	1074.07
951.77	1074.91
952.07	1077.89
952.37	1080.58
952.67	1081.09
952.97	1082.97
953.26	1082.43
953.56	1079.62
953.86	1076.93
954.16	1079.48
954.45	1079.10
954.75	1081.23
955.05	1083.27
955.35	1084.16
955.64	1080.39
955.94	1077.40
956.24	1073.07
956.54	1073.72
956.83	1073.84
957.13	1076.04
957.43	1076.13
957.72	1076.97
958.02	1077.96
958.32	1075.64
958.61	1072.97
958.91	1074.68
959.21	1075.08
959.50	1072.83
959.80	1073.56
960.10	1074.42
960.39	1073.77
960.69	1074.26
960.99	1076.13
961.28	1077.49
961.58	1077.28
961.87	1079.17
962.17	1080.48
962.47	1080.02
962.76	1081.16
963.06	1081.87
963.36	1080.48
963.65	1080.95
963.95	1078.28
964.24	1075.80
964.54	1075.17
964.83	1074.49
965.13	1072.64
965.42	1071.87
965.72	1074.80
966.02	1077.25
966.31	1076.90
966.61	1077.70
966.90	1083.20
967.20	1079.24
967.49	1076.39
967.79	1078.45
968.08	1077.04
968.38	1074.17
968.67	1078.68
968.97	1079.53
969.26	1076.93
969.56	1077.77
969.85	1076.27
970.15	1074.73
970.44	1072.41
970.74	1071.92
971.03	1073.67
971.32	1077.25
971.62	1079.13
971.91	1082.26
972.21	1086.50
972.50	1083.83
972.80	1082.52
973.09	1081.14
973.38	1079.50
973.68	1075.20
973.97	1076.15
974.27	1073.28
974.56	1069.95
974.85	1071.78
975.15	1072.62
975.44	1072.55
975.73	1076.20
976.03	1076.88
976.32	1077.89
976.61	1078.75
976.91	1079.06
977.20	1075.71
977.49	1077.18
977.79	1078.47
978.08	1079.99
978.37	1079.01
978.67	1083.53
978.96	1085.21
979.25	1080.25
979.55	1079.78
979.84	1081.66
980.13	1078.87
980.42	1076.97
980.72	1079.50
981.01	1082.33
981.30	1083.79
981.59	1083.29
981.89	1084.72
982.18	1085.28
982.47	1079.67
982.76	1078.36
983.06	1077.98
983.35	1076.13
983.64	1075.52
983.93	1077.72
984.22	1076.41
984.52	1078.31
984.81	1081.05
985.10	1082.73
985.39	1081.21
985.68	1081.63
985.97	1081.05
986.27	1079.64
986.56	1078.59
986.85	1077.79
987.14	1075.92
987.43	1077.40
987.72	1076.55
988.01	1075.27
988.31	1078.99
988.60	1080.18
988.89	1076.27
989.18	1075.38
989.47	1075.08
989.76	1074.47
990.05	1075.31
990.34	1076.06
990.63	1074.73
990.92	1076.27
991.21	1076.37
991.51	1075.13
991.80	1077.47
992.09	1080.32
992.38	1079.99
992.67	1077.30
992.96	1079.08
993.25	1075.17
993.54	1074.28
993.83	1072.76
994.12	1071.52
994.41	1070.87
994.70	1076.46
994.99	1075.20
995.28	1077.79
995.57	1080.93
995.86	1081.42
996.15	1076.25
996.44	1077.70
996.73	1076.41
997.02	1075.83
997.31	1071.92
997.59	1074.84
997.88	1073.44
998.17	1071.92
998.46	1070.94
998.75	1076.15
999.04	1075.85
999.33	1075.62
999.62	1076.93
999.91	1079.50
1000.20	1077.89
1000.49	1077.42
1000.77	1079.62
1001.06	1080.11
1001.35	1077.61
1001.64	1078.00
1001.93	1078.40
1002.22	1076.30
1002.51	1075.29
1002.79	1074.49
1003.08	1072.83
1003.37	1073.81
1003.66	1076.58
1003.95	1076.74
1004.23	1078.12
1004.52	1080.39
1004.81	1076.76
1005.10	1075.10
1005.39	1072.55
1005.67	1075.10
1005.96	1077.02
1006.25	1081.07
1006.54	1084.46
1006.83	1086.27
1007.11	1081.77
1007.40	1077.51
1007.69	1073.77
1007.97	1071.01
1008.26	1070.33
1008.55	1069.41
1008.84	1068.27
1009.12	1068.15
1009.41	1066.02
1009.70	1067.35
1009.98	1071.05
1010.27	1075.76
1010.56	1078.89
1010.85	1081.33
1011.13	1078.80
1011.42	1076.48
1011.71	1075.62
1011.99	1075.78
1012.28	1074.00
1012.56	1075.76
1012.85	1079.08
1013.14	1077.77
1013.42	1078.52
1013.71	1078.03
1014.00	1081.00
1014.28	1080.86
1014.57	1080.65
1014.85	1080.02
1015.14	1083.15
1015.43	1079.88
1015.71	1081.44
1016.00	1080.39
1016.28	1078.47
1016.57	1078.12
1016.85	1079.60
1017.14	1075.34
1017.43	1077.30
1017.71	1078.24
1018.00	1076.53
1018.28	1076.58
1018.57	1078.19
1018.85	1079.67
1019.14	1079.69
1019.42	1080.74
1019.71	1079.08
1019.99	1079.34
1020.28	1078.36
1020.56	1075.22
1020.85	1076.90
1021.13	1078.73
1021.42	1076.13
1021.70	1077.61
1021.99	1079.71
1022.27	1078.89
1022.55	1074.42
1022.84	1082.85
>>>>>End Processed Spectral Data<<<<<
