SpectraSuite Data File
++++++++++++++++++++++++++++++++++++
Date: Mon Aug 26 10:21:48 PDT 2019
User: corrico
Dark Spectrum Present: No
Reference Spectrum Present: No
Number of Sampled Component Spectra: 1
Spectrometers: USB2+H06089
Integration Time (usec): 2000 (USB2+H06089)
Spectra Averaged: 20 (USB2+H06089)
Boxcar Smoothing: 2 (USB2+H06089)
Correct for Electrical Dark: No (USB2+H06089)
Strobe/Lamp Enabled: No (USB2+H06089)
Correct for Detector Non-linearity: No (USB2+H06089)
Correct for Stray Light: No (USB2+H06089)
Number of Pixels in Processed Spectrum: 2048
>>>>>Begin Processed Spectral Data<<<<<
339.70	1028.08
340.07	1028.08
340.45	993.07
340.82	971.42
341.19	946.54
341.57	923.11
341.94	912.67
342.31	903.45
342.69	896.07
343.06	893.62
343.43	889.87
343.81	891.30
344.18	896.71
344.55	900.03
344.93	909.98
345.30	916.95
345.67	922.59
346.04	929.29
346.42	938.13
346.79	940.68
347.16	948.41
347.54	957.09
347.91	963.86
348.28	973.36
348.65	983.75
349.03	995.55
349.40	1006.92
349.77	1014.41
350.14	1023.59
350.52	1030.65
350.89	1035.57
351.26	1037.28
351.63	1043.67
352.01	1046.43
352.38	1049.40
352.75	1052.94
353.12	1059.49
353.50	1062.02
353.87	1065.88
354.24	1066.91
354.61	1068.90
354.98	1071.36
355.36	1074.05
355.73	1075.34
356.10	1080.77
356.47	1078.89
356.84	1077.28
357.22	1076.69
357.59	1075.87
357.96	1073.86
358.33	1072.36
358.70	1073.95
359.08	1070.00
359.45	1066.51
359.82	1065.65
360.19	1068.95
360.56	1068.27
360.94	1070.14
361.31	1075.38
361.68	1074.07
362.05	1070.49
362.42	1068.43
362.79	1069.25
363.16	1066.49
363.54	1067.78
363.91	1068.83
364.28	1066.09
364.65	1063.80
365.02	1061.06
365.39	1057.97
365.76	1059.26
366.14	1061.69
366.51	1062.16
366.88	1065.83
367.25	1068.41
367.62	1066.75
367.99	1064.50
368.36	1065.13
368.73	1066.32
369.10	1063.87
369.48	1063.70
369.85	1066.16
370.22	1064.48
370.59	1062.70
370.96	1064.48
371.33	1065.08
371.70	1064.90
372.07	1066.98
372.44	1066.14
372.81	1064.31
373.18	1063.16
373.55	1065.08
373.93	1067.75
374.30	1068.31
374.67	1068.71
375.04	1067.24
375.41	1063.54
375.78	1063.87
376.15	1063.96
376.52	1065.01
376.89	1066.47
377.26	1069.27
377.63	1065.15
378.00	1063.42
378.37	1063.14
378.74	1065.83
379.11	1064.92
379.48	1066.25
379.85	1068.20
380.22	1069.51
380.59	1067.49
380.96	1067.12
381.33	1068.34
381.70	1070.44
382.07	1070.05
382.44	1072.01
382.81	1073.98
383.18	1073.60
383.55	1071.31
383.92	1070.91
384.29	1070.68
384.66	1070.35
385.03	1071.64
385.40	1068.31
385.77	1066.75
386.14	1068.55
386.51	1067.19
386.88	1066.28
387.25	1069.74
387.62	1071.26
387.99	1067.12
388.36	1063.70
388.73	1063.02
389.10	1063.16
389.46	1063.54
389.83	1064.85
390.20	1068.31
390.57	1071.73
390.94	1070.65
391.31	1069.79
391.68	1071.61
392.05	1072.18
392.42	1068.71
392.79	1068.55
393.16	1069.32
393.53	1070.09
393.89	1069.41
394.26	1072.01
394.63	1074.49
395.00	1074.00
395.37	1073.25
395.74	1073.49
396.11	1072.43
396.48	1069.37
396.84	1067.73
397.21	1064.38
397.58	1066.89
397.95	1066.65
398.32	1071.01
398.69	1075.22
399.06	1079.57
399.42	1075.17
399.79	1073.93
400.16	1067.68
400.53	1066.23
400.90	1065.29
401.27	1068.29
401.64	1068.85
402.00	1070.07
402.37	1072.18
402.74	1072.88
403.11	1073.95
403.48	1074.61
403.84	1076.83
404.21	1075.94
404.58	1077.47
404.95	1077.93
405.32	1076.88
405.68	1077.54
406.05	1077.79
406.42	1076.44
406.79	1076.48
407.16	1078.33
407.52	1080.81
407.89	1080.37
408.26	1080.93
408.63	1080.95
408.99	1080.70
409.36	1080.04
409.73	1079.13
410.10	1078.85
410.47	1075.76
410.83	1073.60
411.20	1071.08
411.57	1068.55
411.94	1063.26
412.30	1062.51
412.67	1066.07
413.04	1067.05
413.40	1070.12
413.77	1072.74
414.14	1077.25
414.51	1074.82
414.87	1075.94
415.24	1078.92
415.61	1081.35
415.97	1079.57
416.34	1082.92
416.71	1081.75
417.08	1080.44
417.44	1080.39
417.81	1082.43
418.18	1080.02
418.54	1082.33
418.91	1080.53
419.28	1079.99
419.64	1076.18
420.01	1074.68
420.38	1074.17
420.74	1073.53
421.11	1072.27
421.48	1074.89
421.84	1077.21
422.21	1075.15
422.58	1075.03
422.94	1075.38
423.31	1074.35
423.68	1073.11
424.04	1074.63
424.41	1076.18
424.77	1078.00
425.14	1081.84
425.51	1084.46
425.87	1088.40
426.24	1091.98
426.61	1094.22
426.97	1093.50
427.34	1096.03
427.70	1095.07
428.07	1094.32
428.44	1096.66
428.80	1096.92
429.17	1094.67
429.53	1097.01
429.90	1098.72
430.27	1099.09
430.63	1103.35
431.00	1107.10
431.36	1110.40
431.73	1112.62
432.09	1112.67
432.46	1113.84
432.83	1114.75
433.19	1115.76
433.56	1120.46
433.92	1127.34
434.29	1127.88
434.65	1132.94
435.02	1132.91
435.38	1137.13
435.75	1141.17
436.11	1147.21
436.48	1153.98
436.84	1165.21
437.21	1170.69
437.57	1174.39
437.94	1180.31
438.30	1186.72
438.67	1189.74
439.03	1200.18
439.40	1210.24
439.76	1222.98
440.13	1230.77
440.49	1242.89
440.86	1247.46
441.22	1259.56
441.59	1271.07
441.95	1284.72
442.32	1297.71
442.68	1317.42
443.05	1330.83
443.41	1344.94
443.78	1360.83
444.14	1378.76
444.51	1394.63
444.87	1413.73
445.24	1436.64
445.60	1460.19
445.96	1482.28
446.33	1508.50
446.69	1536.96
447.06	1562.17
447.42	1589.86
447.79	1619.30
448.15	1651.58
448.51	1684.18
448.88	1721.46
449.24	1755.73
449.61	1802.66
449.97	1845.84
450.33	1891.97
450.70	1938.97
451.06	1991.49
451.43	2031.98
451.79	2089.75
452.15	2149.38
452.52	2211.81
452.88	2273.41
453.24	2349.29
453.61	2423.58
453.97	2500.18
454.34	2575.81
454.70	2669.12
455.06	2757.88
455.43	2844.34
455.79	2930.09
456.15	3024.56
456.52	3113.71
456.88	3225.05
457.24	3333.88
457.61	3453.13
457.97	3569.15
458.33	3695.35
458.70	3814.58
459.06	3929.06
459.42	4067.24
459.79	4192.18
460.15	4321.45
460.51	4432.95
460.88	4560.00
461.24	4680.56
461.60	4818.69
461.96	4947.96
462.33	5078.56
462.69	5191.33
463.05	5293.80
463.42	5396.55
463.78	5498.04
464.14	5597.70
464.50	5711.61
464.87	5805.07
465.23	5883.19
465.59	5953.20
465.95	6020.63
466.32	6065.31
466.68	6109.15
467.04	6129.28
467.40	6135.29
467.77	6115.98
468.13	6099.20
468.49	6081.98
468.85	6075.89
469.22	6064.89
469.58	6050.54
469.94	6033.83
470.30	5993.88
470.66	5947.18
471.03	5875.05
471.39	5819.30
471.75	5729.21
472.11	5641.88
472.47	5566.07
472.84	5505.48
473.20	5431.14
473.56	5380.54
473.92	5303.96
474.28	5229.79
474.65	5162.36
475.01	5094.85
475.37	5016.68
475.73	4957.61
476.09	4890.64
476.45	4813.50
476.81	4745.69
477.18	4681.49
477.54	4628.03
477.90	4580.22
478.26	4528.07
478.62	4472.16
478.98	4431.36
479.34	4395.32
479.71	4345.39
480.07	4302.54
480.43	4269.84
480.79	4224.83
481.15	4167.56
481.51	4115.46
481.87	4076.35
482.23	4023.76
482.59	3969.64
482.96	3925.52
483.32	3887.47
483.68	3843.18
484.04	3805.06
484.40	3772.22
484.76	3726.27
485.12	3674.06
485.48	3616.95
485.84	3553.07
486.20	3490.77
486.56	3440.12
486.92	3396.59
487.28	3358.15
487.64	3318.22
488.00	3274.25
488.37	3229.52
488.73	3177.21
489.09	3116.99
489.45	3069.68
489.81	3019.31
490.17	2965.39
490.53	2911.39
490.89	2859.92
491.25	2805.60
491.61	2758.06
491.97	2708.70
492.33	2661.87
492.69	2617.54
493.05	2573.16
493.41	2525.39
493.77	2483.21
494.13	2444.81
494.49	2406.52
494.85	2371.17
495.21	2337.42
495.57	2306.97
495.93	2275.98
496.29	2241.48
496.64	2207.36
497.00	2171.10
497.36	2135.22
497.72	2099.27
498.08	2071.26
498.44	2043.62
498.80	2017.31
499.16	1990.11
499.52	1966.78
499.88	1942.29
500.24	1917.16
500.60	1897.82
500.96	1876.20
501.32	1856.28
501.68	1834.23
502.03	1814.83
502.39	1789.57
502.75	1769.28
503.11	1748.36
503.47	1729.47
503.83	1706.09
504.19	1684.93
504.55	1664.68
504.91	1642.94
505.26	1625.39
505.62	1609.45
505.98	1596.46
506.34	1582.86
506.70	1564.11
507.06	1544.87
507.42	1529.40
507.78	1517.53
508.13	1504.99
508.49	1496.47
508.85	1484.88
509.21	1471.49
509.57	1456.33
509.93	1442.66
510.28	1430.07
510.64	1416.09
511.00	1406.08
511.36	1395.40
511.72	1384.89
512.07	1372.68
512.43	1369.10
512.79	1357.07
513.15	1344.57
513.51	1333.08
513.86	1326.69
514.22	1315.10
514.58	1307.10
514.94	1305.36
515.30	1300.38
515.65	1290.57
516.01	1283.18
516.37	1278.85
516.73	1271.85
517.08	1263.35
517.44	1260.71
517.80	1256.56
518.16	1251.58
518.51	1244.37
518.87	1240.60
519.23	1238.82
519.59	1233.35
519.94	1228.76
520.30	1223.89
520.66	1219.70
521.01	1209.50
521.37	1205.28
521.73	1199.43
522.09	1194.70
522.44	1189.83
522.80	1187.56
523.16	1186.65
523.51	1185.76
523.87	1184.52
524.23	1183.94
524.58	1178.32
524.94	1174.11
525.30	1168.72
525.65	1162.66
526.01	1160.09
526.37	1159.36
526.72	1159.52
527.08	1156.08
527.44	1157.04
527.79	1153.18
528.15	1148.31
528.51	1138.04
528.86	1139.14
529.22	1133.33
529.58	1130.81
529.93	1129.78
530.29	1132.09
530.65	1130.34
531.00	1133.24
531.36	1130.43
531.71	1130.95
532.07	1127.93
532.43	1124.51
532.78	1120.74
533.14	1122.54
533.49	1121.02
533.85	1120.88
534.21	1117.68
534.56	1117.25
534.92	1114.28
535.27	1112.69
535.63	1111.08
535.98	1112.06
536.34	1111.33
536.69	1110.07
537.05	1109.44
537.41	1109.04
537.76	1105.72
538.12	1102.30
538.47	1102.98
538.83	1105.41
539.18	1105.88
539.54	1107.99
539.89	1106.77
540.25	1105.81
540.60	1099.21
540.96	1099.77
541.31	1098.67
541.67	1098.18
542.02	1099.35
542.38	1100.68
542.73	1095.91
543.09	1095.98
543.44	1095.46
543.80	1093.90
544.15	1091.56
544.51	1092.33
544.86	1089.47
545.22	1090.64
545.57	1087.51
545.93	1090.06
546.28	1091.27
546.64	1092.59
546.99	1094.41
547.35	1093.69
547.70	1092.35
548.05	1091.34
548.41	1090.76
548.76	1085.26
549.12	1085.35
549.47	1085.45
549.83	1084.35
550.18	1084.63
550.53	1088.12
550.89	1090.71
551.24	1089.87
551.60	1090.64
551.95	1089.17
552.30	1087.30
552.66	1083.79
553.01	1084.25
553.37	1080.81
553.72	1084.11
554.07	1083.55
554.43	1085.73
554.78	1085.73
555.13	1087.30
555.49	1083.53
555.84	1083.34
556.19	1083.01
556.55	1082.40
556.90	1083.25
557.26	1081.80
557.61	1085.31
557.96	1083.46
558.32	1083.32
558.67	1084.00
559.02	1086.80
559.37	1081.33
559.73	1082.36
560.08	1083.64
560.43	1081.44
560.79	1079.41
561.14	1081.91
561.49	1081.19
561.85	1079.83
562.20	1080.53
562.55	1080.44
562.90	1081.09
563.26	1082.43
563.61	1082.69
563.96	1082.03
564.32	1083.27
564.67	1082.59
565.02	1077.07
565.37	1076.67
565.73	1077.07
566.08	1074.47
566.43	1072.76
566.78	1075.83
567.14	1075.97
567.49	1073.79
567.84	1075.29
568.19	1077.16
568.54	1079.85
568.90	1076.65
569.25	1079.83
569.60	1081.07
569.95	1082.45
570.31	1079.06
570.66	1081.80
571.01	1079.03
571.36	1078.21
571.71	1076.60
572.06	1078.14
572.42	1076.41
572.77	1078.05
573.12	1077.63
573.47	1077.58
573.82	1077.61
574.18	1079.01
574.53	1080.09
574.88	1078.73
575.23	1078.43
575.58	1079.57
575.93	1079.41
576.28	1080.77
576.64	1081.89
576.99	1081.61
577.34	1081.61
577.69	1080.02
578.04	1076.46
578.39	1078.54
578.74	1080.79
579.09	1080.86
579.44	1082.01
579.80	1083.57
580.15	1080.65
580.50	1078.89
580.85	1076.65
581.20	1074.68
581.55	1073.98
581.90	1074.70
582.25	1072.62
582.60	1071.78
582.95	1071.75
583.30	1073.09
583.65	1072.55
584.00	1074.03
584.35	1076.62
584.71	1077.77
585.06	1073.30
585.41	1074.91
585.76	1079.03
586.11	1074.73
586.46	1074.84
586.81	1079.27
587.16	1079.85
587.51	1076.93
587.86	1080.44
588.21	1084.49
588.56	1084.89
588.91	1081.96
589.26	1080.44
589.61	1080.95
589.96	1076.51
590.31	1074.38
590.66	1072.36
591.01	1072.67
591.36	1072.22
591.71	1072.11
592.06	1072.01
592.41	1077.91
592.76	1079.17
593.10	1078.85
593.45	1080.77
593.80	1079.76
594.15	1076.08
594.50	1075.31
594.85	1074.56
595.20	1074.68
595.55	1075.38
595.90	1076.86
596.25	1075.52
596.60	1076.53
596.95	1074.31
597.30	1073.04
597.64	1083.39
597.99	1087.55
598.34	1087.32
598.69	1086.52
599.04	1090.46
599.39	1081.12
599.74	1079.13
600.09	1076.60
600.44	1077.44
600.78	1073.56
601.13	1072.53
601.48	1070.12
601.83	1073.60
602.18	1074.89
602.53	1077.07
602.88	1074.45
603.22	1074.17
603.57	1073.21
603.92	1074.61
604.27	1076.23
604.62	1079.81
604.97	1080.81
605.31	1081.70
605.66	1081.19
606.01	1081.12
606.36	1080.86
606.71	1078.33
607.05	1077.42
607.40	1076.62
607.75	1073.93
608.10	1072.04
608.44	1074.82
608.79	1074.54
609.14	1076.37
609.49	1077.86
609.84	1078.82
610.18	1074.94
610.53	1074.66
610.88	1073.30
611.23	1075.38
611.57	1075.92
611.92	1077.42
612.27	1077.18
612.62	1078.17
612.96	1075.76
613.31	1075.69
613.66	1077.23
614.00	1077.44
614.35	1076.83
614.70	1075.78
615.05	1074.82
615.39	1074.54
615.74	1071.87
616.09	1071.26
616.43	1075.13
616.78	1076.65
617.13	1078.28
617.47	1082.71
617.82	1081.49
618.17	1076.60
618.51	1075.03
618.86	1074.21
619.21	1072.90
619.55	1074.05
619.90	1072.64
620.25	1072.29
620.59	1071.24
620.94	1072.53
621.29	1070.07
621.63	1071.26
621.98	1073.44
622.32	1074.84
622.67	1072.36
623.02	1075.20
623.36	1076.86
623.71	1075.08
624.05	1074.49
624.40	1076.30
624.75	1074.38
625.09	1074.42
625.44	1073.28
625.78	1075.27
626.13	1077.51
626.48	1076.25
626.82	1076.15
627.17	1075.20
627.51	1074.19
627.86	1069.09
628.20	1068.88
628.55	1071.61
628.89	1074.49
629.24	1075.15
629.58	1077.04
629.93	1082.08
630.28	1081.54
630.62	1078.80
630.97	1080.81
631.31	1079.13
631.66	1077.65
632.00	1074.89
632.35	1078.31
632.69	1073.32
633.04	1076.76
633.38	1076.69
633.73	1078.26
634.07	1076.48
634.42	1080.84
634.76	1078.10
635.11	1076.48
635.45	1075.52
635.79	1075.27
636.14	1074.19
636.48	1075.90
636.83	1076.18
637.17	1077.86
637.52	1081.05
637.86	1078.61
638.21	1078.36
638.55	1080.16
638.89	1078.85
639.24	1076.93
639.58	1078.54
639.93	1078.68
640.27	1078.89
640.61	1080.02
640.96	1079.22
641.30	1077.65
641.65	1077.61
641.99	1077.18
642.33	1074.05
642.68	1075.97
643.02	1074.45
643.37	1071.38
643.71	1072.55
644.05	1076.32
644.40	1077.68
644.74	1080.04
645.08	1085.42
645.43	1081.82
645.77	1078.89
646.11	1076.65
646.46	1073.67
646.80	1072.34
647.14	1074.35
647.49	1075.31
647.83	1075.78
648.17	1078.12
648.52	1077.23
648.86	1076.55
649.20	1076.90
649.55	1074.40
649.89	1075.50
650.23	1076.83
650.57	1079.67
650.92	1078.43
651.26	1081.14
651.60	1079.38
651.95	1075.76
652.29	1073.44
652.63	1073.91
652.97	1072.41
653.32	1072.13
653.66	1073.32
654.00	1071.47
654.34	1074.10
654.69	1072.01
655.03	1072.83
655.37	1071.68
655.71	1071.50
656.05	1066.51
656.40	1066.44
656.74	1067.73
657.08	1070.16
657.42	1072.39
657.76	1072.85
658.11	1071.61
658.45	1069.16
658.79	1069.46
659.13	1069.81
659.47	1072.32
659.82	1075.64
660.16	1074.31
660.50	1072.85
660.84	1070.80
661.18	1072.22
661.52	1072.34
661.87	1072.39
662.21	1072.20
662.55	1072.60
662.89	1070.54
663.23	1071.68
663.57	1077.23
663.91	1077.23
664.25	1075.71
664.60	1075.17
664.94	1075.20
665.28	1074.56
665.62	1077.14
665.96	1080.37
666.30	1079.22
666.64	1076.88
666.98	1074.87
667.32	1074.96
667.66	1074.10
668.01	1076.83
668.35	1078.19
668.69	1077.96
669.03	1077.77
669.37	1079.20
669.71	1079.24
670.05	1078.47
670.39	1074.52
670.73	1072.90
671.07	1070.70
671.41	1069.67
671.75	1069.30
672.09	1070.91
672.43	1069.58
672.77	1071.54
673.11	1072.69
673.45	1071.68
673.79	1074.00
674.13	1073.65
674.47	1073.84
674.81	1073.02
675.15	1075.29
675.49	1073.11
675.83	1072.20
676.17	1068.97
676.51	1068.57
676.85	1068.03
677.19	1067.21
677.53	1068.08
677.87	1070.26
678.21	1070.63
678.55	1070.02
678.89	1073.93
679.23	1072.60
679.57	1071.85
679.90	1071.10
680.24	1071.08
680.58	1068.85
680.92	1073.16
681.26	1071.87
681.60	1071.08
681.94	1072.46
682.28	1072.43
682.62	1067.94
682.96	1071.31
683.29	1071.54
683.63	1069.72
683.97	1071.01
684.31	1075.17
684.65	1073.14
684.99	1070.63
685.33	1069.79
685.67	1071.15
686.00	1069.91
686.34	1069.06
686.68	1072.76
687.02	1075.38
687.36	1076.93
687.70	1073.84
688.03	1075.83
688.37	1076.13
688.71	1072.46
689.05	1067.03
689.39	1069.25
689.72	1067.35
690.06	1064.41
690.40	1069.04
690.74	1070.89
691.08	1069.86
691.41	1070.14
691.75	1070.40
692.09	1068.34
692.43	1071.61
692.76	1075.10
693.10	1075.69
693.44	1079.78
693.78	1082.47
694.11	1079.88
694.45	1076.39
694.79	1076.32
695.13	1073.72
695.46	1072.74
695.80	1071.78
696.14	1074.21
696.48	1074.87
696.81	1074.10
697.15	1071.01
697.49	1069.93
697.82	1069.16
698.16	1070.72
698.50	1070.87
698.83	1073.30
699.17	1075.34
699.51	1075.90
699.84	1073.04
700.18	1077.16
700.52	1075.50
700.85	1076.74
701.19	1077.63
701.53	1078.43
701.86	1075.05
702.20	1075.27
702.54	1075.31
702.87	1073.09
703.21	1074.35
703.55	1072.90
703.88	1074.05
704.22	1072.06
704.55	1070.30
704.89	1068.03
705.23	1068.74
705.56	1068.99
705.90	1066.16
706.23	1068.15
706.57	1069.41
706.91	1070.07
707.24	1069.37
707.58	1074.54
707.91	1075.20
708.25	1070.72
708.58	1070.14
708.92	1067.40
709.26	1066.47
709.59	1065.41
709.93	1070.14
710.26	1071.33
710.60	1073.32
710.93	1073.21
711.27	1075.78
711.60	1074.77
711.94	1072.81
712.27	1073.32
712.61	1076.69
712.94	1075.36
713.28	1075.73
713.61	1076.83
713.95	1080.77
714.28	1079.13
714.62	1079.17
714.95	1079.64
715.29	1080.27
715.62	1076.08
715.96	1072.85
716.29	1074.47
716.63	1073.95
716.96	1073.25
717.29	1071.80
717.63	1074.10
717.96	1071.78
718.30	1072.62
718.63	1074.87
718.97	1077.86
719.30	1080.56
719.63	1081.98
719.97	1083.34
720.30	1083.18
720.64	1082.40
720.97	1080.53
721.30	1080.72
721.64	1078.14
721.97	1077.75
722.31	1077.18
722.64	1076.15
722.97	1074.07
723.31	1074.12
723.64	1072.69
723.97	1071.94
724.31	1069.70
724.64	1069.18
724.98	1069.04
725.31	1066.77
725.64	1065.83
725.98	1069.23
726.31	1070.30
726.64	1069.72
726.97	1070.54
727.31	1073.35
727.64	1069.74
727.97	1070.40
728.31	1071.45
728.64	1072.41
728.97	1073.44
729.31	1074.24
729.64	1072.25
729.97	1072.46
730.30	1075.10
730.64	1071.87
730.97	1073.95
731.30	1074.45
731.63	1074.05
731.97	1068.92
732.30	1071.24
732.63	1072.71
732.96	1072.69
733.30	1073.77
733.63	1078.50
733.96	1077.54
734.29	1075.59
734.63	1077.25
734.96	1077.91
735.29	1077.25
735.62	1080.34
735.95	1082.85
736.29	1082.22
736.62	1082.40
736.95	1083.93
737.28	1081.77
737.61	1078.85
737.94	1078.61
738.28	1077.77
738.61	1076.34
738.94	1073.21
739.27	1073.79
739.60	1072.90
739.93	1069.88
740.27	1066.58
740.60	1069.02
740.93	1067.99
741.26	1068.55
741.59	1075.22
741.92	1078.73
742.25	1079.99
742.58	1078.26
742.91	1079.71
743.25	1075.10
743.58	1072.43
743.91	1070.65
744.24	1070.09
744.57	1069.70
744.90	1071.40
745.23	1071.82
745.56	1071.54
745.89	1074.00
746.22	1073.11
746.55	1073.11
746.88	1076.48
747.21	1076.46
747.54	1074.19
747.87	1073.86
748.20	1073.56
748.53	1073.18
748.87	1075.73
749.20	1078.38
749.53	1077.35
749.86	1079.17
750.19	1078.14
750.52	1077.91
750.85	1076.30
751.18	1079.48
751.51	1078.50
751.84	1075.38
752.16	1072.71
752.49	1075.76
752.82	1074.28
753.15	1072.32
753.48	1075.31
753.81	1077.35
754.14	1074.73
754.47	1071.22
754.80	1071.57
755.13	1069.13
755.46	1064.59
755.79	1063.80
756.12	1066.32
756.45	1063.56
756.78	1064.15
757.11	1067.47
757.43	1067.89
757.76	1068.36
758.09	1071.80
758.42	1072.62
758.75	1072.11
759.08	1073.07
759.41	1075.05
759.74	1073.95
760.07	1076.44
760.39	1077.70
760.72	1075.99
761.05	1075.24
761.38	1075.50
761.71	1075.50
762.04	1076.60
762.36	1079.50
762.69	1077.79
763.02	1081.14
763.35	1076.93
763.68	1075.78
764.01	1074.03
764.33	1073.37
764.66	1069.55
764.99	1069.02
765.32	1068.88
765.65	1066.86
765.97	1067.68
766.30	1066.54
766.63	1070.68
766.96	1069.25
767.28	1072.78
767.61	1074.19
767.94	1071.64
768.27	1067.19
768.59	1069.93
768.92	1068.97
769.25	1069.74
769.58	1074.73
769.90	1078.24
770.23	1075.41
770.56	1076.97
770.89	1075.17
771.21	1075.45
771.54	1076.01
771.87	1075.78
772.19	1073.74
772.52	1073.04
772.85	1071.87
773.17	1069.62
773.50	1072.88
773.83	1072.71
774.15	1074.49
774.48	1072.27
774.81	1075.08
775.13	1071.82
775.46	1071.90
775.79	1073.23
776.11	1071.78
776.44	1069.32
776.77	1069.27
777.09	1068.08
777.42	1066.72
777.74	1068.06
778.07	1068.92
778.40	1070.89
778.72	1073.16
779.05	1072.62
779.37	1075.27
779.70	1076.25
780.03	1075.41
780.35	1073.16
780.68	1069.65
781.00	1069.88
781.33	1067.54
781.65	1066.98
781.98	1068.06
782.31	1072.55
782.63	1069.74
782.96	1074.84
783.28	1075.17
783.61	1075.05
783.93	1072.71
784.26	1075.80
784.58	1072.20
784.91	1073.79
785.23	1075.83
785.56	1077.56
785.88	1077.02
786.21	1078.64
786.53	1077.44
786.86	1072.78
787.18	1072.39
787.51	1072.83
787.83	1071.75
788.16	1070.96
788.48	1075.76
788.81	1076.81
789.13	1075.59
789.46	1077.49
789.78	1077.54
790.10	1076.93
790.43	1074.91
790.75	1075.34
791.08	1073.00
791.40	1073.44
791.73	1074.28
792.05	1075.50
792.37	1074.84
792.70	1076.20
793.02	1075.83
793.35	1076.13
793.67	1075.08
793.99	1074.82
794.32	1072.55
794.64	1075.48
794.96	1073.09
795.29	1074.21
795.61	1077.28
795.93	1076.67
796.26	1072.85
796.58	1074.05
796.91	1073.70
797.23	1073.04
797.55	1073.18
797.87	1074.94
798.20	1075.73
798.52	1076.44
798.84	1076.79
799.17	1078.14
799.49	1080.65
799.81	1080.09
800.14	1080.37
800.46	1078.31
800.78	1079.53
801.10	1076.97
801.43	1076.01
801.75	1074.56
802.07	1075.41
802.40	1073.14
802.72	1072.50
803.04	1075.41
803.36	1076.97
803.69	1076.97
804.01	1079.99
804.33	1082.54
804.65	1078.94
804.97	1076.15
805.30	1074.87
805.62	1072.92
805.94	1070.77
806.26	1071.17
806.58	1074.10
806.91	1074.12
807.23	1073.81
807.55	1074.87
807.87	1075.34
808.19	1073.63
808.52	1074.84
808.84	1076.27
809.16	1076.86
809.48	1075.97
809.80	1076.69
810.12	1074.26
810.44	1070.72
810.77	1067.19
811.09	1066.47
811.41	1066.91
811.73	1065.06
812.05	1064.80
812.37	1065.53
812.69	1069.51
813.01	1064.78
813.33	1066.30
813.66	1068.34
813.98	1068.27
814.30	1066.54
814.62	1070.49
814.94	1073.51
815.26	1072.90
815.58	1075.24
815.90	1071.57
816.22	1072.11
816.54	1069.44
816.86	1071.92
817.18	1069.65
817.50	1072.11
817.82	1070.23
818.14	1071.66
818.46	1070.35
818.78	1073.07
819.10	1073.23
819.42	1076.20
819.74	1076.34
820.06	1074.03
820.38	1072.06
820.70	1071.43
821.02	1071.73
821.34	1071.36
821.66	1075.59
821.98	1079.34
822.30	1080.04
822.62	1077.65
822.94	1077.91
823.26	1077.84
823.58	1075.90
823.90	1077.21
824.22	1075.13
824.54	1074.84
824.86	1070.49
825.18	1068.48
825.50	1066.28
825.81	1068.92
826.13	1067.73
826.45	1067.85
826.77	1069.34
827.09	1068.15
827.41	1065.97
827.73	1066.47
828.05	1069.18
828.36	1067.96
828.68	1068.03
829.00	1070.09
829.32	1070.96
829.64	1068.83
829.96	1070.12
830.28	1072.55
830.59	1072.71
830.91	1072.62
831.23	1075.05
831.55	1076.06
831.87	1077.79
832.19	1076.41
832.50	1076.44
832.82	1077.56
833.14	1075.13
833.46	1074.33
833.78	1074.47
834.09	1073.00
834.41	1071.19
834.73	1069.88
835.05	1068.85
835.36	1071.82
835.68	1073.23
836.00	1072.34
836.32	1075.22
836.63	1076.37
836.95	1077.18
837.27	1076.81
837.59	1079.20
837.90	1077.75
838.22	1074.70
838.54	1072.57
838.85	1073.56
839.17	1072.69
839.49	1074.42
839.80	1074.17
840.12	1071.85
840.44	1072.29
840.76	1072.46
841.07	1071.08
841.39	1074.31
841.71	1075.97
842.02	1075.83
842.34	1075.55
842.65	1076.18
842.97	1073.72
843.29	1072.67
843.60	1069.37
843.92	1072.64
844.24	1071.47
844.55	1073.84
844.87	1072.20
845.18	1074.77
845.50	1071.31
845.82	1071.66
846.13	1069.11
846.45	1072.78
846.76	1075.87
847.08	1074.68
847.40	1074.05
847.71	1075.50
848.03	1075.08
848.34	1071.15
848.66	1071.38
848.97	1068.57
849.29	1070.58
849.60	1070.47
849.92	1070.63
850.24	1068.99
850.55	1072.76
850.87	1072.29
851.18	1071.99
851.50	1073.25
851.81	1075.71
852.13	1076.34
852.44	1076.53
852.76	1077.25
853.07	1077.30
853.39	1079.48
853.70	1078.14
854.01	1078.78
854.33	1077.18
854.64	1074.77
854.96	1072.46
855.27	1073.81
855.59	1070.19
855.90	1069.95
856.22	1069.95
856.53	1069.04
856.84	1069.51
857.16	1069.20
857.47	1070.94
857.79	1073.35
858.10	1075.20
858.41	1075.41
858.73	1076.62
859.04	1076.81
859.36	1074.14
859.67	1072.60
859.98	1069.30
860.30	1068.48
860.61	1067.10
860.92	1070.94
861.24	1074.80
861.55	1076.23
861.87	1075.24
862.18	1076.53
862.49	1074.94
862.81	1070.51
863.12	1071.85
863.43	1073.88
863.74	1071.50
864.06	1069.67
864.37	1068.97
864.68	1066.96
865.00	1067.94
865.31	1068.20
865.62	1067.49
865.94	1070.12
866.25	1071.24
866.56	1070.33
866.87	1072.18
867.19	1075.13
867.50	1075.20
867.81	1074.26
868.12	1074.49
868.44	1076.41
868.75	1076.55
869.06	1075.66
869.37	1076.74
869.68	1075.38
870.00	1071.47
870.31	1073.86
870.62	1073.95
870.93	1075.66
871.24	1077.77
871.56	1079.13
871.87	1077.79
872.18	1078.54
872.49	1078.14
872.80	1079.41
873.12	1081.16
873.43	1080.27
873.74	1080.65
874.05	1079.85
874.36	1079.83
874.67	1078.54
874.98	1077.51
875.29	1077.35
875.61	1077.91
875.92	1078.64
876.23	1078.87
876.54	1078.96
876.85	1075.48
877.16	1072.55
877.47	1070.84
877.78	1068.92
878.09	1071.97
878.40	1071.26
878.72	1071.82
879.03	1070.33
879.34	1068.08
879.65	1066.30
879.96	1069.79
880.27	1070.28
880.58	1069.98
880.89	1074.80
881.20	1072.92
881.51	1074.54
881.82	1075.85
882.13	1076.81
882.44	1075.87
882.75	1077.11
883.06	1075.41
883.37	1072.76
883.68	1073.00
883.99	1074.31
884.30	1074.26
884.61	1071.61
884.92	1073.18
885.23	1071.22
885.54	1069.23
885.85	1071.22
886.16	1070.94
886.47	1072.50
886.78	1077.23
887.08	1076.55
887.39	1073.93
887.70	1076.95
888.01	1078.28
888.32	1073.91
888.63	1078.00
888.94	1081.68
889.25	1079.88
889.56	1078.21
889.87	1079.10
890.17	1077.56
890.48	1074.42
890.79	1076.44
891.10	1076.34
891.41	1072.95
891.72	1073.49
892.03	1073.95
892.34	1074.35
892.64	1073.53
892.95	1079.97
893.26	1076.04
893.57	1075.83
893.88	1076.15
894.18	1077.65
894.49	1075.34
894.80	1076.95
895.11	1077.30
895.42	1075.08
895.72	1075.31
896.03	1078.24
896.34	1078.12
896.65	1078.40
896.96	1080.34
897.26	1077.72
897.57	1073.86
897.88	1075.22
898.19	1074.19
898.49	1074.03
898.80	1075.71
899.11	1076.37
899.41	1076.58
899.72	1076.37
900.03	1078.03
900.34	1079.27
900.64	1079.53
900.95	1076.67
901.26	1074.26
901.56	1071.90
901.87	1067.64
902.18	1067.57
902.48	1067.85
902.79	1069.41
903.10	1070.94
903.40	1075.15
903.71	1075.13
904.02	1076.83
904.32	1077.28
904.63	1076.39
904.94	1074.52
905.24	1072.81
905.55	1072.27
905.85	1074.07
906.16	1069.20
906.47	1069.93
906.77	1069.93
907.08	1070.37
907.38	1070.16
907.69	1075.27
908.00	1071.47
908.30	1073.98
908.61	1076.20
908.91	1074.40
909.22	1072.83
909.52	1076.37
909.83	1074.00
910.14	1071.01
910.44	1073.79
910.75	1073.30
911.05	1071.10
911.36	1072.97
911.66	1073.70
911.97	1068.90
912.27	1069.13
912.58	1071.45
912.88	1069.41
913.19	1068.67
913.49	1071.12
913.80	1074.19
914.10	1075.55
914.41	1077.91
914.71	1078.33
915.01	1078.59
915.32	1076.01
915.62	1074.68
915.93	1073.23
916.23	1073.21
916.54	1076.83
916.84	1074.77
917.15	1073.18
917.45	1074.84
917.75	1075.78
918.06	1072.55
918.36	1075.17
918.67	1074.35
918.97	1074.21
919.27	1073.28
919.58	1069.84
919.88	1066.39
920.18	1066.32
920.49	1064.59
920.79	1064.12
921.10	1066.98
921.40	1070.37
921.70	1072.48
922.01	1074.49
922.31	1073.51
922.61	1071.61
922.92	1072.74
923.22	1071.19
923.52	1068.17
923.82	1071.64
924.13	1073.74
924.43	1072.92
924.73	1073.86
925.04	1075.29
925.34	1073.81
925.64	1075.15
925.94	1075.83
926.25	1073.91
926.55	1075.20
926.85	1076.18
927.15	1073.70
927.46	1074.19
927.76	1075.76
928.06	1076.95
928.36	1076.44
928.67	1077.11
928.97	1075.99
929.27	1077.72
929.57	1075.83
929.87	1075.20
930.18	1074.91
930.48	1073.07
930.78	1073.65
931.08	1073.79
931.38	1074.12
931.69	1079.71
931.99	1081.35
932.29	1078.85
932.59	1079.17
932.89	1077.51
933.19	1072.46
933.49	1071.29
933.80	1069.81
934.10	1068.97
934.40	1070.49
934.70	1067.17
935.00	1068.52
935.30	1071.90
935.60	1070.56
935.90	1071.87
936.20	1074.68
936.50	1077.11
936.81	1076.41
937.11	1078.26
937.41	1077.63
937.71	1078.38
938.01	1076.86
938.31	1078.66
938.61	1080.79
938.91	1079.99
939.21	1081.56
939.51	1080.74
939.81	1078.07
940.11	1075.10
940.41	1074.61
940.71	1073.02
941.01	1073.65
941.31	1074.75
941.61	1074.03
941.91	1073.72
942.21	1074.45
942.51	1072.34
942.81	1070.37
943.11	1070.72
943.41	1072.78
943.71	1068.71
944.01	1069.37
944.31	1068.83
944.61	1067.21
944.90	1064.59
945.20	1068.36
945.50	1070.30
945.80	1070.02
946.10	1073.30
946.40	1074.68
946.70	1074.66
947.00	1075.01
947.30	1078.82
947.60	1075.22
947.89	1075.43
948.19	1074.91
948.49	1073.84
948.79	1070.33
949.09	1072.25
949.39	1070.96
949.69	1070.16
949.98	1068.52
950.28	1070.07
950.58	1072.11
950.88	1071.80
951.18	1073.02
951.48	1072.43
951.77	1070.30
952.07	1066.61
952.37	1064.03
952.67	1064.03
952.97	1065.32
953.26	1066.82
953.56	1067.80
953.86	1070.42
954.16	1069.81
954.45	1070.40
954.75	1072.53
955.05	1073.46
955.35	1076.15
955.64	1077.98
955.94	1076.74
956.24	1076.76
956.54	1075.78
956.83	1073.81
957.13	1068.97
957.43	1070.42
957.72	1068.71
958.02	1067.40
958.32	1067.12
958.61	1068.38
958.91	1066.49
959.21	1066.77
959.50	1067.52
959.80	1069.77
960.10	1069.55
960.39	1069.58
960.69	1068.34
960.99	1069.74
961.28	1070.40
961.58	1072.29
961.87	1072.55
962.17	1072.62
962.47	1071.97
962.76	1069.48
963.06	1066.68
963.36	1066.09
963.65	1070.68
963.95	1071.97
964.24	1072.74
964.54	1074.73
964.83	1073.91
965.13	1071.24
965.42	1073.07
965.72	1073.67
966.02	1073.02
966.31	1077.42
966.61	1075.15
966.90	1073.49
967.20	1072.95
967.49	1075.85
967.79	1073.98
968.08	1076.08
968.38	1075.29
968.67	1074.73
968.97	1076.46
969.26	1077.30
969.56	1075.31
969.85	1073.65
970.15	1075.48
970.44	1073.56
970.74	1072.46
971.03	1075.38
971.32	1080.84
971.62	1075.94
971.91	1075.73
972.21	1078.03
972.50	1078.26
972.80	1075.66
973.09	1077.75
973.38	1076.67
973.68	1074.10
973.97	1072.32
974.27	1070.77
974.56	1069.84
974.85	1071.15
975.15	1071.85
975.44	1071.26
975.73	1070.72
976.03	1074.10
976.32	1074.35
976.61	1073.11
976.91	1073.84
977.20	1073.91
977.49	1074.98
977.79	1071.19
978.08	1069.53
978.37	1069.16
978.67	1071.08
978.96	1069.44
979.25	1072.85
979.55	1077.00
979.84	1077.42
980.13	1075.76
980.42	1075.03
980.72	1073.53
981.01	1070.51
981.30	1071.19
981.59	1072.36
981.89	1073.09
982.18	1072.55
982.47	1070.54
982.76	1071.75
983.06	1071.94
983.35	1068.85
983.64	1071.85
983.93	1075.52
984.22	1073.53
984.52	1074.35
984.81	1078.40
985.10	1076.37
985.39	1076.08
985.68	1075.48
985.97	1074.26
986.27	1071.99
986.56	1069.37
986.85	1071.19
987.14	1070.94
987.43	1070.40
987.72	1071.75
988.01	1074.84
988.31	1074.87
988.60	1075.48
988.89	1077.70
989.18	1075.52
989.47	1075.73
989.76	1072.11
990.05	1072.32
990.34	1069.37
990.63	1069.77
990.92	1069.30
991.21	1069.18
991.51	1069.70
991.80	1070.89
992.09	1070.89
992.38	1071.99
992.67	1072.11
992.96	1070.84
993.25	1072.48
993.54	1074.19
993.83	1070.94
994.12	1072.39
994.41	1073.02
994.70	1070.91
994.99	1068.90
995.28	1071.29
995.57	1067.96
995.86	1067.82
996.15	1067.94
996.44	1067.75
996.73	1069.11
997.02	1073.02
997.31	1073.46
997.59	1072.25
997.88	1072.11
998.17	1071.57
998.46	1070.19
998.75	1071.90
999.04	1072.78
999.33	1074.26
999.62	1072.67
999.91	1072.74
1000.20	1071.94
1000.49	1072.67
1000.77	1071.50
1001.06	1069.53
1001.35	1069.79
1001.64	1068.52
1001.93	1067.61
1002.22	1067.68
1002.51	1069.81
1002.79	1069.72
1003.08	1068.43
1003.37	1068.92
1003.66	1069.39
1003.95	1069.55
1004.23	1070.40
1004.52	1071.99
1004.81	1072.36
1005.10	1074.68
1005.39	1075.83
1005.67	1072.34
1005.96	1071.85
1006.25	1070.96
1006.54	1069.91
1006.83	1067.19
1007.11	1070.54
1007.40	1071.52
1007.69	1073.23
1007.97	1073.18
1008.26	1072.20
1008.55	1071.15
1008.84	1072.22
1009.12	1072.34
1009.41	1073.44
1009.70	1076.62
1009.98	1077.49
1010.27	1076.60
1010.56	1075.05
1010.85	1071.17
1011.13	1068.17
1011.42	1069.06
1011.71	1068.62
1011.99	1068.81
1012.28	1073.77
1012.56	1075.17
1012.85	1075.52
1013.14	1078.68
1013.42	1081.40
1013.71	1080.91
1014.00	1083.15
1014.28	1079.64
1014.57	1079.13
1014.85	1079.27
1015.14	1077.58
1015.43	1077.04
1015.71	1081.91
1016.00	1078.14
1016.28	1076.51
1016.57	1074.96
1016.85	1076.15
1017.14	1075.83
1017.43	1076.95
1017.71	1078.52
1018.00	1078.71
1018.28	1074.24
1018.57	1071.17
1018.85	1070.56
1019.14	1070.80
1019.42	1073.63
1019.71	1076.58
1019.99	1077.09
1020.28	1076.13
1020.56	1073.35
1020.85	1069.95
1021.13	1066.21
1021.42	1066.11
1021.70	1067.42
1021.99	1066.09
1022.27	1067.73
1022.55	1065.41
1022.84	1074.66
>>>>>End Processed Spectral Data<<<<<
