SpectraSuite Data File
++++++++++++++++++++++++++++++++++++
Date: Mon Aug 26 10:22:10 PDT 2019
User: corrico
Dark Spectrum Present: No
Reference Spectrum Present: No
Number of Sampled Component Spectra: 1
Spectrometers: USB2+H06089
Integration Time (usec): 2000 (USB2+H06089)
Spectra Averaged: 20 (USB2+H06089)
Boxcar Smoothing: 2 (USB2+H06089)
Correct for Electrical Dark: No (USB2+H06089)
Strobe/Lamp Enabled: No (USB2+H06089)
Correct for Detector Non-linearity: No (USB2+H06089)
Correct for Stray Light: No (USB2+H06089)
Number of Pixels in Processed Spectrum: 2048
>>>>>Begin Processed Spectral Data<<<<<
339.70	1037.91
340.07	1037.91
340.45	999.29
340.82	976.52
341.19	950.61
341.57	923.04
341.94	912.72
342.31	905.44
342.69	900.19
343.06	896.75
343.43	893.01
343.81	892.33
344.18	895.56
344.55	898.37
344.93	905.67
345.30	915.55
345.67	924.82
346.04	931.74
346.42	939.14
346.79	944.71
347.16	955.45
347.54	962.22
347.91	970.76
348.28	983.24
348.65	992.27
349.03	997.23
349.40	1004.39
349.77	1012.80
350.14	1017.36
350.52	1028.29
350.89	1034.70
351.26	1044.35
351.63	1050.99
352.01	1058.88
352.38	1062.65
352.75	1069.93
353.12	1069.98
353.50	1070.77
353.87	1072.88
354.24	1075.15
354.61	1075.41
354.98	1081.96
355.36	1084.21
355.73	1084.32
356.10	1083.34
356.47	1083.71
356.84	1082.08
357.22	1083.15
357.59	1085.54
357.96	1087.86
358.33	1088.35
358.70	1085.28
359.08	1083.86
359.45	1082.15
359.82	1080.84
360.19	1079.22
360.56	1078.99
360.94	1080.60
361.31	1078.52
361.68	1078.07
362.05	1078.12
362.42	1078.07
362.79	1077.23
363.16	1079.97
363.54	1078.66
363.91	1080.81
364.28	1080.30
364.65	1080.13
365.02	1077.89
365.39	1076.51
365.76	1073.95
366.14	1073.60
366.51	1073.88
366.88	1071.61
367.25	1072.60
367.62	1072.18
367.99	1073.21
368.36	1072.97
368.73	1076.06
369.10	1078.94
369.48	1079.38
369.85	1081.30
370.22	1083.57
370.59	1081.49
370.96	1079.08
371.33	1082.12
371.70	1078.17
372.07	1075.87
372.44	1072.95
372.81	1073.21
373.18	1070.09
373.55	1075.38
373.93	1077.54
374.30	1082.43
374.67	1082.19
375.04	1082.12
375.41	1080.13
375.78	1078.19
376.15	1075.22
376.52	1074.45
376.89	1073.88
377.26	1073.18
377.63	1073.25
378.00	1077.37
378.37	1079.50
378.74	1077.98
379.11	1077.37
379.48	1076.93
379.85	1074.84
380.22	1073.93
380.59	1076.01
380.96	1076.93
381.33	1076.72
381.70	1075.31
382.07	1076.04
382.44	1076.20
382.81	1076.53
383.18	1075.36
383.55	1078.21
383.92	1074.59
384.29	1074.54
384.66	1074.31
385.03	1077.23
385.40	1075.31
385.77	1075.87
386.14	1078.78
386.51	1080.09
386.88	1077.44
387.25	1075.90
387.62	1078.21
387.99	1079.22
388.36	1079.88
388.73	1080.70
389.10	1085.84
389.46	1088.23
389.83	1084.81
390.20	1086.57
390.57	1087.13
390.94	1087.06
391.31	1087.67
391.68	1089.80
392.05	1088.77
392.42	1086.38
392.79	1087.23
393.16	1085.19
393.53	1081.16
393.89	1078.59
394.26	1084.21
394.63	1081.23
395.00	1080.23
395.37	1081.26
395.74	1084.18
396.11	1084.16
396.48	1086.69
396.84	1089.33
397.21	1093.55
397.58	1092.54
397.95	1090.17
398.32	1090.39
398.69	1090.20
399.06	1090.39
399.42	1089.50
399.79	1086.87
400.16	1083.57
400.53	1083.34
400.90	1080.04
401.27	1081.91
401.64	1085.07
402.00	1083.76
402.37	1082.69
402.74	1086.31
403.11	1087.58
403.48	1090.55
403.84	1095.51
404.21	1097.17
404.58	1095.44
404.95	1094.69
405.32	1090.67
405.68	1091.13
406.05	1092.23
406.42	1093.78
406.79	1094.55
407.16	1095.51
407.52	1091.91
407.89	1090.32
408.26	1091.74
408.63	1093.71
408.99	1095.89
409.36	1099.02
409.73	1101.08
410.10	1099.61
410.47	1095.72
410.83	1091.49
411.20	1091.04
411.57	1092.63
411.94	1092.66
412.30	1097.24
412.67	1102.18
413.04	1102.98
413.40	1103.80
413.77	1106.93
414.14	1105.15
414.51	1108.52
414.87	1110.61
415.24	1108.24
415.61	1105.20
415.97	1105.48
416.34	1104.24
416.71	1105.88
417.08	1108.06
417.44	1111.03
417.81	1110.96
418.18	1110.87
418.54	1110.54
418.91	1112.08
419.28	1113.42
419.64	1118.28
420.01	1120.39
420.38	1124.98
420.74	1123.95
421.11	1126.34
421.48	1127.37
421.84	1129.47
422.21	1127.74
422.58	1132.40
422.94	1134.74
423.31	1134.25
423.68	1136.42
424.04	1139.42
424.41	1141.76
424.77	1144.80
425.14	1151.89
425.51	1155.22
425.87	1161.51
426.24	1163.76
426.61	1168.56
426.97	1177.03
427.34	1181.48
427.70	1188.80
428.07	1202.38
428.44	1214.60
428.80	1220.52
429.17	1232.62
429.53	1243.04
429.90	1252.68
430.27	1261.76
430.63	1274.30
431.00	1288.79
431.36	1302.67
431.73	1314.63
432.09	1331.98
432.46	1352.92
432.83	1368.70
433.19	1389.06
433.56	1415.44
433.92	1440.48
434.29	1463.98
434.65	1498.46
435.02	1529.17
435.38	1561.04
435.75	1591.40
436.11	1630.56
436.48	1669.39
436.84	1709.25
437.21	1754.42
437.57	1804.93
437.94	1857.00
438.30	1912.71
438.67	1972.72
439.03	2038.82
439.40	2107.96
439.76	2173.94
440.13	2249.18
440.49	2330.64
440.86	2407.01
441.22	2490.35
441.59	2582.10
441.95	2683.14
442.32	2788.58
442.68	2908.96
443.05	3030.22
443.41	3162.51
443.78	3286.18
444.14	3423.31
444.51	3561.27
444.87	3728.19
445.24	3890.88
445.60	4072.95
445.96	4255.52
446.33	4472.11
446.69	4675.95
447.06	4897.10
447.42	5126.99
447.79	5362.35
448.15	5623.30
448.51	5895.43
448.88	6219.37
449.24	6517.99
449.61	6877.17
449.97	7232.77
450.33	7618.89
450.70	7976.31
451.06	8424.10
451.43	8832.01
451.79	9295.62
452.15	9782.11
452.52	10330.42
452.88	10871.72
453.24	11510.38
453.61	12205.17
453.97	12926.83
454.34	13613.77
454.70	14431.77
455.06	15233.77
455.43	15988.11
455.79	16662.18
456.15	17472.12
456.52	18218.00
456.88	19135.42
457.24	20061.46
457.61	21183.81
457.97	22252.67
458.33	23357.45
458.70	24412.07
459.06	25409.39
459.42	26431.60
459.79	27355.53
460.15	28419.46
460.51	29409.35
460.88	30503.36
461.24	31490.08
461.60	32632.64
461.96	33659.88
462.33	34679.20
462.69	35714.09
463.05	36816.09
463.42	37850.14
463.78	38792.23
464.14	39549.18
464.50	40288.02
464.87	40825.82
465.23	41144.28
465.59	41541.86
465.95	41875.81
466.32	42105.37
466.68	42358.06
467.04	42520.77
467.40	42525.83
467.77	42629.30
468.13	42527.25
468.49	42344.04
468.85	42224.65
469.22	42095.05
469.58	41828.60
469.94	41679.93
470.30	41467.25
470.66	41125.65
471.03	40626.71
471.39	40271.94
471.75	39583.05
472.11	38887.74
472.47	38391.11
472.84	37853.84
473.20	37139.04
473.56	36729.14
473.92	36152.01
474.28	35516.18
474.65	34881.19
475.01	34179.80
475.37	33363.94
475.73	32678.56
476.09	31969.54
476.45	31334.95
476.81	30816.36
477.18	30270.99
477.54	29784.51
477.90	29342.55
478.26	28759.75
478.62	28219.30
478.98	27776.38
479.34	27361.49
479.71	26801.12
480.07	26366.63
480.43	25912.61
480.79	25436.66
481.15	24942.27
481.51	24553.23
481.87	24229.55
482.23	23888.33
482.59	23554.78
482.96	23243.37
483.32	22927.56
483.68	22527.09
484.04	22170.77
484.40	21765.77
484.76	21321.37
485.12	20869.62
485.48	20442.64
485.84	19953.25
486.20	19503.10
486.56	19071.62
486.92	18688.62
487.28	18297.40
487.64	17883.33
488.00	17507.72
488.37	17121.58
488.73	16686.59
489.09	16222.00
489.45	15797.38
489.81	15337.79
490.17	14902.94
490.53	14503.50
490.89	14098.66
491.25	13702.50
491.61	13305.95
491.97	12898.13
492.33	12485.03
492.69	12123.37
493.05	11770.95
493.41	11438.53
493.77	11124.45
494.13	10833.75
494.49	10543.39
494.85	10269.76
495.21	10005.42
495.57	9745.03
495.93	9466.09
496.29	9211.15
496.64	8968.91
497.00	8707.14
497.36	8450.93
497.72	8214.93
498.08	7985.51
498.44	7759.58
498.80	7558.83
499.16	7358.53
499.52	7171.45
499.88	6988.42
500.24	6817.63
500.60	6654.28
500.96	6502.34
501.32	6339.50
501.68	6168.93
502.03	5993.69
502.39	5834.04
502.75	5663.58
503.11	5511.75
503.47	5376.37
503.83	5249.80
504.19	5115.59
504.55	5000.34
504.91	4884.18
505.26	4767.11
505.62	4646.64
505.98	4538.53
506.34	4421.13
506.70	4302.33
507.06	4193.23
507.42	4086.88
507.78	3987.31
508.13	3892.83
508.49	3816.92
508.85	3732.92
509.21	3652.03
509.57	3566.63
509.93	3485.03
510.28	3392.96
510.64	3314.76
511.00	3238.20
511.36	3169.41
511.72	3103.18
512.07	3044.92
512.43	2982.17
512.79	2920.22
513.15	2859.50
513.51	2802.04
513.86	2741.35
514.22	2687.85
514.58	2638.53
514.94	2586.03
515.30	2537.63
515.65	2494.29
516.01	2452.98
516.37	2409.23
516.73	2375.27
517.08	2336.51
517.44	2296.67
517.80	2256.77
518.16	2221.54
518.51	2186.41
518.87	2154.81
519.23	2126.14
519.59	2099.16
519.94	2069.17
520.30	2040.53
520.66	2007.08
521.01	1975.30
521.37	1941.99
521.73	1916.55
522.09	1886.61
522.44	1866.06
522.80	1847.99
523.16	1827.19
523.51	1803.06
523.87	1778.50
524.23	1757.67
524.58	1734.31
524.94	1711.26
525.30	1690.05
525.65	1674.07
526.01	1654.36
526.37	1636.10
526.72	1624.12
527.08	1609.52
527.44	1595.15
527.79	1579.30
528.15	1564.06
528.51	1548.38
528.86	1537.80
529.22	1520.41
529.58	1509.65
529.93	1497.64
530.29	1485.49
530.65	1469.32
531.00	1456.96
531.36	1443.24
531.71	1426.28
532.07	1413.22
532.43	1404.42
532.78	1394.91
533.14	1384.08
533.49	1379.72
533.85	1371.46
534.21	1362.40
534.56	1358.45
534.92	1349.20
535.27	1342.41
535.63	1336.84
535.98	1328.68
536.34	1318.14
536.69	1311.68
537.05	1302.13
537.41	1294.08
537.76	1285.28
538.12	1276.46
538.47	1274.40
538.83	1267.87
539.18	1260.82
539.54	1259.58
539.89	1257.92
540.25	1248.25
540.60	1246.85
540.96	1244.95
541.31	1238.89
541.67	1232.20
542.02	1232.92
542.38	1228.69
542.73	1223.94
543.09	1218.62
543.44	1216.19
543.80	1212.51
544.15	1208.32
544.51	1207.62
544.86	1204.91
545.22	1202.50
545.57	1196.95
545.93	1197.70
546.28	1194.70
546.64	1194.80
546.99	1191.92
547.35	1188.03
547.70	1182.53
548.05	1178.25
548.41	1176.77
548.76	1174.48
549.12	1175.14
549.47	1173.24
549.83	1172.26
550.18	1167.76
550.53	1166.64
550.89	1162.40
551.24	1159.36
551.60	1157.91
551.95	1154.98
552.30	1154.16
552.66	1152.11
553.01	1149.37
553.37	1145.88
553.72	1144.10
554.07	1140.26
554.43	1139.51
554.78	1136.94
555.13	1133.66
555.49	1132.12
555.84	1131.65
556.19	1130.90
556.55	1133.22
556.90	1133.45
557.26	1132.37
557.61	1129.92
557.96	1128.42
558.32	1123.81
558.67	1124.16
559.02	1126.24
559.37	1125.80
559.73	1127.06
560.08	1128.21
560.43	1127.25
560.79	1127.27
561.14	1125.96
561.49	1123.39
561.85	1120.77
562.20	1115.73
562.55	1110.00
562.90	1111.10
563.26	1107.59
563.61	1108.43
563.96	1110.89
564.32	1111.12
564.67	1111.05
565.02	1113.91
565.37	1113.46
565.73	1111.45
566.08	1108.74
566.43	1107.89
566.78	1103.91
567.14	1104.29
567.49	1102.95
567.84	1104.43
568.19	1105.88
568.54	1108.17
568.90	1106.16
569.25	1105.58
569.60	1105.01
569.95	1103.59
570.31	1102.53
570.66	1101.71
571.01	1103.47
571.36	1104.57
571.71	1101.81
572.06	1100.15
572.42	1100.89
572.77	1099.82
573.12	1099.79
573.47	1102.35
573.82	1104.22
574.18	1104.94
574.53	1104.99
574.88	1103.70
575.23	1100.71
575.58	1099.21
575.93	1099.89
576.28	1097.71
576.64	1099.40
576.99	1097.64
577.34	1099.28
577.69	1096.07
578.04	1095.32
578.39	1092.70
578.74	1094.08
579.09	1093.15
579.44	1096.68
579.80	1097.15
580.15	1093.76
580.50	1095.56
580.85	1094.90
581.20	1091.98
581.55	1091.74
581.90	1097.48
582.25	1096.05
582.60	1092.54
582.95	1088.86
583.30	1092.37
583.65	1090.32
584.00	1088.42
584.35	1094.57
584.71	1096.35
585.06	1091.46
585.41	1089.71
585.76	1091.51
586.11	1084.91
586.46	1085.21
586.81	1085.14
587.16	1086.59
587.51	1088.72
587.86	1088.35
588.21	1088.28
588.56	1093.26
588.91	1093.36
589.26	1090.92
589.61	1091.91
589.96	1094.97
590.31	1091.77
590.66	1092.80
591.01	1090.97
591.36	1092.66
591.71	1087.53
592.06	1088.61
592.41	1087.23
592.76	1086.01
593.10	1087.86
593.45	1089.22
593.80	1091.02
594.15	1090.60
594.50	1094.15
594.85	1093.10
595.20	1092.00
595.55	1090.78
595.90	1092.33
596.25	1085.21
596.60	1082.69
596.95	1081.00
597.30	1076.97
597.64	1087.51
597.99	1090.53
598.34	1091.34
598.69	1095.02
599.04	1097.20
599.39	1083.76
599.74	1084.60
600.09	1083.20
600.44	1081.82
600.78	1080.20
601.13	1081.33
601.48	1083.39
601.83	1087.30
602.18	1093.22
602.53	1094.08
602.88	1094.01
603.22	1092.63
603.57	1096.21
603.92	1093.33
604.27	1095.09
604.62	1094.81
604.97	1094.62
605.31	1091.58
605.66	1084.25
606.01	1084.25
606.36	1085.00
606.71	1086.57
607.05	1084.74
607.40	1088.68
607.75	1087.37
608.10	1086.80
608.44	1085.07
608.79	1085.49
609.14	1086.80
609.49	1085.89
609.84	1085.14
610.18	1083.48
610.53	1084.18
610.88	1084.35
611.23	1083.32
611.57	1084.67
611.92	1088.61
612.27	1087.69
612.62	1087.32
612.96	1088.30
613.31	1086.36
613.66	1084.96
614.00	1084.67
614.35	1084.49
614.70	1085.42
615.05	1086.48
615.39	1086.78
615.74	1085.94
616.09	1087.44
616.43	1087.27
616.78	1085.73
617.13	1083.57
617.47	1082.52
617.82	1079.76
618.17	1079.17
618.51	1080.27
618.86	1081.40
619.21	1080.79
619.55	1077.56
619.90	1078.07
620.25	1077.14
620.59	1075.80
620.94	1079.01
621.29	1083.60
621.63	1083.08
621.98	1084.70
622.32	1085.05
622.67	1083.41
623.02	1081.96
623.36	1084.72
623.71	1085.28
624.05	1086.80
624.40	1087.48
624.75	1087.72
625.09	1084.49
625.44	1081.51
625.78	1082.64
626.13	1085.00
626.48	1084.84
626.82	1083.64
627.17	1083.34
627.51	1084.18
627.86	1083.04
628.20	1085.28
628.55	1087.23
628.89	1088.98
629.24	1084.98
629.58	1085.31
629.93	1085.99
630.28	1085.00
630.62	1086.20
630.97	1087.23
631.31	1083.43
631.66	1082.78
632.00	1080.44
632.35	1078.03
632.69	1080.44
633.04	1081.87
633.38	1081.84
633.73	1084.21
634.07	1085.66
634.42	1083.01
634.76	1080.23
635.11	1077.75
635.45	1078.17
635.79	1079.81
636.14	1080.65
636.48	1084.11
636.83	1083.46
637.17	1083.32
637.52	1081.77
637.86	1082.26
638.21	1080.81
638.55	1082.69
638.89	1081.07
639.24	1082.64
639.58	1084.91
639.93	1086.57
640.27	1086.17
640.61	1090.39
640.96	1089.66
641.30	1086.08
641.65	1086.13
641.99	1086.87
642.33	1081.89
642.68	1082.17
643.02	1082.17
643.37	1078.45
643.71	1077.28
644.05	1078.71
644.40	1078.43
644.74	1077.04
645.08	1078.45
645.43	1080.18
645.77	1079.20
646.11	1076.74
646.46	1079.48
646.80	1082.38
647.14	1080.30
647.49	1080.79
647.83	1083.90
648.17	1082.71
648.52	1082.76
648.86	1083.83
649.20	1084.86
649.55	1084.25
649.89	1084.00
650.23	1085.94
650.57	1084.44
650.92	1089.00
651.26	1090.17
651.60	1091.91
651.95	1086.06
652.29	1085.96
652.63	1079.74
652.97	1076.97
653.32	1076.18
653.66	1077.37
654.00	1075.87
654.34	1076.39
654.69	1076.58
655.03	1073.11
655.37	1075.17
655.71	1078.07
656.05	1077.14
656.40	1075.50
656.74	1079.17
657.08	1077.04
657.42	1076.69
657.76	1079.95
658.11	1081.47
658.45	1080.25
658.79	1081.68
659.13	1083.11
659.47	1083.69
659.82	1086.57
660.16	1087.18
660.50	1087.53
660.84	1084.00
661.18	1080.48
661.52	1079.01
661.87	1078.94
662.21	1078.73
662.55	1079.88
662.89	1082.78
663.23	1082.92
663.57	1083.71
663.91	1080.95
664.25	1081.49
664.60	1081.56
664.94	1076.79
665.28	1074.63
665.62	1077.11
665.96	1078.59
666.30	1079.03
666.64	1082.17
666.98	1081.02
667.32	1080.30
667.66	1081.63
668.01	1078.85
668.35	1077.72
668.69	1083.08
669.03	1083.08
669.37	1078.64
669.71	1078.87
670.05	1080.86
670.39	1079.90
670.73	1079.41
671.07	1081.07
671.41	1081.77
671.75	1080.02
672.09	1077.51
672.43	1076.18
672.77	1073.77
673.11	1072.29
673.45	1071.71
673.79	1071.10
674.13	1074.00
674.47	1076.69
674.81	1080.11
675.15	1080.53
675.49	1082.47
675.83	1080.56
676.17	1082.54
676.51	1080.70
676.85	1081.84
677.19	1079.92
677.53	1081.68
677.87	1077.82
678.21	1078.07
678.55	1077.23
678.89	1077.91
679.23	1078.94
679.57	1083.67
679.90	1083.25
680.24	1083.69
680.58	1082.08
680.92	1080.44
681.26	1077.37
681.60	1073.84
681.94	1074.87
682.28	1078.54
682.62	1079.24
682.96	1081.77
683.29	1083.81
683.63	1084.53
683.97	1081.66
684.31	1079.31
684.65	1071.73
684.99	1073.79
685.33	1073.42
685.67	1072.01
686.00	1074.19
686.34	1077.51
686.68	1078.28
687.02	1077.42
687.36	1079.38
687.70	1079.55
688.03	1079.90
688.37	1077.51
688.71	1079.92
689.05	1080.72
689.39	1081.21
689.72	1079.71
690.06	1081.05
690.40	1078.71
690.74	1079.97
691.08	1080.09
691.41	1083.81
691.75	1084.86
692.09	1083.69
692.43	1083.15
692.76	1083.79
693.10	1084.16
693.44	1084.30
693.78	1083.46
694.11	1081.51
694.45	1081.82
694.79	1082.45
695.13	1080.20
695.46	1079.60
695.80	1082.33
696.14	1078.96
696.48	1074.98
696.81	1077.49
697.15	1079.95
697.49	1074.59
697.82	1077.11
698.16	1079.48
698.50	1076.60
698.83	1076.74
699.17	1076.44
699.51	1072.69
699.84	1069.41
700.18	1069.70
700.52	1070.82
700.85	1074.31
701.19	1076.32
701.53	1079.83
701.86	1078.45
702.20	1075.94
702.54	1075.38
702.87	1073.98
703.21	1073.39
703.55	1077.72
703.88	1080.77
704.22	1082.73
704.55	1081.70
704.89	1083.50
705.23	1080.77
705.56	1077.79
705.90	1078.31
706.23	1078.82
706.57	1077.61
706.91	1077.37
707.24	1078.31
707.58	1075.66
707.91	1078.36
708.25	1078.12
708.58	1076.62
708.92	1077.21
709.26	1078.89
709.59	1080.70
709.93	1081.75
710.26	1082.59
710.60	1080.63
710.93	1077.37
711.27	1074.26
711.60	1072.08
711.94	1072.15
712.27	1076.01
712.61	1075.87
712.94	1076.27
713.28	1077.07
713.61	1078.57
713.95	1076.20
714.28	1076.74
714.62	1077.37
714.95	1078.21
715.29	1077.58
715.62	1078.75
715.96	1079.90
716.29	1079.01
716.63	1079.01
716.96	1079.88
717.29	1079.43
717.63	1078.05
717.96	1081.19
718.30	1080.98
718.63	1081.16
718.97	1081.54
719.30	1083.83
719.63	1079.85
719.97	1081.49
720.30	1081.82
720.64	1080.88
720.97	1080.93
721.30	1082.66
721.64	1080.81
721.97	1079.88
722.31	1080.20
722.64	1079.99
722.97	1080.81
723.31	1083.08
723.64	1081.40
723.97	1082.64
724.31	1081.35
724.64	1079.92
724.98	1078.26
725.31	1079.13
725.64	1077.77
725.98	1077.70
726.31	1078.68
726.64	1079.31
726.97	1080.44
727.31	1077.58
727.64	1079.10
727.97	1083.06
728.31	1082.50
728.64	1082.57
728.97	1085.59
729.31	1083.57
729.64	1078.21
729.97	1075.08
730.30	1072.71
730.64	1072.85
730.97	1071.59
731.30	1068.10
731.63	1069.16
731.97	1072.27
732.30	1071.90
732.63	1074.19
732.96	1079.46
733.30	1078.47
733.63	1078.64
733.96	1078.21
734.29	1079.48
734.63	1077.42
734.96	1081.30
735.29	1080.88
735.62	1080.34
735.95	1081.47
736.29	1081.14
736.62	1080.79
736.95	1081.63
737.28	1082.54
737.61	1077.40
737.94	1079.22
738.28	1078.28
738.61	1074.96
738.94	1075.73
739.27	1079.69
739.60	1077.54
739.93	1077.58
740.27	1079.64
740.60	1079.03
740.93	1077.09
741.26	1078.17
741.59	1077.77
741.92	1078.19
742.25	1079.78
742.58	1080.86
742.91	1083.29
743.25	1084.21
743.58	1086.27
743.91	1083.88
744.24	1082.17
744.57	1082.45
744.90	1081.54
745.23	1077.40
745.56	1079.50
745.89	1080.95
746.22	1079.97
746.55	1080.09
746.88	1080.41
747.21	1081.26
747.54	1080.51
747.87	1077.86
748.20	1077.58
748.53	1076.95
748.87	1073.70
749.20	1076.72
749.53	1080.67
749.86	1079.20
750.19	1080.65
750.52	1080.18
750.85	1077.93
751.18	1073.51
751.51	1073.21
751.84	1072.69
752.16	1075.13
752.49	1076.34
752.82	1076.32
753.15	1078.85
753.48	1078.17
753.81	1076.15
754.14	1075.45
754.47	1076.18
754.80	1075.20
755.13	1077.70
755.46	1078.21
755.79	1078.96
756.12	1080.70
756.45	1080.02
756.78	1081.96
757.11	1082.40
757.43	1082.38
757.76	1082.92
758.09	1083.69
758.42	1081.14
758.75	1080.72
759.08	1077.86
759.41	1076.04
759.74	1074.45
760.07	1072.13
760.39	1073.65
760.72	1077.75
761.05	1077.18
761.38	1079.31
761.71	1083.50
762.04	1083.60
762.36	1081.91
762.69	1081.05
763.02	1079.74
763.35	1079.36
763.68	1075.71
764.01	1075.45
764.33	1078.73
764.66	1079.34
764.99	1077.07
765.32	1075.50
765.65	1074.10
765.97	1070.98
766.30	1071.01
766.63	1071.75
766.96	1075.85
767.28	1077.93
767.61	1078.59
767.94	1076.65
768.27	1075.80
768.59	1075.90
768.92	1074.03
769.25	1075.62
769.58	1078.12
769.90	1076.72
770.23	1077.37
770.56	1078.40
770.89	1077.70
771.21	1075.90
771.54	1078.12
771.87	1076.51
772.19	1076.06
772.52	1078.82
772.85	1080.63
773.17	1081.96
773.50	1085.07
773.83	1085.70
774.15	1082.08
774.48	1080.74
774.81	1078.43
775.13	1073.14
775.46	1073.56
775.79	1073.35
776.11	1073.56
776.44	1077.16
776.77	1078.50
777.09	1077.65
777.42	1079.41
777.74	1079.55
778.07	1076.76
778.40	1079.27
778.72	1081.61
779.05	1083.39
779.37	1082.33
779.70	1081.02
780.03	1078.64
780.35	1076.37
780.68	1075.17
781.00	1075.90
781.33	1076.81
781.65	1079.06
781.98	1078.80
782.31	1081.05
782.63	1081.80
782.96	1081.68
783.28	1080.88
783.61	1080.20
783.93	1075.08
784.26	1077.02
784.58	1078.43
784.91	1079.69
785.23	1080.84
785.56	1082.19
785.88	1077.86
786.21	1077.07
786.53	1072.62
786.86	1071.64
787.18	1070.09
787.51	1073.84
787.83	1071.82
788.16	1074.31
788.48	1074.59
788.81	1076.27
789.13	1076.65
789.46	1077.98
789.78	1078.26
790.10	1078.43
790.43	1077.96
790.75	1075.03
791.08	1072.64
791.40	1070.98
791.73	1072.92
792.05	1071.90
792.37	1071.33
792.70	1074.49
793.02	1076.60
793.35	1078.19
793.67	1079.13
793.99	1080.30
794.32	1076.97
794.64	1073.14
794.96	1069.34
795.29	1068.50
795.61	1073.09
795.93	1074.68
796.26	1079.41
796.58	1080.63
796.91	1081.63
797.23	1080.77
797.55	1082.45
797.87	1083.55
798.20	1082.94
798.52	1084.51
798.84	1080.70
799.17	1080.88
799.49	1078.26
799.81	1079.24
800.14	1074.80
800.46	1074.56
800.78	1071.01
801.10	1070.42
801.43	1070.35
801.75	1073.02
802.07	1073.70
802.40	1077.16
802.72	1077.16
803.04	1075.31
803.36	1075.36
803.69	1077.02
804.01	1076.58
804.33	1078.85
804.65	1077.65
804.97	1077.37
805.30	1075.13
805.62	1074.17
805.94	1072.81
806.26	1077.79
806.58	1077.63
806.91	1079.13
807.23	1079.46
807.55	1078.43
807.87	1076.67
808.19	1077.84
808.52	1076.18
808.84	1073.25
809.16	1074.61
809.48	1075.15
809.80	1076.79
810.12	1077.40
810.44	1079.81
810.77	1079.76
811.09	1076.55
811.41	1074.96
811.73	1074.38
812.05	1074.42
812.37	1075.73
812.69	1079.50
813.01	1078.10
813.33	1078.33
813.66	1076.95
813.98	1073.56
814.30	1072.13
814.62	1073.63
814.94	1076.97
815.26	1079.34
815.58	1079.27
815.90	1078.28
816.22	1074.84
816.54	1074.63
816.86	1075.71
817.18	1074.89
817.50	1074.38
817.82	1077.56
818.14	1077.33
818.46	1075.90
818.78	1078.26
819.10	1080.65
819.42	1078.73
819.74	1076.81
820.06	1076.81
820.38	1074.80
820.70	1073.93
821.02	1074.35
821.34	1071.26
821.66	1073.18
821.98	1072.50
822.30	1071.68
822.62	1075.50
822.94	1078.14
823.26	1074.42
823.58	1077.51
823.90	1078.40
824.22	1076.18
824.54	1075.92
824.86	1078.36
825.18	1079.03
825.50	1076.74
825.81	1076.13
826.13	1078.73
826.45	1080.93
826.77	1079.78
827.09	1079.29
827.41	1081.09
827.73	1077.54
828.05	1077.21
828.36	1080.06
828.68	1082.45
829.00	1086.01
829.32	1084.98
829.64	1080.56
829.96	1076.34
830.28	1075.08
830.59	1069.37
830.91	1071.80
831.23	1074.52
831.55	1077.07
831.87	1077.40
832.19	1076.58
832.50	1077.02
832.82	1076.08
833.14	1074.31
833.46	1075.31
833.78	1081.49
834.09	1082.26
834.41	1082.61
834.73	1082.24
835.05	1080.11
835.36	1075.87
835.68	1074.40
836.00	1074.87
836.32	1076.51
836.63	1076.18
836.95	1075.85
837.27	1078.71
837.59	1078.19
837.90	1079.64
838.22	1081.68
838.54	1083.93
838.85	1081.37
839.17	1079.78
839.49	1079.24
839.80	1078.21
840.12	1074.63
840.44	1071.85
840.76	1072.92
841.07	1069.84
841.39	1071.40
841.71	1073.63
842.02	1076.97
842.34	1078.00
842.65	1081.00
842.97	1079.76
843.29	1077.61
843.60	1077.84
843.92	1075.15
844.24	1070.35
844.55	1071.54
844.87	1070.63
845.18	1067.59
845.50	1069.62
845.82	1071.17
846.13	1071.52
846.45	1075.22
846.76	1072.69
847.08	1071.17
847.40	1073.65
847.71	1074.73
848.03	1072.50
848.34	1076.88
848.66	1077.51
848.97	1077.86
849.29	1073.44
849.60	1074.70
849.92	1074.47
850.24	1078.33
850.55	1077.86
850.87	1079.71
851.18	1080.44
851.50	1081.23
851.81	1077.00
852.13	1076.65
852.44	1078.52
852.76	1076.25
853.07	1075.66
853.39	1078.17
853.70	1079.17
854.01	1077.91
854.33	1076.11
854.64	1076.93
854.96	1076.55
855.27	1076.46
855.59	1076.65
855.90	1079.78
856.22	1082.73
856.53	1081.96
856.84	1084.58
857.16	1082.54
857.47	1079.62
857.79	1073.93
858.10	1072.32
858.41	1066.93
858.73	1065.11
859.04	1067.03
859.36	1069.44
859.67	1070.94
859.98	1072.85
860.30	1074.47
860.61	1073.93
860.92	1072.62
861.24	1072.76
861.55	1072.32
861.87	1072.32
862.18	1075.43
862.49	1077.51
862.81	1075.43
863.12	1076.90
863.43	1075.83
863.74	1071.73
864.06	1068.64
864.37	1070.63
864.68	1066.54
865.00	1069.34
865.31	1072.67
865.62	1075.38
865.94	1077.98
866.25	1080.37
866.56	1082.40
866.87	1078.78
867.19	1076.48
867.50	1074.70
867.81	1074.61
868.12	1070.70
868.44	1070.37
868.75	1074.28
869.06	1073.04
869.37	1073.51
869.68	1074.28
870.00	1077.84
870.31	1073.56
870.62	1073.35
870.93	1073.42
871.24	1076.81
871.56	1076.18
871.87	1079.29
872.18	1079.36
872.49	1081.70
872.80	1079.13
873.12	1081.05
873.43	1081.12
873.74	1083.53
874.05	1079.85
874.36	1080.09
874.67	1078.10
874.98	1080.32
875.29	1079.69
875.61	1081.44
875.92	1083.79
876.23	1084.00
876.54	1079.85
876.85	1079.76
877.16	1081.89
877.47	1081.82
877.78	1078.26
878.09	1078.19
878.40	1078.33
878.72	1074.33
879.03	1071.38
879.34	1075.20
879.65	1076.34
879.96	1075.59
880.27	1074.82
880.58	1073.09
880.89	1073.32
881.20	1075.27
881.51	1072.78
881.82	1074.19
882.13	1077.47
882.44	1076.01
882.75	1072.69
883.06	1072.69
883.37	1073.28
883.68	1072.83
883.99	1073.37
884.30	1073.98
884.61	1073.98
884.92	1076.55
885.23	1076.88
885.54	1075.29
885.85	1073.72
886.16	1075.76
886.47	1076.27
886.78	1075.43
887.08	1080.91
887.39	1083.76
887.70	1083.15
888.01	1081.61
888.32	1080.32
888.63	1078.24
888.94	1076.62
889.25	1078.92
889.56	1074.66
889.87	1076.69
890.17	1071.90
890.48	1071.38
890.79	1069.98
891.10	1071.10
891.41	1070.35
891.72	1072.71
892.03	1074.61
892.34	1072.29
892.64	1075.97
892.95	1076.32
893.26	1077.04
893.57	1078.99
893.88	1080.91
894.18	1079.24
894.49	1081.87
894.80	1081.19
895.11	1078.31
895.42	1076.32
895.72	1077.91
896.03	1075.99
896.34	1079.71
896.65	1079.03
896.96	1082.69
897.26	1080.13
897.57	1081.05
897.88	1081.09
898.19	1079.53
898.49	1075.90
898.80	1076.32
899.11	1075.87
899.41	1073.56
899.72	1078.05
900.03	1083.18
900.34	1084.93
900.64	1084.72
900.95	1083.27
901.26	1081.98
901.56	1078.52
901.87	1077.21
902.18	1077.07
902.48	1078.68
902.79	1076.60
903.10	1076.67
903.40	1078.85
903.71	1078.87
904.02	1078.43
904.32	1078.40
904.63	1078.33
904.94	1074.59
905.24	1073.14
905.55	1071.78
905.85	1071.33
906.16	1069.84
906.47	1075.34
906.77	1075.64
907.08	1075.24
907.38	1077.47
907.69	1079.97
908.00	1077.33
908.30	1077.61
908.61	1080.13
908.91	1081.16
909.22	1079.69
909.52	1075.52
909.83	1076.86
910.14	1074.66
910.44	1074.03
910.75	1074.00
911.05	1075.08
911.36	1074.77
911.66	1076.37
911.97	1074.49
912.27	1075.78
912.58	1077.65
912.88	1077.23
913.19	1073.86
913.49	1074.21
913.80	1069.70
914.10	1069.09
914.41	1069.60
914.71	1073.86
915.01	1075.36
915.32	1078.33
915.62	1076.97
915.93	1075.22
916.23	1075.71
916.54	1075.83
916.84	1078.85
917.15	1084.02
917.45	1084.46
917.75	1085.40
918.06	1080.79
918.36	1081.09
918.67	1078.31
918.97	1077.96
919.27	1074.84
919.58	1077.30
919.88	1075.05
920.18	1076.65
920.49	1081.82
920.79	1080.25
921.10	1086.48
921.40	1087.20
921.70	1086.45
922.01	1081.23
922.31	1081.07
922.61	1074.59
922.92	1073.65
923.22	1070.77
923.52	1069.72
923.82	1070.37
924.13	1071.61
924.43	1070.77
924.73	1071.94
925.04	1072.41
925.34	1073.46
925.64	1075.03
925.94	1077.21
926.25	1077.09
926.55	1079.81
926.85	1082.12
927.15	1080.91
927.46	1079.24
927.76	1079.95
928.06	1078.99
928.36	1076.48
928.67	1075.50
928.97	1074.56
929.27	1075.76
929.57	1075.15
929.87	1075.69
930.18	1079.46
930.48	1081.09
930.78	1079.08
931.08	1078.92
931.38	1076.18
931.69	1070.72
931.99	1073.91
932.29	1073.77
932.59	1073.77
932.89	1077.54
933.19	1083.48
933.49	1080.39
933.80	1082.31
934.10	1082.19
934.40	1079.24
934.70	1076.53
935.00	1078.66
935.30	1077.82
935.60	1078.99
935.90	1081.12
936.20	1081.84
936.50	1078.38
936.81	1076.65
937.11	1075.69
937.41	1075.17
937.71	1071.54
938.01	1073.25
938.31	1074.12
938.61	1074.12
938.91	1072.57
939.21	1075.10
939.51	1072.90
939.81	1074.77
940.11	1077.37
940.41	1077.16
940.71	1076.48
941.01	1077.07
941.31	1075.64
941.61	1074.05
941.91	1076.27
942.21	1075.83
942.51	1075.13
942.81	1074.84
943.11	1074.21
943.41	1074.28
943.71	1072.95
944.01	1076.41
944.31	1076.44
944.61	1077.68
944.90	1077.40
945.20	1077.04
945.50	1073.32
945.80	1072.69
946.10	1072.43
946.40	1072.76
946.70	1073.53
947.00	1073.09
947.30	1074.68
947.60	1073.67
947.89	1072.53
948.19	1076.01
948.49	1078.26
948.79	1077.18
949.09	1078.47
949.39	1079.06
949.69	1078.33
949.98	1078.78
950.28	1076.27
950.58	1073.30
950.88	1073.18
951.18	1073.21
951.48	1072.01
951.77	1074.89
952.07	1075.76
952.37	1075.22
952.67	1074.26
952.97	1072.83
953.26	1072.20
953.56	1074.54
953.86	1075.08
954.16	1074.19
954.45	1075.55
954.75	1076.08
955.05	1073.09
955.35	1074.38
955.64	1074.70
955.94	1075.83
956.24	1072.11
956.54	1070.16
956.83	1070.12
957.13	1072.67
957.43	1069.93
957.72	1077.11
958.02	1079.29
958.32	1080.13
958.61	1078.38
958.91	1080.48
959.21	1077.09
959.50	1076.90
959.80	1074.98
960.10	1074.47
960.39	1075.34
960.69	1075.97
960.99	1075.45
961.28	1076.65
961.58	1075.01
961.87	1071.78
962.17	1069.74
962.47	1069.30
962.76	1065.97
963.06	1068.31
963.36	1069.18
963.65	1069.32
963.95	1071.97
964.24	1075.38
964.54	1074.31
964.83	1074.49
965.13	1075.15
965.42	1073.28
965.72	1073.14
966.02	1074.80
966.31	1075.01
966.61	1074.91
966.90	1076.06
967.20	1074.75
967.49	1077.14
967.79	1079.38
968.08	1077.91
968.38	1076.08
968.67	1074.96
968.97	1070.09
969.26	1072.53
969.56	1074.05
969.85	1076.55
970.15	1078.00
970.44	1081.42
970.74	1080.30
971.03	1080.02
971.32	1082.69
971.62	1082.12
971.91	1079.95
972.21	1079.01
972.50	1081.51
972.80	1079.06
973.09	1080.09
973.38	1078.28
973.68	1076.93
973.97	1075.85
974.27	1076.11
974.56	1074.59
974.85	1075.87
975.15	1075.87
975.44	1075.66
975.73	1075.99
976.03	1074.84
976.32	1075.15
976.61	1075.87
976.91	1074.89
977.20	1071.38
977.49	1072.78
977.79	1073.86
978.08	1070.26
978.37	1069.13
978.67	1071.47
978.96	1070.91
979.25	1071.29
979.55	1074.07
979.84	1074.54
980.13	1075.15
980.42	1076.81
980.72	1077.11
981.01	1078.92
981.30	1079.15
981.59	1077.11
981.89	1075.59
982.18	1073.23
982.47	1069.72
982.76	1070.07
983.06	1072.83
983.35	1074.31
983.64	1076.90
983.93	1080.67
984.22	1084.93
984.52	1082.64
984.81	1082.40
985.10	1080.74
985.39	1075.36
985.68	1073.46
985.97	1078.33
986.27	1077.96
986.56	1080.13
986.85	1083.27
987.14	1083.57
987.43	1079.60
987.72	1081.44
988.01	1079.03
988.31	1080.13
988.60	1075.94
988.89	1076.18
989.18	1073.23
989.47	1074.49
989.76	1075.55
990.05	1080.63
990.34	1081.26
990.63	1086.03
990.92	1082.99
991.21	1080.25
991.51	1080.65
991.80	1077.77
992.09	1072.29
992.38	1072.20
992.67	1070.02
992.96	1065.39
993.25	1065.60
993.54	1066.82
993.83	1068.43
994.12	1069.39
994.41	1071.94
994.70	1073.91
994.99	1073.44
995.28	1070.16
995.57	1072.43
995.86	1070.00
996.15	1067.99
996.44	1069.98
996.73	1071.05
997.02	1070.26
997.31	1071.47
997.59	1070.61
997.88	1068.97
998.17	1068.36
998.46	1068.90
998.75	1071.54
999.04	1076.90
999.33	1076.72
999.62	1078.54
999.91	1077.96
1000.20	1075.05
1000.49	1070.54
1000.77	1074.19
1001.06	1076.83
1001.35	1075.64
1001.64	1075.80
1001.93	1080.95
1002.22	1078.28
1002.51	1076.06
1002.79	1078.64
1003.08	1078.64
1003.37	1074.17
1003.66	1072.20
1003.95	1074.61
1004.23	1074.17
1004.52	1076.23
1004.81	1075.69
1005.10	1078.43
1005.39	1077.35
1005.67	1079.34
1005.96	1076.95
1006.25	1075.87
1006.54	1077.33
1006.83	1074.84
1007.11	1073.95
1007.40	1075.38
1007.69	1079.67
1007.97	1077.35
1008.26	1078.89
1008.55	1078.03
1008.84	1075.31
1009.12	1076.37
1009.41	1077.44
1009.70	1079.38
1009.98	1077.11
1010.27	1078.19
1010.56	1078.45
1010.85	1078.80
1011.13	1073.53
1011.42	1074.70
1011.71	1073.86
1011.99	1072.29
1012.28	1070.89
1012.56	1073.84
1012.85	1075.34
1013.14	1074.10
1013.42	1070.80
1013.71	1072.13
1014.00	1072.76
1014.28	1074.21
1014.57	1076.55
1014.85	1079.81
1015.14	1080.95
1015.43	1083.79
1015.71	1080.39
1016.00	1080.20
1016.28	1078.61
1016.57	1076.55
1016.85	1072.53
1017.14	1075.38
1017.43	1077.58
1017.71	1078.26
1018.00	1078.89
1018.28	1080.39
1018.57	1080.56
1018.85	1078.10
1019.14	1075.43
1019.42	1076.15
1019.71	1074.52
1019.99	1072.62
1020.28	1071.17
1020.56	1073.00
1020.85	1072.27
1021.13	1073.25
1021.42	1075.69
1021.70	1079.99
1021.99	1079.74
1022.27	1079.06
1022.55	1072.67
1022.84	1076.53
>>>>>End Processed Spectral Data<<<<<
