SpectraSuite Data File
++++++++++++++++++++++++++++++++++++
Date: Mon Aug 26 10:22:15 PDT 2019
User: corrico
Dark Spectrum Present: No
Reference Spectrum Present: No
Number of Sampled Component Spectra: 1
Spectrometers: USB2+H06089
Integration Time (usec): 2000 (USB2+H06089)
Spectra Averaged: 20 (USB2+H06089)
Boxcar Smoothing: 2 (USB2+H06089)
Correct for Electrical Dark: No (USB2+H06089)
Strobe/Lamp Enabled: No (USB2+H06089)
Correct for Detector Non-linearity: No (USB2+H06089)
Correct for Stray Light: No (USB2+H06089)
Number of Pixels in Processed Spectrum: 2048
>>>>>Begin Processed Spectral Data<<<<<
339.70	1024.57
340.07	1024.57
340.45	995.08
340.82	973.08
341.19	955.31
341.57	931.93
341.94	919.50
342.31	909.93
342.69	904.50
343.06	896.87
343.43	894.18
343.81	897.15
344.18	899.09
344.55	906.44
344.93	912.27
345.30	920.04
345.67	922.92
346.04	932.54
346.42	939.98
346.79	946.89
347.16	955.27
347.54	967.86
347.91	973.94
348.28	980.90
348.65	989.41
349.03	998.52
349.40	1005.87
349.77	1018.13
350.14	1027.85
350.52	1038.73
350.89	1044.67
351.26	1052.33
351.63	1053.10
352.01	1059.21
352.38	1061.39
352.75	1064.55
353.12	1066.77
353.50	1071.61
353.87	1072.50
354.24	1075.05
354.61	1075.69
354.98	1077.11
355.36	1078.52
355.73	1081.94
356.10	1084.89
356.47	1087.72
356.84	1088.40
357.22	1088.49
357.59	1086.22
357.96	1086.31
358.33	1089.47
358.70	1089.10
359.08	1089.26
359.45	1089.36
359.82	1085.10
360.19	1081.28
360.56	1081.51
360.94	1081.75
361.31	1078.71
361.68	1079.17
362.05	1079.67
362.42	1078.17
362.79	1076.15
363.16	1077.96
363.54	1076.18
363.91	1073.49
364.28	1074.59
364.65	1077.09
365.02	1076.60
365.39	1078.52
365.76	1078.75
366.14	1078.12
366.51	1075.45
366.88	1075.62
367.25	1070.35
367.62	1074.42
367.99	1074.31
368.36	1075.73
368.73	1073.58
369.10	1080.46
369.48	1076.55
369.85	1076.60
370.22	1077.93
370.59	1082.29
370.96	1079.53
371.33	1079.97
371.70	1079.10
372.07	1078.66
372.44	1077.35
372.81	1077.70
373.18	1078.14
373.55	1078.61
373.93	1076.74
374.30	1076.55
374.67	1073.00
375.04	1072.71
375.41	1074.80
375.78	1073.93
376.15	1071.87
376.52	1076.04
376.89	1078.92
377.26	1076.74
377.63	1081.16
378.00	1086.34
378.37	1089.19
378.74	1088.00
379.11	1086.22
379.48	1087.20
379.85	1083.67
380.22	1082.50
380.59	1080.60
380.96	1082.64
381.33	1078.26
381.70	1079.24
382.07	1077.44
382.44	1077.93
382.81	1078.99
383.18	1080.41
383.55	1082.57
383.92	1082.57
384.29	1086.17
384.66	1083.90
385.03	1084.16
385.40	1082.05
385.77	1082.52
386.14	1080.37
386.51	1081.33
386.88	1080.63
387.25	1077.96
387.62	1078.87
387.99	1081.73
388.36	1087.48
388.73	1088.35
389.10	1091.37
389.46	1092.30
389.83	1091.18
390.20	1087.23
390.57	1087.74
390.94	1087.27
391.31	1088.07
391.68	1086.41
392.05	1084.86
392.42	1085.68
392.79	1085.96
393.16	1083.18
393.53	1081.84
393.89	1084.35
394.26	1080.32
394.63	1079.60
395.00	1081.40
395.37	1084.56
395.74	1084.63
396.11	1085.42
396.48	1084.70
396.84	1085.07
397.21	1086.69
397.58	1087.39
397.95	1089.87
398.32	1094.08
398.69	1095.72
399.06	1094.43
399.42	1094.86
399.79	1095.11
400.16	1095.37
400.53	1095.44
400.90	1096.19
401.27	1094.86
401.64	1097.80
402.00	1096.12
402.37	1096.56
402.74	1096.07
403.11	1097.43
403.48	1093.36
403.84	1090.97
404.21	1090.32
404.58	1089.99
404.95	1089.68
405.32	1089.82
405.68	1093.24
406.05	1091.16
406.42	1091.49
406.79	1091.79
407.16	1094.76
407.52	1095.25
407.89	1096.63
408.26	1096.52
408.63	1097.48
408.99	1096.28
409.36	1097.38
409.73	1094.72
410.10	1096.66
410.47	1097.83
410.83	1100.00
411.20	1096.94
411.57	1102.86
411.94	1101.83
412.30	1100.19
412.67	1100.47
413.04	1102.53
413.40	1100.71
413.77	1099.77
414.14	1101.34
414.51	1100.10
414.87	1099.47
415.24	1103.31
415.61	1103.56
415.97	1101.67
416.34	1103.94
416.71	1104.17
417.08	1101.20
417.44	1102.25
417.81	1107.17
418.18	1107.33
418.54	1110.89
418.91	1114.10
419.28	1117.86
419.64	1116.25
420.01	1117.32
420.38	1116.67
420.74	1114.91
421.11	1115.20
421.48	1119.85
421.84	1119.74
422.21	1122.75
422.58	1125.94
422.94	1127.06
423.31	1126.94
423.68	1133.36
424.04	1135.14
424.41	1137.95
424.77	1143.00
425.14	1147.40
425.51	1152.27
425.87	1156.25
426.24	1156.53
426.61	1159.88
426.97	1166.78
427.34	1172.00
427.70	1179.23
428.07	1190.98
428.44	1197.00
428.80	1201.56
429.17	1207.30
429.53	1215.86
429.90	1225.48
430.27	1237.35
430.63	1248.07
431.00	1261.34
431.36	1275.90
431.73	1288.54
432.09	1302.70
432.46	1319.24
432.83	1332.91
433.19	1348.27
433.56	1368.28
433.92	1391.33
434.29	1415.70
434.65	1443.92
435.02	1471.28
435.38	1498.83
435.75	1525.19
436.11	1555.19
436.48	1586.18
436.84	1623.86
437.21	1660.63
437.57	1698.20
437.94	1741.66
438.30	1785.03
438.67	1832.24
439.03	1886.85
439.40	1945.45
439.76	2001.16
440.13	2065.22
440.49	2132.37
440.86	2201.70
441.22	2285.72
441.59	2364.46
441.95	2451.13
442.32	2543.06
442.68	2643.56
443.05	2738.03
443.41	2847.24
443.78	2951.02
444.14	3058.96
444.51	3167.19
444.87	3306.33
445.24	3449.43
445.60	3606.63
445.96	3771.68
446.33	3953.21
446.69	4121.36
447.06	4315.06
447.42	4513.02
447.79	4717.51
448.15	4952.32
448.51	5196.15
448.88	5461.73
449.24	5722.96
449.61	6022.90
449.97	6319.98
450.33	6628.05
450.70	6918.74
451.06	7265.91
451.43	7585.82
451.79	7971.00
452.15	8389.95
452.52	8864.52
452.88	9359.57
453.24	9929.49
453.61	10552.91
453.97	11156.33
454.34	11744.53
454.70	12434.12
455.06	13108.12
455.43	13745.99
455.79	14363.61
456.15	15102.05
456.52	15790.21
456.88	16619.77
457.24	17413.45
457.61	18355.30
457.97	19218.40
458.33	20085.40
458.70	20926.99
459.06	21743.69
459.42	22610.72
459.79	23410.62
460.15	24327.62
460.51	25189.22
460.88	26142.66
461.24	26959.84
461.60	27942.39
461.96	28845.46
462.33	29749.47
462.69	30612.52
463.05	31554.82
463.42	32399.71
463.78	33193.31
464.14	33866.01
464.50	34579.12
464.87	35120.58
465.23	35486.45
465.59	35822.46
465.95	36060.84
466.32	36249.80
466.68	36461.99
467.04	36580.26
467.40	36704.19
467.77	36928.29
468.13	36966.89
468.49	36895.90
468.85	36825.52
469.22	36652.93
469.58	36263.93
469.94	35978.60
470.30	35666.91
470.66	35282.19
471.03	34709.47
471.39	34296.74
471.75	33607.87
472.11	32929.75
472.47	32491.97
472.84	32072.62
473.20	31508.76
473.56	31175.58
473.92	30677.14
474.28	30125.41
474.65	29641.64
475.01	29186.53
475.37	28607.48
475.73	28160.25
476.09	27636.30
476.45	27121.36
476.81	26611.14
477.18	26081.10
477.54	25618.29
477.90	25219.41
478.26	24718.56
478.62	24279.78
478.98	23927.91
479.34	23554.19
479.71	23070.80
480.07	22692.36
480.43	22330.58
480.79	21952.21
481.15	21611.90
481.51	21323.03
481.87	21064.92
482.23	20729.61
482.59	20414.67
482.96	20071.64
483.32	19742.91
483.68	19348.30
484.04	18996.02
484.40	18609.06
484.76	18248.76
485.12	17873.83
485.48	17546.25
485.84	17205.02
486.20	16852.70
486.56	16462.18
486.92	16136.17
487.28	15767.30
487.64	15378.65
488.00	15040.42
488.37	14691.66
488.73	14282.02
489.09	13875.12
489.45	13525.65
489.81	13162.26
490.17	12813.01
490.53	12498.58
490.89	12187.15
491.25	11865.16
491.61	11547.27
491.97	11230.94
492.33	10896.50
492.69	10584.86
493.05	10266.55
493.41	9961.23
493.77	9676.80
494.13	9417.68
494.49	9152.41
494.85	8903.00
495.21	8658.58
495.57	8416.40
495.93	8171.04
496.29	7945.16
496.64	7737.18
497.00	7532.05
497.36	7337.81
497.72	7154.22
498.08	6973.81
498.44	6795.56
498.80	6615.03
499.16	6441.95
499.52	6269.73
499.88	6121.06
500.24	5974.52
500.60	5835.73
500.96	5707.09
501.32	5578.90
501.68	5449.94
502.03	5317.25
502.39	5184.61
502.75	5048.02
503.11	4916.08
503.47	4779.70
503.83	4647.13
504.19	4520.63
504.55	4395.76
504.91	4292.57
505.26	4196.00
505.62	4110.80
505.98	4019.68
506.34	3932.50
506.70	3838.83
507.06	3751.06
507.42	3653.58
507.78	3572.87
508.13	3493.62
508.49	3411.52
508.85	3333.93
509.21	3264.72
509.57	3190.62
509.93	3118.34
510.28	3052.32
510.64	2990.99
511.00	2932.18
511.36	2883.19
511.72	2834.51
512.07	2780.65
512.43	2728.71
512.79	2673.15
513.15	2615.36
513.51	2557.29
513.86	2507.88
514.22	2458.31
514.58	2417.77
514.94	2377.59
515.30	2343.53
515.65	2309.48
516.01	2274.93
516.37	2236.55
516.73	2204.46
517.08	2174.57
517.44	2136.37
517.80	2103.74
518.16	2074.04
518.51	2043.33
518.87	2008.32
519.23	1982.43
519.59	1957.23
519.94	1933.45
520.30	1907.26
520.66	1883.66
521.01	1861.17
521.37	1837.62
521.73	1815.83
522.09	1794.30
522.44	1772.56
522.80	1751.21
523.16	1729.14
523.51	1708.03
523.87	1688.39
524.23	1669.11
524.58	1649.26
524.94	1630.16
525.30	1609.87
525.65	1590.09
526.01	1573.33
526.37	1557.18
526.72	1544.05
527.08	1531.23
527.44	1518.75
527.79	1507.16
528.15	1496.21
528.51	1482.40
528.86	1470.63
529.22	1460.00
529.58	1446.59
529.93	1434.23
530.29	1423.75
530.65	1413.52
531.00	1403.06
531.36	1391.61
531.71	1379.46
532.07	1369.42
532.43	1357.46
532.78	1351.87
533.14	1347.38
533.49	1341.15
533.85	1338.53
534.21	1337.36
534.56	1327.76
534.92	1318.63
535.27	1312.64
535.63	1303.82
535.98	1295.11
536.34	1291.06
536.69	1284.63
537.05	1280.65
537.41	1272.92
537.76	1265.25
538.12	1260.00
538.47	1256.54
538.83	1250.62
539.18	1248.09
539.54	1244.93
539.89	1238.96
540.25	1233.53
540.60	1228.20
540.96	1223.91
541.31	1216.56
541.67	1212.49
542.02	1211.39
542.38	1207.06
542.73	1201.96
543.09	1200.81
543.44	1196.97
543.80	1194.94
544.15	1196.81
544.51	1197.42
544.86	1197.84
545.22	1195.33
545.57	1191.80
545.93	1186.89
546.28	1182.79
546.64	1178.79
546.99	1175.98
547.35	1171.70
547.70	1166.17
548.05	1163.55
548.41	1159.29
548.76	1158.75
549.12	1158.07
549.47	1158.00
549.83	1157.49
550.18	1159.13
550.53	1155.92
550.89	1151.29
551.24	1151.29
551.60	1149.37
551.95	1145.69
552.30	1144.78
552.66	1141.74
553.01	1140.80
553.37	1137.17
553.72	1135.46
554.07	1135.58
554.43	1141.29
554.78	1139.91
555.13	1137.55
555.49	1136.77
555.84	1135.21
556.19	1129.75
556.55	1124.56
556.90	1125.45
557.26	1127.13
557.61	1124.14
557.96	1123.62
558.32	1126.87
558.67	1127.83
559.02	1126.01
559.37	1125.03
559.73	1123.48
560.08	1119.31
560.43	1115.12
560.79	1112.69
561.14	1110.65
561.49	1109.11
561.85	1113.39
562.20	1111.66
562.55	1110.12
562.90	1108.03
563.26	1109.37
563.61	1103.56
563.96	1103.96
564.32	1104.50
564.67	1109.04
565.02	1111.05
565.37	1115.57
565.73	1114.38
566.08	1112.90
566.43	1108.85
566.78	1104.22
567.14	1102.44
567.49	1101.67
567.84	1101.85
568.19	1100.50
568.54	1100.12
568.90	1099.89
569.25	1103.19
569.60	1099.96
569.95	1098.98
570.31	1099.56
570.66	1095.23
571.01	1091.84
571.36	1093.38
571.71	1096.35
572.06	1095.77
572.42	1097.13
572.77	1095.86
573.12	1098.34
573.47	1096.17
573.82	1097.59
574.18	1102.65
574.53	1106.30
574.88	1102.18
575.23	1105.81
575.58	1101.81
575.93	1095.63
576.28	1093.64
576.64	1094.95
576.99	1092.82
577.34	1095.21
577.69	1095.96
578.04	1097.08
578.39	1099.72
578.74	1100.26
579.09	1099.72
579.44	1099.44
579.80	1099.65
580.15	1098.11
580.50	1097.03
580.85	1097.06
581.20	1099.61
581.55	1097.59
581.90	1097.69
582.25	1097.17
582.60	1096.47
582.95	1092.89
583.30	1093.08
583.65	1092.47
584.00	1091.51
584.35	1091.27
584.71	1093.10
585.06	1091.37
585.41	1089.12
585.76	1092.52
586.11	1092.21
586.46	1092.14
586.81	1093.47
587.16	1096.33
587.51	1094.74
587.86	1095.46
588.21	1095.11
588.56	1093.22
588.91	1090.60
589.26	1091.16
589.61	1092.12
589.96	1093.45
590.31	1095.67
590.66	1092.73
591.01	1090.20
591.36	1087.48
591.71	1086.13
592.06	1084.39
592.41	1089.22
592.76	1089.78
593.10	1090.53
593.45	1090.83
593.80	1089.33
594.15	1088.68
594.50	1091.93
594.85	1093.19
595.20	1091.46
595.55	1094.48
595.90	1093.78
596.25	1090.90
596.60	1093.26
596.95	1092.00
597.30	1090.71
597.64	1101.78
597.99	1103.23
598.34	1098.02
598.69	1102.21
599.04	1102.84
599.39	1089.50
599.74	1086.83
600.09	1088.14
600.44	1082.80
600.78	1081.16
601.13	1086.87
601.48	1085.73
601.83	1083.50
602.18	1085.21
602.53	1087.58
602.88	1084.46
603.22	1088.02
603.57	1089.87
603.92	1091.51
604.27	1087.69
604.62	1086.97
604.97	1084.07
605.31	1083.41
605.66	1081.30
606.01	1082.33
606.36	1081.82
606.71	1082.47
607.05	1085.61
607.40	1085.84
607.75	1088.02
608.10	1093.33
608.44	1093.71
608.79	1090.13
609.14	1091.04
609.49	1092.16
609.84	1087.34
610.18	1084.89
610.53	1084.49
610.88	1086.27
611.23	1082.29
611.57	1081.16
611.92	1085.31
612.27	1088.04
612.62	1087.55
612.96	1091.16
613.31	1094.01
613.66	1089.05
614.00	1087.97
614.35	1088.21
614.70	1086.27
615.05	1082.36
615.39	1086.87
615.74	1084.84
616.09	1082.90
616.43	1084.46
616.78	1087.20
617.13	1082.05
617.47	1084.11
617.82	1079.95
618.17	1078.73
618.51	1078.96
618.86	1083.36
619.21	1083.57
619.55	1088.93
619.90	1089.52
620.25	1086.59
620.59	1084.07
620.94	1082.08
621.29	1082.40
621.63	1079.41
621.98	1081.02
622.32	1083.43
622.67	1084.39
623.02	1081.23
623.36	1083.08
623.71	1082.71
624.05	1081.21
624.40	1079.99
624.75	1079.88
625.09	1078.00
625.44	1080.06
625.78	1083.79
626.13	1087.25
626.48	1088.42
626.82	1092.42
627.17	1091.98
627.51	1089.50
627.86	1087.93
628.20	1084.72
628.55	1082.31
628.89	1080.32
629.24	1079.95
629.58	1081.87
629.93	1086.80
630.28	1090.48
630.62	1091.39
630.97	1088.04
631.31	1084.79
631.66	1083.83
632.00	1082.12
632.35	1084.37
632.69	1087.67
633.04	1089.05
633.38	1085.99
633.73	1086.15
634.07	1085.28
634.42	1083.20
634.76	1082.08
635.11	1082.85
635.45	1081.09
635.79	1080.34
636.14	1080.13
636.48	1081.42
636.83	1082.38
637.17	1081.96
637.52	1082.01
637.86	1084.23
638.21	1085.94
638.55	1086.27
638.89	1086.76
639.24	1084.30
639.58	1085.99
639.93	1082.64
640.27	1082.26
640.61	1083.95
640.96	1085.91
641.30	1084.67
641.65	1085.00
641.99	1086.38
642.33	1084.70
642.68	1085.10
643.02	1082.87
643.37	1083.76
643.71	1083.13
644.05	1084.67
644.40	1083.97
644.74	1088.19
645.08	1087.86
645.43	1086.55
645.77	1083.79
646.11	1081.80
646.46	1077.04
646.80	1075.73
647.14	1078.03
647.49	1077.49
647.83	1076.95
648.17	1079.34
648.52	1080.16
648.86	1078.99
649.20	1080.67
649.55	1084.00
649.89	1083.11
650.23	1080.63
650.57	1081.94
650.92	1083.76
651.26	1083.71
651.60	1083.04
651.95	1085.84
652.29	1084.51
652.63	1083.88
652.97	1083.06
653.32	1084.14
653.66	1085.35
654.00	1084.79
654.34	1084.65
654.69	1083.86
655.03	1085.19
655.37	1082.69
655.71	1082.73
656.05	1081.94
656.40	1083.25
656.74	1079.62
657.08	1080.37
657.42	1081.16
657.76	1081.23
658.11	1080.95
658.45	1082.52
658.79	1087.44
659.13	1087.67
659.47	1086.13
659.82	1083.36
660.16	1084.86
660.50	1080.32
660.84	1080.51
661.18	1081.05
661.52	1081.68
661.87	1079.10
662.21	1079.38
662.55	1080.39
662.89	1080.02
663.23	1081.80
663.57	1085.14
663.91	1085.89
664.25	1084.96
664.60	1085.35
664.94	1086.17
665.28	1087.39
665.62	1086.38
665.96	1083.97
666.30	1083.97
666.64	1085.63
666.98	1083.11
667.32	1082.52
667.66	1084.70
668.01	1084.30
668.35	1081.19
668.69	1078.82
669.03	1080.23
669.37	1079.10
669.71	1080.60
670.05	1078.52
670.39	1081.40
670.73	1078.33
671.07	1079.27
671.41	1079.90
671.75	1081.19
672.09	1082.03
672.43	1084.70
672.77	1084.79
673.11	1083.53
673.45	1085.54
673.79	1082.69
674.13	1081.73
674.47	1081.14
674.81	1081.82
675.15	1082.15
675.49	1082.01
675.83	1083.95
676.17	1084.70
676.51	1083.50
676.85	1080.67
677.19	1086.34
677.53	1083.88
677.87	1083.69
678.21	1082.92
678.55	1084.86
678.89	1080.84
679.23	1081.35
679.57	1079.81
679.90	1079.24
680.24	1077.61
680.58	1076.86
680.92	1073.67
681.26	1071.75
681.60	1075.31
681.94	1077.61
682.28	1078.94
682.62	1084.07
682.96	1089.94
683.29	1090.34
683.63	1091.88
683.97	1091.23
684.31	1090.74
684.65	1087.20
684.99	1083.50
685.33	1082.08
685.67	1078.71
686.00	1079.06
686.34	1078.12
686.68	1076.51
687.02	1074.84
687.36	1078.80
687.70	1076.86
688.03	1079.08
688.37	1084.18
688.71	1087.39
689.05	1087.39
689.39	1088.54
689.72	1089.38
690.06	1086.24
690.40	1082.87
690.74	1080.70
691.08	1081.23
691.41	1078.07
691.75	1078.57
692.09	1077.33
692.43	1079.64
692.76	1079.67
693.10	1080.72
693.44	1078.87
693.78	1079.34
694.11	1076.67
694.45	1076.95
694.79	1078.45
695.13	1080.30
695.46	1082.87
695.80	1084.77
696.14	1083.08
696.48	1081.12
696.81	1083.81
697.15	1080.46
697.49	1081.16
697.82	1082.99
698.16	1083.64
698.50	1082.85
698.83	1086.62
699.17	1087.67
699.51	1084.60
699.84	1087.23
700.18	1086.20
700.52	1085.28
700.85	1084.56
701.19	1087.18
701.53	1085.94
701.86	1083.90
702.20	1082.73
702.54	1079.36
702.87	1080.77
703.21	1082.80
703.55	1084.77
703.88	1087.60
704.22	1087.65
704.55	1084.84
704.89	1080.56
705.23	1081.26
705.56	1079.08
705.90	1080.13
706.23	1080.95
706.57	1081.75
706.91	1079.29
707.24	1079.99
707.58	1081.66
707.91	1081.16
708.25	1080.60
708.58	1082.69
708.92	1083.04
709.26	1082.05
709.59	1079.62
709.93	1081.44
710.26	1081.19
710.60	1082.71
710.93	1085.84
711.27	1088.28
711.60	1088.30
711.94	1086.83
712.27	1083.60
712.61	1079.34
712.94	1080.27
713.28	1079.85
713.61	1081.89
713.95	1082.29
714.28	1085.31
714.62	1083.08
714.95	1083.29
715.29	1082.99
715.62	1082.33
715.96	1077.68
716.29	1082.24
716.63	1082.80
716.96	1084.23
717.29	1084.65
717.63	1085.33
717.96	1084.28
718.30	1082.43
718.63	1080.27
718.97	1079.99
719.30	1084.16
719.63	1083.11
719.97	1082.50
720.30	1082.61
720.64	1080.41
720.97	1078.12
721.30	1078.21
721.64	1081.02
721.97	1080.23
722.31	1083.36
722.64	1083.20
722.97	1082.97
723.31	1079.57
723.64	1078.40
723.97	1078.66
724.31	1079.43
724.64	1079.15
724.98	1081.44
725.31	1084.18
725.64	1083.48
725.98	1083.67
726.31	1082.10
726.64	1079.08
726.97	1080.46
727.31	1082.17
727.64	1081.58
727.97	1082.71
728.31	1085.38
728.64	1084.21
728.97	1083.22
729.31	1082.57
729.64	1082.17
729.97	1082.94
730.30	1081.89
730.64	1080.53
730.97	1081.30
731.30	1080.25
731.63	1080.23
731.97	1083.13
732.30	1086.38
732.63	1084.39
732.96	1084.21
733.30	1081.23
733.63	1079.57
733.96	1078.36
734.29	1078.45
734.63	1080.32
734.96	1082.71
735.29	1080.06
735.62	1079.03
735.95	1081.05
736.29	1083.81
736.62	1083.11
736.95	1083.32
737.28	1081.37
737.61	1080.98
737.94	1078.82
738.28	1078.12
738.61	1080.51
738.94	1083.48
739.27	1082.10
739.60	1082.52
739.93	1082.22
740.27	1082.31
740.60	1080.72
740.93	1085.42
741.26	1080.79
741.59	1082.33
741.92	1082.61
742.25	1083.50
742.58	1079.99
742.91	1083.29
743.25	1081.98
743.58	1081.84
743.91	1081.35
744.24	1083.86
744.57	1082.15
744.90	1085.89
745.23	1085.17
745.56	1085.70
745.89	1084.37
746.22	1085.87
746.55	1081.82
746.88	1080.30
747.21	1079.81
747.54	1081.66
747.87	1082.03
748.20	1080.23
748.53	1078.92
748.87	1079.08
749.20	1074.91
749.53	1076.27
749.86	1076.90
750.19	1081.12
750.52	1081.19
750.85	1082.69
751.18	1079.34
751.51	1083.20
751.84	1082.85
752.16	1084.49
752.49	1082.90
752.82	1084.28
753.15	1082.73
753.48	1082.87
753.81	1083.08
754.14	1083.74
754.47	1084.25
754.80	1083.93
755.13	1082.08
755.46	1081.40
755.79	1082.94
756.12	1083.64
756.45	1083.46
756.78	1085.54
757.11	1085.26
757.43	1083.25
757.76	1077.70
758.09	1073.65
758.42	1069.06
758.75	1068.62
759.08	1069.41
759.41	1075.17
759.74	1079.27
760.07	1082.94
760.39	1080.70
760.72	1078.54
761.05	1078.64
761.38	1079.81
761.71	1078.52
762.04	1080.23
762.36	1082.69
762.69	1084.32
763.02	1081.16
763.35	1081.94
763.68	1082.64
764.01	1080.84
764.33	1077.37
764.66	1079.90
764.99	1081.40
765.32	1079.90
765.65	1081.89
765.97	1082.19
766.30	1081.12
766.63	1078.80
766.96	1079.69
767.28	1081.28
767.61	1082.43
767.94	1084.39
768.27	1082.83
768.59	1082.40
768.92	1082.10
769.25	1080.46
769.58	1078.07
769.90	1078.17
770.23	1082.19
770.56	1080.91
770.89	1080.88
771.21	1083.15
771.54	1084.16
771.87	1081.42
772.19	1079.97
772.52	1079.03
772.85	1075.22
773.17	1076.18
773.50	1076.74
773.83	1079.17
774.15	1079.41
774.48	1081.21
774.81	1083.11
775.13	1082.26
775.46	1080.06
775.79	1082.54
776.11	1085.19
776.44	1083.13
776.77	1081.94
777.09	1082.85
777.42	1082.61
777.74	1081.87
778.07	1080.74
778.40	1083.27
778.72	1085.49
779.05	1085.00
779.37	1083.71
779.70	1088.47
780.03	1083.50
780.35	1079.06
780.68	1078.82
781.00	1075.73
781.33	1070.44
781.65	1071.97
781.98	1073.95
782.31	1073.28
782.63	1076.65
782.96	1078.31
783.28	1075.17
783.61	1078.05
783.93	1075.52
784.26	1076.44
784.58	1074.68
784.91	1082.31
785.23	1078.50
785.56	1083.01
785.88	1079.88
786.21	1081.14
786.53	1077.70
786.86	1080.65
787.18	1079.10
787.51	1082.50
787.83	1083.93
788.16	1083.60
788.48	1079.46
788.81	1079.62
789.13	1078.85
789.46	1080.56
789.78	1077.42
790.10	1078.28
790.43	1078.66
790.75	1080.84
791.08	1077.28
791.40	1081.30
791.73	1083.25
792.05	1080.51
792.37	1077.72
792.70	1076.65
793.02	1078.31
793.35	1077.98
793.67	1080.88
793.99	1079.36
794.32	1080.16
794.64	1076.72
794.96	1077.09
795.29	1076.76
795.61	1077.49
795.93	1078.57
796.26	1077.68
796.58	1073.65
796.91	1071.85
797.23	1073.93
797.55	1073.74
797.87	1076.67
798.20	1078.43
798.52	1080.74
798.84	1079.74
799.17	1080.30
799.49	1081.16
799.81	1083.76
800.14	1084.04
800.46	1083.25
800.78	1083.74
801.10	1085.77
801.43	1084.60
801.75	1081.82
802.07	1080.84
802.40	1078.96
802.72	1074.59
803.04	1074.52
803.36	1074.19
803.69	1076.86
804.01	1075.50
804.33	1077.79
804.65	1079.10
804.97	1079.67
805.30	1079.01
805.62	1079.76
805.94	1077.84
806.26	1074.31
806.58	1075.90
806.91	1073.32
807.23	1075.71
807.55	1075.97
807.87	1078.26
808.19	1076.11
808.52	1076.76
808.84	1074.52
809.16	1073.11
809.48	1072.41
809.80	1075.52
810.12	1074.26
810.44	1074.59
810.77	1076.20
811.09	1075.62
811.41	1073.65
811.73	1074.82
812.05	1076.27
812.37	1077.91
812.69	1077.93
813.01	1076.18
813.33	1078.52
813.66	1077.14
813.98	1075.92
814.30	1079.43
814.62	1081.77
814.94	1081.44
815.26	1081.70
815.58	1082.45
815.90	1081.44
816.22	1080.32
816.54	1082.01
816.86	1083.48
817.18	1082.64
817.50	1081.23
817.82	1083.22
818.14	1084.84
818.46	1084.74
818.78	1086.64
819.10	1087.60
819.42	1087.11
819.74	1083.41
820.06	1084.67
820.38	1080.56
820.70	1082.76
821.02	1081.98
821.34	1082.76
821.66	1078.82
821.98	1078.43
822.30	1075.55
822.62	1076.44
822.94	1078.19
823.26	1080.56
823.58	1083.50
823.90	1084.65
824.22	1082.61
824.54	1079.01
824.86	1083.41
825.18	1083.13
825.50	1081.12
825.81	1084.00
826.13	1087.23
826.45	1081.87
826.77	1080.65
827.09	1080.86
827.41	1079.57
827.73	1077.72
828.05	1075.20
828.36	1077.11
828.68	1077.51
829.00	1079.20
829.32	1077.51
829.64	1080.48
829.96	1080.77
830.28	1078.47
830.59	1077.37
830.91	1076.65
831.23	1076.79
831.55	1077.21
831.87	1078.26
832.19	1076.15
832.50	1078.61
832.82	1080.16
833.14	1081.40
833.46	1080.25
833.78	1082.47
834.09	1084.39
834.41	1083.62
834.73	1078.71
835.05	1080.41
835.36	1082.03
835.68	1082.29
836.00	1080.13
836.32	1081.09
836.63	1081.44
836.95	1079.27
837.27	1077.02
837.59	1077.25
837.90	1078.68
838.22	1079.85
838.54	1080.84
838.85	1081.56
839.17	1082.12
839.49	1080.23
839.80	1079.46
840.12	1078.36
840.44	1078.33
840.76	1077.91
841.07	1077.70
841.39	1079.64
841.71	1075.57
842.02	1072.97
842.34	1073.16
842.65	1075.64
842.97	1072.18
843.29	1077.61
843.60	1079.99
843.92	1081.37
844.24	1077.93
844.55	1083.01
844.87	1081.51
845.18	1081.87
845.50	1079.34
845.82	1082.83
846.13	1081.66
846.45	1080.11
846.76	1081.70
847.08	1084.46
847.40	1084.30
847.71	1083.71
848.03	1084.44
848.34	1081.73
848.66	1079.92
848.97	1078.26
849.29	1075.52
849.60	1076.90
849.92	1077.49
850.24	1081.19
850.55	1081.82
850.87	1081.49
851.18	1081.44
851.50	1081.09
851.81	1081.05
852.13	1080.39
852.44	1082.22
852.76	1081.98
853.07	1080.30
853.39	1077.91
853.70	1078.33
854.01	1077.82
854.33	1078.75
854.64	1080.39
854.96	1082.87
855.27	1084.39
855.59	1084.11
855.90	1081.37
856.22	1081.21
856.53	1075.69
856.84	1073.44
857.16	1073.74
857.47	1077.25
857.79	1075.38
858.10	1076.37
858.41	1079.67
858.73	1078.82
859.04	1075.22
859.36	1077.30
859.67	1077.75
859.98	1074.14
860.30	1072.97
860.61	1073.60
860.92	1073.51
861.24	1078.26
861.55	1077.98
861.87	1081.00
862.18	1081.75
862.49	1081.37
862.81	1080.32
863.12	1081.77
863.43	1082.19
863.74	1084.16
864.06	1083.41
864.37	1079.90
864.68	1081.51
865.00	1078.24
865.31	1077.72
865.62	1080.58
865.94	1082.59
866.25	1082.38
866.56	1083.55
866.87	1079.53
867.19	1076.23
867.50	1074.96
867.81	1071.90
868.12	1074.94
868.44	1076.79
868.75	1075.31
869.06	1074.31
869.37	1076.15
869.68	1073.14
870.00	1075.52
870.31	1078.94
870.62	1080.06
870.93	1080.30
871.24	1082.24
871.56	1080.46
871.87	1079.83
872.18	1078.21
872.49	1076.69
872.80	1074.89
873.12	1073.98
873.43	1075.87
873.74	1080.23
874.05	1080.79
874.36	1077.44
874.67	1078.40
874.98	1076.55
875.29	1072.34
875.61	1074.91
875.92	1079.95
876.23	1078.75
876.54	1078.59
876.85	1081.28
877.16	1080.70
877.47	1079.99
877.78	1081.26
878.09	1083.32
878.40	1083.43
878.72	1082.43
879.03	1083.55
879.34	1085.87
879.65	1084.23
879.96	1082.99
880.27	1084.79
880.58	1083.25
880.89	1079.36
881.20	1080.56
881.51	1080.46
881.82	1077.28
882.13	1077.18
882.44	1079.97
882.75	1078.43
883.06	1077.30
883.37	1077.07
883.68	1075.62
883.99	1074.87
884.30	1074.56
884.61	1076.23
884.92	1075.38
885.23	1077.35
885.54	1076.27
885.85	1078.75
886.16	1078.07
886.47	1080.23
886.78	1079.99
887.08	1083.39
887.39	1081.63
887.70	1079.92
888.01	1081.42
888.32	1081.16
888.63	1080.86
888.94	1082.61
889.25	1087.06
889.56	1084.30
889.87	1084.30
890.17	1080.09
890.48	1082.40
890.79	1079.74
891.10	1081.70
891.41	1084.46
891.72	1089.99
892.03	1085.31
892.34	1085.12
892.64	1083.04
892.95	1080.13
893.26	1074.28
893.57	1073.53
893.88	1070.70
894.18	1072.11
894.49	1072.97
894.80	1076.51
895.11	1077.04
895.42	1078.26
895.72	1078.14
896.03	1078.21
896.34	1079.41
896.65	1077.07
896.96	1080.27
897.26	1078.12
897.57	1079.76
897.88	1076.06
898.19	1077.40
898.49	1078.71
898.80	1083.64
899.11	1078.40
899.41	1082.01
899.72	1081.77
900.03	1079.36
900.34	1075.76
900.64	1081.00
900.95	1080.48
901.26	1081.61
901.56	1079.15
901.87	1082.29
902.18	1078.45
902.48	1076.51
902.79	1077.21
903.10	1074.66
903.40	1071.40
903.71	1074.17
904.02	1074.00
904.32	1072.69
904.63	1079.57
904.94	1081.09
905.24	1081.09
905.55	1078.19
905.85	1078.75
906.16	1075.41
906.47	1076.39
906.77	1074.52
907.08	1077.40
907.38	1079.06
907.69	1080.27
908.00	1078.36
908.30	1078.07
908.61	1077.18
908.91	1076.18
909.22	1074.38
909.52	1072.67
909.83	1074.82
910.14	1077.37
910.44	1079.20
910.75	1081.94
911.05	1082.90
911.36	1080.04
911.66	1076.04
911.97	1075.99
912.27	1073.35
912.58	1073.65
912.88	1076.53
913.19	1079.81
913.49	1079.41
913.80	1082.36
914.10	1083.93
914.41	1080.53
914.71	1080.20
915.01	1080.70
915.32	1077.58
915.62	1077.77
915.93	1079.10
916.23	1078.64
916.54	1077.21
916.84	1079.22
917.15	1076.08
917.45	1077.63
917.75	1078.92
918.06	1079.08
918.36	1077.25
918.67	1077.72
918.97	1076.01
919.27	1074.03
919.58	1073.37
919.88	1074.47
920.18	1078.00
920.49	1081.42
920.79	1082.90
921.10	1082.59
921.40	1082.52
921.70	1079.01
922.01	1078.52
922.31	1078.33
922.61	1078.10
922.92	1080.18
923.22	1081.82
923.52	1080.63
923.82	1080.88
924.13	1079.92
924.43	1080.30
924.73	1081.40
925.04	1080.79
925.34	1080.86
925.64	1081.84
925.94	1080.67
926.25	1079.60
926.55	1080.60
926.85	1079.60
927.15	1080.88
927.46	1079.17
927.76	1080.16
928.06	1078.10
928.36	1078.43
928.67	1080.95
928.97	1082.26
929.27	1083.01
929.57	1085.17
929.87	1084.81
930.18	1080.53
930.48	1083.90
930.78	1082.33
931.08	1081.12
931.38	1082.31
931.69	1084.42
931.99	1080.65
932.29	1079.22
932.59	1079.10
932.89	1076.69
933.19	1074.87
933.49	1075.22
933.80	1077.18
934.10	1076.18
934.40	1079.29
934.70	1082.22
935.00	1080.02
935.30	1078.99
935.60	1082.10
935.90	1078.33
936.20	1074.63
936.50	1077.51
936.81	1078.17
937.11	1076.81
937.41	1078.87
937.71	1082.45
938.01	1081.40
938.31	1080.04
938.61	1080.34
938.91	1079.64
939.21	1077.07
939.51	1077.93
939.81	1080.67
940.11	1082.64
940.41	1084.44
940.71	1086.41
941.01	1084.02
941.31	1081.68
941.61	1078.54
941.91	1075.17
942.21	1074.52
942.51	1077.65
942.81	1077.79
943.11	1078.52
943.41	1079.57
943.71	1078.38
944.01	1077.11
944.31	1078.71
944.61	1075.29
944.90	1075.99
945.20	1076.55
945.50	1074.28
945.80	1069.86
946.10	1071.31
946.40	1070.56
946.70	1069.41
947.00	1073.23
947.30	1075.52
947.60	1076.48
947.89	1076.53
948.19	1076.01
948.49	1072.27
948.79	1073.35
949.09	1073.37
949.39	1073.21
949.69	1075.34
949.98	1081.47
950.28	1082.19
950.58	1081.87
950.88	1084.49
951.18	1083.01
951.48	1080.09
951.77	1078.38
952.07	1077.18
952.37	1075.73
952.67	1076.74
952.97	1074.94
953.26	1074.31
953.56	1074.38
953.86	1076.76
954.16	1076.51
954.45	1074.80
954.75	1077.68
955.05	1079.24
955.35	1076.90
955.64	1075.90
955.94	1078.43
956.24	1076.83
956.54	1077.44
956.83	1078.05
957.13	1079.78
957.43	1077.61
957.72	1078.36
958.02	1080.53
958.32	1080.70
958.61	1081.66
958.91	1084.07
959.21	1083.86
959.50	1081.14
959.80	1077.96
960.10	1077.56
960.39	1074.61
960.69	1075.48
960.99	1076.18
961.28	1076.23
961.58	1075.55
961.87	1077.68
962.17	1077.98
962.47	1076.67
962.76	1078.96
963.06	1075.83
963.36	1074.56
963.65	1072.08
963.95	1073.74
964.24	1074.68
964.54	1079.95
964.83	1082.47
965.13	1084.02
965.42	1082.52
965.72	1082.78
966.02	1079.31
966.31	1078.03
966.61	1079.76
966.90	1078.87
967.20	1079.55
967.49	1080.06
967.79	1082.71
968.08	1081.94
968.38	1081.98
968.67	1079.71
968.97	1078.54
969.26	1076.25
969.56	1073.04
969.85	1073.95
970.15	1074.87
970.44	1079.10
970.74	1080.04
971.03	1081.05
971.32	1080.41
971.62	1080.98
971.91	1078.61
972.21	1076.04
972.50	1080.65
972.80	1084.60
973.09	1081.44
973.38	1080.09
973.68	1081.51
973.97	1080.44
974.27	1076.62
974.56	1079.95
974.85	1081.58
975.15	1081.98
975.44	1078.47
975.73	1078.99
976.03	1076.79
976.32	1078.03
976.61	1076.93
976.91	1078.00
977.20	1077.56
977.49	1077.54
977.79	1076.01
978.08	1076.41
978.37	1075.73
978.67	1077.33
978.96	1080.88
979.25	1079.81
979.55	1081.98
979.84	1083.88
980.13	1082.24
980.42	1080.53
980.72	1080.30
981.01	1078.28
981.30	1075.71
981.59	1079.53
981.89	1075.36
982.18	1074.17
982.47	1075.08
982.76	1074.21
983.06	1073.65
983.35	1077.82
983.64	1080.56
983.93	1080.79
984.22	1083.86
984.52	1084.65
984.81	1082.10
985.10	1078.50
985.39	1075.69
985.68	1073.25
985.97	1070.80
986.27	1073.91
986.56	1076.48
986.85	1077.02
987.14	1078.40
987.43	1075.94
987.72	1073.11
988.01	1071.47
988.31	1073.51
988.60	1072.39
988.89	1072.95
989.18	1073.93
989.47	1075.31
989.76	1075.71
990.05	1080.27
990.34	1082.05
990.63	1083.08
990.92	1082.22
991.21	1078.66
991.51	1075.76
991.80	1076.30
992.09	1073.51
992.38	1076.53
992.67	1080.06
992.96	1080.23
993.25	1077.40
993.54	1080.41
993.83	1079.90
994.12	1078.54
994.41	1077.77
994.70	1078.07
994.99	1075.92
995.28	1076.23
995.57	1078.47
995.86	1076.72
996.15	1078.10
996.44	1080.37
996.73	1080.04
997.02	1075.45
997.31	1075.43
997.59	1077.68
997.88	1076.46
998.17	1076.34
998.46	1078.78
998.75	1081.40
999.04	1080.41
999.33	1081.23
999.62	1082.08
999.91	1082.54
1000.20	1079.95
1000.49	1082.29
1000.77	1077.84
1001.06	1075.22
1001.35	1076.81
1001.64	1078.40
1001.93	1074.35
1002.22	1077.70
1002.51	1075.97
1002.79	1073.46
1003.08	1073.91
1003.37	1075.52
1003.66	1078.07
1003.95	1080.93
1004.23	1078.92
1004.52	1078.71
1004.81	1076.76
1005.10	1074.33
1005.39	1073.28
1005.67	1077.61
1005.96	1078.61
1006.25	1078.85
1006.54	1082.83
1006.83	1082.85
1007.11	1079.06
1007.40	1078.73
1007.69	1080.86
1007.97	1078.21
1008.26	1079.01
1008.55	1081.87
1008.84	1079.85
1009.12	1078.00
1009.41	1078.66
1009.70	1079.22
1009.98	1080.09
1010.27	1080.37
1010.56	1079.03
1010.85	1076.25
1011.13	1075.71
1011.42	1073.63
1011.71	1072.11
1011.99	1075.31
1012.28	1076.11
1012.56	1075.22
1012.85	1076.48
1013.14	1079.22
1013.42	1078.80
1013.71	1080.34
1014.00	1080.72
1014.28	1080.67
1014.57	1080.98
1014.85	1079.62
1015.14	1077.37
1015.43	1076.13
1015.71	1076.30
1016.00	1075.08
1016.28	1073.95
1016.57	1075.50
1016.85	1076.44
1017.14	1076.51
1017.43	1077.35
1017.71	1077.49
1018.00	1077.28
1018.28	1078.85
1018.57	1077.37
1018.85	1076.86
1019.14	1081.00
1019.42	1081.87
1019.71	1079.46
1019.99	1080.56
1020.28	1076.04
1020.56	1074.87
1020.85	1074.28
1021.13	1076.39
1021.42	1073.95
1021.70	1079.55
1021.99	1078.82
1022.27	1079.10
1022.55	1083.20
1022.84	1081.56
>>>>>End Processed Spectral Data<<<<<
