SpectraSuite Data File
++++++++++++++++++++++++++++++++++++
Date: Mon Aug 26 10:22:02 PDT 2019
User: corrico
Dark Spectrum Present: No
Reference Spectrum Present: No
Number of Sampled Component Spectra: 1
Spectrometers: USB2+H06089
Integration Time (usec): 2000 (USB2+H06089)
Spectra Averaged: 20 (USB2+H06089)
Boxcar Smoothing: 2 (USB2+H06089)
Correct for Electrical Dark: No (USB2+H06089)
Strobe/Lamp Enabled: No (USB2+H06089)
Correct for Detector Non-linearity: No (USB2+H06089)
Correct for Stray Light: No (USB2+H06089)
Number of Pixels in Processed Spectrum: 2048
>>>>>Begin Processed Spectral Data<<<<<
339.70	1042.59
340.07	1042.59
340.45	1005.45
340.82	981.41
341.19	956.30
341.57	929.10
341.94	918.03
342.31	907.14
342.69	901.71
343.06	897.71
343.43	894.65
343.81	896.50
344.18	900.87
344.55	905.37
344.93	909.79
345.30	917.40
345.67	923.15
346.04	929.73
346.42	937.22
346.79	949.32
347.16	955.92
347.54	965.12
347.91	974.55
348.28	984.22
348.65	989.91
349.03	1001.54
349.40	1009.33
349.77	1017.38
350.14	1027.45
350.52	1033.63
350.89	1039.10
351.26	1045.99
351.63	1052.02
352.01	1055.89
352.38	1060.87
352.75	1062.74
353.12	1065.60
353.50	1067.14
353.87	1069.48
354.24	1071.71
354.61	1075.71
354.98	1077.42
355.36	1078.07
355.73	1077.56
356.10	1079.38
356.47	1082.59
356.84	1083.69
357.22	1084.91
357.59	1085.61
357.96	1086.78
358.33	1084.96
358.70	1086.71
359.08	1083.60
359.45	1084.18
359.82	1083.22
360.19	1083.41
360.56	1082.61
360.94	1082.71
361.31	1081.35
361.68	1079.17
362.05	1076.01
362.42	1074.84
362.79	1073.21
363.16	1072.92
363.54	1072.88
363.91	1073.23
364.28	1071.15
364.65	1073.81
365.02	1071.08
365.39	1071.99
365.76	1073.25
366.14	1073.23
366.51	1072.95
366.88	1075.03
367.25	1073.25
367.62	1072.11
367.99	1074.21
368.36	1077.23
368.73	1073.44
369.10	1074.82
369.48	1076.25
369.85	1077.00
370.22	1073.28
370.59	1074.33
370.96	1075.83
371.33	1073.81
371.70	1072.08
372.07	1073.79
372.44	1076.18
372.81	1074.70
373.18	1075.24
373.55	1073.60
373.93	1076.83
374.30	1077.75
374.67	1078.10
375.04	1076.86
375.41	1079.29
375.78	1074.35
376.15	1072.71
376.52	1070.61
376.89	1072.20
377.26	1071.31
377.63	1075.73
378.00	1073.93
378.37	1078.92
378.74	1079.24
379.11	1077.56
379.48	1075.59
379.85	1079.53
380.22	1076.69
380.59	1079.62
380.96	1080.67
381.33	1079.48
381.70	1077.72
382.07	1079.48
382.44	1076.55
382.81	1077.61
383.18	1077.47
383.55	1075.78
383.92	1077.68
384.29	1078.28
384.66	1079.34
385.03	1080.77
385.40	1087.34
385.77	1083.46
386.14	1082.26
386.51	1079.83
386.88	1081.98
387.25	1078.47
387.62	1078.17
387.99	1083.55
388.36	1087.39
388.73	1087.60
389.10	1087.20
389.46	1088.00
389.83	1085.03
390.20	1082.61
390.57	1080.98
390.94	1081.91
391.31	1082.26
391.68	1082.31
392.05	1085.75
392.42	1087.09
392.79	1089.89
393.16	1089.26
393.53	1092.07
393.89	1089.31
394.26	1090.29
394.63	1089.40
395.00	1091.02
395.37	1090.39
395.74	1093.71
396.11	1089.66
396.48	1089.26
396.84	1089.45
397.21	1088.68
397.58	1088.70
397.95	1091.49
398.32	1088.65
398.69	1088.75
399.06	1089.17
399.42	1087.23
399.79	1086.66
400.16	1088.89
400.53	1090.36
400.90	1089.59
401.27	1087.74
401.64	1086.64
402.00	1086.38
402.37	1083.64
402.74	1083.29
403.11	1084.30
403.48	1088.19
403.84	1088.70
404.21	1090.90
404.58	1090.01
404.95	1092.14
405.32	1089.85
405.68	1088.77
406.05	1089.57
406.42	1089.45
406.79	1089.03
407.16	1090.50
407.52	1090.32
407.89	1086.71
408.26	1087.02
408.63	1085.59
408.99	1081.00
409.36	1087.41
409.73	1091.95
410.10	1092.94
410.47	1092.54
410.83	1097.76
411.20	1091.53
411.57	1091.25
411.94	1091.67
412.30	1098.25
412.67	1097.31
413.04	1102.56
413.40	1101.08
413.77	1104.73
414.14	1103.05
414.51	1102.49
414.87	1099.05
415.24	1105.97
415.61	1104.80
415.97	1102.06
416.34	1105.18
416.71	1105.13
417.08	1099.26
417.44	1098.55
417.81	1103.54
418.18	1105.44
418.54	1108.48
418.91	1109.84
419.28	1110.28
419.64	1107.33
420.01	1106.46
420.38	1109.39
420.74	1113.46
421.11	1116.65
421.48	1118.71
421.84	1120.16
422.21	1121.14
422.58	1122.15
422.94	1123.95
423.31	1130.08
423.68	1132.42
424.04	1132.23
424.41	1134.81
424.77	1138.76
425.14	1138.02
425.51	1143.14
425.87	1152.13
426.24	1157.00
426.61	1162.33
426.97	1169.96
427.34	1174.71
427.70	1180.31
428.07	1184.80
428.44	1194.19
428.80	1203.55
429.17	1211.60
429.53	1217.73
429.90	1226.98
430.27	1234.30
430.63	1245.70
431.00	1257.34
431.36	1272.22
431.73	1284.53
432.09	1299.84
432.46	1314.63
432.83	1329.94
433.19	1346.11
433.56	1368.86
433.92	1390.33
434.29	1405.42
434.65	1433.13
435.02	1455.88
435.38	1480.08
435.75	1502.76
436.11	1541.69
436.48	1577.90
436.84	1618.55
437.21	1661.90
437.57	1710.30
437.94	1752.85
438.30	1795.73
438.67	1843.76
439.03	1898.08
439.40	1954.70
439.76	2012.44
440.13	2075.10
440.49	2142.62
440.86	2212.13
441.22	2285.42
441.59	2367.10
441.95	2453.33
442.32	2545.05
442.68	2643.52
443.05	2744.86
443.41	2853.65
443.78	2967.94
444.14	3089.93
444.51	3207.73
444.87	3352.16
445.24	3490.09
445.60	3640.14
445.96	3786.28
446.33	3969.15
446.69	4140.08
447.06	4328.63
447.42	4520.23
447.79	4730.78
448.15	4964.72
448.51	5206.29
448.88	5477.11
449.24	5739.81
449.61	6053.89
449.97	6365.70
450.33	6693.60
450.70	7010.23
451.06	7393.31
451.43	7747.78
451.79	8142.75
452.15	8574.18
452.52	9031.07
452.88	9502.95
453.24	10022.08
453.61	10596.42
453.97	11173.25
454.34	11752.53
454.70	12411.72
455.06	13089.89
455.43	13728.62
455.79	14338.96
456.15	15070.92
456.52	15778.60
456.88	16618.69
457.24	17443.94
457.61	18416.22
457.97	19331.14
458.33	20244.14
458.70	21104.28
459.06	21928.06
459.42	22811.07
459.79	23635.31
460.15	24609.73
460.51	25533.49
460.88	26518.71
461.24	27397.12
461.60	28393.83
461.96	29242.93
462.33	30086.14
462.69	30979.80
463.05	31915.57
463.42	32789.66
463.78	33602.79
464.14	34264.93
464.50	34912.51
464.87	35387.14
465.23	35662.93
465.59	36007.48
465.95	36354.51
466.32	36630.95
466.68	36917.27
467.04	37136.51
467.40	37270.97
467.77	37420.37
468.13	37430.46
468.49	37313.57
468.85	37232.98
469.22	37122.82
469.58	36853.61
469.94	36633.29
470.30	36410.57
470.66	36069.93
471.03	35502.42
471.39	35119.76
471.75	34435.60
472.11	33770.91
472.47	33278.09
472.84	32838.49
473.20	32207.25
473.56	31845.80
473.92	31314.99
474.28	30777.69
474.65	30221.32
475.01	29649.65
475.37	28983.79
475.73	28408.63
476.09	27761.82
476.45	27168.66
476.81	26647.40
477.18	26114.53
477.54	25685.95
477.90	25329.07
478.26	24875.03
478.62	24476.57
478.98	24151.12
479.34	23833.49
479.71	23384.41
480.07	23023.52
480.43	22632.49
480.79	22204.10
481.15	21757.43
481.51	21422.62
481.87	21131.27
482.23	20816.98
482.59	20516.81
482.96	20199.53
483.32	19876.41
483.68	19494.46
484.04	19144.88
484.40	18772.99
484.76	18433.38
485.12	18060.37
485.48	17740.46
485.84	17378.97
486.20	17053.38
486.56	16673.41
486.92	16339.89
487.28	15973.85
487.64	15619.87
488.00	15264.04
488.37	14903.36
488.73	14474.20
489.09	14051.97
489.45	13656.21
489.81	13260.61
490.17	12906.32
490.53	12617.15
490.89	12310.26
491.25	11992.41
491.61	11649.10
491.97	11297.27
492.33	10947.95
492.69	10634.88
493.05	10330.07
493.41	10058.05
493.77	9789.92
494.13	9522.54
494.49	9250.10
494.85	8991.64
495.21	8734.50
495.57	8496.64
495.93	8267.85
496.29	8036.67
496.64	7837.75
497.00	7628.37
497.36	7415.66
497.72	7220.83
498.08	7041.67
498.44	6846.51
498.80	6666.41
499.16	6501.19
499.52	6319.63
499.88	6160.76
500.24	6017.68
500.60	5881.46
500.96	5749.78
501.32	5627.44
501.68	5488.32
502.03	5336.87
502.39	5201.84
502.75	5063.12
503.11	4935.63
503.47	4817.97
503.83	4708.08
504.19	4597.77
504.55	4490.86
504.91	4384.03
505.26	4282.41
505.62	4176.57
505.98	4068.55
506.34	3971.33
506.70	3870.08
507.06	3775.26
507.42	3686.09
507.78	3608.01
508.13	3523.77
508.49	3444.07
508.85	3372.08
509.21	3298.52
509.57	3223.50
509.93	3150.15
510.28	3074.88
510.64	3009.18
511.00	2942.64
511.36	2882.00
511.72	2825.33
512.07	2780.30
512.43	2727.33
512.79	2680.73
513.15	2631.44
513.51	2580.28
513.86	2529.60
514.22	2480.92
514.58	2428.42
514.94	2382.50
515.30	2344.23
515.65	2300.23
516.01	2267.25
516.37	2237.34
516.73	2207.03
517.08	2174.33
517.44	2147.42
517.80	2110.95
518.16	2077.48
518.51	2048.62
518.87	2017.40
519.23	1989.46
519.59	1960.97
519.94	1937.36
520.30	1909.06
520.66	1880.53
521.01	1853.91
521.37	1831.35
521.73	1804.51
522.09	1776.28
522.44	1759.87
522.80	1739.06
523.16	1717.04
523.51	1699.04
523.87	1682.07
524.23	1662.25
524.58	1644.55
524.94	1629.95
525.30	1615.20
525.65	1598.49
526.01	1581.52
526.37	1569.24
526.72	1549.11
527.08	1532.75
527.44	1523.17
527.79	1511.56
528.15	1494.48
528.51	1485.35
528.86	1475.12
529.22	1462.93
529.58	1449.26
529.93	1438.59
530.29	1429.11
530.65	1419.00
531.00	1408.44
531.36	1398.75
531.71	1390.86
532.07	1379.21
532.43	1365.77
532.78	1355.80
533.14	1346.23
533.49	1337.24
533.85	1330.36
534.21	1324.42
534.56	1317.35
534.92	1313.04
535.27	1309.72
535.63	1301.81
535.98	1297.10
536.34	1291.84
536.69	1285.68
537.05	1273.60
537.41	1266.67
537.76	1260.73
538.12	1252.94
538.47	1245.66
538.83	1245.21
539.18	1243.64
539.54	1240.81
539.89	1236.51
540.25	1230.77
540.60	1228.27
540.96	1221.13
541.31	1217.76
541.67	1216.68
542.02	1214.88
542.38	1206.66
542.73	1206.69
543.09	1203.25
543.44	1197.68
543.80	1198.82
544.15	1197.68
544.51	1195.92
544.86	1192.67
545.22	1191.31
545.57	1186.00
545.93	1182.79
546.28	1179.09
546.64	1176.26
546.99	1177.22
547.35	1175.00
547.70	1176.42
548.05	1174.88
548.41	1172.30
548.76	1167.62
549.12	1165.82
549.47	1163.29
549.83	1163.67
550.18	1160.48
550.53	1157.82
550.89	1153.25
551.24	1147.07
551.60	1139.33
551.95	1136.63
552.30	1133.24
552.66	1134.18
553.01	1135.00
553.37	1136.68
553.72	1135.93
554.07	1136.33
554.43	1135.37
554.78	1134.57
555.13	1132.89
555.49	1133.50
555.84	1132.49
556.19	1128.93
556.55	1128.54
556.90	1129.54
557.26	1131.25
557.61	1128.47
557.96	1129.14
558.32	1127.74
558.67	1122.87
559.02	1121.49
559.37	1123.15
559.73	1120.88
560.08	1117.96
560.43	1118.07
560.79	1112.43
561.14	1111.73
561.49	1110.16
561.85	1108.06
562.20	1104.24
562.55	1105.81
562.90	1102.91
563.26	1104.59
563.61	1104.41
563.96	1109.02
564.32	1105.58
564.67	1107.31
565.02	1108.20
565.37	1110.16
565.73	1109.65
566.08	1111.40
566.43	1108.85
566.78	1106.35
567.14	1108.17
567.49	1106.72
567.84	1106.11
568.19	1103.87
568.54	1102.65
568.90	1100.80
569.25	1097.80
569.60	1096.33
569.95	1098.83
570.31	1098.18
570.66	1095.07
571.01	1098.72
571.36	1101.46
571.71	1100.92
572.06	1104.50
572.42	1105.15
572.77	1099.91
573.12	1096.52
573.47	1096.03
573.82	1094.72
574.18	1092.35
574.53	1094.74
574.88	1095.18
575.23	1095.51
575.58	1092.42
575.93	1094.86
576.28	1094.46
576.64	1094.11
576.99	1094.79
577.34	1095.89
577.69	1094.50
578.04	1095.67
578.39	1094.57
578.74	1091.18
579.09	1090.99
579.44	1090.50
579.80	1087.62
580.15	1089.24
580.50	1090.46
580.85	1090.01
581.20	1088.96
581.55	1091.30
581.90	1089.33
582.25	1087.72
582.60	1085.05
582.95	1084.39
583.30	1084.23
583.65	1084.96
584.00	1088.09
584.35	1088.72
584.71	1091.95
585.06	1087.60
585.41	1090.17
585.76	1088.72
586.11	1093.50
586.46	1089.94
586.81	1095.53
587.16	1093.97
587.51	1093.69
587.86	1092.96
588.21	1094.83
588.56	1092.26
588.91	1092.47
589.26	1093.15
589.61	1092.30
589.96	1092.35
590.31	1092.37
590.66	1089.99
591.01	1089.33
591.36	1089.07
591.71	1091.79
592.06	1089.94
592.41	1091.34
592.76	1090.27
593.10	1087.90
593.45	1087.86
593.80	1087.95
594.15	1089.14
594.50	1087.97
594.85	1086.10
595.20	1084.42
595.55	1084.16
595.90	1080.27
596.25	1080.32
596.60	1082.76
596.95	1079.81
597.30	1077.93
597.64	1091.02
597.99	1092.96
598.34	1092.33
598.69	1092.98
599.04	1096.28
599.39	1085.38
599.74	1084.93
600.09	1085.68
600.44	1085.96
600.78	1085.12
601.13	1085.89
601.48	1082.08
601.83	1082.57
602.18	1085.54
602.53	1085.10
602.88	1083.08
603.22	1086.57
603.57	1085.96
603.92	1084.25
604.27	1084.74
604.62	1087.39
604.97	1088.40
605.31	1087.86
605.66	1089.78
606.01	1088.72
606.36	1086.36
606.71	1084.14
607.05	1085.14
607.40	1079.31
607.75	1080.11
608.10	1078.50
608.44	1077.65
608.79	1075.94
609.14	1081.63
609.49	1083.32
609.84	1086.06
610.18	1088.56
610.53	1088.63
610.88	1086.06
611.23	1085.12
611.57	1086.45
611.92	1086.90
612.27	1088.98
612.62	1089.50
612.96	1085.99
613.31	1083.79
613.66	1082.29
614.00	1080.65
614.35	1081.94
614.70	1087.11
615.05	1084.23
615.39	1081.54
615.74	1079.01
616.09	1076.46
616.43	1073.21
616.78	1076.76
617.13	1080.20
617.47	1082.12
617.82	1083.22
618.17	1083.55
618.51	1083.25
618.86	1080.39
619.21	1083.18
619.55	1081.91
619.90	1083.11
620.25	1083.36
620.59	1085.19
620.94	1082.78
621.29	1079.13
621.63	1077.51
621.98	1078.36
622.32	1079.31
622.67	1079.03
623.02	1085.52
623.36	1086.83
623.71	1085.26
624.05	1084.63
624.40	1082.71
624.75	1078.78
625.09	1081.28
625.44	1081.14
625.78	1083.32
626.13	1084.18
626.48	1085.12
626.82	1080.67
627.17	1083.13
627.51	1080.74
627.86	1081.91
628.20	1085.35
628.55	1085.61
628.89	1084.53
629.24	1081.89
629.58	1082.61
629.93	1079.57
630.28	1079.46
630.62	1079.83
630.97	1082.10
631.31	1084.02
631.66	1087.48
632.00	1089.47
632.35	1089.45
632.69	1091.27
633.04	1087.79
633.38	1082.40
633.73	1080.86
634.07	1078.26
634.42	1077.21
634.76	1077.33
635.11	1078.96
635.45	1078.50
635.79	1082.03
636.14	1082.05
636.48	1083.43
636.83	1085.47
637.17	1091.11
637.52	1088.30
637.86	1088.65
638.21	1089.96
638.55	1088.54
638.89	1085.99
639.24	1084.11
639.58	1082.01
639.93	1081.33
640.27	1080.04
640.61	1075.29
640.96	1076.51
641.30	1076.13
641.65	1073.53
641.99	1075.24
642.33	1077.28
642.68	1074.12
643.02	1075.01
643.37	1076.27
643.71	1076.23
644.05	1074.10
644.40	1078.52
644.74	1080.16
645.08	1078.12
645.43	1079.48
645.77	1083.36
646.11	1085.05
646.46	1082.92
646.80	1084.96
647.14	1081.58
647.49	1078.68
647.83	1078.45
648.17	1080.06
648.52	1079.67
648.86	1083.39
649.20	1086.94
649.55	1085.00
649.89	1085.00
650.23	1085.47
650.57	1082.45
650.92	1079.53
651.26	1081.91
651.60	1080.70
651.95	1079.76
652.29	1081.33
652.63	1082.83
652.97	1080.48
653.32	1083.39
653.66	1085.89
654.00	1084.86
654.34	1084.84
654.69	1081.21
655.03	1079.17
655.37	1077.58
655.71	1078.36
656.05	1078.82
656.40	1082.15
656.74	1082.71
657.08	1082.33
657.42	1085.14
657.76	1081.98
658.11	1081.54
658.45	1081.89
658.79	1081.68
659.13	1076.79
659.47	1081.75
659.82	1082.83
660.16	1082.40
660.50	1082.52
660.84	1082.05
661.18	1079.01
661.52	1077.65
661.87	1076.81
662.21	1075.13
662.55	1075.59
662.89	1074.45
663.23	1073.72
663.57	1073.09
663.91	1077.21
664.25	1076.81
664.60	1076.65
664.94	1076.95
665.28	1076.83
665.62	1076.37
665.96	1081.28
666.30	1083.13
666.64	1087.30
666.98	1086.69
667.32	1086.45
667.66	1083.08
668.01	1084.04
668.35	1085.40
668.69	1087.69
669.03	1084.35
669.37	1086.66
669.71	1086.03
670.05	1081.30
670.39	1080.53
670.73	1081.42
671.07	1077.89
671.41	1078.43
671.75	1080.02
672.09	1076.69
672.43	1078.75
672.77	1079.36
673.11	1077.25
673.45	1077.14
673.79	1080.72
674.13	1081.14
674.47	1080.34
674.81	1080.74
675.15	1078.61
675.49	1076.11
675.83	1075.83
676.17	1078.03
676.51	1078.96
676.85	1081.05
677.19	1085.52
677.53	1082.97
677.87	1080.37
678.21	1079.83
678.55	1078.03
678.89	1074.45
679.23	1075.50
679.57	1078.61
679.90	1079.17
680.24	1081.51
680.58	1085.05
680.92	1084.07
681.26	1081.68
681.60	1081.77
681.94	1079.95
682.28	1078.80
682.62	1077.37
682.96	1078.54
683.29	1078.21
683.63	1080.32
683.97	1080.25
684.31	1082.94
684.65	1082.54
684.99	1082.94
685.33	1081.75
685.67	1077.49
686.00	1076.88
686.34	1077.16
686.68	1078.68
687.02	1079.85
687.36	1080.06
687.70	1079.62
688.03	1077.79
688.37	1077.25
688.71	1077.79
689.05	1080.74
689.39	1083.29
689.72	1086.50
690.06	1083.13
690.40	1079.22
690.74	1080.37
691.08	1080.06
691.41	1079.15
691.75	1081.56
692.09	1084.74
692.43	1084.07
692.76	1082.78
693.10	1082.26
693.44	1079.69
693.78	1079.92
694.11	1077.77
694.45	1076.34
694.79	1079.08
695.13	1080.60
695.46	1077.93
695.80	1079.31
696.14	1081.49
696.48	1077.72
696.81	1077.16
697.15	1080.67
697.49	1081.58
697.82	1083.01
698.16	1085.80
698.50	1087.30
698.83	1085.19
699.17	1086.85
699.51	1084.11
699.84	1082.80
700.18	1082.50
700.52	1082.92
700.85	1077.79
701.19	1076.41
701.53	1075.08
701.86	1074.28
702.20	1072.74
702.54	1075.64
702.87	1077.68
703.21	1077.89
703.55	1078.19
703.88	1080.63
704.22	1079.99
704.55	1077.63
704.89	1079.74
705.23	1079.60
705.56	1078.40
705.90	1080.04
706.23	1080.04
706.57	1078.78
706.91	1079.27
707.24	1076.95
707.58	1074.07
707.91	1075.01
708.25	1076.13
708.58	1077.72
708.92	1077.18
709.26	1077.96
709.59	1077.65
709.93	1075.99
710.26	1077.16
710.60	1081.68
710.93	1083.41
711.27	1087.44
711.60	1088.40
711.94	1086.78
712.27	1084.51
712.61	1084.42
712.94	1081.91
713.28	1081.80
713.61	1083.46
713.95	1082.05
714.28	1081.94
714.62	1080.51
714.95	1080.20
715.29	1077.47
715.62	1076.69
715.96	1078.38
716.29	1078.12
716.63	1076.06
716.96	1072.11
717.29	1073.46
717.63	1071.57
717.96	1071.01
718.30	1070.82
718.63	1073.37
718.97	1075.15
719.30	1076.72
719.63	1078.75
719.97	1084.00
720.30	1085.75
720.64	1083.48
720.97	1080.86
721.30	1078.66
721.64	1074.19
721.97	1074.12
722.31	1075.45
722.64	1076.81
722.97	1078.99
723.31	1077.79
723.64	1077.56
723.97	1079.50
724.31	1078.10
724.64	1076.44
724.98	1078.94
725.31	1076.51
725.64	1073.79
725.98	1074.17
726.31	1079.24
726.64	1077.40
726.97	1080.25
727.31	1081.02
727.64	1082.99
727.97	1081.42
728.31	1084.98
728.64	1085.73
728.97	1085.07
729.31	1083.55
729.64	1079.69
729.97	1079.41
730.30	1079.08
730.64	1077.51
730.97	1075.99
731.30	1079.38
731.63	1078.17
731.97	1077.68
732.30	1081.66
732.63	1083.62
732.96	1081.89
733.30	1081.98
733.63	1079.08
733.96	1078.92
734.29	1081.09
734.63	1083.64
734.96	1084.86
735.29	1089.10
735.62	1087.27
735.95	1083.74
736.29	1078.87
736.62	1079.81
736.95	1076.81
737.28	1075.80
737.61	1074.87
737.94	1079.50
738.28	1079.31
738.61	1080.30
738.94	1081.73
739.27	1081.00
739.60	1080.06
739.93	1078.00
740.27	1082.29
740.60	1082.17
740.93	1083.50
741.26	1083.57
741.59	1084.16
741.92	1078.71
742.25	1080.20
742.58	1078.75
742.91	1078.03
743.25	1079.78
743.58	1082.40
743.91	1081.33
744.24	1083.43
744.57	1084.18
744.90	1080.44
745.23	1078.33
745.56	1076.95
745.89	1079.06
746.22	1080.48
746.55	1080.93
746.88	1082.24
747.21	1082.57
747.54	1080.93
747.87	1079.55
748.20	1079.69
748.53	1080.41
748.87	1083.20
749.20	1083.83
749.53	1083.08
749.86	1084.21
750.19	1083.36
750.52	1081.54
750.85	1080.72
751.18	1077.56
751.51	1076.79
751.84	1078.00
752.16	1077.91
752.49	1075.73
752.82	1080.56
753.15	1081.26
753.48	1077.47
753.81	1078.17
754.14	1082.29
754.47	1082.38
754.80	1082.97
755.13	1084.09
755.46	1085.91
755.79	1084.04
756.12	1080.98
756.45	1079.85
756.78	1080.95
757.11	1075.01
757.43	1076.90
757.76	1079.60
758.09	1080.44
758.42	1079.46
758.75	1081.70
759.08	1078.57
759.41	1075.43
759.74	1073.39
760.07	1074.68
760.39	1076.30
760.72	1078.05
761.05	1080.77
761.38	1079.46
761.71	1077.14
762.04	1076.62
762.36	1073.70
762.69	1073.98
763.02	1079.01
763.35	1082.36
763.68	1079.83
764.01	1081.23
764.33	1081.44
764.66	1076.76
764.99	1074.87
765.32	1075.59
765.65	1075.73
765.97	1072.78
766.30	1075.92
766.63	1072.32
766.96	1075.78
767.28	1074.94
767.61	1078.64
767.94	1078.45
768.27	1081.82
768.59	1083.93
768.92	1085.91
769.25	1082.71
769.58	1083.55
769.90	1082.40
770.23	1075.22
770.56	1074.52
770.89	1076.37
771.21	1075.71
771.54	1075.62
771.87	1078.68
772.19	1079.88
772.52	1079.08
772.85	1077.28
773.17	1077.70
773.50	1078.85
773.83	1078.71
774.15	1077.77
774.48	1077.98
774.81	1078.89
775.13	1075.66
775.46	1077.35
775.79	1076.76
776.11	1080.02
776.44	1081.68
776.77	1084.77
777.09	1080.93
777.42	1081.91
777.74	1080.51
778.07	1079.50
778.40	1079.24
778.72	1082.94
779.05	1085.49
779.37	1084.35
779.70	1086.01
780.03	1084.96
780.35	1081.23
780.68	1078.85
781.00	1080.11
781.33	1077.89
781.65	1080.41
781.98	1079.81
782.31	1079.43
782.63	1080.67
782.96	1081.28
783.28	1080.60
783.61	1080.39
783.93	1079.24
784.26	1073.09
784.58	1074.75
784.91	1071.75
785.23	1073.79
785.56	1077.75
785.88	1083.71
786.21	1081.94
786.53	1085.03
786.86	1084.89
787.18	1084.07
787.51	1083.39
787.83	1084.89
788.16	1081.16
788.48	1080.84
788.81	1079.34
789.13	1077.18
789.46	1078.87
789.78	1080.06
790.10	1079.38
790.43	1076.44
790.75	1076.95
791.08	1075.85
791.40	1076.13
791.73	1079.92
792.05	1081.02
792.37	1082.73
792.70	1081.49
793.02	1084.23
793.35	1080.53
793.67	1081.75
793.99	1079.81
794.32	1080.32
794.64	1077.16
794.96	1079.27
795.29	1079.24
795.61	1078.31
795.93	1077.93
796.26	1079.08
796.58	1076.74
796.91	1075.76
797.23	1074.70
797.55	1072.83
797.87	1071.26
798.20	1070.30
798.52	1070.37
798.84	1070.40
799.17	1072.01
799.49	1070.63
799.81	1073.72
800.14	1074.87
800.46	1078.36
800.78	1078.14
801.10	1075.87
801.43	1074.68
801.75	1073.65
802.07	1073.44
802.40	1073.11
802.72	1080.23
803.04	1081.56
803.36	1082.83
803.69	1084.49
804.01	1083.79
804.33	1079.60
804.65	1078.07
804.97	1077.33
805.30	1074.28
805.62	1076.27
805.94	1078.17
806.26	1080.46
806.58	1081.75
806.91	1081.77
807.23	1079.03
807.55	1078.54
807.87	1077.23
808.19	1076.60
808.52	1074.70
808.84	1074.52
809.16	1074.21
809.48	1070.35
809.80	1071.10
810.12	1075.36
810.44	1078.05
810.77	1078.38
811.09	1082.92
811.41	1084.39
811.73	1079.55
812.05	1079.20
812.37	1078.68
812.69	1078.78
813.01	1079.69
813.33	1080.95
813.66	1077.25
813.98	1075.69
814.30	1071.40
814.62	1069.77
814.94	1068.57
815.26	1071.68
815.58	1075.69
815.90	1077.89
816.22	1075.50
816.54	1074.31
816.86	1074.70
817.18	1075.36
817.50	1077.37
817.82	1080.06
818.14	1082.33
818.46	1080.20
818.78	1079.38
819.10	1082.08
819.42	1079.99
819.74	1080.16
820.06	1080.95
820.38	1077.44
820.70	1072.97
821.02	1074.35
821.34	1076.13
821.66	1075.55
821.98	1075.52
822.30	1075.83
822.62	1075.52
822.94	1072.92
823.26	1071.10
823.58	1073.16
823.90	1073.16
824.22	1069.06
824.54	1070.21
824.86	1074.19
825.18	1076.67
825.50	1077.93
825.81	1081.26
826.13	1082.83
826.45	1082.31
826.77	1081.40
827.09	1083.32
827.41	1083.50
827.73	1081.77
828.05	1079.36
828.36	1076.72
828.68	1076.97
829.00	1074.91
829.32	1075.66
829.64	1076.39
829.96	1076.90
830.28	1070.65
830.59	1073.63
830.91	1074.14
831.23	1078.87
831.55	1082.99
831.87	1084.53
832.19	1082.69
832.50	1082.66
832.82	1079.53
833.14	1075.94
833.46	1078.12
833.78	1077.37
834.09	1076.88
834.41	1077.63
834.73	1077.47
835.05	1077.96
835.36	1081.91
835.68	1081.75
836.00	1079.62
836.32	1078.80
836.63	1077.75
836.95	1075.13
837.27	1074.96
837.59	1077.42
837.90	1079.06
838.22	1078.00
838.54	1078.45
838.85	1079.24
839.17	1079.03
839.49	1077.21
839.80	1075.90
840.12	1075.01
840.44	1074.38
840.76	1070.61
841.07	1071.75
841.39	1074.66
841.71	1076.25
842.02	1075.03
842.34	1075.99
842.65	1078.03
842.97	1074.70
843.29	1074.05
843.60	1074.21
843.92	1075.99
844.24	1074.87
844.55	1076.23
844.87	1077.30
845.18	1080.70
845.50	1080.11
845.82	1080.32
846.13	1079.01
846.45	1079.17
846.76	1076.79
847.08	1076.65
847.40	1074.19
847.71	1081.14
848.03	1076.32
848.34	1077.25
848.66	1076.74
848.97	1081.35
849.29	1078.24
849.60	1081.82
849.92	1080.23
850.24	1082.05
850.55	1078.85
850.87	1077.75
851.18	1076.15
851.50	1074.14
851.81	1071.78
852.13	1071.94
852.44	1073.74
852.76	1077.37
853.07	1079.74
853.39	1082.43
853.70	1082.33
854.01	1081.70
854.33	1078.54
854.64	1080.65
854.96	1081.00
855.27	1078.64
855.59	1076.90
855.90	1077.02
856.22	1074.68
856.53	1074.05
856.84	1076.15
857.16	1078.78
857.47	1081.12
857.79	1080.95
858.10	1078.87
858.41	1078.92
858.73	1076.46
859.04	1074.96
859.36	1077.28
859.67	1080.86
859.98	1079.88
860.30	1081.28
860.61	1082.19
860.92	1084.21
861.24	1083.86
861.55	1086.15
861.87	1083.64
862.18	1083.83
862.49	1079.99
862.81	1078.64
863.12	1078.54
863.43	1076.83
863.74	1076.27
864.06	1079.36
864.37	1079.01
864.68	1077.11
865.00	1079.22
865.31	1079.83
865.62	1076.69
865.94	1076.95
866.25	1079.85
866.56	1082.61
866.87	1079.97
867.19	1078.89
867.50	1076.25
867.81	1077.04
868.12	1074.42
868.44	1077.51
868.75	1078.94
869.06	1078.00
869.37	1073.63
869.68	1070.05
870.00	1069.02
870.31	1067.92
870.62	1073.51
870.93	1075.99
871.24	1079.41
871.56	1079.88
871.87	1082.24
872.18	1080.30
872.49	1079.24
872.80	1077.28
873.12	1074.49
873.43	1072.41
873.74	1071.73
874.05	1073.16
874.36	1076.01
874.67	1075.57
874.98	1075.29
875.29	1074.56
875.61	1076.11
875.92	1074.26
876.23	1076.55
876.54	1076.46
876.85	1078.10
877.16	1077.63
877.47	1078.50
877.78	1077.14
878.09	1080.60
878.40	1079.01
878.72	1080.44
879.03	1080.39
879.34	1081.30
879.65	1078.03
879.96	1076.39
880.27	1074.61
880.58	1076.01
880.89	1075.20
881.20	1075.22
881.51	1076.15
881.82	1072.46
882.13	1071.17
882.44	1070.05
882.75	1072.55
883.06	1077.58
883.37	1080.41
883.68	1080.84
883.99	1082.40
884.30	1080.06
884.61	1079.62
884.92	1081.75
885.23	1081.05
885.54	1080.23
885.85	1080.88
886.16	1075.31
886.47	1074.47
886.78	1075.62
887.08	1075.31
887.39	1075.24
887.70	1078.26
888.01	1076.53
888.32	1077.07
888.63	1078.87
888.94	1079.78
889.25	1078.28
889.56	1080.98
889.87	1079.69
890.17	1078.66
890.48	1078.10
890.79	1079.85
891.10	1076.76
891.41	1081.12
891.72	1082.26
892.03	1080.70
892.34	1080.30
892.64	1079.08
892.95	1076.55
893.26	1076.60
893.57	1077.07
893.88	1074.77
894.18	1076.90
894.49	1077.14
894.80	1071.73
895.11	1073.32
895.42	1075.57
895.72	1072.95
896.03	1070.44
896.34	1074.42
896.65	1075.17
896.96	1075.57
897.26	1077.14
897.57	1078.36
897.88	1082.15
898.19	1081.00
898.49	1080.11
898.80	1082.01
899.11	1081.73
899.41	1079.50
899.72	1079.90
900.03	1076.46
900.34	1072.90
900.64	1072.01
900.95	1070.51
901.26	1069.91
901.56	1074.73
901.87	1077.54
902.18	1079.46
902.48	1081.21
902.79	1082.47
903.10	1080.27
903.40	1077.75
903.71	1077.00
904.02	1077.51
904.32	1074.54
904.63	1073.14
904.94	1073.77
905.24	1075.05
905.55	1072.39
905.85	1074.75
906.16	1078.05
906.47	1079.15
906.77	1076.60
907.08	1078.12
907.38	1076.51
907.69	1075.13
908.00	1076.69
908.30	1076.53
908.61	1074.03
908.91	1076.04
909.22	1074.70
909.52	1071.90
909.83	1073.70
910.14	1078.38
910.44	1078.99
910.75	1079.95
911.05	1080.60
911.36	1077.23
911.66	1075.97
911.97	1072.57
912.27	1073.18
912.58	1072.18
912.88	1071.64
913.19	1070.84
913.49	1069.09
913.80	1070.96
914.10	1073.11
914.41	1078.94
914.71	1076.58
915.01	1078.57
915.32	1077.47
915.62	1075.38
915.93	1075.41
916.23	1080.63
916.54	1082.54
916.84	1081.87
917.15	1080.84
917.45	1077.14
917.75	1073.74
918.06	1071.99
918.36	1071.38
918.67	1073.98
918.97	1074.66
919.27	1075.50
919.58	1077.33
919.88	1076.67
920.18	1075.50
920.49	1075.90
920.79	1076.44
921.10	1076.58
921.40	1074.68
921.70	1073.32
922.01	1071.94
922.31	1069.32
922.61	1070.00
922.92	1073.35
923.22	1076.34
923.52	1080.16
923.82	1080.84
924.13	1078.87
924.43	1078.57
924.73	1074.96
925.04	1072.88
925.34	1073.74
925.64	1071.08
925.94	1067.59
926.25	1069.41
926.55	1071.38
926.85	1070.02
927.15	1072.36
927.46	1076.88
927.76	1079.34
928.06	1074.26
928.36	1073.04
928.67	1075.38
928.97	1073.70
929.27	1072.67
929.57	1074.26
929.87	1076.18
930.18	1073.51
930.48	1077.51
930.78	1074.68
931.08	1073.93
931.38	1074.10
931.69	1078.14
931.99	1076.34
932.29	1078.07
932.59	1082.66
932.89	1085.21
933.19	1081.89
933.49	1078.07
933.80	1079.38
934.10	1078.17
934.40	1075.24
934.70	1078.07
935.00	1078.89
935.30	1077.70
935.60	1076.48
935.90	1077.18
936.20	1075.90
936.50	1077.28
936.81	1078.36
937.11	1081.14
937.41	1083.88
937.71	1082.61
938.01	1085.63
938.31	1087.02
938.61	1082.76
938.91	1078.36
939.21	1080.58
939.51	1074.63
939.81	1074.33
940.11	1075.10
940.41	1075.27
940.71	1075.59
941.01	1080.11
941.31	1082.50
941.61	1083.86
941.91	1087.88
942.21	1083.01
942.51	1081.37
942.81	1078.50
943.11	1078.89
943.41	1075.22
943.71	1080.46
944.01	1080.74
944.31	1079.57
944.61	1077.58
944.90	1082.01
945.20	1079.85
945.50	1079.71
945.80	1078.85
946.10	1079.69
946.40	1077.70
946.70	1078.85
947.00	1080.65
947.30	1082.52
947.60	1082.03
947.89	1082.29
948.19	1082.85
948.49	1081.84
948.79	1082.85
949.09	1085.42
949.39	1083.69
949.69	1082.01
949.98	1082.33
950.28	1080.91
950.58	1078.43
950.88	1077.58
951.18	1078.28
951.48	1077.63
951.77	1080.60
952.07	1081.42
952.37	1082.94
952.67	1082.24
952.97	1081.70
953.26	1075.43
953.56	1073.98
953.86	1073.60
954.16	1071.36
954.45	1071.61
954.75	1073.63
955.05	1075.83
955.35	1073.67
955.64	1072.48
955.94	1073.04
956.24	1072.71
956.54	1072.01
956.83	1071.15
957.13	1072.01
957.43	1070.80
957.72	1070.58
958.02	1069.16
958.32	1071.33
958.61	1074.49
958.91	1076.27
959.21	1077.63
959.50	1078.00
959.80	1079.71
960.10	1078.21
960.39	1074.12
960.69	1074.12
960.99	1077.16
961.28	1076.01
961.58	1078.31
961.87	1081.75
962.17	1082.50
962.47	1077.44
962.76	1079.08
963.06	1077.37
963.36	1075.05
963.65	1070.84
963.95	1076.27
964.24	1076.69
964.54	1074.82
964.83	1074.28
965.13	1076.69
965.42	1077.21
965.72	1076.60
966.02	1078.64
966.31	1080.81
966.61	1077.89
966.90	1076.74
967.20	1076.76
967.49	1076.93
967.79	1077.37
968.08	1082.69
968.38	1078.07
968.67	1077.51
968.97	1077.63
969.26	1076.51
969.56	1074.45
969.85	1075.38
970.15	1072.78
970.44	1071.12
970.74	1069.16
971.03	1069.11
971.32	1070.28
971.62	1073.21
971.91	1073.81
972.21	1074.61
972.50	1074.07
972.80	1075.45
973.09	1074.03
973.38	1075.27
973.68	1077.21
973.97	1078.17
974.27	1075.05
974.56	1074.33
974.85	1074.38
975.15	1075.41
975.44	1075.48
975.73	1076.41
976.03	1078.85
976.32	1076.95
976.61	1073.84
976.91	1075.99
977.20	1078.05
977.49	1077.49
977.79	1078.14
978.08	1077.61
978.37	1075.31
978.67	1074.96
978.96	1076.27
979.25	1079.06
979.55	1079.10
979.84	1076.93
980.13	1075.29
980.42	1072.43
980.72	1071.01
981.01	1071.12
981.30	1073.72
981.59	1078.03
981.89	1077.98
982.18	1076.58
982.47	1078.61
982.76	1078.71
983.06	1074.21
983.35	1073.30
983.64	1072.32
983.93	1073.49
984.22	1073.95
984.52	1073.72
984.81	1075.15
985.10	1078.50
985.39	1077.30
985.68	1075.10
985.97	1076.72
986.27	1078.78
986.56	1076.76
986.85	1075.92
987.14	1075.08
987.43	1074.42
987.72	1073.51
988.01	1071.50
988.31	1073.09
988.60	1079.15
988.89	1082.57
989.18	1079.55
989.47	1082.38
989.76	1081.12
990.05	1076.44
990.34	1073.63
990.63	1075.08
990.92	1076.41
991.21	1076.48
991.51	1076.62
991.80	1075.80
992.09	1074.80
992.38	1073.21
992.67	1074.54
992.96	1075.71
993.25	1075.92
993.54	1078.99
993.83	1079.13
994.12	1077.89
994.41	1079.38
994.70	1079.69
994.99	1080.67
995.28	1079.22
995.57	1077.16
995.86	1075.80
996.15	1076.08
996.44	1074.05
996.73	1077.68
997.02	1080.56
997.31	1078.24
997.59	1078.59
997.88	1079.46
998.17	1077.51
998.46	1076.01
998.75	1077.77
999.04	1075.22
999.33	1072.57
999.62	1075.01
999.91	1077.58
1000.20	1077.58
1000.49	1078.12
1000.77	1078.45
1001.06	1073.02
1001.35	1072.57
1001.64	1072.97
1001.93	1074.45
1002.22	1075.43
1002.51	1078.75
1002.79	1078.47
1003.08	1081.21
1003.37	1082.78
1003.66	1083.81
1003.95	1083.55
1004.23	1083.50
1004.52	1079.50
1004.81	1078.47
1005.10	1078.66
1005.39	1077.51
1005.67	1078.26
1005.96	1077.77
1006.25	1076.25
1006.54	1076.58
1006.83	1077.47
1007.11	1074.77
1007.40	1076.67
1007.69	1079.48
1007.97	1078.57
1008.26	1079.48
1008.55	1083.20
1008.84	1083.08
1009.12	1084.89
1009.41	1082.22
1009.70	1081.16
1009.98	1077.79
1010.27	1076.86
1010.56	1073.56
1010.85	1077.00
1011.13	1078.89
1011.42	1079.36
1011.71	1079.22
1011.99	1081.66
1012.28	1081.14
1012.56	1079.97
1012.85	1081.49
1013.14	1082.57
1013.42	1079.48
1013.71	1077.44
1014.00	1076.27
1014.28	1071.33
1014.57	1070.40
1014.85	1072.34
1015.14	1072.71
1015.43	1069.98
1015.71	1075.22
1016.00	1077.30
1016.28	1075.85
1016.57	1077.42
1016.85	1082.19
1017.14	1078.78
1017.43	1075.29
1017.71	1076.30
1018.00	1076.18
1018.28	1075.20
1018.57	1076.23
1018.85	1078.31
1019.14	1077.23
1019.42	1077.49
1019.71	1076.60
1019.99	1076.20
1020.28	1077.11
1020.56	1073.95
1020.85	1069.65
1021.13	1067.92
1021.42	1070.47
1021.70	1070.21
1021.99	1075.13
1022.27	1081.00
1022.55	1084.84
1022.84	1088.58
>>>>>End Processed Spectral Data<<<<<
