SpectraSuite Data File
++++++++++++++++++++++++++++++++++++
Date: Mon Aug 26 10:22:13 PDT 2019
User: corrico
Dark Spectrum Present: No
Reference Spectrum Present: No
Number of Sampled Component Spectra: 1
Spectrometers: USB2+H06089
Integration Time (usec): 2000 (USB2+H06089)
Spectra Averaged: 20 (USB2+H06089)
Boxcar Smoothing: 2 (USB2+H06089)
Correct for Electrical Dark: No (USB2+H06089)
Strobe/Lamp Enabled: No (USB2+H06089)
Correct for Detector Non-linearity: No (USB2+H06089)
Correct for Stray Light: No (USB2+H06089)
Number of Pixels in Processed Spectrum: 2048
>>>>>Begin Processed Spectral Data<<<<<
339.70	1027.26
340.07	1027.26
340.45	991.71
340.82	971.37
341.19	949.32
341.57	924.93
341.94	915.01
342.31	906.77
342.69	900.85
343.06	897.38
343.43	895.58
343.81	899.51
344.18	903.42
344.55	905.25
344.93	908.60
345.30	914.17
345.67	917.58
346.04	925.96
346.42	934.58
346.79	942.72
347.16	950.94
347.54	959.03
347.91	966.83
348.28	974.51
348.65	984.92
349.03	998.43
349.40	1010.57
349.77	1020.17
350.14	1029.32
350.52	1034.49
350.89	1039.85
351.26	1043.83
351.63	1047.23
352.01	1056.26
352.38	1064.36
352.75	1066.54
353.12	1071.38
353.50	1074.98
353.87	1072.74
354.24	1070.65
354.61	1071.90
354.98	1073.00
355.36	1073.28
355.73	1075.78
356.10	1082.97
356.47	1085.54
356.84	1089.89
357.22	1088.47
357.59	1088.65
357.96	1086.99
358.33	1084.72
358.70	1078.78
359.08	1081.35
359.45	1079.90
359.82	1079.78
360.19	1078.43
360.56	1078.80
360.94	1077.82
361.31	1078.24
361.68	1077.02
362.05	1081.14
362.42	1082.26
362.79	1080.06
363.16	1080.60
363.54	1081.89
363.91	1078.28
364.28	1077.35
364.65	1079.97
365.02	1078.21
365.39	1074.42
365.76	1073.58
366.14	1075.38
366.51	1073.81
366.88	1073.18
367.25	1075.87
367.62	1073.02
367.99	1071.50
368.36	1071.29
368.73	1071.43
369.10	1069.65
369.48	1074.07
369.85	1075.17
370.22	1074.10
370.59	1073.93
370.96	1072.53
371.33	1073.65
371.70	1071.97
372.07	1074.84
372.44	1075.76
372.81	1076.41
373.18	1073.49
373.55	1076.44
373.93	1073.95
374.30	1077.54
374.67	1079.60
375.04	1082.47
375.41	1078.21
375.78	1078.85
376.15	1077.54
376.52	1077.58
376.89	1075.41
377.26	1076.79
377.63	1077.58
378.00	1077.14
378.37	1074.33
378.74	1078.26
379.11	1077.56
379.48	1078.78
379.85	1078.52
380.22	1082.31
380.59	1077.86
380.96	1080.98
381.33	1081.91
381.70	1085.40
382.07	1084.67
382.44	1086.48
382.81	1086.03
383.18	1086.06
383.55	1085.24
383.92	1084.49
384.29	1085.73
384.66	1084.98
385.03	1083.83
385.40	1081.23
385.77	1083.81
386.14	1083.62
386.51	1085.17
386.88	1083.71
387.25	1086.08
387.62	1084.28
387.99	1086.24
388.36	1084.09
388.73	1083.39
389.10	1082.90
389.46	1086.17
389.83	1087.16
390.20	1088.79
390.57	1090.71
390.94	1089.14
391.31	1084.84
391.68	1084.28
392.05	1085.99
392.42	1085.40
392.79	1085.42
393.16	1085.47
393.53	1084.46
393.89	1085.26
394.26	1085.63
394.63	1086.45
395.00	1090.60
395.37	1091.23
395.74	1088.96
396.11	1090.99
396.48	1090.57
396.84	1084.25
397.21	1082.52
397.58	1084.39
397.95	1085.77
398.32	1089.00
398.69	1093.03
399.06	1093.73
399.42	1090.64
399.79	1089.07
400.16	1083.81
400.53	1082.90
400.90	1080.88
401.27	1079.50
401.64	1080.60
402.00	1085.31
402.37	1087.67
402.74	1090.22
403.11	1093.36
403.48	1091.53
403.84	1088.07
404.21	1086.17
404.58	1086.10
404.95	1085.54
405.32	1084.67
405.68	1088.89
406.05	1089.80
406.42	1093.01
406.79	1093.69
407.16	1097.43
407.52	1095.67
407.89	1094.79
408.26	1095.23
408.63	1096.40
408.99	1095.70
409.36	1093.50
409.73	1098.86
410.10	1097.36
410.47	1101.39
410.83	1104.17
411.20	1105.88
411.57	1100.26
411.94	1101.11
412.30	1097.69
412.67	1098.51
413.04	1102.28
413.40	1103.98
413.77	1106.91
414.14	1107.05
414.51	1106.28
414.87	1105.86
415.24	1107.38
415.61	1102.60
415.97	1103.23
416.34	1105.18
416.71	1105.62
417.08	1107.47
417.44	1110.72
417.81	1113.21
418.18	1110.70
418.54	1112.95
418.91	1113.28
419.28	1116.06
419.64	1117.23
420.01	1119.29
420.38	1119.27
420.74	1121.30
421.11	1118.38
421.48	1119.57
421.84	1121.16
422.21	1125.61
422.58	1131.30
422.94	1138.02
423.31	1142.02
423.68	1145.32
424.04	1146.58
424.41	1144.76
424.77	1146.79
425.14	1150.79
425.51	1155.69
425.87	1161.12
426.24	1166.22
426.61	1173.57
426.97	1181.20
427.34	1187.87
427.70	1196.34
428.07	1203.67
428.44	1206.99
428.80	1212.33
429.17	1223.28
429.53	1233.06
429.90	1246.22
430.27	1261.01
430.63	1274.87
431.00	1286.76
431.36	1299.77
431.73	1313.86
432.09	1332.68
432.46	1351.07
432.83	1370.06
433.19	1391.85
433.56	1418.11
433.92	1437.81
434.29	1462.37
434.65	1487.62
435.02	1514.86
435.38	1545.74
435.75	1582.48
436.11	1623.65
436.48	1668.31
436.84	1714.14
437.21	1757.27
437.57	1801.11
437.94	1848.79
438.30	1898.39
438.67	1954.44
439.03	2019.32
439.40	2092.09
439.76	2162.21
440.13	2240.20
440.49	2317.43
440.86	2391.75
441.22	2474.72
441.59	2563.21
441.95	2663.74
442.32	2769.98
442.68	2889.65
443.05	3011.19
443.41	3136.18
443.78	3262.00
444.14	3400.07
444.51	3533.72
444.87	3700.43
445.24	3864.39
445.60	4041.52
445.96	4224.11
446.33	4429.30
446.69	4624.24
447.06	4842.71
447.42	5065.15
447.79	5292.21
448.15	5562.19
448.51	5829.97
448.88	6143.63
449.24	6445.65
449.61	6793.52
449.97	7135.40
450.33	7507.64
450.70	7863.85
451.06	8277.77
451.43	8678.89
451.79	9146.84
452.15	9641.81
452.52	10176.70
452.88	10727.71
453.24	11361.50
453.61	12047.63
453.97	12733.45
454.34	13411.08
454.70	14232.17
455.06	15012.69
455.43	15745.60
455.79	16428.95
456.15	17240.48
456.52	17976.48
456.88	18874.29
457.24	19776.66
457.61	20909.57
457.97	21963.24
458.33	23040.16
458.70	24109.72
459.06	25113.95
459.42	26092.41
459.79	26999.88
460.15	28039.76
460.51	28988.40
460.88	30060.48
461.24	31027.36
461.60	32186.88
461.96	33239.09
462.33	34252.69
462.69	35247.60
463.05	36327.99
463.42	37273.17
463.78	38167.63
464.14	38920.18
464.50	39673.44
464.87	40241.02
465.23	40616.81
465.59	41046.05
465.95	41404.92
466.32	41646.04
466.68	41860.15
467.04	41993.68
467.40	41982.21
467.77	42041.01
468.13	41960.96
468.49	41817.84
468.85	41712.58
469.22	41563.96
469.58	41318.81
469.94	41164.57
470.30	40927.52
470.66	40554.09
471.03	40046.66
471.39	39674.61
471.75	38942.51
472.11	38209.25
472.47	37712.00
472.84	37202.46
473.20	36497.21
473.56	36106.37
473.92	35578.72
474.28	34970.41
474.65	34338.87
475.01	33685.46
475.37	32881.46
475.73	32212.37
476.09	31506.89
476.45	30876.67
476.81	30338.61
477.18	29818.89
477.54	29347.81
477.90	28909.36
478.26	28346.91
478.62	27825.27
478.98	27363.81
479.34	26925.57
479.71	26375.52
480.07	25941.63
480.43	25488.20
480.79	25008.58
481.15	24541.64
481.51	24182.11
481.87	23870.26
482.23	23520.61
482.59	23212.80
482.96	22893.01
483.32	22588.25
483.68	22190.34
484.04	21848.53
484.40	21438.91
484.76	21008.77
485.12	20561.40
485.48	20123.27
485.84	19628.72
486.20	19212.57
486.56	18793.52
486.92	18409.25
487.28	18029.43
487.64	17635.49
488.00	17251.95
488.37	16862.74
488.73	16439.64
489.09	15989.74
489.45	15591.53
489.81	15151.48
490.17	14735.22
490.53	14343.18
490.89	13950.83
491.25	13531.99
491.61	13143.49
491.97	12751.07
492.33	12353.86
492.69	12000.91
493.05	11672.49
493.41	11337.51
493.77	11017.74
494.13	10705.96
494.49	10400.66
494.85	10118.23
495.21	9861.92
495.57	9596.50
495.93	9338.76
496.29	9092.05
496.64	8865.97
497.00	8620.03
497.36	8378.70
497.72	8154.78
498.08	7932.89
498.44	7713.56
498.80	7507.92
499.16	7308.86
499.52	7110.80
499.88	6938.47
500.24	6761.18
500.60	6595.14
500.96	6440.94
501.32	6285.25
501.68	6112.75
502.03	5938.57
502.39	5772.37
502.75	5604.53
503.11	5449.80
503.47	5317.86
503.83	5189.81
504.19	5059.56
504.55	4951.05
504.91	4835.50
505.26	4719.36
505.62	4599.76
505.98	4492.85
506.34	4374.53
506.70	4264.43
507.06	4158.38
507.42	4060.22
507.78	3966.79
508.13	3876.37
508.49	3793.17
508.85	3713.35
509.21	3638.74
509.57	3554.69
509.93	3466.29
510.28	3374.00
510.64	3289.01
511.00	3206.32
511.36	3128.66
511.72	3065.89
512.07	3013.04
512.43	2954.95
512.79	2899.01
513.15	2844.20
513.51	2783.18
513.86	2720.66
514.22	2669.19
514.58	2617.49
514.94	2571.69
515.30	2530.03
515.65	2492.13
516.01	2450.40
516.37	2408.90
516.73	2367.87
517.08	2326.70
517.44	2283.87
517.80	2240.62
518.16	2206.03
518.51	2172.98
518.87	2145.52
519.23	2114.63
519.59	2087.17
519.94	2052.84
520.30	2024.05
520.66	1994.72
521.01	1965.28
521.37	1936.00
521.73	1914.70
522.09	1892.42
522.44	1865.43
522.80	1846.17
523.16	1823.16
523.51	1798.28
523.87	1769.66
524.23	1748.17
524.58	1725.86
524.94	1708.01
525.30	1687.92
525.65	1671.24
526.01	1653.49
526.37	1629.50
526.72	1611.58
527.08	1596.10
527.44	1581.90
527.79	1566.97
528.15	1556.83
528.51	1542.02
528.86	1527.43
529.22	1514.89
529.58	1501.52
529.93	1487.48
530.29	1477.37
530.65	1465.92
531.00	1451.97
531.36	1441.96
531.71	1432.03
532.07	1422.13
532.43	1411.06
532.78	1400.18
533.14	1388.78
533.49	1379.51
533.85	1367.53
534.21	1358.42
534.56	1349.18
534.92	1344.05
535.27	1333.92
535.63	1327.86
535.98	1318.94
536.34	1311.29
536.69	1302.65
537.05	1297.62
537.41	1286.87
537.76	1281.61
538.12	1280.95
538.47	1274.70
538.83	1270.93
539.18	1268.66
539.54	1266.07
539.89	1258.81
540.25	1253.38
540.60	1246.15
540.96	1240.91
541.31	1235.22
541.67	1230.89
542.02	1228.99
542.38	1229.11
542.73	1225.22
543.09	1222.34
543.44	1216.96
543.80	1210.08
544.15	1204.65
544.51	1205.07
544.86	1204.49
545.22	1204.63
545.57	1204.21
545.93	1199.95
546.28	1196.90
546.64	1193.98
546.99	1188.34
547.35	1185.01
547.70	1183.07
548.05	1180.07
548.41	1175.86
548.76	1171.30
549.12	1170.69
549.47	1171.18
549.83	1168.79
550.18	1166.83
550.53	1167.46
550.89	1161.30
551.24	1159.36
551.60	1157.89
551.95	1157.09
552.30	1152.97
552.66	1154.24
553.01	1149.46
553.37	1147.31
553.72	1143.89
554.07	1145.01
554.43	1144.66
554.78	1143.07
555.13	1140.26
555.49	1138.37
555.84	1134.55
556.19	1130.90
556.55	1133.85
556.90	1135.28
557.26	1134.04
557.61	1134.55
557.96	1137.08
558.32	1132.42
558.67	1131.79
559.02	1127.79
559.37	1128.07
559.73	1126.41
560.08	1124.46
560.43	1120.65
560.79	1121.75
561.14	1124.37
561.49	1119.10
561.85	1120.09
562.20	1118.85
562.55	1119.99
562.90	1115.36
563.26	1117.18
563.61	1119.29
563.96	1119.36
564.32	1116.37
564.67	1115.22
565.02	1111.99
565.37	1108.62
565.73	1109.18
566.08	1107.45
566.43	1106.89
566.78	1106.44
567.14	1105.25
567.49	1103.33
567.84	1104.43
568.19	1103.00
568.54	1106.44
568.90	1105.34
569.25	1101.95
569.60	1101.97
569.95	1102.70
570.31	1100.94
570.66	1102.49
571.01	1105.13
571.36	1103.33
571.71	1101.95
572.06	1098.79
572.42	1097.08
572.77	1095.44
573.12	1096.99
573.47	1098.13
573.82	1100.22
574.18	1099.75
574.53	1100.66
574.88	1099.96
575.23	1097.43
575.58	1098.98
575.93	1100.38
576.28	1101.01
576.64	1098.83
576.99	1098.95
577.34	1095.02
577.69	1094.86
578.04	1094.83
578.39	1096.73
578.74	1096.59
579.09	1097.50
579.44	1098.81
579.80	1096.66
580.15	1094.88
580.50	1094.69
580.85	1094.04
581.20	1091.60
581.55	1091.18
581.90	1092.14
582.25	1093.31
582.60	1096.40
582.95	1096.38
583.30	1101.34
583.65	1100.96
584.00	1101.41
584.35	1096.47
584.71	1095.93
585.06	1093.12
585.41	1095.07
585.76	1092.07
586.11	1093.26
586.46	1091.11
586.81	1089.33
587.16	1087.95
587.51	1089.33
587.86	1087.48
588.21	1086.80
588.56	1087.13
588.91	1085.49
589.26	1084.35
589.61	1087.76
589.96	1089.40
590.31	1088.00
590.66	1090.90
591.01	1093.47
591.36	1090.10
591.71	1089.10
592.06	1090.74
592.41	1088.56
592.76	1086.71
593.10	1087.02
593.45	1089.66
593.80	1087.39
594.15	1087.23
594.50	1087.18
594.85	1088.70
595.20	1085.99
595.55	1085.91
595.90	1086.08
596.25	1087.46
596.60	1085.12
596.95	1083.29
597.30	1079.71
597.64	1091.84
597.99	1090.85
598.34	1095.58
598.69	1095.39
599.04	1098.25
599.39	1085.99
599.74	1087.69
600.09	1084.79
600.44	1087.53
600.78	1089.45
601.13	1089.19
601.48	1087.95
601.83	1087.48
602.18	1083.15
602.53	1079.50
602.88	1076.95
603.22	1074.40
603.57	1074.56
603.92	1078.21
604.27	1079.76
604.62	1081.00
604.97	1082.08
605.31	1080.70
605.66	1081.58
606.01	1082.12
606.36	1083.48
606.71	1086.59
607.05	1088.30
607.40	1087.86
607.75	1088.54
608.10	1091.18
608.44	1088.40
608.79	1087.41
609.14	1088.21
609.49	1090.78
609.84	1086.71
610.18	1085.35
610.53	1086.29
610.88	1084.81
611.23	1083.83
611.57	1085.73
611.92	1086.27
612.27	1086.59
612.62	1088.35
612.96	1087.39
613.31	1083.76
613.66	1081.94
614.00	1082.57
614.35	1082.12
614.70	1081.75
615.05	1082.83
615.39	1084.32
615.74	1086.97
616.09	1085.35
616.43	1086.71
616.78	1086.97
617.13	1087.02
617.47	1083.39
617.82	1082.52
618.17	1080.11
618.51	1080.04
618.86	1079.46
619.21	1078.36
619.55	1076.79
619.90	1074.35
620.25	1077.21
620.59	1078.99
620.94	1077.14
621.29	1080.70
621.63	1085.07
621.98	1085.66
622.32	1085.21
622.67	1087.39
623.02	1086.31
623.36	1082.99
623.71	1081.87
624.05	1080.81
624.40	1081.54
624.75	1082.01
625.09	1083.29
625.44	1084.14
625.78	1084.25
626.13	1085.77
626.48	1087.30
626.82	1087.72
627.17	1085.17
627.51	1085.59
627.86	1083.22
628.20	1082.78
628.55	1079.95
628.89	1081.82
629.24	1081.51
629.58	1081.37
629.93	1081.12
630.28	1082.69
630.62	1079.10
630.97	1079.85
631.31	1078.85
631.66	1079.08
632.00	1081.70
632.35	1083.36
632.69	1083.39
633.04	1086.64
633.38	1083.13
633.73	1081.89
634.07	1082.78
634.42	1084.00
634.76	1083.57
635.11	1083.22
635.45	1081.87
635.79	1081.84
636.14	1079.27
636.48	1076.69
636.83	1079.10
637.17	1079.69
637.52	1079.67
637.86	1079.50
638.21	1080.74
638.55	1079.06
638.89	1079.27
639.24	1077.61
639.58	1078.03
639.93	1077.84
640.27	1079.95
640.61	1081.23
640.96	1083.79
641.30	1084.39
641.65	1081.68
641.99	1083.11
642.33	1082.08
642.68	1080.37
643.02	1080.25
643.37	1083.29
643.71	1079.15
644.05	1078.78
644.40	1077.96
644.74	1080.63
645.08	1081.12
645.43	1084.25
645.77	1086.55
646.11	1090.50
646.46	1087.04
646.80	1086.13
647.14	1085.59
647.49	1086.62
647.83	1085.05
648.17	1083.76
648.52	1084.09
648.86	1084.21
649.20	1083.62
649.55	1082.38
649.89	1086.57
650.23	1084.46
650.57	1082.38
650.92	1081.30
651.26	1082.24
651.60	1079.83
651.95	1078.45
652.29	1081.80
652.63	1079.31
652.97	1078.43
653.32	1079.38
653.66	1082.73
654.00	1079.67
654.34	1077.96
654.69	1078.07
655.03	1077.63
655.37	1076.76
655.71	1078.73
656.05	1080.72
656.40	1079.62
656.74	1077.51
657.08	1075.97
657.42	1075.69
657.76	1076.93
658.11	1076.23
658.45	1077.30
658.79	1081.33
659.13	1080.86
659.47	1079.48
659.82	1084.42
660.16	1085.61
660.50	1084.63
660.84	1085.66
661.18	1088.96
661.52	1083.36
661.87	1080.27
662.21	1077.56
662.55	1076.67
662.89	1075.48
663.23	1078.61
663.57	1080.51
663.91	1078.99
664.25	1076.11
664.60	1072.36
664.94	1070.80
665.28	1069.58
665.62	1074.24
665.96	1078.14
666.30	1079.57
666.64	1079.71
666.98	1080.41
667.32	1078.99
667.66	1078.05
668.01	1076.60
668.35	1076.44
668.69	1076.90
669.03	1074.68
669.37	1075.97
669.71	1079.27
670.05	1080.09
670.39	1084.21
670.73	1090.55
671.07	1088.93
671.41	1085.70
671.75	1086.64
672.09	1081.14
672.43	1074.07
672.77	1074.40
673.11	1078.57
673.45	1077.91
673.79	1079.48
674.13	1080.72
674.47	1082.66
674.81	1079.46
675.15	1080.37
675.49	1078.24
675.83	1083.46
676.17	1080.41
676.51	1083.15
676.85	1081.96
677.19	1085.52
677.53	1082.05
677.87	1082.73
678.21	1078.94
678.55	1080.74
678.89	1081.58
679.23	1082.05
679.57	1079.31
679.90	1082.52
680.24	1078.21
680.58	1075.64
680.92	1074.73
681.26	1078.57
681.60	1077.54
681.94	1079.34
682.28	1079.57
682.62	1079.74
682.96	1077.37
683.29	1081.40
683.63	1080.98
683.97	1079.01
684.31	1078.89
684.65	1075.66
684.99	1072.11
685.33	1069.81
685.67	1070.75
686.00	1068.01
686.34	1071.57
686.68	1070.33
687.02	1070.07
687.36	1070.96
687.70	1075.83
688.03	1074.68
688.37	1074.82
688.71	1077.14
689.05	1076.25
689.39	1076.25
689.72	1078.26
690.06	1080.95
690.40	1081.66
690.74	1080.84
691.08	1079.29
691.41	1078.38
691.75	1076.58
692.09	1077.18
692.43	1079.34
692.76	1079.20
693.10	1080.98
693.44	1081.28
693.78	1081.87
694.11	1080.63
694.45	1082.66
694.79	1082.38
695.13	1083.97
695.46	1084.14
695.80	1086.57
696.14	1084.46
696.48	1083.81
696.81	1082.92
697.15	1083.95
697.49	1083.04
697.82	1081.33
698.16	1082.17
698.50	1080.95
698.83	1080.41
699.17	1081.91
699.51	1082.85
699.84	1084.81
700.18	1084.60
700.52	1084.30
700.85	1083.95
701.19	1082.92
701.53	1081.23
701.86	1082.83
702.20	1082.94
702.54	1080.63
702.87	1083.43
703.21	1083.55
703.55	1084.23
703.88	1081.87
704.22	1083.50
704.55	1083.95
704.89	1082.80
705.23	1081.96
705.56	1082.47
705.90	1082.61
706.23	1082.59
706.57	1078.75
706.91	1078.94
707.24	1081.02
707.58	1078.87
707.91	1078.17
708.25	1081.61
708.58	1080.74
708.92	1079.71
709.26	1081.49
709.59	1081.30
709.93	1081.49
710.26	1082.19
710.60	1077.70
710.93	1079.29
711.27	1078.47
711.60	1079.48
711.94	1080.84
712.27	1084.74
712.61	1084.25
712.94	1084.53
713.28	1082.83
713.61	1080.27
713.95	1081.73
714.28	1079.24
714.62	1080.65
714.95	1083.27
715.29	1082.69
715.62	1080.70
715.96	1082.76
716.29	1082.71
716.63	1081.56
716.96	1082.38
717.29	1080.72
717.63	1080.23
717.96	1079.83
718.30	1078.54
718.63	1078.92
718.97	1083.11
719.30	1082.52
719.63	1081.54
719.97	1082.71
720.30	1082.87
720.64	1080.37
720.97	1082.05
721.30	1082.08
721.64	1081.68
721.97	1080.60
722.31	1081.61
722.64	1079.50
722.97	1080.67
723.31	1079.95
723.64	1079.55
723.97	1077.25
724.31	1078.47
724.64	1076.25
724.98	1073.98
725.31	1075.20
725.64	1078.12
725.98	1077.07
726.31	1078.50
726.64	1080.51
726.97	1081.61
727.31	1079.48
727.64	1077.82
727.97	1078.59
728.31	1078.89
728.64	1076.48
728.97	1078.10
729.31	1080.02
729.64	1078.05
729.97	1079.53
730.30	1081.26
730.64	1080.39
730.97	1078.75
731.30	1078.31
731.63	1075.76
731.97	1073.91
732.30	1075.22
732.63	1075.29
732.96	1077.07
733.30	1078.31
733.63	1081.02
733.96	1082.22
734.29	1084.77
734.63	1083.83
734.96	1085.77
735.29	1084.30
735.62	1081.33
735.95	1081.87
736.29	1083.34
736.62	1083.32
736.95	1084.74
737.28	1084.58
737.61	1082.78
737.94	1082.92
738.28	1078.82
738.61	1078.14
738.94	1080.58
739.27	1079.50
739.60	1080.70
739.93	1082.40
740.27	1080.18
740.60	1079.31
740.93	1081.58
741.26	1079.03
741.59	1082.50
741.92	1084.60
742.25	1083.62
742.58	1083.76
742.91	1083.64
743.25	1082.33
743.58	1078.66
743.91	1080.37
744.24	1076.95
744.57	1077.35
744.90	1078.57
745.23	1080.25
745.56	1078.82
745.89	1082.38
746.22	1083.95
746.55	1082.80
746.88	1086.15
747.21	1088.37
747.54	1086.15
747.87	1085.77
748.20	1083.13
748.53	1082.78
748.87	1083.27
749.20	1084.07
749.53	1080.58
749.86	1079.67
750.19	1077.28
750.52	1073.09
750.85	1074.45
751.18	1075.94
751.51	1077.93
751.84	1079.01
752.16	1079.67
752.49	1078.94
752.82	1080.30
753.15	1080.11
753.48	1082.45
753.81	1086.15
754.14	1083.60
754.47	1081.33
754.80	1080.88
755.13	1079.88
755.46	1075.08
755.79	1077.09
756.12	1079.46
756.45	1081.94
756.78	1081.96
757.11	1081.73
757.43	1082.12
757.76	1079.13
758.09	1076.60
758.42	1074.66
758.75	1076.06
759.08	1073.18
759.41	1076.11
759.74	1077.16
760.07	1077.75
760.39	1078.24
760.72	1080.95
761.05	1076.79
761.38	1077.68
761.71	1077.84
762.04	1076.08
762.36	1074.89
762.69	1078.47
763.02	1079.31
763.35	1079.36
763.68	1081.82
764.01	1085.54
764.33	1086.10
764.66	1083.06
764.99	1082.76
765.32	1081.19
765.65	1077.23
765.97	1074.03
766.30	1076.72
766.63	1075.50
766.96	1074.07
767.28	1077.25
767.61	1078.31
767.94	1076.69
768.27	1079.34
768.59	1079.20
768.92	1076.67
769.25	1077.86
769.58	1077.04
769.90	1072.90
770.23	1074.17
770.56	1073.44
770.89	1071.78
771.21	1072.06
771.54	1073.30
771.87	1073.79
772.19	1073.79
772.52	1073.42
772.85	1072.04
773.17	1071.80
773.50	1071.82
773.83	1071.45
774.15	1071.47
774.48	1074.63
774.81	1075.55
775.13	1076.06
775.46	1076.95
775.79	1080.58
776.11	1081.87
776.44	1081.00
776.77	1080.84
777.09	1081.05
777.42	1080.48
777.74	1077.56
778.07	1081.68
778.40	1081.61
778.72	1081.28
779.05	1080.23
779.37	1079.99
779.70	1076.74
780.03	1074.03
780.35	1070.63
780.68	1073.30
781.00	1075.05
781.33	1072.88
781.65	1075.78
781.98	1078.82
782.31	1077.44
782.63	1079.57
782.96	1081.94
783.28	1079.53
783.61	1082.47
783.93	1079.78
784.26	1077.30
784.58	1078.38
784.91	1079.46
785.23	1077.40
785.56	1077.91
785.88	1075.66
786.21	1075.87
786.53	1076.46
786.86	1079.22
787.18	1077.00
787.51	1077.21
787.83	1076.30
788.16	1077.02
788.48	1072.32
788.81	1077.21
789.13	1077.51
789.46	1075.05
789.78	1073.46
790.10	1072.48
790.43	1072.06
790.75	1071.71
791.08	1074.10
791.40	1073.67
791.73	1077.47
792.05	1074.07
792.37	1076.67
792.70	1077.70
793.02	1078.40
793.35	1078.52
793.67	1079.74
793.99	1076.81
794.32	1074.52
794.64	1077.72
794.96	1075.22
795.29	1077.47
795.61	1082.47
795.93	1084.53
796.26	1082.76
796.58	1083.27
796.91	1083.08
797.23	1076.55
797.55	1074.70
797.87	1076.67
798.20	1078.26
798.52	1077.30
798.84	1080.39
799.17	1084.14
799.49	1081.00
799.81	1083.04
800.14	1082.99
800.46	1083.57
800.78	1081.05
801.10	1082.08
801.43	1077.07
801.75	1078.03
802.07	1075.94
802.40	1077.02
802.72	1076.60
803.04	1080.13
803.36	1076.88
803.69	1077.79
804.01	1076.41
804.33	1076.15
804.65	1074.68
804.97	1076.48
805.30	1074.49
805.62	1072.60
805.94	1073.86
806.26	1076.25
806.58	1074.63
806.91	1078.38
807.23	1079.88
807.55	1077.18
807.87	1074.98
808.19	1073.28
808.52	1071.87
808.84	1070.00
809.16	1071.57
809.48	1070.35
809.80	1074.82
810.12	1073.09
810.44	1073.77
810.77	1076.23
811.09	1080.02
811.41	1075.55
811.73	1076.65
812.05	1077.93
812.37	1076.04
812.69	1073.42
813.01	1077.09
813.33	1077.23
813.66	1077.68
813.98	1075.41
814.30	1073.37
814.62	1074.59
814.94	1076.81
815.26	1076.86
815.58	1079.31
815.90	1079.57
816.22	1079.08
816.54	1077.68
816.86	1076.86
817.18	1076.48
817.50	1081.19
817.82	1075.78
818.14	1075.71
818.46	1076.58
818.78	1075.97
819.10	1076.95
819.42	1082.40
819.74	1082.45
820.06	1081.09
820.38	1082.12
820.70	1078.47
821.02	1078.17
821.34	1078.85
821.66	1078.87
821.98	1078.66
822.30	1080.93
822.62	1081.94
822.94	1081.98
823.26	1085.82
823.58	1088.63
823.90	1085.38
824.22	1085.91
824.54	1084.28
824.86	1082.47
825.18	1078.94
825.50	1079.99
825.81	1077.28
826.13	1077.21
826.45	1076.08
826.77	1077.47
827.09	1072.43
827.41	1071.87
827.73	1070.91
828.05	1069.13
828.36	1069.44
828.68	1074.03
829.00	1073.98
829.32	1074.82
829.64	1078.03
829.96	1074.77
830.28	1074.84
830.59	1076.74
830.91	1076.34
831.23	1074.05
831.55	1075.15
831.87	1074.66
832.19	1074.33
832.50	1075.59
832.82	1078.59
833.14	1077.70
833.46	1076.04
833.78	1075.10
834.09	1076.44
834.41	1076.30
834.73	1079.60
835.05	1079.06
835.36	1078.38
835.68	1075.17
836.00	1073.86
836.32	1071.57
836.63	1074.89
836.95	1073.84
837.27	1074.87
837.59	1077.16
837.90	1077.54
838.22	1076.30
838.54	1078.66
838.85	1076.95
839.17	1074.52
839.49	1076.65
839.80	1078.38
840.12	1076.41
840.44	1077.49
840.76	1076.44
841.07	1075.36
841.39	1074.49
841.71	1077.09
842.02	1078.03
842.34	1075.83
842.65	1074.19
842.97	1074.24
843.29	1072.08
843.60	1071.92
843.92	1074.70
844.24	1076.01
844.55	1075.97
844.87	1078.10
845.18	1079.57
845.50	1078.75
845.82	1076.90
846.13	1077.23
846.45	1074.12
846.76	1075.59
847.08	1076.44
847.40	1079.97
847.71	1079.95
848.03	1083.74
848.34	1080.48
848.66	1079.01
848.97	1079.76
849.29	1076.72
849.60	1075.69
849.92	1075.10
850.24	1076.23
850.55	1069.67
850.87	1073.09
851.18	1071.92
851.50	1075.01
851.81	1076.90
852.13	1080.37
852.44	1078.61
852.76	1077.96
853.07	1075.03
853.39	1072.36
853.70	1070.82
854.01	1071.75
854.33	1071.73
854.64	1072.29
854.96	1073.56
855.27	1074.49
855.59	1070.89
855.90	1070.00
856.22	1069.53
856.53	1071.78
856.84	1069.55
857.16	1073.46
857.47	1076.15
857.79	1077.75
858.10	1074.80
858.41	1077.72
858.73	1078.17
859.04	1075.20
859.36	1072.97
859.67	1072.01
859.98	1072.81
860.30	1072.74
860.61	1074.42
860.92	1076.37
861.24	1077.54
861.55	1077.07
861.87	1076.72
862.18	1075.92
862.49	1077.09
862.81	1077.09
863.12	1074.68
863.43	1073.53
863.74	1072.08
864.06	1069.95
864.37	1071.12
864.68	1073.53
865.00	1071.90
865.31	1073.30
865.62	1071.50
865.94	1070.21
866.25	1074.17
866.56	1074.03
866.87	1072.76
867.19	1077.00
867.50	1075.57
867.81	1071.33
868.12	1072.69
868.44	1071.68
868.75	1069.02
869.06	1070.00
869.37	1069.72
869.68	1071.12
870.00	1072.92
870.31	1076.51
870.62	1074.38
870.93	1074.70
871.24	1073.04
871.56	1076.53
871.87	1071.85
872.18	1073.67
872.49	1073.67
872.80	1074.19
873.12	1072.57
873.43	1075.52
873.74	1076.23
874.05	1073.93
874.36	1077.93
874.67	1079.22
874.98	1078.36
875.29	1077.93
875.61	1079.34
875.92	1074.40
876.23	1074.05
876.54	1074.77
876.85	1074.63
877.16	1075.01
877.47	1075.85
877.78	1074.98
878.09	1074.21
878.40	1076.13
878.72	1076.62
879.03	1077.63
879.34	1077.33
879.65	1077.02
879.96	1074.91
880.27	1074.28
880.58	1073.28
880.89	1073.35
881.20	1074.05
881.51	1076.30
881.82	1078.57
882.13	1079.29
882.44	1081.23
882.75	1082.15
883.06	1082.22
883.37	1079.03
883.68	1079.53
883.99	1075.80
884.30	1072.32
884.61	1068.29
884.92	1069.13
885.23	1069.74
885.54	1070.28
885.85	1074.73
886.16	1078.75
886.47	1076.90
886.78	1073.72
887.08	1077.18
887.39	1074.19
887.70	1074.21
888.01	1079.76
888.32	1083.41
888.63	1081.89
888.94	1083.36
889.25	1082.64
889.56	1077.54
889.87	1075.36
890.17	1075.87
890.48	1073.00
890.79	1071.36
891.10	1075.73
891.41	1077.49
891.72	1075.20
892.03	1078.24
892.34	1082.31
892.64	1079.81
892.95	1078.52
893.26	1078.05
893.57	1076.65
893.88	1070.05
894.18	1069.55
894.49	1070.23
894.80	1071.01
895.11	1071.47
895.42	1076.41
895.72	1077.40
896.03	1078.33
896.34	1079.53
896.65	1078.05
896.96	1076.20
897.26	1077.23
897.57	1074.84
897.88	1073.37
898.19	1074.89
898.49	1073.93
898.80	1073.98
899.11	1073.23
899.41	1074.96
899.72	1075.34
900.03	1075.80
900.34	1075.29
900.64	1075.08
900.95	1076.01
901.26	1076.06
901.56	1076.93
901.87	1074.77
902.18	1077.11
902.48	1075.41
902.79	1074.82
903.10	1076.81
903.40	1079.83
903.71	1079.64
904.02	1082.24
904.32	1086.31
904.63	1083.86
904.94	1083.81
905.24	1084.91
905.55	1085.96
905.85	1082.12
906.16	1084.28
906.47	1085.10
906.77	1082.64
907.08	1077.28
907.38	1075.17
907.69	1070.42
908.00	1068.92
908.30	1069.02
908.61	1068.52
908.91	1072.29
909.22	1075.48
909.52	1076.01
909.83	1076.97
910.14	1079.60
910.44	1074.54
910.75	1075.57
911.05	1072.43
911.36	1071.17
911.66	1070.44
911.97	1073.16
912.27	1074.17
912.58	1076.48
912.88	1078.26
913.19	1077.56
913.49	1077.21
913.80	1074.17
914.10	1073.09
914.41	1070.42
914.71	1071.36
915.01	1072.36
915.32	1073.32
915.62	1073.60
915.93	1075.94
916.23	1075.83
916.54	1075.01
916.84	1074.75
917.15	1076.01
917.45	1073.49
917.75	1074.84
918.06	1079.71
918.36	1078.28
918.67	1077.14
918.97	1081.19
919.27	1081.42
919.58	1079.48
919.88	1081.89
920.18	1080.44
920.49	1081.19
920.79	1077.86
921.10	1073.35
921.40	1073.70
921.70	1075.80
922.01	1075.73
922.31	1076.72
922.61	1076.95
922.92	1075.01
923.22	1074.12
923.52	1070.28
923.82	1073.70
924.13	1075.48
924.43	1077.58
924.73	1078.71
925.04	1080.13
925.34	1077.77
925.64	1077.70
925.94	1078.78
926.25	1079.36
926.55	1078.17
926.85	1077.28
927.15	1077.56
927.46	1073.30
927.76	1073.88
928.06	1073.74
928.36	1076.76
928.67	1075.03
928.97	1077.09
929.27	1076.18
929.57	1077.77
929.87	1076.83
930.18	1079.85
930.48	1080.86
930.78	1081.61
931.08	1078.21
931.38	1076.88
931.69	1076.93
931.99	1076.69
932.29	1072.41
932.59	1077.47
932.89	1076.20
933.19	1076.04
933.49	1074.94
933.80	1076.27
934.10	1074.17
934.40	1075.27
934.70	1076.67
935.00	1077.56
935.30	1078.57
935.60	1080.79
935.90	1080.23
936.20	1077.14
936.50	1075.36
936.81	1072.20
937.11	1068.99
937.41	1070.42
937.71	1068.62
938.01	1068.08
938.31	1072.46
938.61	1075.22
938.91	1076.34
939.21	1078.54
939.51	1082.73
939.81	1085.12
940.11	1083.60
940.41	1082.85
940.71	1082.90
941.01	1078.61
941.31	1073.39
941.61	1072.71
941.91	1070.47
942.21	1070.70
942.51	1071.66
942.81	1074.31
943.11	1078.19
943.41	1077.65
943.71	1078.10
944.01	1075.27
944.31	1075.41
944.61	1071.66
944.90	1073.86
945.20	1075.66
945.50	1080.63
945.80	1077.89
946.10	1077.70
946.40	1076.04
946.70	1072.20
947.00	1071.50
947.30	1072.27
947.60	1074.94
947.89	1079.22
948.19	1082.38
948.49	1085.94
948.79	1088.14
949.09	1086.17
949.39	1083.71
949.69	1080.95
949.98	1072.41
950.28	1069.79
950.58	1069.09
950.88	1070.82
951.18	1072.78
951.48	1075.85
951.77	1076.76
952.07	1075.15
952.37	1071.97
952.67	1071.99
952.97	1074.26
953.26	1075.31
953.56	1078.19
953.86	1076.72
954.16	1076.34
954.45	1073.93
954.75	1074.17
955.05	1072.92
955.35	1072.11
955.64	1068.03
955.94	1068.15
956.24	1068.69
956.54	1068.76
956.83	1071.90
957.13	1077.42
957.43	1077.51
957.72	1075.78
958.02	1076.86
958.32	1077.49
958.61	1074.14
958.91	1075.76
959.21	1076.74
959.50	1076.32
959.80	1076.13
960.10	1078.12
960.39	1081.77
960.69	1082.73
960.99	1082.61
961.28	1079.99
961.58	1077.00
961.87	1070.82
962.17	1070.61
962.47	1071.64
962.76	1072.06
963.06	1074.87
963.36	1078.38
963.65	1077.79
963.95	1078.85
964.24	1083.97
964.54	1082.01
964.83	1081.12
965.13	1081.26
965.42	1081.54
965.72	1079.55
966.02	1080.56
966.31	1079.01
966.61	1076.88
966.90	1076.62
967.20	1076.27
967.49	1076.86
967.79	1075.97
968.08	1077.91
968.38	1076.95
968.67	1076.60
968.97	1077.72
969.26	1080.11
969.56	1078.78
969.85	1076.72
970.15	1077.04
970.44	1076.60
970.74	1076.53
971.03	1075.22
971.32	1079.57
971.62	1079.64
971.91	1077.09
972.21	1073.51
972.50	1075.99
972.80	1072.83
973.09	1074.38
973.38	1074.52
973.68	1077.51
973.97	1080.18
974.27	1082.08
974.56	1079.03
974.85	1082.29
975.15	1082.45
975.44	1079.01
975.73	1074.63
976.03	1074.89
976.32	1075.80
976.61	1074.66
976.91	1073.72
977.20	1074.56
977.49	1074.03
977.79	1075.92
978.08	1074.96
978.37	1076.41
978.67	1078.43
978.96	1079.36
979.25	1076.69
979.55	1076.76
979.84	1076.76
980.13	1076.06
980.42	1077.86
980.72	1074.89
981.01	1076.79
981.30	1074.94
981.59	1074.19
981.89	1072.27
982.18	1073.77
982.47	1072.92
982.76	1074.73
983.06	1076.23
983.35	1074.38
983.64	1076.69
983.93	1078.10
984.22	1077.98
984.52	1077.14
984.81	1078.78
985.10	1072.55
985.39	1073.63
985.68	1072.97
985.97	1073.30
986.27	1070.72
986.56	1073.88
986.85	1072.76
987.14	1073.37
987.43	1073.28
987.72	1079.10
988.01	1078.33
988.31	1077.65
988.60	1075.05
988.89	1074.54
989.18	1071.80
989.47	1071.43
989.76	1071.57
990.05	1073.04
990.34	1074.45
990.63	1075.87
990.92	1078.10
991.21	1077.68
991.51	1076.76
991.80	1076.76
992.09	1073.70
992.38	1071.54
992.67	1072.69
992.96	1074.87
993.25	1073.91
993.54	1073.21
993.83	1073.81
994.12	1073.32
994.41	1071.54
994.70	1069.95
994.99	1073.44
995.28	1075.78
995.57	1077.40
995.86	1078.78
996.15	1078.92
996.44	1076.72
996.73	1070.16
997.02	1070.00
997.31	1072.04
997.59	1075.08
997.88	1074.47
998.17	1080.25
998.46	1078.94
998.75	1077.91
999.04	1076.41
999.33	1080.04
999.62	1080.25
999.91	1082.47
1000.20	1082.01
1000.49	1082.85
1000.77	1080.11
1001.06	1078.10
1001.35	1075.17
1001.64	1076.39
1001.93	1074.52
1002.22	1074.17
1002.51	1077.23
1002.79	1078.85
1003.08	1076.46
1003.37	1080.93
1003.66	1082.66
1003.95	1080.16
1004.23	1079.81
1004.52	1081.84
1004.81	1076.81
1005.10	1075.69
1005.39	1074.31
1005.67	1073.35
1005.96	1070.47
1006.25	1073.44
1006.54	1074.42
1006.83	1075.45
1007.11	1074.54
1007.40	1076.95
1007.69	1071.59
1007.97	1069.84
1008.26	1070.56
1008.55	1071.87
1008.84	1070.58
1009.12	1073.56
1009.41	1073.77
1009.70	1073.49
1009.98	1070.61
1010.27	1068.92
1010.56	1070.00
1010.85	1069.65
1011.13	1072.11
1011.42	1075.29
1011.71	1078.99
1011.99	1076.65
1012.28	1075.66
1012.56	1075.59
1012.85	1074.77
1013.14	1075.13
1013.42	1075.76
1013.71	1077.49
1014.00	1076.23
1014.28	1078.47
1014.57	1078.17
1014.85	1078.24
1015.14	1081.49
1015.43	1082.87
1015.71	1080.46
1016.00	1079.50
1016.28	1084.28
1016.57	1078.43
1016.85	1078.68
1017.14	1078.10
1017.43	1076.23
1017.71	1076.65
1018.00	1078.85
1018.28	1077.00
1018.57	1077.56
1018.85	1078.43
1019.14	1073.74
1019.42	1072.76
1019.71	1072.74
1019.99	1072.62
1020.28	1073.35
1020.56	1074.19
1020.85	1080.44
1021.13	1080.11
1021.42	1080.86
1021.70	1080.37
1021.99	1082.71
1022.27	1078.64
1022.55	1086.24
1022.84	1077.47
>>>>>End Processed Spectral Data<<<<<
