SpectraSuite Data File
++++++++++++++++++++++++++++++++++++
Date: Mon Aug 26 10:22:07 PDT 2019
User: corrico
Dark Spectrum Present: No
Reference Spectrum Present: No
Number of Sampled Component Spectra: 1
Spectrometers: USB2+H06089
Integration Time (usec): 2000 (USB2+H06089)
Spectra Averaged: 20 (USB2+H06089)
Boxcar Smoothing: 2 (USB2+H06089)
Correct for Electrical Dark: No (USB2+H06089)
Strobe/Lamp Enabled: No (USB2+H06089)
Correct for Detector Non-linearity: No (USB2+H06089)
Correct for Stray Light: No (USB2+H06089)
Number of Pixels in Processed Spectrum: 2048
>>>>>Begin Processed Spectral Data<<<<<
339.70	1018.48
340.07	1018.48
340.45	986.79
340.82	964.82
341.19	944.08
341.57	922.17
341.94	910.28
342.31	909.58
342.69	906.93
343.06	903.70
343.43	902.91
343.81	905.97
344.18	904.66
344.55	906.21
344.93	911.71
345.30	917.86
345.67	923.25
346.04	930.46
346.42	940.33
346.79	950.07
347.16	955.36
347.54	962.76
347.91	972.28
348.28	982.88
348.65	990.51
349.03	1005.05
349.40	1015.16
349.77	1020.61
350.14	1028.17
350.52	1034.89
350.89	1036.88
351.26	1040.34
351.63	1049.89
352.01	1053.38
352.38	1057.34
352.75	1062.51
353.12	1065.88
353.50	1066.61
353.87	1073.21
354.24	1073.79
354.61	1075.22
354.98	1080.37
355.36	1084.16
355.73	1082.76
356.10	1087.25
356.47	1089.19
356.84	1091.39
357.22	1094.48
357.59	1094.76
357.96	1095.86
358.33	1094.79
358.70	1089.87
359.08	1085.49
359.45	1087.13
359.82	1083.15
360.19	1082.40
360.56	1082.71
360.94	1080.86
361.31	1078.80
361.68	1079.38
362.05	1081.42
362.42	1083.06
362.79	1083.69
363.16	1080.79
363.54	1079.41
363.91	1077.86
364.28	1074.63
364.65	1074.59
365.02	1073.98
365.39	1073.93
365.76	1073.81
366.14	1077.33
366.51	1077.77
366.88	1076.13
367.25	1077.28
367.62	1079.76
367.99	1078.92
368.36	1078.82
368.73	1081.54
369.10	1078.99
369.48	1077.56
369.85	1077.07
370.22	1078.59
370.59	1078.85
370.96	1081.05
371.33	1080.13
371.70	1080.34
372.07	1078.92
372.44	1079.48
372.81	1081.54
373.18	1077.89
373.55	1073.32
373.93	1073.98
374.30	1071.75
374.67	1069.11
375.04	1072.78
375.41	1077.18
375.78	1076.69
376.15	1081.35
376.52	1083.15
376.89	1082.92
377.26	1080.91
377.63	1082.52
378.00	1081.33
378.37	1083.67
378.74	1082.50
379.11	1085.47
379.48	1085.63
379.85	1086.17
380.22	1085.66
380.59	1086.22
380.96	1085.05
381.33	1083.69
381.70	1084.28
382.07	1080.30
382.44	1081.19
382.81	1081.07
383.18	1079.69
383.55	1079.27
383.92	1080.06
384.29	1081.89
384.66	1083.57
385.03	1081.84
385.40	1078.73
385.77	1079.41
386.14	1076.25
386.51	1077.37
386.88	1078.75
387.25	1079.43
387.62	1083.41
387.99	1084.79
388.36	1083.67
388.73	1086.15
389.10	1087.79
389.46	1082.71
389.83	1085.24
390.20	1085.33
390.57	1088.14
390.94	1086.45
391.31	1089.03
391.68	1090.83
392.05	1089.29
392.42	1085.21
392.79	1085.94
393.16	1084.91
393.53	1082.59
393.89	1085.28
394.26	1087.55
394.63	1089.92
395.00	1091.18
395.37	1088.19
395.74	1089.00
396.11	1088.70
396.48	1084.16
396.84	1083.74
397.21	1085.52
397.58	1083.04
397.95	1079.50
398.32	1083.93
398.69	1085.17
399.06	1086.36
399.42	1086.76
399.79	1089.40
400.16	1087.69
400.53	1090.78
400.90	1091.23
401.27	1091.18
401.64	1090.95
402.00	1092.87
402.37	1088.47
402.74	1088.37
403.11	1087.44
403.48	1089.24
403.84	1093.24
404.21	1097.06
404.58	1099.49
404.95	1100.85
405.32	1100.71
405.68	1099.63
406.05	1098.65
406.42	1095.93
406.79	1096.40
407.16	1097.80
407.52	1093.08
407.89	1091.53
408.26	1091.58
408.63	1096.21
408.99	1094.11
409.36	1096.45
409.73	1097.90
410.10	1096.80
410.47	1094.72
410.83	1097.73
411.20	1098.34
411.57	1098.74
411.94	1101.62
412.30	1101.69
412.67	1101.64
413.04	1103.73
413.40	1104.69
413.77	1105.36
414.14	1105.86
414.51	1105.39
414.87	1106.98
415.24	1107.94
415.61	1106.46
415.97	1105.55
416.34	1107.24
416.71	1106.07
417.08	1104.97
417.44	1107.47
417.81	1109.48
418.18	1108.85
418.54	1111.08
418.91	1112.55
419.28	1115.66
419.64	1118.42
420.01	1120.39
420.38	1121.19
420.74	1124.84
421.11	1127.53
421.48	1128.70
421.84	1131.34
422.21	1131.51
422.58	1133.50
422.94	1131.53
423.31	1133.64
423.68	1137.55
424.04	1143.05
424.41	1147.85
424.77	1152.36
425.14	1156.65
425.51	1157.77
425.87	1159.08
426.24	1160.20
426.61	1165.56
426.97	1173.54
427.34	1185.67
427.70	1197.35
428.07	1207.04
428.44	1216.75
428.80	1222.98
429.17	1230.05
429.53	1237.11
429.90	1248.47
430.27	1260.21
430.63	1273.86
431.00	1287.13
431.36	1304.29
431.73	1318.05
432.09	1335.23
432.46	1350.54
432.83	1367.39
433.19	1386.07
433.56	1412.02
433.92	1437.67
434.29	1467.09
434.65	1496.63
435.02	1528.25
435.38	1559.17
435.75	1589.79
436.11	1627.21
436.48	1666.53
436.84	1712.34
437.21	1755.17
437.57	1807.17
437.94	1860.49
438.30	1915.68
438.67	1971.97
439.03	2038.16
439.40	2105.52
439.76	2173.56
440.13	2250.28
440.49	2335.46
440.86	2414.85
441.22	2501.24
441.59	2597.71
441.95	2697.37
442.32	2794.95
442.68	2914.90
443.05	3034.74
443.41	3158.67
443.78	3291.24
444.14	3432.09
444.51	3571.00
444.87	3740.57
445.24	3908.53
445.60	4089.90
445.96	4273.96
446.33	4488.66
446.69	4693.24
447.06	4906.72
447.42	5127.15
447.79	5367.34
448.15	5638.35
448.51	5911.65
448.88	6238.18
449.24	6553.78
449.61	6909.38
449.97	7255.47
450.33	7641.57
450.70	7996.79
451.06	8432.06
451.43	8838.78
451.79	9303.54
452.15	9794.74
452.52	10340.14
452.88	10903.27
453.24	11537.48
453.61	12251.89
453.97	12960.74
454.34	13658.48
454.70	14468.02
455.06	15282.57
455.43	16037.70
455.79	16739.16
456.15	17568.06
456.52	18333.21
456.88	19268.76
457.24	20189.18
457.61	21317.81
457.97	22382.61
458.33	23482.92
458.70	24516.76
459.06	25516.40
459.42	26523.04
459.79	27458.04
460.15	28508.15
460.51	29508.40
460.88	30622.91
461.24	31616.96
461.60	32760.90
461.96	33815.47
462.33	34866.09
462.69	35897.78
463.05	37050.05
463.42	38096.55
463.78	39075.83
464.14	39859.30
464.50	40614.66
464.87	41132.57
465.23	41448.34
465.59	41819.92
465.95	42136.15
466.32	42357.82
466.68	42629.72
467.04	42830.91
467.40	42873.70
467.77	42974.15
468.13	42893.85
468.49	42696.12
468.85	42581.11
469.22	42447.49
469.58	42188.79
469.94	42066.19
470.30	41866.17
470.66	41508.23
471.03	40985.85
471.39	40623.32
471.75	39902.83
472.11	39175.79
472.47	38651.63
472.84	38119.86
473.20	37398.55
473.56	36994.53
473.92	36433.11
474.28	35799.43
474.65	35143.71
475.01	34438.10
475.37	33600.19
475.73	32906.13
476.09	32207.50
476.45	31554.12
476.81	31016.50
477.18	30468.86
477.54	29984.95
477.90	29518.72
478.26	28926.47
478.62	28390.65
478.98	27955.83
479.34	27507.40
479.71	26949.42
480.07	26532.85
480.43	26112.61
480.79	25627.18
481.15	25165.11
481.51	24787.91
481.87	24450.45
482.23	24086.52
482.59	23746.49
482.96	23393.87
483.32	23095.40
483.68	22730.63
484.04	22360.94
484.40	21941.40
484.76	21535.57
485.12	21055.44
485.48	20598.05
485.84	20113.86
486.20	19695.98
486.56	19237.66
486.92	18852.41
487.28	18466.64
487.64	18058.26
488.00	17657.75
488.37	17273.90
488.73	16834.89
489.09	16352.60
489.45	15917.70
489.81	15451.84
490.17	15017.37
490.53	14608.01
490.89	14197.60
491.25	13778.34
491.61	13367.22
491.97	12958.26
492.33	12559.53
492.69	12204.28
493.05	11866.56
493.41	11561.80
493.77	11244.78
494.13	10938.21
494.49	10644.34
494.85	10357.55
495.21	10069.62
495.57	9802.23
495.93	9535.39
496.29	9268.59
496.64	9032.78
497.00	8778.69
497.36	8525.68
497.72	8276.09
498.08	8059.61
498.44	7830.57
498.80	7626.75
499.16	7421.44
499.52	7228.67
499.88	7041.38
500.24	6862.19
500.60	6704.93
500.96	6557.41
501.32	6400.34
501.68	6228.38
502.03	6061.50
502.39	5884.57
502.75	5707.12
503.11	5547.44
503.47	5410.90
503.83	5277.49
504.19	5155.31
504.55	5046.36
504.91	4935.70
505.26	4818.65
505.62	4699.77
505.98	4586.16
506.34	4459.66
506.70	4336.71
507.06	4221.27
507.42	4120.09
507.78	4012.94
508.13	3924.96
508.49	3852.71
508.85	3776.34
509.21	3690.46
509.57	3606.98
509.93	3516.58
510.28	3417.32
510.64	3333.04
511.00	3258.89
511.36	3184.91
511.72	3118.48
512.07	3060.88
512.43	2996.03
512.79	2935.83
513.15	2876.99
513.51	2817.42
513.86	2761.46
514.22	2708.49
514.58	2652.62
514.94	2604.48
515.30	2563.52
515.65	2512.03
516.01	2475.68
516.37	2436.66
516.73	2393.74
517.08	2353.34
517.44	2316.26
517.80	2269.71
518.16	2231.30
518.51	2201.39
518.87	2170.38
519.23	2137.05
519.59	2110.44
519.94	2075.45
520.30	2041.65
520.66	2008.32
521.01	1978.64
521.37	1947.89
521.73	1919.31
522.09	1894.73
522.44	1870.70
522.80	1849.35
523.16	1825.38
523.51	1809.09
523.87	1787.37
524.23	1762.63
524.58	1740.49
524.94	1720.69
525.30	1700.80
525.65	1680.34
526.01	1664.40
526.37	1648.21
526.72	1629.81
527.08	1607.71
527.44	1591.82
527.79	1577.54
528.15	1561.63
528.51	1550.51
528.86	1541.20
529.22	1527.43
529.58	1512.36
529.93	1502.51
530.29	1488.16
530.65	1473.79
531.00	1462.06
531.36	1450.17
531.71	1435.80
532.07	1423.44
532.43	1412.19
532.78	1400.65
533.14	1388.50
533.49	1379.14
533.85	1370.85
534.21	1361.61
534.56	1354.28
534.92	1347.19
535.27	1341.10
535.63	1331.79
535.98	1324.11
536.34	1317.82
536.69	1312.64
537.05	1303.40
537.41	1297.83
537.76	1293.50
538.12	1285.94
538.47	1279.59
538.83	1273.74
539.18	1268.31
539.54	1260.28
539.89	1255.14
540.25	1250.74
540.60	1250.74
540.96	1248.70
541.31	1251.58
541.67	1247.41
542.02	1242.24
542.38	1238.45
542.73	1234.00
543.09	1224.52
543.44	1220.68
543.80	1218.86
544.15	1212.73
544.51	1209.66
544.86	1208.35
545.22	1209.19
545.57	1206.20
545.93	1201.96
546.28	1197.91
546.64	1194.14
546.99	1186.65
547.35	1187.89
547.70	1184.12
548.05	1181.32
548.41	1179.12
548.76	1175.93
549.12	1172.09
549.47	1170.76
549.83	1167.72
550.18	1164.39
550.53	1162.38
550.89	1154.70
551.24	1152.32
551.60	1149.41
551.95	1148.10
552.30	1148.36
552.66	1148.90
553.01	1145.62
553.37	1143.26
553.72	1142.67
554.07	1142.51
554.43	1143.05
554.78	1143.75
555.13	1150.26
555.49	1146.09
555.84	1145.36
556.19	1142.18
556.55	1141.22
556.90	1134.32
557.26	1134.93
557.61	1133.90
557.96	1133.01
558.32	1133.64
558.67	1134.46
559.02	1132.80
559.37	1130.24
559.73	1127.86
560.08	1124.00
560.43	1119.13
560.79	1119.01
561.14	1118.54
561.49	1119.60
561.85	1121.26
562.20	1122.90
562.55	1119.90
562.90	1117.00
563.26	1113.65
563.61	1109.34
563.96	1108.92
564.32	1107.14
564.67	1106.77
565.02	1107.19
565.37	1107.05
565.73	1108.17
566.08	1110.47
566.43	1109.30
566.78	1109.34
567.14	1108.36
567.49	1105.32
567.84	1104.33
568.19	1107.00
568.54	1107.12
568.90	1111.85
569.25	1111.57
569.60	1107.96
569.95	1106.02
570.31	1103.14
570.66	1100.57
571.01	1099.30
571.36	1104.73
571.71	1104.43
572.06	1105.25
572.42	1103.94
572.77	1107.61
573.12	1104.62
573.47	1100.71
573.82	1103.19
574.18	1102.18
574.53	1098.86
574.88	1099.96
575.23	1101.22
575.58	1097.38
575.93	1096.10
576.28	1096.80
576.64	1095.11
576.99	1095.09
577.34	1095.86
577.69	1098.37
578.04	1097.17
578.39	1092.89
578.74	1096.28
579.09	1096.80
579.44	1095.28
579.80	1096.26
580.15	1099.91
580.50	1097.73
580.85	1096.28
581.20	1092.96
581.55	1092.28
581.90	1093.33
582.25	1093.08
582.60	1090.62
582.95	1092.19
583.30	1089.66
583.65	1092.40
584.00	1092.40
584.35	1093.90
584.71	1093.55
585.06	1096.07
585.41	1093.47
585.76	1092.96
586.11	1096.47
586.46	1101.34
586.81	1099.00
587.16	1098.53
587.51	1097.43
587.86	1093.26
588.21	1090.99
588.56	1090.62
588.91	1086.92
589.26	1089.24
589.61	1088.70
589.96	1086.90
590.31	1087.02
590.66	1089.33
591.01	1086.55
591.36	1086.78
591.71	1084.37
592.06	1087.69
592.41	1089.10
592.76	1091.37
593.10	1090.88
593.45	1094.22
593.80	1090.78
594.15	1088.91
594.50	1086.22
594.85	1086.85
595.20	1087.41
595.55	1088.89
595.90	1087.27
596.25	1086.15
596.60	1086.48
596.95	1084.28
597.30	1081.35
597.64	1095.00
597.99	1097.24
598.34	1097.62
598.69	1099.12
599.04	1100.68
599.39	1088.44
599.74	1086.10
600.09	1088.82
600.44	1087.67
600.78	1086.99
601.13	1087.86
601.48	1090.10
601.83	1085.12
602.18	1084.35
602.53	1085.28
602.88	1084.79
603.22	1082.73
603.57	1084.00
603.92	1084.11
604.27	1084.56
604.62	1083.32
604.97	1086.13
605.31	1086.92
605.66	1089.38
606.01	1091.16
606.36	1093.31
606.71	1094.50
607.05	1095.39
607.40	1093.38
607.75	1092.84
608.10	1091.25
608.44	1089.03
608.79	1085.70
609.14	1085.96
609.49	1086.50
609.84	1090.29
610.18	1088.37
610.53	1088.89
610.88	1090.46
611.23	1088.47
611.57	1083.95
611.92	1084.65
612.27	1085.87
612.62	1081.40
612.96	1079.43
613.31	1081.12
613.66	1083.01
614.00	1083.62
614.35	1085.96
614.70	1087.18
615.05	1083.83
615.39	1080.58
615.74	1078.26
616.09	1078.87
616.43	1082.15
616.78	1084.56
617.13	1086.50
617.47	1088.14
617.82	1087.69
618.17	1084.23
618.51	1085.07
618.86	1085.31
619.21	1086.08
619.55	1088.58
619.90	1091.93
620.25	1094.60
620.59	1093.71
620.94	1091.13
621.29	1090.62
621.63	1089.45
621.98	1087.44
622.32	1087.74
622.67	1091.04
623.02	1086.69
623.36	1080.81
623.71	1078.10
624.05	1074.63
624.40	1073.35
624.75	1074.52
625.09	1078.82
625.44	1078.92
625.78	1083.20
626.13	1082.01
626.48	1080.51
626.82	1081.75
627.17	1085.59
627.51	1084.56
627.86	1084.09
628.20	1085.14
628.55	1083.67
628.89	1079.95
629.24	1077.96
629.58	1079.15
629.93	1080.34
630.28	1079.15
630.62	1079.62
630.97	1082.52
631.31	1081.84
631.66	1079.78
632.00	1080.46
632.35	1082.54
632.69	1082.59
633.04	1084.04
633.38	1088.12
633.73	1087.04
634.07	1086.38
634.42	1086.31
634.76	1090.50
635.11	1087.13
635.45	1089.54
635.79	1087.04
636.14	1087.76
636.48	1080.34
636.83	1081.98
637.17	1080.06
637.52	1083.22
637.86	1080.98
638.21	1082.83
638.55	1084.42
638.89	1086.38
639.24	1084.37
639.58	1083.67
639.93	1086.10
640.27	1085.87
640.61	1083.62
640.96	1081.68
641.30	1083.32
641.65	1078.71
641.99	1076.90
642.33	1075.97
642.68	1077.86
643.02	1081.44
643.37	1086.36
643.71	1086.45
644.05	1087.25
644.40	1084.63
644.74	1079.71
645.08	1080.06
645.43	1081.84
645.77	1083.48
646.11	1088.42
646.46	1087.86
646.80	1083.62
647.14	1081.33
647.49	1081.61
647.83	1077.49
648.17	1077.33
648.52	1081.98
648.86	1082.73
649.20	1082.12
649.55	1079.64
649.89	1084.23
650.23	1081.66
650.57	1083.11
650.92	1081.75
651.26	1086.78
651.60	1088.79
651.95	1087.83
652.29	1088.21
652.63	1089.19
652.97	1088.44
653.32	1082.38
653.66	1084.44
654.00	1083.57
654.34	1083.29
654.69	1083.32
655.03	1083.81
655.37	1082.85
655.71	1080.06
656.05	1081.12
656.40	1081.14
656.74	1081.75
657.08	1083.67
657.42	1084.46
657.76	1084.53
658.11	1084.49
658.45	1087.23
658.79	1085.68
659.13	1086.87
659.47	1088.42
659.82	1088.77
660.16	1089.10
660.50	1090.90
660.84	1091.72
661.18	1087.60
661.52	1086.71
661.87	1086.01
662.21	1083.90
662.55	1083.97
662.89	1083.88
663.23	1084.44
663.57	1082.59
663.91	1083.50
664.25	1080.09
664.60	1083.48
664.94	1083.13
665.28	1083.20
665.62	1081.40
665.96	1081.70
666.30	1081.23
666.64	1083.39
666.98	1082.38
667.32	1079.29
667.66	1079.74
668.01	1077.56
668.35	1078.05
668.69	1079.57
669.03	1085.73
669.37	1086.69
669.71	1086.59
670.05	1081.63
670.39	1079.76
670.73	1079.13
671.07	1077.47
671.41	1076.97
671.75	1080.16
672.09	1079.41
672.43	1077.37
672.77	1076.65
673.11	1078.47
673.45	1079.53
673.79	1079.64
674.13	1079.38
674.47	1081.84
674.81	1083.67
675.15	1082.47
675.49	1082.03
675.83	1084.35
676.17	1086.48
676.51	1084.63
676.85	1084.74
677.19	1088.23
677.53	1086.92
677.87	1082.97
678.21	1082.38
678.55	1081.84
678.89	1083.20
679.23	1081.54
679.57	1083.81
679.90	1086.76
680.24	1085.10
680.58	1082.83
680.92	1081.58
681.26	1080.06
681.60	1075.59
681.94	1076.25
682.28	1075.10
682.62	1075.59
682.96	1076.58
683.29	1080.84
683.63	1080.63
683.97	1078.38
684.31	1081.35
684.65	1081.89
684.99	1080.98
685.33	1084.56
685.67	1089.03
686.00	1091.44
686.34	1093.03
686.68	1089.71
687.02	1088.56
687.36	1088.89
687.70	1084.74
688.03	1081.68
688.37	1082.45
688.71	1081.00
689.05	1078.75
689.39	1078.45
689.72	1082.15
690.06	1082.47
690.40	1082.26
690.74	1080.93
691.08	1079.29
691.41	1074.07
691.75	1074.98
692.09	1074.28
692.43	1071.97
692.76	1075.45
693.10	1076.15
693.44	1071.92
693.78	1073.46
694.11	1074.98
694.45	1070.94
694.79	1074.12
695.13	1078.07
695.46	1076.53
695.80	1074.91
696.14	1074.94
696.48	1075.50
696.81	1076.65
697.15	1080.98
697.49	1085.07
697.82	1087.72
698.16	1086.31
698.50	1085.38
698.83	1084.49
699.17	1084.00
699.51	1082.33
699.84	1081.58
700.18	1080.67
700.52	1078.94
700.85	1081.02
701.19	1082.50
701.53	1084.37
701.86	1086.59
702.20	1084.89
702.54	1083.48
702.87	1082.17
703.21	1078.73
703.55	1077.16
703.88	1079.03
704.22	1079.29
704.55	1081.68
704.89	1083.25
705.23	1081.05
705.56	1078.94
705.90	1079.29
706.23	1077.00
706.57	1076.95
706.91	1081.30
707.24	1081.19
707.58	1076.90
707.91	1076.95
708.25	1076.88
708.58	1074.87
708.92	1074.52
709.26	1076.13
709.59	1079.36
709.93	1079.62
710.26	1081.02
710.60	1084.32
710.93	1082.97
711.27	1082.99
711.60	1081.80
711.94	1079.55
712.27	1077.37
712.61	1080.95
712.94	1077.37
713.28	1077.58
713.61	1077.68
713.95	1078.31
714.28	1075.64
714.62	1076.18
714.95	1078.57
715.29	1074.70
715.62	1072.71
715.96	1076.51
716.29	1075.31
716.63	1073.51
716.96	1077.63
717.29	1078.99
717.63	1075.48
717.96	1078.80
718.30	1080.32
718.63	1082.61
718.97	1082.12
719.30	1081.35
719.63	1081.68
719.97	1081.33
720.30	1078.19
720.64	1081.26
720.97	1084.65
721.30	1081.68
721.64	1082.73
721.97	1082.36
722.31	1081.73
722.64	1078.31
722.97	1082.36
723.31	1079.53
723.64	1081.21
723.97	1078.52
724.31	1079.10
724.64	1076.48
724.98	1079.03
725.31	1076.83
725.64	1077.30
725.98	1080.34
726.31	1080.95
726.64	1082.99
726.97	1086.71
727.31	1086.90
727.64	1083.46
727.97	1082.33
728.31	1078.24
728.64	1075.66
728.97	1073.60
729.31	1076.18
729.64	1079.34
729.97	1078.73
730.30	1079.10
730.64	1082.66
730.97	1083.22
731.30	1083.22
731.63	1084.21
731.97	1081.91
732.30	1080.77
732.63	1077.65
732.96	1076.06
733.30	1077.58
733.63	1081.02
733.96	1081.96
734.29	1085.40
734.63	1086.45
734.96	1085.14
735.29	1084.07
735.62	1080.81
735.95	1077.98
736.29	1077.49
736.62	1077.33
736.95	1075.97
737.28	1078.64
737.61	1078.14
737.94	1075.03
738.28	1075.59
738.61	1077.02
738.94	1076.39
739.27	1079.46
739.60	1080.72
739.93	1079.27
740.27	1079.06
740.60	1080.32
740.93	1080.32
741.26	1081.63
741.59	1083.97
741.92	1087.88
742.25	1087.39
742.58	1085.77
742.91	1085.52
743.25	1085.68
743.58	1082.83
743.91	1080.63
744.24	1082.80
744.57	1082.40
744.90	1084.16
745.23	1082.03
745.56	1084.37
745.89	1084.28
746.22	1086.41
746.55	1082.38
746.88	1083.04
747.21	1083.81
747.54	1083.69
747.87	1081.09
748.20	1079.46
748.53	1080.34
748.87	1077.77
749.20	1074.87
749.53	1071.68
749.86	1072.22
750.19	1073.04
750.52	1072.22
750.85	1074.33
751.18	1075.85
751.51	1075.85
751.84	1078.52
752.16	1082.80
752.49	1081.82
752.82	1083.39
753.15	1083.25
753.48	1078.03
753.81	1076.81
754.14	1076.51
754.47	1076.97
754.80	1079.13
755.13	1080.34
755.46	1080.06
755.79	1079.81
756.12	1079.34
756.45	1075.38
756.78	1076.20
757.11	1075.64
757.43	1077.23
757.76	1078.17
758.09	1078.54
758.42	1076.46
758.75	1073.60
759.08	1072.57
759.41	1071.68
759.74	1074.82
760.07	1076.90
760.39	1080.20
760.72	1078.31
761.05	1076.67
761.38	1075.87
761.71	1076.62
762.04	1073.91
762.36	1076.39
762.69	1077.70
763.02	1080.04
763.35	1083.08
763.68	1085.75
764.01	1085.70
764.33	1087.30
764.66	1086.24
764.99	1080.09
765.32	1080.30
765.65	1080.65
765.97	1077.91
766.30	1075.38
766.63	1077.07
766.96	1076.27
767.28	1076.34
767.61	1078.17
767.94	1079.60
768.27	1080.34
768.59	1083.46
768.92	1082.97
769.25	1080.70
769.58	1080.44
769.90	1080.34
770.23	1076.67
770.56	1074.17
770.89	1074.33
771.21	1076.04
771.54	1074.54
771.87	1075.94
772.19	1075.52
772.52	1075.03
772.85	1075.57
773.17	1077.00
773.50	1075.48
773.83	1079.67
774.15	1082.26
774.48	1079.60
774.81	1080.46
775.13	1080.44
775.46	1080.34
775.79	1079.10
776.11	1079.36
776.44	1077.33
776.77	1078.40
777.09	1080.48
777.42	1082.59
777.74	1085.00
778.07	1085.94
778.40	1085.77
778.72	1080.77
779.05	1080.98
779.37	1082.31
779.70	1084.74
780.03	1085.52
780.35	1088.84
780.68	1088.56
781.00	1083.90
781.33	1083.41
781.65	1083.34
781.98	1083.15
782.31	1079.64
782.63	1082.61
782.96	1078.28
783.28	1075.57
783.61	1068.97
783.93	1072.39
784.26	1071.78
784.58	1071.57
784.91	1074.05
785.23	1077.21
785.56	1075.59
785.88	1073.16
786.21	1074.54
786.53	1074.56
786.86	1075.97
787.18	1079.74
787.51	1081.66
787.83	1079.81
788.16	1076.60
788.48	1077.77
788.81	1077.47
789.13	1078.07
789.46	1079.64
789.78	1080.93
790.10	1079.85
790.43	1074.24
790.75	1070.37
791.08	1072.76
791.40	1074.21
791.73	1072.64
792.05	1074.00
792.37	1078.40
792.70	1076.01
793.02	1072.64
793.35	1073.74
793.67	1075.83
793.99	1072.29
794.32	1072.88
794.64	1075.85
794.96	1078.96
795.29	1077.42
795.61	1083.29
795.93	1086.17
796.26	1089.80
796.58	1087.30
796.91	1088.00
797.23	1084.25
797.55	1079.69
797.87	1077.16
798.20	1076.20
798.52	1075.90
798.84	1077.23
799.17	1081.14
799.49	1079.69
799.81	1077.51
800.14	1077.61
800.46	1076.27
800.78	1075.45
801.10	1075.24
801.43	1081.12
801.75	1082.19
802.07	1078.71
802.40	1074.82
802.72	1075.55
803.04	1074.33
803.36	1070.87
803.69	1074.19
804.01	1077.54
804.33	1076.11
804.65	1073.25
804.97	1074.21
805.30	1077.30
805.62	1075.87
805.94	1077.42
806.26	1078.82
806.58	1081.44
806.91	1076.76
807.23	1075.05
807.55	1073.14
807.87	1077.25
808.19	1076.11
808.52	1079.36
808.84	1081.96
809.16	1086.92
809.48	1081.94
809.80	1082.83
810.12	1080.13
810.44	1079.55
810.77	1079.08
811.09	1078.31
811.41	1075.17
811.73	1076.79
812.05	1078.45
812.37	1075.43
812.69	1077.75
813.01	1078.94
813.33	1075.62
813.66	1077.49
813.98	1078.14
814.30	1077.33
814.62	1079.81
814.94	1080.60
815.26	1076.72
815.58	1075.01
815.90	1074.73
816.22	1073.84
816.54	1075.52
816.86	1077.33
817.18	1079.83
817.50	1079.43
817.82	1077.37
818.14	1080.56
818.46	1080.09
818.78	1080.53
819.10	1080.30
819.42	1081.68
819.74	1082.19
820.06	1081.91
820.38	1080.18
820.70	1080.16
821.02	1081.26
821.34	1077.61
821.66	1077.93
821.98	1075.57
822.30	1074.73
822.62	1076.86
822.94	1076.04
823.26	1076.76
823.58	1079.92
823.90	1081.14
824.22	1078.85
824.54	1081.96
824.86	1081.33
825.18	1080.48
825.50	1077.72
825.81	1077.07
826.13	1076.11
826.45	1074.42
826.77	1075.03
827.09	1078.33
827.41	1078.12
827.73	1078.28
828.05	1081.61
828.36	1081.40
828.68	1081.68
829.00	1080.25
829.32	1080.23
829.64	1077.72
829.96	1077.70
830.28	1076.72
830.59	1075.55
830.91	1074.89
831.23	1077.00
831.55	1074.94
831.87	1076.69
832.19	1076.55
832.50	1075.94
832.82	1076.04
833.14	1077.70
833.46	1076.37
833.78	1081.12
834.09	1082.24
834.41	1080.77
834.73	1080.32
835.05	1081.02
835.36	1078.61
835.68	1081.19
836.00	1080.34
836.32	1080.65
836.63	1080.58
836.95	1080.67
837.27	1077.72
837.59	1079.06
837.90	1079.76
838.22	1079.38
838.54	1082.78
838.85	1083.04
839.17	1081.80
839.49	1082.76
839.80	1082.76
840.12	1080.44
840.44	1080.09
840.76	1080.04
841.07	1080.23
841.39	1080.41
841.71	1079.38
842.02	1079.64
842.34	1078.00
842.65	1076.67
842.97	1077.16
843.29	1078.07
843.60	1077.42
843.92	1077.70
844.24	1077.54
844.55	1077.30
844.87	1077.37
845.18	1078.26
845.50	1079.01
845.82	1080.41
846.13	1082.15
846.45	1083.13
846.76	1084.77
847.08	1087.95
847.40	1088.21
847.71	1084.39
848.03	1082.47
848.34	1079.67
848.66	1076.86
848.97	1074.70
849.29	1075.36
849.60	1075.50
849.92	1075.45
850.24	1077.14
850.55	1077.63
850.87	1075.50
851.18	1075.64
851.50	1075.05
851.81	1073.02
852.13	1072.41
852.44	1075.45
852.76	1074.91
853.07	1075.76
853.39	1078.52
853.70	1074.68
854.01	1073.86
854.33	1076.83
854.64	1074.19
854.96	1072.64
855.27	1076.74
855.59	1076.06
855.90	1074.54
856.22	1077.09
856.53	1075.52
856.84	1077.16
857.16	1079.99
857.47	1079.57
857.79	1078.36
858.10	1081.28
858.41	1079.90
858.73	1078.82
859.04	1079.03
859.36	1080.67
859.67	1078.75
859.98	1077.21
860.30	1076.93
860.61	1075.01
860.92	1075.99
861.24	1076.48
861.55	1076.46
861.87	1076.34
862.18	1079.08
862.49	1077.72
862.81	1079.03
863.12	1079.43
863.43	1079.46
863.74	1079.48
864.06	1081.80
864.37	1080.18
864.68	1077.89
865.00	1076.08
865.31	1075.38
865.62	1072.34
865.94	1069.70
866.25	1073.98
866.56	1074.75
866.87	1073.58
867.19	1075.03
867.50	1079.64
867.81	1079.10
868.12	1077.23
868.44	1079.99
868.75	1078.26
869.06	1075.22
869.37	1073.67
869.68	1076.51
870.00	1076.13
870.31	1075.20
870.62	1078.33
870.93	1081.42
871.24	1080.23
871.56	1079.17
871.87	1083.62
872.18	1082.40
872.49	1081.80
872.80	1083.41
873.12	1084.42
873.43	1082.80
873.74	1085.19
874.05	1082.83
874.36	1083.18
874.67	1079.43
874.98	1079.20
875.29	1078.12
875.61	1079.50
875.92	1076.83
876.23	1077.77
876.54	1075.85
876.85	1074.52
877.16	1075.27
877.47	1078.71
877.78	1080.67
878.09	1082.90
878.40	1081.12
878.72	1080.95
879.03	1082.69
879.34	1081.82
879.65	1081.21
879.96	1082.97
880.27	1078.78
880.58	1075.78
880.89	1075.73
881.20	1073.72
881.51	1071.97
881.82	1077.14
882.13	1075.55
882.44	1074.80
882.75	1075.64
883.06	1078.45
883.37	1075.66
883.68	1077.37
883.99	1080.93
884.30	1083.36
884.61	1081.84
884.92	1082.29
885.23	1081.49
885.54	1081.58
885.85	1080.13
886.16	1081.26
886.47	1082.38
886.78	1082.69
887.08	1080.30
887.39	1078.57
887.70	1075.69
888.01	1075.55
888.32	1076.20
888.63	1073.32
888.94	1074.05
889.25	1075.97
889.56	1071.92
889.87	1074.07
890.17	1078.07
890.48	1079.62
890.79	1077.72
891.10	1081.12
891.41	1076.27
891.72	1072.55
892.03	1071.47
892.34	1069.81
892.64	1069.04
892.95	1068.76
893.26	1071.22
893.57	1071.75
893.88	1076.65
894.18	1077.21
894.49	1081.05
894.80	1081.68
895.11	1079.41
895.42	1074.47
895.72	1073.04
896.03	1071.03
896.34	1068.41
896.65	1071.75
896.96	1075.69
897.26	1074.17
897.57	1076.53
897.88	1079.34
898.19	1076.74
898.49	1075.50
898.80	1076.90
899.11	1075.57
899.41	1074.66
899.72	1075.05
900.03	1074.03
900.34	1073.02
900.64	1074.89
900.95	1073.88
901.26	1073.70
901.56	1075.01
901.87	1079.17
902.18	1081.56
902.48	1082.61
902.79	1083.53
903.10	1085.19
903.40	1083.53
903.71	1080.02
904.02	1082.08
904.32	1080.67
904.63	1080.95
904.94	1079.99
905.24	1079.01
905.55	1075.57
905.85	1079.01
906.16	1078.57
906.47	1079.17
906.77	1076.20
907.08	1078.05
907.38	1073.84
907.69	1072.48
908.00	1074.24
908.30	1078.19
908.61	1076.97
908.91	1076.86
909.22	1076.65
909.52	1076.18
909.83	1077.91
910.14	1077.25
910.44	1079.83
910.75	1079.53
911.05	1077.14
911.36	1077.47
911.66	1080.58
911.97	1083.15
912.27	1083.62
912.58	1079.64
912.88	1075.97
913.19	1070.68
913.49	1066.42
913.80	1066.02
914.10	1069.77
914.41	1068.13
914.71	1073.42
915.01	1073.74
915.32	1075.45
915.62	1079.99
915.93	1084.93
916.23	1083.50
916.54	1086.45
916.84	1084.96
917.15	1082.10
917.45	1079.31
917.75	1076.79
918.06	1075.64
918.36	1074.94
918.67	1074.59
918.97	1076.81
919.27	1079.60
919.58	1081.14
919.88	1081.61
920.18	1082.26
920.49	1077.96
920.79	1077.42
921.10	1074.91
921.40	1075.97
921.70	1076.95
922.01	1080.74
922.31	1080.11
922.61	1080.30
922.92	1080.63
923.22	1078.17
923.52	1078.36
923.82	1079.15
924.13	1079.48
924.43	1078.03
924.73	1077.25
925.04	1077.37
925.34	1074.49
925.64	1071.15
925.94	1072.85
926.25	1076.25
926.55	1073.25
926.85	1075.31
927.15	1078.96
927.46	1077.47
927.76	1076.08
928.06	1074.45
928.36	1079.10
928.67	1080.44
928.97	1083.53
929.27	1080.72
929.57	1081.91
929.87	1077.63
930.18	1074.07
930.48	1074.33
930.78	1081.98
931.08	1083.32
931.38	1082.47
931.69	1082.47
931.99	1078.40
932.29	1073.60
932.59	1072.32
932.89	1072.62
933.19	1072.64
933.49	1074.00
933.80	1073.02
934.10	1073.79
934.40	1072.39
934.70	1072.67
935.00	1073.07
935.30	1073.74
935.60	1077.16
935.90	1079.53
936.20	1084.30
936.50	1083.69
936.81	1084.67
937.11	1085.14
937.41	1085.31
937.71	1081.44
938.01	1080.11
938.31	1076.97
938.61	1075.36
938.91	1075.64
939.21	1073.32
939.51	1072.90
939.81	1076.01
940.11	1074.63
940.41	1074.84
940.71	1076.88
941.01	1080.84
941.31	1078.07
941.61	1078.05
941.91	1076.06
942.21	1076.11
942.51	1074.00
942.81	1076.34
943.11	1074.52
943.41	1073.51
943.71	1074.87
944.01	1076.72
944.31	1077.04
944.61	1077.98
944.90	1079.95
945.20	1077.21
945.50	1074.40
945.80	1070.80
946.10	1069.74
946.40	1072.11
946.70	1075.57
947.00	1075.17
947.30	1080.04
947.60	1083.93
947.89	1079.57
948.19	1079.78
948.49	1083.81
948.79	1081.75
949.09	1078.85
949.39	1080.91
949.69	1082.05
949.98	1078.59
950.28	1077.56
950.58	1078.33
950.88	1077.11
951.18	1074.26
951.48	1076.81
951.77	1077.21
952.07	1078.78
952.37	1081.70
952.67	1082.64
952.97	1080.77
953.26	1081.26
953.56	1077.93
953.86	1079.08
954.16	1078.07
954.45	1078.61
954.75	1080.16
955.05	1082.15
955.35	1078.78
955.64	1077.89
955.94	1079.43
956.24	1078.61
956.54	1076.93
956.83	1075.83
957.13	1072.92
957.43	1071.17
957.72	1067.75
958.02	1069.51
958.32	1071.15
958.61	1074.00
958.91	1075.20
959.21	1081.05
959.50	1079.27
959.80	1076.74
960.10	1078.14
960.39	1073.58
960.69	1069.91
960.99	1071.99
961.28	1073.46
961.58	1069.81
961.87	1073.04
962.17	1076.48
962.47	1078.43
962.76	1077.98
963.06	1083.67
963.36	1084.53
963.65	1081.19
963.95	1078.19
964.24	1076.58
964.54	1074.77
964.83	1071.82
965.13	1072.41
965.42	1074.61
965.72	1078.45
966.02	1076.34
966.31	1077.91
966.61	1078.61
966.90	1076.55
967.20	1074.68
967.49	1077.63
967.79	1078.78
968.08	1077.44
968.38	1079.78
968.67	1080.04
968.97	1079.10
969.26	1081.37
969.56	1084.11
969.85	1080.30
970.15	1081.51
970.44	1082.87
970.74	1079.29
971.03	1080.37
971.32	1083.95
971.62	1084.93
971.91	1082.19
972.21	1084.65
972.50	1078.99
972.80	1078.71
973.09	1078.45
973.38	1080.58
973.68	1077.47
973.97	1080.67
974.27	1081.61
974.56	1079.27
974.85	1077.72
975.15	1079.31
975.44	1080.27
975.73	1078.45
976.03	1078.82
976.32	1079.01
976.61	1079.99
976.91	1078.54
977.20	1075.66
977.49	1076.69
977.79	1075.64
978.08	1073.67
978.37	1073.72
978.67	1076.39
978.96	1074.52
979.25	1076.37
979.55	1075.73
979.84	1072.57
980.13	1072.69
980.42	1074.12
980.72	1074.56
981.01	1074.17
981.30	1078.43
981.59	1079.13
981.89	1081.61
982.18	1078.94
982.47	1083.25
982.76	1082.66
983.06	1081.44
983.35	1075.55
983.64	1077.82
983.93	1074.84
984.22	1074.70
984.52	1075.41
984.81	1077.44
985.10	1077.86
985.39	1077.02
985.68	1073.23
985.97	1072.04
986.27	1074.00
986.56	1072.46
986.85	1073.70
987.14	1076.04
987.43	1074.52
987.72	1075.15
988.01	1076.83
988.31	1076.60
988.60	1078.47
988.89	1077.58
989.18	1076.23
989.47	1075.03
989.76	1076.39
990.05	1071.61
990.34	1078.59
990.63	1078.36
990.92	1078.40
991.21	1078.87
991.51	1082.10
991.80	1075.48
992.09	1074.21
992.38	1075.45
992.67	1075.85
992.96	1077.07
993.25	1082.10
993.54	1084.46
993.83	1083.29
994.12	1082.33
994.41	1079.24
994.70	1078.19
994.99	1078.73
995.28	1080.13
995.57	1078.68
995.86	1082.59
996.15	1078.10
996.44	1077.16
996.73	1076.39
997.02	1078.66
997.31	1075.59
997.59	1077.47
997.88	1077.30
998.17	1077.37
998.46	1076.69
998.75	1079.50
999.04	1081.21
999.33	1081.35
999.62	1082.52
999.91	1082.24
1000.20	1078.21
1000.49	1080.84
1000.77	1080.51
1001.06	1076.41
1001.35	1074.73
1001.64	1075.73
1001.93	1073.93
1002.22	1076.23
1002.51	1078.47
1002.79	1079.43
1003.08	1081.14
1003.37	1078.38
1003.66	1074.10
1003.95	1074.52
1004.23	1072.27
1004.52	1070.56
1004.81	1072.06
1005.10	1073.18
1005.39	1072.62
1005.67	1075.29
1005.96	1076.58
1006.25	1074.14
1006.54	1072.71
1006.83	1069.84
1007.11	1070.21
1007.40	1068.08
1007.69	1070.91
1007.97	1071.61
1008.26	1070.63
1008.55	1068.57
1008.84	1068.85
1009.12	1066.75
1009.41	1066.39
1009.70	1072.41
1009.98	1076.67
1010.27	1079.50
1010.56	1082.33
1010.85	1084.74
1011.13	1082.85
1011.42	1079.13
1011.71	1078.24
1011.99	1076.55
1012.28	1076.13
1012.56	1077.56
1012.85	1079.85
1013.14	1081.94
1013.42	1081.35
1013.71	1079.76
1014.00	1080.63
1014.28	1078.59
1014.57	1077.35
1014.85	1077.16
1015.14	1077.54
1015.43	1075.69
1015.71	1075.57
1016.00	1076.30
1016.28	1080.67
1016.57	1081.40
1016.85	1082.36
1017.14	1083.95
1017.43	1087.11
1017.71	1083.25
1018.00	1083.08
1018.28	1081.40
1018.57	1082.08
1018.85	1077.47
1019.14	1076.69
1019.42	1075.80
1019.71	1075.66
1019.99	1072.48
1020.28	1073.02
1020.56	1075.13
1020.85	1072.41
1021.13	1073.72
1021.42	1075.55
1021.70	1073.42
1021.99	1075.90
1022.27	1079.29
1022.55	1092.56
1022.84	1073.60
>>>>>End Processed Spectral Data<<<<<
