SpectraSuite Data File
++++++++++++++++++++++++++++++++++++
Date: Mon Aug 26 10:22:04 PDT 2019
User: corrico
Dark Spectrum Present: No
Reference Spectrum Present: No
Number of Sampled Component Spectra: 1
Spectrometers: USB2+H06089
Integration Time (usec): 2000 (USB2+H06089)
Spectra Averaged: 20 (USB2+H06089)
Boxcar Smoothing: 2 (USB2+H06089)
Correct for Electrical Dark: No (USB2+H06089)
Strobe/Lamp Enabled: No (USB2+H06089)
Correct for Detector Non-linearity: No (USB2+H06089)
Correct for Stray Light: No (USB2+H06089)
Number of Pixels in Processed Spectrum: 2048
>>>>>Begin Processed Spectral Data<<<<<
339.70	1026.44
340.07	1026.44
340.45	993.23
340.82	970.11
341.19	946.30
341.57	924.46
341.94	913.86
342.31	904.36
342.69	901.25
343.06	898.93
343.43	898.81
343.81	899.73
344.18	902.70
344.55	908.20
344.93	913.09
345.30	914.73
345.67	920.04
346.04	929.33
346.42	935.91
346.79	942.91
347.16	955.13
347.54	967.44
347.91	975.65
348.28	989.27
348.65	1000.51
349.03	1004.93
349.40	1013.26
349.77	1021.43
350.14	1022.84
350.52	1030.58
350.89	1038.12
351.26	1040.63
351.63	1044.09
352.01	1052.07
352.38	1056.24
352.75	1062.32
353.12	1068.43
353.50	1078.00
353.87	1077.44
354.24	1081.84
354.61	1082.64
354.98	1082.33
355.36	1078.71
355.73	1083.22
356.10	1082.24
356.47	1083.27
356.84	1087.65
357.22	1087.86
357.59	1086.99
357.96	1087.55
358.33	1088.12
358.70	1088.02
359.08	1088.44
359.45	1087.97
359.82	1089.45
360.19	1089.57
360.56	1084.91
360.94	1084.72
361.31	1085.10
361.68	1079.83
362.05	1075.71
362.42	1075.31
362.79	1073.88
363.16	1072.69
363.54	1073.67
363.91	1075.52
364.28	1074.61
364.65	1075.57
365.02	1073.63
365.39	1072.76
365.76	1073.00
366.14	1076.23
366.51	1079.06
366.88	1080.72
367.25	1082.10
367.62	1082.80
367.99	1080.98
368.36	1078.05
368.73	1081.49
369.10	1083.08
369.48	1079.55
369.85	1081.51
370.22	1078.96
370.59	1073.51
370.96	1070.14
371.33	1073.39
371.70	1071.80
372.07	1076.93
372.44	1080.32
372.81	1079.62
373.18	1083.62
373.55	1085.77
373.93	1082.03
374.30	1080.44
374.67	1083.04
375.04	1078.99
375.41	1079.74
375.78	1077.28
376.15	1077.89
376.52	1082.33
376.89	1082.59
377.26	1078.94
377.63	1078.66
378.00	1079.69
378.37	1076.01
378.74	1075.41
379.11	1077.93
379.48	1080.32
379.85	1083.04
380.22	1083.08
380.59	1084.00
380.96	1082.05
381.33	1082.36
381.70	1077.37
382.07	1074.77
382.44	1072.43
382.81	1073.81
383.18	1074.28
383.55	1076.48
383.92	1078.33
384.29	1086.22
384.66	1085.68
385.03	1088.84
385.40	1087.60
385.77	1088.07
386.14	1083.64
386.51	1085.70
386.88	1085.45
387.25	1085.31
387.62	1084.23
387.99	1084.35
388.36	1084.51
388.73	1081.66
389.10	1085.35
389.46	1086.50
389.83	1085.33
390.20	1084.63
390.57	1088.19
390.94	1088.28
391.31	1086.57
391.68	1089.99
392.05	1089.96
392.42	1089.05
392.79	1088.84
393.16	1091.11
393.53	1089.57
393.89	1091.32
394.26	1092.82
394.63	1091.44
395.00	1091.74
395.37	1093.71
395.74	1090.01
396.11	1087.95
396.48	1089.31
396.84	1091.20
397.21	1087.48
397.58	1088.26
397.95	1089.22
398.32	1090.01
398.69	1088.61
399.06	1090.27
399.42	1093.52
399.79	1092.09
400.16	1091.95
400.53	1094.18
400.90	1093.73
401.27	1090.55
401.64	1093.12
402.00	1091.44
402.37	1089.52
402.74	1091.72
403.11	1094.60
403.48	1096.89
403.84	1097.41
404.21	1101.27
404.58	1101.71
404.95	1103.35
405.32	1102.49
405.68	1101.71
406.05	1099.23
406.42	1101.34
406.79	1100.15
407.16	1098.93
407.52	1100.64
407.89	1099.58
408.26	1094.67
408.63	1094.01
408.99	1095.67
409.36	1092.70
409.73	1095.53
410.10	1096.21
410.47	1096.10
410.83	1094.62
411.20	1097.38
411.57	1096.56
411.94	1099.70
412.30	1100.50
412.67	1099.98
413.04	1097.83
413.40	1097.34
413.77	1093.19
414.14	1093.47
414.51	1094.83
414.87	1097.69
415.24	1098.06
415.61	1102.49
415.97	1103.96
416.34	1103.63
416.71	1107.10
417.08	1109.11
417.44	1110.47
417.81	1111.45
418.18	1113.79
418.54	1115.45
418.91	1116.83
419.28	1118.68
419.64	1120.32
420.01	1123.11
420.38	1121.87
420.74	1123.71
421.11	1125.33
421.48	1127.83
421.84	1128.00
422.21	1130.48
422.58	1132.77
422.94	1132.49
423.31	1138.90
423.68	1140.80
424.04	1144.38
424.41	1146.14
424.77	1152.08
425.14	1151.92
425.51	1161.68
425.87	1165.68
426.24	1173.97
426.61	1177.34
426.97	1182.58
427.34	1187.03
427.70	1196.15
428.07	1200.44
428.44	1211.44
428.80	1220.66
429.17	1228.55
429.53	1237.49
429.90	1251.86
430.27	1263.33
430.63	1277.58
431.00	1292.35
431.36	1306.65
431.73	1322.03
432.09	1339.61
432.46	1359.29
432.83	1379.09
433.19	1400.93
433.56	1422.34
433.92	1445.14
434.29	1471.03
434.65	1499.93
435.02	1529.49
435.38	1563.50
435.75	1593.37
436.11	1634.84
436.48	1676.01
436.84	1720.20
437.21	1762.54
437.57	1815.06
437.94	1862.29
438.30	1911.75
438.67	1972.53
439.03	2036.71
439.40	2106.95
439.76	2175.64
440.13	2256.16
440.49	2333.63
440.86	2411.83
441.22	2495.99
441.59	2589.01
441.95	2689.91
442.32	2792.59
442.68	2917.69
443.05	3038.39
443.41	3163.16
443.78	3290.54
444.14	3433.85
444.51	3568.87
444.87	3739.97
445.24	3914.69
445.60	4099.87
445.96	4286.90
446.33	4508.48
446.69	4709.39
447.06	4924.84
447.42	5149.90
447.79	5393.37
448.15	5656.72
448.51	5944.52
448.88	6272.24
449.24	6581.89
449.61	6939.95
449.97	7303.08
450.33	7687.42
450.70	8053.67
451.06	8494.81
451.43	8897.66
451.79	9359.19
452.15	9851.60
452.52	10393.73
452.88	10941.21
453.24	11579.43
453.61	12276.72
453.97	12975.65
454.34	13667.49
454.70	14509.24
455.06	15325.64
455.43	16093.90
455.79	16798.61
456.15	17633.53
456.52	18360.40
456.88	19278.29
457.24	20187.80
457.61	21308.00
457.97	22359.07
458.33	23464.48
458.70	24513.98
459.06	25508.94
459.42	26539.22
459.79	27480.60
460.15	28537.05
460.51	29540.11
460.88	30660.20
461.24	31644.63
461.60	32789.97
461.96	33858.89
462.33	34887.98
462.69	35947.54
463.05	37096.58
463.42	38130.16
463.78	39089.45
464.14	39874.77
464.50	40601.13
464.87	41083.00
465.23	41402.65
465.59	41751.74
465.95	42056.59
466.32	42306.19
466.68	42616.26
467.04	42830.59
467.40	42901.53
467.77	43049.15
468.13	42975.72
468.49	42776.54
468.85	42646.06
469.22	42543.33
469.58	42272.11
469.94	42135.45
470.30	41944.44
470.66	41584.42
471.03	41022.97
471.39	40636.66
471.75	39873.51
472.11	39105.79
472.47	38587.15
472.84	38031.97
473.20	37308.19
473.56	36913.31
473.92	36397.16
474.28	35783.19
474.65	35180.26
475.01	34499.99
475.37	33693.58
475.73	32991.35
476.09	32292.14
476.45	31643.90
476.81	31100.71
477.18	30528.40
477.54	30053.60
477.90	29579.88
478.26	28982.29
478.62	28471.56
478.98	28049.73
479.34	27613.36
479.71	27052.99
480.07	26638.99
480.43	26174.80
480.79	25675.23
481.15	25168.69
481.51	24779.65
481.87	24413.00
482.23	24029.91
482.59	23701.11
482.96	23372.07
483.32	23064.93
483.68	22689.81
484.04	22351.48
484.40	21938.68
484.76	21521.67
485.12	21071.35
485.48	20648.63
485.84	20151.68
486.20	19723.25
486.56	19275.20
486.92	18884.28
487.28	18468.14
487.64	18061.77
488.00	17654.03
488.37	17247.50
488.73	16770.50
489.09	16285.47
489.45	15838.24
489.81	15377.74
490.17	14942.85
490.53	14568.10
490.89	14180.37
491.25	13794.60
491.61	13415.13
491.97	13030.91
492.33	12629.55
492.69	12280.04
493.05	11950.56
493.41	11624.79
493.77	11310.50
494.13	11001.83
494.49	10693.35
494.85	10396.75
495.21	10115.37
495.57	9833.48
495.93	9565.89
496.29	9308.87
496.64	9068.43
497.00	8805.45
497.36	8555.78
497.72	8316.53
498.08	8092.10
498.44	7860.92
498.80	7652.50
499.16	7452.73
499.52	7242.46
499.88	7065.68
500.24	6892.53
500.60	6735.48
500.96	6584.44
501.32	6434.44
501.68	6259.32
502.03	6084.69
502.39	5910.91
502.75	5732.65
503.11	5574.55
503.47	5431.99
503.83	5294.46
504.19	5166.85
504.55	5049.31
504.91	4934.41
505.26	4814.18
505.62	4697.41
505.98	4584.59
506.34	4470.38
506.70	4343.64
507.06	4234.68
507.42	4130.53
507.78	4034.36
508.13	3935.87
508.49	3861.21
508.85	3785.63
509.21	3702.94
509.57	3619.69
509.93	3535.45
510.28	3440.94
510.64	3355.30
511.00	3275.11
511.36	3198.32
511.72	3129.86
512.07	3071.18
512.43	3006.51
512.79	2949.40
513.15	2888.22
513.51	2829.08
513.86	2770.19
514.22	2713.06
514.58	2653.40
514.94	2602.07
515.30	2551.35
515.65	2509.10
516.01	2472.59
516.37	2435.51
516.73	2399.35
517.08	2365.79
517.44	2326.24
517.80	2285.21
518.16	2247.83
518.51	2213.75
518.87	2180.98
519.23	2147.39
519.59	2118.37
519.94	2088.69
520.30	2053.00
520.66	2017.03
521.01	1984.17
521.37	1955.31
521.73	1928.06
522.09	1903.96
522.44	1887.60
522.80	1868.05
523.16	1845.98
523.51	1822.93
523.87	1802.42
524.23	1776.23
524.58	1754.84
524.94	1730.40
525.30	1710.18
525.65	1689.31
526.01	1668.99
526.37	1652.49
526.72	1637.09
527.08	1619.37
527.44	1600.79
527.79	1583.61
528.15	1568.25
528.51	1549.48
528.86	1531.32
529.22	1519.90
529.58	1506.18
529.93	1491.62
530.29	1486.52
530.65	1477.67
531.00	1461.88
531.36	1451.04
531.71	1436.88
532.07	1418.88
532.43	1407.34
532.78	1398.26
533.14	1387.33
533.49	1379.82
533.85	1373.78
534.21	1365.89
534.56	1357.65
534.92	1352.13
535.27	1346.09
535.63	1334.71
535.98	1330.69
536.34	1322.15
536.69	1315.64
537.05	1306.04
537.41	1300.85
537.76	1292.89
538.12	1285.96
538.47	1277.91
538.83	1272.03
539.18	1268.48
539.54	1263.37
539.89	1260.00
540.25	1255.16
540.60	1253.05
540.96	1248.51
541.31	1242.19
541.67	1240.11
542.02	1236.48
542.38	1230.40
542.73	1229.86
543.09	1226.63
543.44	1221.13
543.80	1220.17
544.15	1217.99
544.51	1210.99
544.86	1207.04
545.22	1202.01
545.57	1197.63
545.93	1193.21
546.28	1193.39
546.64	1191.75
546.99	1189.02
547.35	1184.38
547.70	1181.17
548.05	1176.35
548.41	1174.22
548.76	1174.64
549.12	1174.34
549.47	1174.41
549.83	1169.03
550.18	1166.03
550.53	1160.18
550.89	1156.83
551.24	1154.66
551.60	1155.78
551.95	1154.66
552.30	1155.45
552.66	1157.21
553.01	1158.14
553.37	1156.79
553.72	1154.26
554.07	1153.95
554.43	1150.02
554.78	1145.76
555.13	1146.16
555.49	1144.57
555.84	1142.44
556.19	1139.96
556.55	1136.94
556.90	1131.70
557.26	1129.75
557.61	1129.10
557.96	1131.74
558.32	1131.56
558.67	1133.10
559.02	1133.80
559.37	1132.23
559.73	1127.51
560.08	1126.01
560.43	1122.78
560.79	1120.79
561.14	1119.22
561.49	1120.67
561.85	1120.13
562.20	1122.01
562.55	1122.03
562.90	1122.59
563.26	1119.22
563.61	1118.59
563.96	1115.38
564.32	1114.49
564.67	1114.07
565.02	1115.85
565.37	1115.12
565.73	1111.47
566.08	1110.28
566.43	1108.34
566.78	1105.13
567.14	1104.64
567.49	1108.24
567.84	1106.16
568.19	1107.14
568.54	1108.83
568.90	1109.18
569.25	1107.75
569.60	1112.55
569.95	1110.89
570.31	1108.22
570.66	1104.64
571.01	1101.69
571.36	1097.92
571.71	1099.86
572.06	1102.11
572.42	1105.11
572.77	1106.44
573.12	1105.18
573.47	1103.16
573.82	1103.91
574.18	1101.13
574.53	1100.05
574.88	1099.70
575.23	1099.19
575.58	1095.91
575.93	1096.12
576.28	1098.20
576.64	1100.38
576.99	1100.89
577.34	1103.07
577.69	1102.11
578.04	1098.81
578.39	1098.98
578.74	1097.57
579.09	1094.65
579.44	1096.61
579.80	1097.90
580.15	1094.53
580.50	1093.64
580.85	1091.65
581.20	1086.99
581.55	1086.22
581.90	1087.11
582.25	1087.86
582.60	1091.06
582.95	1094.41
583.30	1093.22
583.65	1094.41
584.00	1095.84
584.35	1094.76
584.71	1094.08
585.06	1097.41
585.41	1095.89
585.76	1097.20
586.11	1096.28
586.46	1096.52
586.81	1097.85
587.16	1098.27
587.51	1096.28
587.86	1094.62
588.21	1095.23
588.56	1090.20
588.91	1087.04
589.26	1085.70
589.61	1091.65
589.96	1091.09
590.31	1093.45
590.66	1095.65
591.01	1094.36
591.36	1093.50
591.71	1095.04
592.06	1093.47
592.41	1092.61
592.76	1092.12
593.10	1091.49
593.45	1089.80
593.80	1092.30
594.15	1092.68
594.50	1091.49
594.85	1087.97
595.20	1088.54
595.55	1085.73
595.90	1087.25
596.25	1088.98
596.60	1087.65
596.95	1087.04
597.30	1089.36
597.64	1100.00
597.99	1101.18
598.34	1100.92
598.69	1097.64
599.04	1096.96
599.39	1085.94
599.74	1083.86
600.09	1087.02
600.44	1092.12
600.78	1090.22
601.13	1087.67
601.48	1089.12
601.83	1085.21
602.18	1081.33
602.53	1084.79
602.88	1085.56
603.22	1086.03
603.57	1087.16
603.92	1087.13
604.27	1089.89
604.62	1092.12
604.97	1091.70
605.31	1090.90
605.66	1094.50
606.01	1089.07
606.36	1089.05
606.71	1087.39
607.05	1091.65
607.40	1089.99
607.75	1089.64
608.10	1084.35
608.44	1082.45
608.79	1079.53
609.14	1079.34
609.49	1081.05
609.84	1085.31
610.18	1088.33
610.53	1090.99
610.88	1091.11
611.23	1089.82
611.57	1088.42
611.92	1089.24
612.27	1089.19
612.62	1088.84
612.96	1087.09
613.31	1086.45
613.66	1083.76
614.00	1081.21
614.35	1079.06
614.70	1081.96
615.05	1080.93
615.39	1081.77
615.74	1078.12
616.09	1080.37
616.43	1080.88
616.78	1083.22
617.13	1082.71
617.47	1086.20
617.82	1082.69
618.17	1081.84
618.51	1082.31
618.86	1082.71
619.21	1081.44
619.55	1081.98
619.90	1079.69
620.25	1075.66
620.59	1078.03
620.94	1080.79
621.29	1084.16
621.63	1084.84
621.98	1087.11
622.32	1087.16
622.67	1086.92
623.02	1085.10
623.36	1085.61
623.71	1084.79
624.05	1082.73
624.40	1083.01
624.75	1083.04
625.09	1083.04
625.44	1085.56
625.78	1087.55
626.13	1087.48
626.48	1085.33
626.82	1086.43
627.17	1086.34
627.51	1084.28
627.86	1082.38
628.20	1083.71
628.55	1083.48
628.89	1082.45
629.24	1082.73
629.58	1083.20
629.93	1084.49
630.28	1084.25
630.62	1085.21
630.97	1084.02
631.31	1083.95
631.66	1082.22
632.00	1081.09
632.35	1078.59
632.69	1080.72
633.04	1080.65
633.38	1080.11
633.73	1082.69
634.07	1085.03
634.42	1085.75
634.76	1087.46
635.11	1091.04
635.45	1089.07
635.79	1085.38
636.14	1081.40
636.48	1080.63
636.83	1080.56
637.17	1083.90
637.52	1085.61
637.86	1086.59
638.21	1083.43
638.55	1080.81
638.89	1077.09
639.24	1075.59
639.58	1078.75
639.93	1082.03
640.27	1081.54
640.61	1080.88
640.96	1085.33
641.30	1083.57
641.65	1080.46
641.99	1081.30
642.33	1083.67
642.68	1079.95
643.02	1079.81
643.37	1080.04
643.71	1083.57
644.05	1082.76
644.40	1085.24
644.74	1086.41
645.08	1088.37
645.43	1086.83
645.77	1086.43
646.11	1086.62
646.46	1084.35
646.80	1085.66
647.14	1082.87
647.49	1084.44
647.83	1083.06
648.17	1084.53
648.52	1085.12
648.86	1087.93
649.20	1087.23
649.55	1087.58
649.89	1087.65
650.23	1085.07
650.57	1083.74
650.92	1082.03
651.26	1082.10
651.60	1082.26
651.95	1083.62
652.29	1083.55
652.63	1083.46
652.97	1083.76
653.32	1084.42
653.66	1081.98
654.00	1082.40
654.34	1081.02
654.69	1080.41
655.03	1077.18
655.37	1079.67
655.71	1079.62
656.05	1082.78
656.40	1083.55
656.74	1085.66
657.08	1083.41
657.42	1086.06
657.76	1084.51
658.11	1085.14
658.45	1083.50
658.79	1085.84
659.13	1083.41
659.47	1080.81
659.82	1079.67
660.16	1081.40
660.50	1081.61
660.84	1081.26
661.18	1081.05
661.52	1079.90
661.87	1078.87
662.21	1077.68
662.55	1078.64
662.89	1081.33
663.23	1083.83
663.57	1082.54
663.91	1079.67
664.25	1077.28
664.60	1077.56
664.94	1074.63
665.28	1078.00
665.62	1081.87
665.96	1082.69
666.30	1082.52
666.64	1085.52
666.98	1082.15
667.32	1083.08
667.66	1086.36
668.01	1087.11
668.35	1085.63
668.69	1088.72
669.03	1087.69
669.37	1085.35
669.71	1086.92
670.05	1087.13
670.39	1088.37
670.73	1087.20
671.07	1085.19
671.41	1082.52
671.75	1085.05
672.09	1083.15
672.43	1083.76
672.77	1086.57
673.11	1087.34
673.45	1083.55
673.79	1085.75
674.13	1085.17
674.47	1082.57
674.81	1081.35
675.15	1080.60
675.49	1076.65
675.83	1077.68
676.17	1077.25
676.51	1077.51
676.85	1079.38
677.19	1079.88
677.53	1078.14
677.87	1080.88
678.21	1079.60
678.55	1080.91
678.89	1082.17
679.23	1081.87
679.57	1079.67
679.90	1078.28
680.24	1077.14
680.58	1079.34
680.92	1079.10
681.26	1082.10
681.60	1085.99
681.94	1087.74
682.28	1084.72
682.62	1084.96
682.96	1082.01
683.29	1082.47
683.63	1078.94
683.97	1075.85
684.31	1077.07
684.65	1078.85
684.99	1077.00
685.33	1080.84
685.67	1083.71
686.00	1082.26
686.34	1081.47
686.68	1082.19
687.02	1080.56
687.36	1081.05
687.70	1079.55
688.03	1080.06
688.37	1079.74
688.71	1077.23
689.05	1075.52
689.39	1078.57
689.72	1080.53
690.06	1079.78
690.40	1081.61
690.74	1083.29
691.08	1082.12
691.41	1078.89
691.75	1082.38
692.09	1080.39
692.43	1078.28
692.76	1081.75
693.10	1084.02
693.44	1082.12
693.78	1084.89
694.11	1088.00
694.45	1084.96
694.79	1080.02
695.13	1079.69
695.46	1080.16
695.80	1079.50
696.14	1081.30
696.48	1085.45
696.81	1087.74
697.15	1086.73
697.49	1088.72
697.82	1088.61
698.16	1088.16
698.50	1084.86
698.83	1085.17
699.17	1081.51
699.51	1080.79
699.84	1081.42
700.18	1083.88
700.52	1082.26
700.85	1082.08
701.19	1082.05
701.53	1082.08
701.86	1080.34
702.20	1081.66
702.54	1085.73
702.87	1084.58
703.21	1082.69
703.55	1083.29
703.88	1083.60
704.22	1078.89
704.55	1080.34
704.89	1080.02
705.23	1079.17
705.56	1074.73
705.90	1075.80
706.23	1074.03
706.57	1075.20
706.91	1074.96
707.24	1081.73
707.58	1081.84
707.91	1084.02
708.25	1086.59
708.58	1086.50
708.92	1085.59
709.26	1086.71
709.59	1081.77
709.93	1079.48
710.26	1078.94
710.60	1074.00
710.93	1073.42
711.27	1077.35
711.60	1078.50
711.94	1078.00
712.27	1079.17
712.61	1077.77
712.94	1077.35
713.28	1077.47
713.61	1079.22
713.95	1082.87
714.28	1083.06
714.62	1082.54
714.95	1078.03
715.29	1077.77
715.62	1073.23
715.96	1074.17
716.29	1071.80
716.63	1076.23
716.96	1074.96
717.29	1077.49
717.63	1077.72
717.96	1080.18
718.30	1078.28
718.63	1078.73
718.97	1075.20
719.30	1074.49
719.63	1077.49
719.97	1079.60
720.30	1080.63
720.64	1084.63
720.97	1086.24
721.30	1082.73
721.64	1079.97
721.97	1080.02
722.31	1077.98
722.64	1079.38
722.97	1080.18
723.31	1083.62
723.64	1085.24
723.97	1089.89
724.31	1089.57
724.64	1089.00
724.98	1086.34
725.31	1082.52
725.64	1081.28
725.98	1079.85
726.31	1081.56
726.64	1083.22
726.97	1084.86
727.31	1084.49
727.64	1085.05
727.97	1084.07
728.31	1084.04
728.64	1084.16
728.97	1083.95
729.31	1079.03
729.64	1079.48
729.97	1076.76
730.30	1078.40
730.64	1078.80
730.97	1083.64
731.30	1081.37
731.63	1084.32
731.97	1083.18
732.30	1080.48
732.63	1080.37
732.96	1080.77
733.30	1084.02
733.63	1082.94
733.96	1083.69
734.29	1084.09
734.63	1086.01
734.96	1083.55
735.29	1085.96
735.62	1084.58
735.95	1082.01
736.29	1081.61
736.62	1078.05
736.95	1076.97
737.28	1081.14
737.61	1079.85
737.94	1080.41
738.28	1083.08
738.61	1083.71
738.94	1082.08
739.27	1084.07
739.60	1082.71
739.93	1083.48
740.27	1081.58
740.60	1079.15
740.93	1081.09
741.26	1083.11
741.59	1081.14
741.92	1081.70
742.25	1083.55
742.58	1081.37
742.91	1081.40
743.25	1081.75
743.58	1082.47
743.91	1080.56
744.24	1079.83
744.57	1077.91
744.90	1081.02
745.23	1078.26
745.56	1076.25
745.89	1077.44
746.22	1079.10
746.55	1076.20
746.88	1076.18
747.21	1080.70
747.54	1082.97
747.87	1083.22
748.20	1082.83
748.53	1084.39
748.87	1082.94
749.20	1081.82
749.53	1080.46
749.86	1077.82
750.19	1076.95
750.52	1076.34
750.85	1075.10
751.18	1072.60
751.51	1074.17
751.84	1073.49
752.16	1072.57
752.49	1071.87
752.82	1075.41
753.15	1076.18
753.48	1077.40
753.81	1078.73
754.14	1079.50
754.47	1077.04
754.80	1075.03
755.13	1074.87
755.46	1073.93
755.79	1073.21
756.12	1073.88
756.45	1077.00
756.78	1080.77
757.11	1081.51
757.43	1082.59
757.76	1082.12
758.09	1082.01
758.42	1081.58
758.75	1083.71
759.08	1083.27
759.41	1083.90
759.74	1082.26
760.07	1081.44
760.39	1079.76
760.72	1080.06
761.05	1083.04
761.38	1084.74
761.71	1081.09
762.04	1081.91
762.36	1082.59
762.69	1078.68
763.02	1078.80
763.35	1082.59
763.68	1079.88
764.01	1076.30
764.33	1079.62
764.66	1076.79
764.99	1076.44
765.32	1078.75
765.65	1080.91
765.97	1080.86
766.30	1083.88
766.63	1083.95
766.96	1082.83
767.28	1083.71
767.61	1083.08
767.94	1083.43
768.27	1083.27
768.59	1084.21
768.92	1083.04
769.25	1083.13
769.58	1081.42
769.90	1078.89
770.23	1078.92
770.56	1078.03
770.89	1079.27
771.21	1080.56
771.54	1084.65
771.87	1084.67
772.19	1084.16
772.52	1084.07
772.85	1083.08
773.17	1080.63
773.50	1081.26
773.83	1082.61
774.15	1079.97
774.48	1077.35
774.81	1077.33
775.13	1075.08
775.46	1076.95
775.79	1078.26
776.11	1080.70
776.44	1081.33
776.77	1083.86
777.09	1082.78
777.42	1081.23
777.74	1080.18
778.07	1082.19
778.40	1083.60
778.72	1084.14
779.05	1084.63
779.37	1087.20
779.70	1084.39
780.03	1083.90
780.35	1084.37
780.68	1084.72
781.00	1083.55
781.33	1082.05
781.65	1081.77
781.98	1083.06
782.31	1084.49
782.63	1082.26
782.96	1081.00
783.28	1078.33
783.61	1076.15
783.93	1074.24
784.26	1077.44
784.58	1077.70
784.91	1080.58
785.23	1083.34
785.56	1082.50
785.88	1080.13
786.21	1081.91
786.53	1079.90
786.86	1074.38
787.18	1075.71
787.51	1077.79
787.83	1074.75
788.16	1072.92
788.48	1074.61
788.81	1072.34
789.13	1068.88
789.46	1075.24
789.78	1076.79
790.10	1079.69
790.43	1082.92
790.75	1086.27
791.08	1084.28
791.40	1087.30
791.73	1084.86
792.05	1083.71
792.37	1082.66
792.70	1080.02
793.02	1074.40
793.35	1075.29
793.67	1075.08
793.99	1073.28
794.32	1074.38
794.64	1075.85
794.96	1076.01
795.29	1075.38
795.61	1076.18
795.93	1079.27
796.26	1082.17
796.58	1081.61
796.91	1083.18
797.23	1084.39
797.55	1079.22
797.87	1078.40
798.20	1077.82
798.52	1076.25
798.84	1075.73
799.17	1077.98
799.49	1077.56
799.81	1076.34
800.14	1076.53
800.46	1075.69
800.78	1072.53
801.10	1072.83
801.43	1073.42
801.75	1074.59
802.07	1074.26
802.40	1077.18
802.72	1074.42
803.04	1074.89
803.36	1074.45
803.69	1075.50
804.01	1075.52
804.33	1076.69
804.65	1078.52
804.97	1079.74
805.30	1081.51
805.62	1082.19
805.94	1084.72
806.26	1084.58
806.58	1083.46
806.91	1083.64
807.23	1081.91
807.55	1079.13
807.87	1078.38
808.19	1078.99
808.52	1076.62
808.84	1080.34
809.16	1078.71
809.48	1079.90
809.80	1078.07
810.12	1078.61
810.44	1079.34
810.77	1080.58
811.09	1078.05
811.41	1078.26
811.73	1078.87
812.05	1071.47
812.37	1074.24
812.69	1076.48
813.01	1079.01
813.33	1076.86
813.66	1081.84
813.98	1080.39
814.30	1078.36
814.62	1075.59
814.94	1079.95
815.26	1077.72
815.58	1080.91
815.90	1083.97
816.22	1085.00
816.54	1081.91
816.86	1084.07
817.18	1079.85
817.50	1077.40
817.82	1078.26
818.14	1078.52
818.46	1078.80
818.78	1080.51
819.10	1081.68
819.42	1082.29
819.74	1082.43
820.06	1082.08
820.38	1082.45
820.70	1081.42
821.02	1079.06
821.34	1081.30
821.66	1082.47
821.98	1083.60
822.30	1083.76
822.62	1085.17
822.94	1082.90
823.26	1082.52
823.58	1077.30
823.90	1076.15
824.22	1074.87
824.54	1076.30
824.86	1078.87
825.18	1083.01
825.50	1083.76
825.81	1085.38
826.13	1084.51
826.45	1080.23
826.77	1076.27
827.09	1076.81
827.41	1077.25
827.73	1075.97
828.05	1074.66
828.36	1079.15
828.68	1079.71
829.00	1079.17
829.32	1080.70
829.64	1084.04
829.96	1082.45
830.28	1081.51
830.59	1081.02
830.91	1081.21
831.23	1079.90
831.55	1082.33
831.87	1083.55
832.19	1085.28
832.50	1083.39
832.82	1079.83
833.14	1075.85
833.46	1074.56
833.78	1072.01
834.09	1070.84
834.41	1076.30
834.73	1077.72
835.05	1078.73
835.36	1077.44
835.68	1079.55
836.00	1081.21
836.32	1082.61
836.63	1083.25
836.95	1085.77
837.27	1082.71
837.59	1075.36
837.90	1074.33
838.22	1071.59
838.54	1069.27
838.85	1072.60
839.17	1077.14
839.49	1075.71
839.80	1077.98
840.12	1079.29
840.44	1078.36
840.76	1076.81
841.07	1077.56
841.39	1075.73
841.71	1077.40
842.02	1077.30
842.34	1076.69
842.65	1075.38
842.97	1076.11
843.29	1072.39
843.60	1068.13
843.92	1068.69
844.24	1071.19
844.55	1070.12
844.87	1072.36
845.18	1077.07
845.50	1078.82
845.82	1078.26
846.13	1080.56
846.45	1081.28
846.76	1085.17
847.08	1084.81
847.40	1084.02
847.71	1080.44
848.03	1081.14
848.34	1077.51
848.66	1077.07
848.97	1074.98
849.29	1077.33
849.60	1076.51
849.92	1080.16
850.24	1080.39
850.55	1085.26
850.87	1083.50
851.18	1083.76
851.50	1082.76
851.81	1081.96
852.13	1083.50
852.44	1084.30
852.76	1085.49
853.07	1083.06
853.39	1082.85
853.70	1078.21
854.01	1079.43
854.33	1079.29
854.64	1076.01
854.96	1078.05
855.27	1079.43
855.59	1080.44
855.90	1077.21
856.22	1081.00
856.53	1076.20
856.84	1077.49
857.16	1077.18
857.47	1077.14
857.79	1073.14
858.10	1076.41
858.41	1073.63
858.73	1072.04
859.04	1071.54
859.36	1074.70
859.67	1072.04
859.98	1071.19
860.30	1072.48
860.61	1076.48
860.92	1078.07
861.24	1080.13
861.55	1080.32
861.87	1081.35
862.18	1080.77
862.49	1078.03
862.81	1075.83
863.12	1075.01
863.43	1075.15
863.74	1073.11
864.06	1077.18
864.37	1078.03
864.68	1080.95
865.00	1079.13
865.31	1078.43
865.62	1076.93
865.94	1080.18
866.25	1080.58
866.56	1080.06
866.87	1079.71
867.19	1077.49
867.50	1077.16
867.81	1078.03
868.12	1077.89
868.44	1079.85
868.75	1079.36
869.06	1076.51
869.37	1075.22
869.68	1076.25
870.00	1073.95
870.31	1073.23
870.62	1074.35
870.93	1073.67
871.24	1073.04
871.56	1074.35
871.87	1076.65
872.18	1078.33
872.49	1078.36
872.80	1076.20
873.12	1079.34
873.43	1080.70
873.74	1079.50
874.05	1077.44
874.36	1078.07
874.67	1074.87
874.98	1075.48
875.29	1078.28
875.61	1082.03
875.92	1085.89
876.23	1086.31
876.54	1086.17
876.85	1084.56
877.16	1086.22
877.47	1085.03
877.78	1084.02
878.09	1082.43
878.40	1081.96
878.72	1079.06
879.03	1080.37
879.34	1080.93
879.65	1079.15
879.96	1078.07
880.27	1075.92
880.58	1070.02
880.89	1072.50
881.20	1071.78
881.51	1070.98
881.82	1072.88
882.13	1076.97
882.44	1077.11
882.75	1078.80
883.06	1080.84
883.37	1081.07
883.68	1078.50
883.99	1075.92
884.30	1078.31
884.61	1078.85
884.92	1080.63
885.23	1083.60
885.54	1083.13
885.85	1081.70
886.16	1079.97
886.47	1076.37
886.78	1074.21
887.08	1071.78
887.39	1067.19
887.70	1067.03
888.01	1069.67
888.32	1070.26
888.63	1073.58
888.94	1075.31
889.25	1075.29
889.56	1076.08
889.87	1076.11
890.17	1075.03
890.48	1075.78
890.79	1078.12
891.10	1075.92
891.41	1077.63
891.72	1079.74
892.03	1080.13
892.34	1079.22
892.64	1081.37
892.95	1080.32
893.26	1080.32
893.57	1080.39
893.88	1080.86
894.18	1075.20
894.49	1074.94
894.80	1075.78
895.11	1077.21
895.42	1078.78
895.72	1082.90
896.03	1083.36
896.34	1083.01
896.65	1081.94
896.96	1078.14
897.26	1077.49
897.57	1077.72
897.88	1076.13
898.19	1076.97
898.49	1080.84
898.80	1080.67
899.11	1079.27
899.41	1079.57
899.72	1080.25
900.03	1074.68
900.34	1075.48
900.64	1076.39
900.95	1075.43
901.26	1074.70
901.56	1079.17
901.87	1080.09
902.18	1079.69
902.48	1079.38
902.79	1080.30
903.10	1076.44
903.40	1074.73
903.71	1074.87
904.02	1074.40
904.32	1073.51
904.63	1075.97
904.94	1077.42
905.24	1077.07
905.55	1077.28
905.85	1077.04
906.16	1077.44
906.47	1077.37
906.77	1076.97
907.08	1078.61
907.38	1076.79
907.69	1076.60
908.00	1079.01
908.30	1081.77
908.61	1078.43
908.91	1078.87
909.22	1078.17
909.52	1075.55
909.83	1076.18
910.14	1078.50
910.44	1082.29
910.75	1081.96
911.05	1083.20
911.36	1083.29
911.66	1085.28
911.97	1079.08
912.27	1078.45
912.58	1075.69
912.88	1071.45
913.19	1068.06
913.49	1071.82
913.80	1072.20
914.10	1072.53
914.41	1074.19
914.71	1074.73
915.01	1073.04
915.32	1076.34
915.62	1077.37
915.93	1076.27
916.23	1075.78
916.54	1078.31
916.84	1074.38
917.15	1074.87
917.45	1077.35
917.75	1077.54
918.06	1078.73
918.36	1080.93
918.67	1079.22
918.97	1078.99
919.27	1080.02
919.58	1078.71
919.88	1077.21
920.18	1078.68
920.49	1074.66
920.79	1077.09
921.10	1077.84
921.40	1079.90
921.70	1079.90
922.01	1084.58
922.31	1083.20
922.61	1083.11
922.92	1080.56
923.22	1078.00
923.52	1076.34
923.82	1077.21
924.13	1076.51
924.43	1076.18
924.73	1076.81
925.04	1076.20
925.34	1073.84
925.64	1074.21
925.94	1077.51
926.25	1078.05
926.55	1076.46
926.85	1078.28
927.15	1073.81
927.46	1074.77
927.76	1073.65
928.06	1077.16
928.36	1078.82
928.67	1082.19
928.97	1078.54
929.27	1082.38
929.57	1082.69
929.87	1083.34
930.18	1084.18
930.48	1084.46
930.78	1080.93
931.08	1078.05
931.38	1075.01
931.69	1072.25
931.99	1069.23
932.29	1071.78
932.59	1075.59
932.89	1074.89
933.19	1077.30
933.49	1082.01
933.80	1081.07
934.10	1078.85
934.40	1081.47
934.70	1079.74
935.00	1079.08
935.30	1080.88
935.60	1081.23
935.90	1078.14
936.20	1078.78
936.50	1080.37
936.81	1079.22
937.11	1078.14
937.41	1077.00
937.71	1076.65
938.01	1074.84
938.31	1074.42
938.61	1075.94
938.91	1079.13
939.21	1078.24
939.51	1079.08
939.81	1077.11
940.11	1077.51
940.41	1074.40
940.71	1076.62
941.01	1075.78
941.31	1077.65
941.61	1076.62
941.91	1080.04
942.21	1080.60
942.51	1080.70
942.81	1080.27
943.11	1077.51
943.41	1077.86
943.71	1077.61
944.01	1076.67
944.31	1080.02
944.61	1078.82
944.90	1077.07
945.20	1077.84
945.50	1078.24
945.80	1075.36
946.10	1077.54
946.40	1076.69
946.70	1075.05
947.00	1075.13
947.30	1075.78
947.60	1077.56
947.89	1078.52
948.19	1078.10
948.49	1077.58
948.79	1078.03
949.09	1076.34
949.39	1075.80
949.69	1075.24
949.98	1074.63
950.28	1074.73
950.58	1074.87
950.88	1076.01
951.18	1077.98
951.48	1080.02
951.77	1079.24
952.07	1080.81
952.37	1080.77
952.67	1077.25
952.97	1073.63
953.26	1071.10
953.56	1072.53
953.86	1075.48
954.16	1079.74
954.45	1082.85
954.75	1083.76
955.05	1079.99
955.35	1080.09
955.64	1080.60
955.94	1081.56
956.24	1085.07
956.54	1086.03
956.83	1082.57
957.13	1080.88
957.43	1078.99
957.72	1077.86
958.02	1077.86
958.32	1076.44
958.61	1074.42
958.91	1076.86
959.21	1076.62
959.50	1077.16
959.80	1078.36
960.10	1078.99
960.39	1077.44
960.69	1078.21
960.99	1080.63
961.28	1080.63
961.58	1078.80
961.87	1078.96
962.17	1079.43
962.47	1080.84
962.76	1083.32
963.06	1086.62
963.36	1084.53
963.65	1081.89
963.95	1079.24
964.24	1080.13
964.54	1078.94
964.83	1080.06
965.13	1079.76
965.42	1077.91
965.72	1077.98
966.02	1082.47
966.31	1082.36
966.61	1084.60
966.90	1085.47
967.20	1082.24
967.49	1077.07
967.79	1075.17
968.08	1074.31
968.38	1077.35
968.67	1077.25
968.97	1078.07
969.26	1080.09
969.56	1078.71
969.85	1077.28
970.15	1078.73
970.44	1078.99
970.74	1076.74
971.03	1075.99
971.32	1072.69
971.62	1074.75
971.91	1076.48
972.21	1082.57
972.50	1083.18
972.80	1084.70
973.09	1079.78
973.38	1077.96
973.68	1074.26
973.97	1073.72
974.27	1075.08
974.56	1079.53
974.85	1082.24
975.15	1080.74
975.44	1082.33
975.73	1080.20
976.03	1076.32
976.32	1076.01
976.61	1075.76
976.91	1076.01
977.20	1077.63
977.49	1078.85
977.79	1079.95
978.08	1083.69
978.37	1084.46
978.67	1084.56
978.96	1084.32
979.25	1081.87
979.55	1083.71
979.84	1082.24
980.13	1079.03
980.42	1078.61
980.72	1079.24
981.01	1073.46
981.30	1071.87
981.59	1074.31
981.89	1073.91
982.18	1072.88
982.47	1073.21
982.76	1074.17
983.06	1073.67
983.35	1075.94
983.64	1077.47
983.93	1080.51
984.22	1081.51
984.52	1082.26
984.81	1079.85
985.10	1078.66
985.39	1075.78
985.68	1077.35
985.97	1077.56
986.27	1077.70
986.56	1075.55
986.85	1075.05
987.14	1072.81
987.43	1072.32
987.72	1073.23
988.01	1075.55
988.31	1078.40
988.60	1077.75
988.89	1075.99
989.18	1074.75
989.47	1072.04
989.76	1073.93
990.05	1075.24
990.34	1079.57
990.63	1079.62
990.92	1081.70
991.21	1079.20
991.51	1079.60
991.80	1074.70
992.09	1077.40
992.38	1074.28
992.67	1071.15
992.96	1068.08
993.25	1073.02
993.54	1070.77
993.83	1072.04
994.12	1073.30
994.41	1077.02
994.70	1074.68
994.99	1075.85
995.28	1077.40
995.57	1079.01
995.86	1078.64
996.15	1077.25
996.44	1077.58
996.73	1078.47
997.02	1076.95
997.31	1074.87
997.59	1077.04
997.88	1076.27
998.17	1073.86
998.46	1075.36
998.75	1076.06
999.04	1073.30
999.33	1073.72
999.62	1074.91
999.91	1075.45
1000.20	1073.44
1000.49	1075.55
1000.77	1075.03
1001.06	1074.47
1001.35	1075.76
1001.64	1078.05
1001.93	1080.44
1002.22	1080.56
1002.51	1081.96
1002.79	1082.94
1003.08	1081.47
1003.37	1077.77
1003.66	1076.53
1003.95	1077.42
1004.23	1075.31
1004.52	1076.62
1004.81	1076.13
1005.10	1077.63
1005.39	1076.32
1005.67	1076.32
1005.96	1074.82
1006.25	1075.52
1006.54	1076.25
1006.83	1076.55
1007.11	1077.49
1007.40	1078.31
1007.69	1078.87
1007.97	1076.37
1008.26	1075.92
1008.55	1072.22
1008.84	1073.60
1009.12	1074.42
1009.41	1074.14
1009.70	1075.52
1009.98	1080.04
1010.27	1079.62
1010.56	1079.53
1010.85	1082.12
1011.13	1079.36
1011.42	1078.66
1011.71	1078.89
1011.99	1078.75
1012.28	1078.64
1012.56	1082.54
1012.85	1082.52
1013.14	1082.24
1013.42	1083.11
1013.71	1083.55
1014.00	1081.84
1014.28	1082.80
1014.57	1080.65
1014.85	1080.63
1015.14	1079.20
1015.43	1078.38
1015.71	1076.58
1016.00	1077.23
1016.28	1073.46
1016.57	1074.61
1016.85	1077.51
1017.14	1079.08
1017.43	1081.33
1017.71	1085.91
1018.00	1084.35
1018.28	1080.95
1018.57	1081.26
1018.85	1080.63
1019.14	1079.36
1019.42	1078.71
1019.71	1078.96
1019.99	1076.27
1020.28	1079.81
1020.56	1082.47
1020.85	1084.77
1021.13	1084.49
1021.42	1084.11
1021.70	1080.77
1021.99	1079.50
1022.27	1081.58
1022.55	1088.12
1022.84	1092.80
>>>>>End Processed Spectral Data<<<<<
