SpectraSuite Data File
++++++++++++++++++++++++++++++++++++
Date: Mon Aug 26 10:22:07 PDT 2019
User: corrico
Dark Spectrum Present: No
Reference Spectrum Present: No
Number of Sampled Component Spectra: 1
Spectrometers: USB2+H06089
Integration Time (usec): 2000 (USB2+H06089)
Spectra Averaged: 20 (USB2+H06089)
Boxcar Smoothing: 2 (USB2+H06089)
Correct for Electrical Dark: No (USB2+H06089)
Strobe/Lamp Enabled: No (USB2+H06089)
Correct for Detector Non-linearity: No (USB2+H06089)
Correct for Stray Light: No (USB2+H06089)
Number of Pixels in Processed Spectrum: 2048
>>>>>Begin Processed Spectral Data<<<<<
339.70	1033.00
340.07	1033.00
340.45	991.01
340.82	968.98
341.19	940.97
341.57	914.77
341.94	908.01
342.31	903.91
342.69	895.58
343.06	897.29
343.43	894.58
343.81	894.04
344.18	898.37
344.55	905.39
344.93	909.11
345.30	914.35
345.67	921.16
346.04	928.05
346.42	939.94
346.79	950.42
347.16	961.68
347.54	969.08
347.91	975.30
348.28	980.59
348.65	990.73
349.03	1001.37
349.40	1008.79
349.77	1018.48
350.14	1026.49
350.52	1031.99
350.89	1037.56
351.26	1046.66
351.63	1054.27
352.01	1057.62
352.38	1060.33
352.75	1064.43
353.12	1069.53
353.50	1072.55
353.87	1074.70
354.24	1079.20
354.61	1081.07
354.98	1078.89
355.36	1077.44
355.73	1079.15
356.10	1078.92
356.47	1082.61
356.84	1083.90
357.22	1083.48
357.59	1087.69
357.96	1086.94
358.33	1080.98
358.70	1083.57
359.08	1084.72
359.45	1082.31
359.82	1079.41
360.19	1081.42
360.56	1078.52
360.94	1076.74
361.31	1074.89
361.68	1077.47
362.05	1078.85
362.42	1075.29
362.79	1077.82
363.16	1078.40
363.54	1081.40
363.91	1077.44
364.28	1081.47
364.65	1080.11
365.02	1078.07
365.39	1074.03
365.76	1073.28
366.14	1072.85
366.51	1072.71
366.88	1074.38
367.25	1072.46
367.62	1074.80
367.99	1077.68
368.36	1075.62
368.73	1074.28
369.10	1076.46
369.48	1076.93
369.85	1075.20
370.22	1075.01
370.59	1076.11
370.96	1075.92
371.33	1075.69
371.70	1075.13
372.07	1077.77
372.44	1076.30
372.81	1075.17
373.18	1075.97
373.55	1074.07
373.93	1073.86
374.30	1075.13
374.67	1078.33
375.04	1079.38
375.41	1081.56
375.78	1080.44
376.15	1079.92
376.52	1078.40
376.89	1079.27
377.26	1080.37
377.63	1081.98
378.00	1079.27
378.37	1082.01
378.74	1081.35
379.11	1080.74
379.48	1081.02
379.85	1083.62
380.22	1081.87
380.59	1077.54
380.96	1077.42
381.33	1075.80
381.70	1079.10
382.07	1077.96
382.44	1079.29
382.81	1079.06
383.18	1082.22
383.55	1081.09
383.92	1080.39
384.29	1080.09
384.66	1079.99
385.03	1078.89
385.40	1080.32
385.77	1080.53
386.14	1083.93
386.51	1084.04
386.88	1082.33
387.25	1081.12
387.62	1083.22
387.99	1080.95
388.36	1081.73
388.73	1083.79
389.10	1081.68
389.46	1083.64
389.83	1084.77
390.20	1085.77
390.57	1085.38
390.94	1086.64
391.31	1083.36
391.68	1083.46
392.05	1083.93
392.42	1088.33
392.79	1088.28
393.16	1090.95
393.53	1091.23
393.89	1092.19
394.26	1086.57
394.63	1089.94
395.00	1088.23
395.37	1088.44
395.74	1085.73
396.11	1089.40
396.48	1089.31
396.84	1088.91
397.21	1087.32
397.58	1085.17
397.95	1087.72
398.32	1088.70
398.69	1090.13
399.06	1094.34
399.42	1097.95
399.79	1093.87
400.16	1090.43
400.53	1092.35
400.90	1091.39
401.27	1092.61
401.64	1092.59
402.00	1096.21
402.37	1094.53
402.74	1094.34
403.11	1095.86
403.48	1096.03
403.84	1095.89
404.21	1097.08
404.58	1099.58
404.95	1097.64
405.32	1098.74
405.68	1097.76
406.05	1098.60
406.42	1097.13
406.79	1095.96
407.16	1099.40
407.52	1099.68
407.89	1097.03
408.26	1098.88
408.63	1099.00
408.99	1096.42
409.36	1094.86
409.73	1099.35
410.10	1099.65
410.47	1101.88
410.83	1100.82
411.20	1104.78
411.57	1105.65
411.94	1105.95
412.30	1104.03
412.67	1107.45
413.04	1104.80
413.40	1100.71
413.77	1097.17
414.14	1102.11
414.51	1100.66
414.87	1101.62
415.24	1103.89
415.61	1106.72
415.97	1106.04
416.34	1106.23
416.71	1107.54
417.08	1109.91
417.44	1109.69
417.81	1108.34
418.18	1109.32
418.54	1108.50
418.91	1109.65
419.28	1111.89
419.64	1116.08
420.01	1116.32
420.38	1118.80
420.74	1115.31
421.11	1119.06
421.48	1121.14
421.84	1124.67
422.21	1129.73
422.58	1136.24
422.94	1138.76
423.31	1139.42
423.68	1145.50
424.04	1144.10
424.41	1147.75
424.77	1147.00
425.14	1152.32
425.51	1154.05
425.87	1160.37
426.24	1164.04
426.61	1173.94
426.97	1182.46
427.34	1193.02
427.70	1201.82
428.07	1212.37
428.44	1219.75
428.80	1223.82
429.17	1230.96
429.53	1242.59
429.90	1256.26
430.27	1268.34
430.63	1285.45
431.00	1297.57
431.36	1312.85
431.73	1323.22
432.09	1341.95
432.46	1356.90
432.83	1377.57
433.19	1396.46
433.56	1422.25
433.92	1443.62
434.29	1467.63
434.65	1495.34
435.02	1527.97
435.38	1557.37
435.75	1592.62
436.11	1636.10
436.48	1676.20
436.84	1718.56
437.21	1765.42
437.57	1808.84
437.94	1857.80
438.30	1910.25
438.67	1966.99
439.03	2028.64
439.40	2102.11
439.76	2168.27
440.13	2244.57
440.49	2322.40
440.86	2403.24
441.22	2487.64
441.59	2578.40
441.95	2683.42
442.32	2791.07
442.68	2910.71
443.05	3029.26
443.41	3165.50
443.78	3292.43
444.14	3436.30
444.51	3574.09
444.87	3743.97
445.24	3906.73
445.60	4092.59
445.96	4269.82
446.33	4482.66
446.69	4680.49
447.06	4902.14
447.42	5126.87
447.79	5371.39
448.15	5639.45
448.51	5919.66
448.88	6247.62
449.24	6561.08
449.61	6913.87
449.97	7273.21
450.33	7660.18
450.70	8022.42
451.06	8459.77
451.43	8872.95
451.79	9329.52
452.15	9819.65
452.52	10356.38
452.88	10900.53
453.24	11533.36
453.61	12246.46
453.97	12959.12
454.34	13660.26
454.70	14488.48
455.06	15293.81
455.43	16056.50
455.79	16758.56
456.15	17573.00
456.52	18323.45
456.88	19252.26
457.24	20160.02
457.61	21274.18
457.97	22337.42
458.33	23432.23
458.70	24480.11
459.06	25475.98
459.42	26503.24
459.79	27430.75
460.15	28495.23
460.51	29507.53
460.88	30623.78
461.24	31595.92
461.60	32769.91
461.96	33817.30
462.33	34877.54
462.69	35927.41
463.05	37098.15
463.42	38118.39
463.78	39075.78
464.14	39818.25
464.50	40564.95
464.87	41073.41
465.23	41395.35
465.59	41775.87
465.95	42087.21
466.32	42328.89
466.68	42616.59
467.04	42817.62
467.40	42867.57
467.77	42990.30
468.13	42891.89
468.49	42693.10
468.85	42552.04
469.22	42415.96
469.58	42153.68
469.94	42021.32
470.30	41802.01
470.66	41472.33
471.03	40943.06
471.39	40580.40
471.75	39831.14
472.11	39127.37
472.47	38617.67
472.84	38109.37
473.20	37375.06
473.56	36999.12
473.92	36435.28
474.28	35787.70
474.65	35124.12
475.01	34432.07
475.37	33615.43
475.73	32916.57
476.09	32222.72
476.45	31586.75
476.81	31049.45
477.18	30481.99
477.54	29985.70
477.90	29523.19
478.26	28944.52
478.62	28412.79
478.98	27974.83
479.34	27552.22
479.71	26995.53
480.07	26569.62
480.43	26151.37
480.79	25675.61
481.15	25184.28
481.51	24793.13
481.87	24452.35
482.23	24079.48
482.59	23761.73
482.96	23446.57
483.32	23154.57
483.68	22754.66
484.04	22381.77
484.40	21946.57
484.76	21505.29
485.12	21031.68
485.48	20598.35
485.84	20113.58
486.20	19682.22
486.56	19242.71
486.92	18843.35
487.28	18444.26
487.64	18031.46
488.00	17634.20
488.37	17239.87
488.73	16808.79
489.09	16326.76
489.45	15902.54
489.81	15434.41
490.17	14990.38
490.53	14588.56
490.89	14197.10
491.25	13775.46
491.61	13382.32
491.97	12978.88
492.33	12559.92
492.69	12190.21
493.05	11866.94
493.41	11553.00
493.77	11238.27
494.13	10939.15
494.49	10638.46
494.85	10344.84
495.21	10055.04
495.57	9788.19
495.93	9517.51
496.29	9261.64
496.64	9016.96
497.00	8769.71
497.36	8516.13
497.72	8273.84
498.08	8053.99
498.44	7825.82
498.80	7612.76
499.16	7408.31
499.52	7215.90
499.88	7037.24
500.24	6872.47
500.60	6714.93
500.96	6569.13
501.32	6411.97
501.68	6245.81
502.03	6060.00
502.39	5887.76
502.75	5714.37
503.11	5557.11
503.47	5412.70
503.83	5293.03
504.19	5167.01
504.55	5050.50
504.91	4938.53
505.26	4818.81
505.62	4695.82
505.98	4578.98
506.34	4458.37
506.70	4333.13
507.06	4219.59
507.42	4113.02
507.78	4017.20
508.13	3925.01
508.49	3850.39
508.85	3772.85
509.21	3690.35
509.57	3595.93
509.93	3509.12
510.28	3418.40
510.64	3340.04
511.00	3265.56
511.36	3195.00
511.72	3129.27
512.07	3065.47
512.43	3001.15
512.79	2940.81
513.15	2884.05
513.51	2820.35
513.86	2760.59
514.22	2706.41
514.58	2651.76
514.94	2598.72
515.30	2555.05
515.65	2513.45
516.01	2469.92
516.37	2425.45
516.73	2388.63
517.08	2347.02
517.44	2305.90
517.80	2265.99
518.16	2231.00
518.51	2199.73
518.87	2167.03
519.23	2134.12
519.59	2101.31
519.94	2072.97
520.30	2038.33
520.66	2007.45
521.01	1979.93
521.37	1952.59
521.73	1921.02
522.09	1894.34
522.44	1870.46
522.80	1847.95
523.16	1825.88
523.51	1808.11
523.87	1790.46
524.23	1772.51
524.58	1750.77
524.94	1729.94
525.30	1705.22
525.65	1680.81
526.01	1660.52
526.37	1641.56
526.72	1625.55
527.08	1609.66
527.44	1598.45
527.79	1584.26
528.15	1567.60
528.51	1553.41
528.86	1544.43
529.22	1528.63
529.58	1511.68
529.93	1499.44
530.29	1484.81
530.65	1471.26
531.00	1460.19
531.36	1450.73
531.71	1438.96
532.07	1426.07
532.43	1411.76
532.78	1399.13
533.14	1390.35
533.49	1380.49
533.85	1374.41
534.21	1366.22
534.56	1355.94
534.92	1343.12
535.27	1337.05
535.63	1326.17
535.98	1318.00
536.34	1315.38
536.69	1309.93
537.05	1304.36
537.41	1297.69
537.76	1289.92
538.12	1280.93
538.47	1276.18
538.83	1270.70
539.18	1263.91
539.54	1263.59
539.89	1257.69
540.25	1249.71
540.60	1244.70
540.96	1245.00
541.31	1238.75
541.67	1235.36
542.02	1236.88
542.38	1231.52
542.73	1222.58
543.09	1220.80
543.44	1220.05
543.80	1217.20
544.15	1212.80
544.51	1214.27
544.86	1211.02
545.22	1204.60
545.57	1198.78
545.93	1198.54
546.28	1194.16
546.64	1190.42
546.99	1190.16
547.35	1186.91
547.70	1182.72
548.05	1181.85
548.41	1178.74
548.76	1177.20
549.12	1176.40
549.47	1174.93
549.83	1172.77
550.18	1173.24
550.53	1167.27
550.89	1165.07
551.24	1163.81
551.60	1160.11
551.95	1156.67
552.30	1155.12
552.66	1153.14
553.01	1149.74
553.37	1146.82
553.72	1143.45
554.07	1141.85
554.43	1140.40
554.78	1139.84
555.13	1140.80
555.49	1142.77
555.84	1147.14
556.19	1145.53
556.55	1143.94
556.90	1140.78
557.26	1140.71
557.61	1136.45
557.96	1133.71
558.32	1133.47
558.67	1134.20
559.02	1132.77
559.37	1130.10
559.73	1131.60
560.08	1131.81
560.43	1130.24
560.79	1124.04
561.14	1124.70
561.49	1122.68
561.85	1120.34
562.20	1119.92
562.55	1122.66
562.90	1120.63
563.26	1122.68
563.61	1122.38
563.96	1121.96
564.32	1119.97
564.67	1118.45
565.02	1115.59
565.37	1115.64
565.73	1114.38
566.08	1113.32
566.43	1112.60
566.78	1110.77
567.14	1107.52
567.49	1103.05
567.84	1103.33
568.19	1104.64
568.54	1105.95
568.90	1105.62
569.25	1108.52
569.60	1108.52
569.95	1106.61
570.31	1102.70
570.66	1101.76
571.01	1101.32
571.36	1100.96
571.71	1098.74
572.06	1098.79
572.42	1099.28
572.77	1101.53
573.12	1102.32
573.47	1102.23
573.82	1100.59
574.18	1103.42
574.53	1099.98
574.88	1097.20
575.23	1099.98
575.58	1108.06
575.93	1102.04
576.28	1102.04
576.64	1102.46
576.99	1103.94
577.34	1098.27
577.69	1099.00
578.04	1097.69
578.39	1098.93
578.74	1098.39
579.09	1099.00
579.44	1100.61
579.80	1102.39
580.15	1100.47
580.50	1096.61
580.85	1095.98
581.20	1097.36
581.55	1096.80
581.90	1097.50
582.25	1100.00
582.60	1101.55
582.95	1101.67
583.30	1101.15
583.65	1099.05
584.00	1099.05
584.35	1096.73
584.71	1092.14
585.06	1091.63
585.41	1093.45
585.76	1095.14
586.11	1095.44
586.46	1097.69
586.81	1096.00
587.16	1093.08
587.51	1092.49
587.86	1091.18
588.21	1093.17
588.56	1092.82
588.91	1095.23
589.26	1092.07
589.61	1092.89
589.96	1090.46
590.31	1092.40
590.66	1093.33
591.01	1093.47
591.36	1094.79
591.71	1094.39
592.06	1094.46
592.41	1091.51
592.76	1091.20
593.10	1088.68
593.45	1090.03
593.80	1088.77
594.15	1088.77
594.50	1089.52
594.85	1091.25
595.20	1089.50
595.55	1089.24
595.90	1091.88
596.25	1093.31
596.60	1093.76
596.95	1090.17
597.30	1088.93
597.64	1096.99
597.99	1098.06
598.34	1097.97
598.69	1098.65
599.04	1098.88
599.39	1091.53
599.74	1087.62
600.09	1088.82
600.44	1091.02
600.78	1092.52
601.13	1088.26
601.48	1088.12
601.83	1084.65
602.18	1085.17
602.53	1082.99
602.88	1082.97
603.22	1087.81
603.57	1090.57
603.92	1088.35
604.27	1090.29
604.62	1095.25
604.97	1088.61
605.31	1087.93
605.66	1090.90
606.01	1094.18
606.36	1086.64
606.71	1087.34
607.05	1083.36
607.40	1081.37
607.75	1080.09
608.10	1085.14
608.44	1084.91
608.79	1089.78
609.14	1090.81
609.49	1091.44
609.84	1091.77
610.18	1091.98
610.53	1090.41
610.88	1089.96
611.23	1087.95
611.57	1086.45
611.92	1091.04
612.27	1091.16
612.62	1089.26
612.96	1087.72
613.31	1087.44
613.66	1082.83
614.00	1080.18
614.35	1082.40
614.70	1083.71
615.05	1082.01
615.39	1081.73
615.74	1084.79
616.09	1082.54
616.43	1082.85
616.78	1084.74
617.13	1088.26
617.47	1087.65
617.82	1090.83
618.17	1089.38
618.51	1090.50
618.86	1087.44
619.21	1086.94
619.55	1087.34
619.90	1085.45
620.25	1083.55
620.59	1083.32
620.94	1082.26
621.29	1082.05
621.63	1083.55
621.98	1083.34
622.32	1085.12
622.67	1084.72
623.02	1084.14
623.36	1085.66
623.71	1087.95
624.05	1085.52
624.40	1084.96
624.75	1085.21
625.09	1084.74
625.44	1081.30
625.78	1084.30
626.13	1083.74
626.48	1081.30
626.82	1080.06
627.17	1082.08
627.51	1082.99
627.86	1085.99
628.20	1086.80
628.55	1087.39
628.89	1087.58
629.24	1085.82
629.58	1086.62
629.93	1086.64
630.28	1085.33
630.62	1083.79
630.97	1086.97
631.31	1086.20
631.66	1091.60
632.00	1092.66
632.35	1093.97
632.69	1089.10
633.04	1085.24
633.38	1081.12
633.73	1080.27
634.07	1078.68
634.42	1080.72
634.76	1086.59
635.11	1085.03
635.45	1083.79
635.79	1082.99
636.14	1079.50
636.48	1075.94
636.83	1075.90
637.17	1079.81
637.52	1081.54
637.86	1084.98
638.21	1085.19
638.55	1084.63
638.89	1084.72
639.24	1083.71
639.58	1083.18
639.93	1085.40
640.27	1088.02
640.61	1086.90
640.96	1085.42
641.30	1083.29
641.65	1080.53
641.99	1082.64
642.33	1084.74
642.68	1085.80
643.02	1087.20
643.37	1086.94
643.71	1085.47
644.05	1083.08
644.40	1083.18
644.74	1086.13
645.08	1087.48
645.43	1085.45
645.77	1087.62
646.11	1090.60
646.46	1088.23
646.80	1089.71
647.14	1087.90
647.49	1086.38
647.83	1083.55
648.17	1080.88
648.52	1079.17
648.86	1080.98
649.20	1079.97
649.55	1080.11
649.89	1082.90
650.23	1079.85
650.57	1079.43
650.92	1076.18
651.26	1074.42
651.60	1073.39
651.95	1074.17
652.29	1072.06
652.63	1075.66
652.97	1079.69
653.32	1077.21
653.66	1077.16
654.00	1082.40
654.34	1083.39
654.69	1082.08
655.03	1085.33
655.37	1087.18
655.71	1082.59
656.05	1081.56
656.40	1079.97
656.74	1079.62
657.08	1078.12
657.42	1078.99
657.76	1079.10
658.11	1078.94
658.45	1078.00
658.79	1078.96
659.13	1080.93
659.47	1080.60
659.82	1081.94
660.16	1080.20
660.50	1082.94
660.84	1080.77
661.18	1080.74
661.52	1078.10
661.87	1080.77
662.21	1079.20
662.55	1082.50
662.89	1082.08
663.23	1084.93
663.57	1086.94
663.91	1085.10
664.25	1081.51
664.60	1082.03
664.94	1081.12
665.28	1076.48
665.62	1077.37
665.96	1079.24
666.30	1078.99
666.64	1081.98
666.98	1084.70
667.32	1085.96
667.66	1083.08
668.01	1084.25
668.35	1081.94
668.69	1082.76
669.03	1083.46
669.37	1087.41
669.71	1085.17
670.05	1086.24
670.39	1087.76
670.73	1084.93
671.07	1084.35
671.41	1085.70
671.75	1086.34
672.09	1082.38
672.43	1084.39
672.77	1084.42
673.11	1083.32
673.45	1082.19
673.79	1084.60
674.13	1083.93
674.47	1084.16
674.81	1083.29
675.15	1080.65
675.49	1082.71
675.83	1082.38
676.17	1082.36
676.51	1082.45
676.85	1084.21
677.19	1081.58
677.53	1084.53
677.87	1083.53
678.21	1085.42
678.55	1087.25
678.89	1087.48
679.23	1083.18
679.57	1083.15
679.90	1082.43
680.24	1079.29
680.58	1080.13
680.92	1082.40
681.26	1080.48
681.60	1080.98
681.94	1081.87
682.28	1080.04
682.62	1077.56
682.96	1077.49
683.29	1078.21
683.63	1076.60
683.97	1079.03
684.31	1079.64
684.65	1084.60
684.99	1085.12
685.33	1085.00
685.67	1083.25
686.00	1082.22
686.34	1076.34
686.68	1072.85
687.02	1075.03
687.36	1071.61
687.70	1072.36
688.03	1073.39
688.37	1074.63
688.71	1075.92
689.05	1076.81
689.39	1077.30
689.72	1077.58
690.06	1077.09
690.40	1076.90
690.74	1078.10
691.08	1078.19
691.41	1077.14
691.75	1078.07
692.09	1076.51
692.43	1078.12
692.76	1078.10
693.10	1079.55
693.44	1081.23
693.78	1080.16
694.11	1079.81
694.45	1081.61
694.79	1081.77
695.13	1082.69
695.46	1085.14
695.80	1085.35
696.14	1086.90
696.48	1088.33
696.81	1088.58
697.15	1088.96
697.49	1088.75
697.82	1086.66
698.16	1084.79
698.50	1080.18
698.83	1077.68
699.17	1076.23
699.51	1075.34
699.84	1076.04
700.18	1079.17
700.52	1078.80
700.85	1081.96
701.19	1082.17
701.53	1081.77
701.86	1083.57
702.20	1083.74
702.54	1079.55
702.87	1076.34
703.21	1074.38
703.55	1070.87
703.88	1070.96
704.22	1072.48
704.55	1075.55
704.89	1080.02
705.23	1080.53
705.56	1083.20
705.90	1083.27
706.23	1084.44
706.57	1082.05
706.91	1080.51
707.24	1078.57
707.58	1078.45
707.91	1078.96
708.25	1079.34
708.58	1080.53
708.92	1081.96
709.26	1082.61
709.59	1081.07
709.93	1079.88
710.26	1080.23
710.60	1079.76
710.93	1077.54
711.27	1075.97
711.60	1078.21
711.94	1077.23
712.27	1079.01
712.61	1079.85
712.94	1080.44
713.28	1078.82
713.61	1079.20
713.95	1081.80
714.28	1083.36
714.62	1083.22
714.95	1084.67
715.29	1085.54
715.62	1082.17
715.96	1082.90
716.29	1083.50
716.63	1085.56
716.96	1083.22
717.29	1081.54
717.63	1077.28
717.96	1079.29
718.30	1076.62
718.63	1078.87
718.97	1077.37
719.30	1082.59
719.63	1083.25
719.97	1082.03
720.30	1080.13
720.64	1082.29
720.97	1081.16
721.30	1077.02
721.64	1081.07
721.97	1082.03
722.31	1082.38
722.64	1082.78
722.97	1083.08
723.31	1078.26
723.64	1079.67
723.97	1075.31
724.31	1071.90
724.64	1073.32
724.98	1075.66
725.31	1074.38
725.64	1080.27
725.98	1083.95
726.31	1083.46
726.64	1083.57
726.97	1086.08
727.31	1084.16
727.64	1085.14
727.97	1085.56
728.31	1085.52
728.64	1083.90
728.97	1084.70
729.31	1083.88
729.64	1081.02
729.97	1082.05
730.30	1082.50
730.64	1082.80
730.97	1082.01
731.30	1085.24
731.63	1084.81
731.97	1085.24
732.30	1083.43
732.63	1082.19
732.96	1082.17
733.30	1081.49
733.63	1081.73
733.96	1080.58
734.29	1081.82
734.63	1080.63
734.96	1084.09
735.29	1080.27
735.62	1079.69
735.95	1078.75
736.29	1080.65
736.62	1075.05
736.95	1077.89
737.28	1080.27
737.61	1081.00
737.94	1081.42
738.28	1083.50
738.61	1084.09
738.94	1086.69
739.27	1085.35
739.60	1084.84
739.93	1085.56
740.27	1083.67
740.60	1081.35
740.93	1082.87
741.26	1080.56
741.59	1079.97
741.92	1081.73
742.25	1078.05
742.58	1077.42
742.91	1076.83
743.25	1077.42
743.58	1075.64
743.91	1080.88
744.24	1080.74
744.57	1083.29
744.90	1084.16
745.23	1088.35
745.56	1089.40
745.89	1092.35
746.22	1092.94
746.55	1090.55
746.88	1088.47
747.21	1084.25
747.54	1080.32
747.87	1080.67
748.20	1079.81
748.53	1081.94
748.87	1083.04
749.20	1085.35
749.53	1081.98
749.86	1083.41
750.19	1081.00
750.52	1082.78
750.85	1080.67
751.18	1083.57
751.51	1082.92
751.84	1082.01
752.16	1075.85
752.49	1077.11
752.82	1073.56
753.15	1074.38
753.48	1074.96
753.81	1079.67
754.14	1078.00
754.47	1080.67
754.80	1080.46
755.13	1079.95
755.46	1078.78
755.79	1082.99
756.12	1081.96
756.45	1081.42
756.78	1079.27
757.11	1080.65
757.43	1077.23
757.76	1079.22
758.09	1079.83
758.42	1081.49
758.75	1080.09
759.08	1080.02
759.41	1078.40
759.74	1077.79
760.07	1077.56
760.39	1076.72
760.72	1076.76
761.05	1079.76
761.38	1079.83
761.71	1080.81
762.04	1083.48
762.36	1082.69
762.69	1081.30
763.02	1082.26
763.35	1080.09
763.68	1078.59
764.01	1081.56
764.33	1077.07
764.66	1074.84
764.99	1076.13
765.32	1080.16
765.65	1073.32
765.97	1077.98
766.30	1079.55
766.63	1079.55
766.96	1074.94
767.28	1080.39
767.61	1080.58
767.94	1077.79
768.27	1078.73
768.59	1077.21
768.92	1073.60
769.25	1070.63
769.58	1073.84
769.90	1074.42
770.23	1074.35
770.56	1075.62
770.89	1076.39
771.21	1076.55
771.54	1078.40
771.87	1080.86
772.19	1085.00
772.52	1088.37
772.85	1087.97
773.17	1085.47
773.50	1083.48
773.83	1081.07
774.15	1077.96
774.48	1077.35
774.81	1079.36
775.13	1080.11
775.46	1079.95
775.79	1082.73
776.11	1081.12
776.44	1077.37
776.77	1079.50
777.09	1081.14
777.42	1079.97
777.74	1084.42
778.07	1084.93
778.40	1086.15
778.72	1084.00
779.05	1084.60
779.37	1081.16
779.70	1079.83
780.03	1076.74
780.35	1076.81
780.68	1070.84
781.00	1071.03
781.33	1072.76
781.65	1075.87
781.98	1076.88
782.31	1081.73
782.63	1080.93
782.96	1079.13
783.28	1076.72
783.61	1077.91
783.93	1081.05
784.26	1081.33
784.58	1082.45
784.91	1083.60
785.23	1082.97
785.56	1079.31
785.88	1077.58
786.21	1078.99
786.53	1078.45
786.86	1074.38
787.18	1073.98
787.51	1076.69
787.83	1074.89
788.16	1072.88
788.48	1075.73
788.81	1075.17
789.13	1076.20
789.46	1081.35
789.78	1082.92
790.10	1083.48
790.43	1081.12
790.75	1079.76
791.08	1075.03
791.40	1074.28
791.73	1075.71
792.05	1077.98
792.37	1079.48
792.70	1081.35
793.02	1084.23
793.35	1080.04
793.67	1083.36
793.99	1079.31
794.32	1077.86
794.64	1074.38
794.96	1074.24
795.29	1069.44
795.61	1075.36
795.93	1077.25
796.26	1077.28
796.58	1076.93
796.91	1076.11
797.23	1071.57
797.55	1069.34
797.87	1069.67
798.20	1073.60
798.52	1074.98
798.84	1074.56
799.17	1076.58
799.49	1077.70
799.81	1075.10
800.14	1078.21
800.46	1081.00
800.78	1080.48
801.10	1081.47
801.43	1081.56
801.75	1080.88
802.07	1078.52
802.40	1077.68
802.72	1076.30
803.04	1076.27
803.36	1074.73
803.69	1077.77
804.01	1076.30
804.33	1075.27
804.65	1078.14
804.97	1080.27
805.30	1080.44
805.62	1083.81
805.94	1082.85
806.26	1082.38
806.58	1082.33
806.91	1078.75
807.23	1076.88
807.55	1078.10
807.87	1077.51
808.19	1078.96
808.52	1081.87
808.84	1080.77
809.16	1080.74
809.48	1080.39
809.80	1076.37
810.12	1074.26
810.44	1075.90
810.77	1075.15
811.09	1075.59
811.41	1076.06
811.73	1078.17
812.05	1078.82
812.37	1079.55
812.69	1077.77
813.01	1075.90
813.33	1076.25
813.66	1075.94
813.98	1073.91
814.30	1073.28
814.62	1076.86
814.94	1074.35
815.26	1073.11
815.58	1076.95
815.90	1080.37
816.22	1078.05
816.54	1077.11
816.86	1079.03
817.18	1075.38
817.50	1077.04
817.82	1075.99
818.14	1080.74
818.46	1080.65
818.78	1085.99
819.10	1083.27
819.42	1086.01
819.74	1085.91
820.06	1083.34
820.38	1080.74
820.70	1078.61
821.02	1078.24
821.34	1077.11
821.66	1074.91
821.98	1074.42
822.30	1075.78
822.62	1075.03
822.94	1071.59
823.26	1075.69
823.58	1076.15
823.90	1076.72
824.22	1076.67
824.54	1081.23
824.86	1078.64
825.18	1080.79
825.50	1079.03
825.81	1080.18
826.13	1079.36
826.45	1081.49
826.77	1078.94
827.09	1081.16
827.41	1080.44
827.73	1078.28
828.05	1076.27
828.36	1076.18
828.68	1072.50
829.00	1073.30
829.32	1077.11
829.64	1077.47
829.96	1074.80
830.28	1077.56
830.59	1079.01
830.91	1075.90
831.23	1076.30
831.55	1078.57
831.87	1076.76
832.19	1074.82
832.50	1073.11
832.82	1072.18
833.14	1073.88
833.46	1074.52
833.78	1074.17
834.09	1073.65
834.41	1076.06
834.73	1074.84
835.05	1077.63
835.36	1078.24
835.68	1079.85
836.00	1078.66
836.32	1079.71
836.63	1077.98
836.95	1076.93
837.27	1075.08
837.59	1074.35
837.90	1073.39
838.22	1072.46
838.54	1073.51
838.85	1077.79
839.17	1079.36
839.49	1080.63
839.80	1078.82
840.12	1078.38
840.44	1076.79
840.76	1077.04
841.07	1073.60
841.39	1077.93
841.71	1078.50
842.02	1077.86
842.34	1078.78
842.65	1081.09
842.97	1074.91
843.29	1073.21
843.60	1073.44
843.92	1073.23
844.24	1074.91
844.55	1077.37
844.87	1076.76
845.18	1077.00
845.50	1073.58
845.82	1069.46
846.13	1073.25
846.45	1073.67
846.76	1073.35
847.08	1074.49
847.40	1075.73
847.71	1076.81
848.03	1078.87
848.34	1079.76
848.66	1078.26
848.97	1079.03
849.29	1076.41
849.60	1074.87
849.92	1072.76
850.24	1077.51
850.55	1080.72
850.87	1078.19
851.18	1079.50
851.50	1077.33
851.81	1073.46
852.13	1071.17
852.44	1075.43
852.76	1075.62
853.07	1078.00
853.39	1079.10
853.70	1078.82
854.01	1076.04
854.33	1075.36
854.64	1076.53
854.96	1076.86
855.27	1074.52
855.59	1076.44
855.90	1078.59
856.22	1080.74
856.53	1082.97
856.84	1086.01
857.16	1086.73
857.47	1082.29
857.79	1079.03
858.10	1075.76
858.41	1073.11
858.73	1070.84
859.04	1074.84
859.36	1075.55
859.67	1075.73
859.98	1078.36
860.30	1077.23
860.61	1076.93
860.92	1075.78
861.24	1076.81
861.55	1076.65
861.87	1078.71
862.18	1075.01
862.49	1076.69
862.81	1076.44
863.12	1075.48
863.43	1076.95
863.74	1081.33
864.06	1081.70
864.37	1080.32
864.68	1081.26
865.00	1081.26
865.31	1080.77
865.62	1080.18
865.94	1083.48
866.25	1084.25
866.56	1081.07
866.87	1077.63
867.19	1078.26
867.50	1077.70
867.81	1076.32
868.12	1078.19
868.44	1081.28
868.75	1083.15
869.06	1082.54
869.37	1081.23
869.68	1080.60
870.00	1080.20
870.31	1076.67
870.62	1074.07
870.93	1076.46
871.24	1073.86
871.56	1071.12
871.87	1070.63
872.18	1073.18
872.49	1071.90
872.80	1073.37
873.12	1074.26
873.43	1074.07
873.74	1072.83
874.05	1072.71
874.36	1074.28
874.67	1074.31
874.98	1075.90
875.29	1074.80
875.61	1076.76
875.92	1076.86
876.23	1077.25
876.54	1076.79
876.85	1080.09
877.16	1078.17
877.47	1078.10
877.78	1081.66
878.09	1077.84
878.40	1072.76
878.72	1072.62
879.03	1072.76
879.34	1070.47
879.65	1074.10
879.96	1079.97
880.27	1082.36
880.58	1081.87
880.89	1082.59
881.20	1082.31
881.51	1081.30
881.82	1077.63
882.13	1077.16
882.44	1075.69
882.75	1077.18
883.06	1073.16
883.37	1075.45
883.68	1073.58
883.99	1075.99
884.30	1073.56
884.61	1077.96
884.92	1078.21
885.23	1080.72
885.54	1079.03
885.85	1081.82
886.16	1080.16
886.47	1081.07
886.78	1080.11
887.08	1077.58
887.39	1075.52
887.70	1076.53
888.01	1073.65
888.32	1075.20
888.63	1077.98
888.94	1077.42
889.25	1076.27
889.56	1078.03
889.87	1075.85
890.17	1074.49
890.48	1077.00
890.79	1075.10
891.10	1074.87
891.41	1076.34
891.72	1078.99
892.03	1077.35
892.34	1077.04
892.64	1074.66
892.95	1073.44
893.26	1070.56
893.57	1072.55
893.88	1078.26
894.18	1080.48
894.49	1080.09
894.80	1080.72
895.11	1081.68
895.42	1080.65
895.72	1080.91
896.03	1081.58
896.34	1081.66
896.65	1080.23
896.96	1077.37
897.26	1076.04
897.57	1078.00
897.88	1080.25
898.19	1078.82
898.49	1078.96
898.80	1081.58
899.11	1080.67
899.41	1077.16
899.72	1075.03
900.03	1076.69
900.34	1074.33
900.64	1075.05
900.95	1075.99
901.26	1079.81
901.56	1081.14
901.87	1084.74
902.18	1085.33
902.48	1083.01
902.79	1080.44
903.10	1079.31
903.40	1073.84
903.71	1070.47
904.02	1073.09
904.32	1071.78
904.63	1068.88
904.94	1073.72
905.24	1078.00
905.55	1076.20
905.85	1081.09
906.16	1081.98
906.47	1077.09
906.77	1076.01
907.08	1077.77
907.38	1076.83
907.69	1076.39
908.00	1080.65
908.30	1078.50
908.61	1079.78
908.91	1077.35
909.22	1080.88
909.52	1081.14
909.83	1083.32
910.14	1085.12
910.44	1088.44
910.75	1088.98
911.05	1088.33
911.36	1086.97
911.66	1084.58
911.97	1082.94
912.27	1076.97
912.58	1073.95
912.88	1076.32
913.19	1078.96
913.49	1079.29
913.80	1085.49
914.10	1087.25
914.41	1087.09
914.71	1084.70
915.01	1083.55
915.32	1081.33
915.62	1081.73
915.93	1080.63
916.23	1079.29
916.54	1078.78
916.84	1077.98
917.15	1074.89
917.45	1072.06
917.75	1070.54
918.06	1074.03
918.36	1071.17
918.67	1076.18
918.97	1078.92
919.27	1084.44
919.58	1081.80
919.88	1082.31
920.18	1081.75
920.49	1080.39
920.79	1078.28
921.10	1079.90
921.40	1083.27
921.70	1078.59
922.01	1079.55
922.31	1075.15
922.61	1070.89
922.92	1073.77
923.22	1078.03
923.52	1076.53
923.82	1077.56
924.13	1081.12
924.43	1078.78
924.73	1076.55
925.04	1078.47
925.34	1081.30
925.64	1078.96
925.94	1076.04
926.25	1078.92
926.55	1075.43
926.85	1074.24
927.15	1074.21
927.46	1074.21
927.76	1073.14
928.06	1076.67
928.36	1077.25
928.67	1078.71
928.97	1080.06
929.27	1081.66
929.57	1081.87
929.87	1081.33
930.18	1080.86
930.48	1080.70
930.78	1079.20
931.08	1080.63
931.38	1078.96
931.69	1077.93
931.99	1077.75
932.29	1077.42
932.59	1073.72
932.89	1076.01
933.19	1078.66
933.49	1076.46
933.80	1076.32
934.10	1077.42
934.40	1076.93
934.70	1077.00
935.00	1082.40
935.30	1079.64
935.60	1078.24
935.90	1078.89
936.20	1077.11
936.50	1074.10
936.81	1078.64
937.11	1080.44
937.41	1079.88
937.71	1078.10
938.01	1076.72
938.31	1072.97
938.61	1073.74
938.91	1076.93
939.21	1079.20
939.51	1079.92
939.81	1083.74
940.11	1082.29
940.41	1078.33
940.71	1078.21
941.01	1079.46
941.31	1076.76
941.61	1079.36
941.91	1081.12
942.21	1081.14
942.51	1077.09
942.81	1078.43
943.11	1074.96
943.41	1073.65
943.71	1070.56
944.01	1073.23
944.31	1071.47
944.61	1071.24
944.90	1072.69
945.20	1077.09
945.50	1078.89
945.80	1084.30
946.10	1085.96
946.40	1083.93
946.70	1081.58
947.00	1079.10
947.30	1073.02
947.60	1071.38
947.89	1072.92
948.19	1074.17
948.49	1076.25
948.79	1074.38
949.09	1075.15
949.39	1074.59
949.69	1074.35
949.98	1073.04
950.28	1073.04
950.58	1073.77
950.88	1075.41
951.18	1076.88
951.48	1078.19
951.77	1081.84
952.07	1084.16
952.37	1082.12
952.67	1081.84
952.97	1082.29
953.26	1081.51
953.56	1077.63
953.86	1075.38
954.16	1076.65
954.45	1076.25
954.75	1074.21
955.05	1075.29
955.35	1076.13
955.64	1073.21
955.94	1072.39
956.24	1073.93
956.54	1075.78
956.83	1078.50
957.13	1076.01
957.43	1075.52
957.72	1073.02
958.02	1072.92
958.32	1073.23
958.61	1075.31
958.91	1075.52
959.21	1077.33
959.50	1076.39
959.80	1073.88
960.10	1070.58
960.39	1071.33
960.69	1074.94
960.99	1075.22
961.28	1075.03
961.58	1079.76
961.87	1076.76
962.17	1076.90
962.47	1078.12
962.76	1079.01
963.06	1078.68
963.36	1081.77
963.65	1077.98
963.95	1076.90
964.24	1077.75
964.54	1078.82
964.83	1080.44
965.13	1085.73
965.42	1081.02
965.72	1081.00
966.02	1078.45
966.31	1075.80
966.61	1070.47
966.90	1075.22
967.20	1073.35
967.49	1076.93
967.79	1077.47
968.08	1078.38
968.38	1077.70
968.67	1077.65
968.97	1074.68
969.26	1075.66
969.56	1079.48
969.85	1078.36
970.15	1079.27
970.44	1081.61
970.74	1079.99
971.03	1077.68
971.32	1079.17
971.62	1079.78
971.91	1076.46
972.21	1076.01
972.50	1072.81
972.80	1069.51
973.09	1069.58
973.38	1070.89
973.68	1070.30
973.97	1070.82
974.27	1074.33
974.56	1075.48
974.85	1076.81
975.15	1081.42
975.44	1083.25
975.73	1080.79
976.03	1076.69
976.32	1077.30
976.61	1075.97
976.91	1075.05
977.20	1077.86
977.49	1078.19
977.79	1078.33
978.08	1076.81
978.37	1079.48
978.67	1080.34
978.96	1080.16
979.25	1079.64
979.55	1078.94
979.84	1077.14
980.13	1076.06
980.42	1079.27
980.72	1079.15
981.01	1079.99
981.30	1081.51
981.59	1083.53
981.89	1082.71
982.18	1080.95
982.47	1082.12
982.76	1077.44
983.06	1074.66
983.35	1075.71
983.64	1076.93
983.93	1077.09
984.22	1080.58
984.52	1080.86
984.81	1081.54
985.10	1082.99
985.39	1081.14
985.68	1078.57
985.97	1078.99
986.27	1079.20
986.56	1078.19
986.85	1078.52
987.14	1078.43
987.43	1077.70
987.72	1078.61
988.01	1080.02
988.31	1080.13
988.60	1081.68
988.89	1081.94
989.18	1080.39
989.47	1077.68
989.76	1078.21
990.05	1077.37
990.34	1078.96
990.63	1078.78
990.92	1080.16
991.21	1082.43
991.51	1087.04
991.80	1086.94
992.09	1084.07
992.38	1081.23
992.67	1077.16
992.96	1073.32
993.25	1071.71
993.54	1072.43
993.83	1075.03
994.12	1078.05
994.41	1080.51
994.70	1080.13
994.99	1080.18
995.28	1078.59
995.57	1077.44
995.86	1080.06
996.15	1078.96
996.44	1080.11
996.73	1083.41
997.02	1080.20
997.31	1078.05
997.59	1077.56
997.88	1075.83
998.17	1071.45
998.46	1069.70
998.75	1068.20
999.04	1068.59
999.33	1069.86
999.62	1072.64
999.91	1078.61
1000.20	1077.07
1000.49	1079.31
1000.77	1080.74
1001.06	1078.28
1001.35	1076.55
1001.64	1077.02
1001.93	1075.73
1002.22	1073.39
1002.51	1073.93
1002.79	1073.44
1003.08	1073.74
1003.37	1073.63
1003.66	1074.45
1003.95	1075.78
1004.23	1075.66
1004.52	1076.20
1004.81	1077.04
1005.10	1079.78
1005.39	1078.54
1005.67	1080.27
1005.96	1079.46
1006.25	1076.51
1006.54	1076.15
1006.83	1078.73
1007.11	1074.56
1007.40	1074.77
1007.69	1075.78
1007.97	1074.17
1008.26	1071.26
1008.55	1074.54
1008.84	1076.53
1009.12	1078.47
1009.41	1080.13
1009.70	1077.93
1009.98	1077.30
1010.27	1074.89
1010.56	1074.31
1010.85	1071.17
1011.13	1070.28
1011.42	1069.72
1011.71	1070.09
1011.99	1072.50
1012.28	1076.58
1012.56	1078.33
1012.85	1079.85
1013.14	1078.40
1013.42	1075.78
1013.71	1072.20
1014.00	1072.57
1014.28	1073.23
1014.57	1073.81
1014.85	1071.10
1015.14	1071.15
1015.43	1075.15
1015.71	1071.80
1016.00	1073.58
1016.28	1075.08
1016.57	1077.72
1016.85	1075.43
1017.14	1078.85
1017.43	1077.18
1017.71	1077.68
1018.00	1076.27
1018.28	1079.34
1018.57	1079.06
1018.85	1079.81
1019.14	1082.78
1019.42	1083.60
1019.71	1083.55
1019.99	1081.12
1020.28	1082.15
1020.56	1082.17
1020.85	1079.60
1021.13	1077.42
1021.42	1080.63
1021.70	1082.36
1021.99	1079.69
1022.27	1080.79
1022.55	1074.42
1022.84	1075.48
>>>>>End Processed Spectral Data<<<<<
