SpectraSuite Data File
++++++++++++++++++++++++++++++++++++
Date: Mon Aug 26 10:22:33 PDT 2019
User: corrico
Dark Spectrum Present: No
Reference Spectrum Present: No
Number of Sampled Component Spectra: 1
Spectrometers: USB2+H06089
Integration Time (usec): 2000 (USB2+H06089)
Spectra Averaged: 20 (USB2+H06089)
Boxcar Smoothing: 2 (USB2+H06089)
Correct for Electrical Dark: No (USB2+H06089)
Strobe/Lamp Enabled: No (USB2+H06089)
Correct for Detector Non-linearity: No (USB2+H06089)
Correct for Stray Light: No (USB2+H06089)
Number of Pixels in Processed Spectrum: 2048
>>>>>Begin Processed Spectral Data<<<<<
339.70	1025.86
340.07	1025.86
340.45	990.56
340.82	968.96
341.19	946.82
341.57	922.66
341.94	915.97
342.31	902.98
342.69	897.74
343.06	892.40
343.43	890.46
343.81	891.14
344.18	899.89
344.55	903.84
344.93	909.63
345.30	915.03
345.67	920.09
346.04	923.41
346.42	929.33
346.79	938.77
347.16	946.72
347.54	956.09
347.91	968.77
348.28	978.20
348.65	987.85
349.03	998.47
349.40	1007.60
349.77	1014.08
350.14	1027.96
350.52	1031.73
350.89	1038.82
351.26	1046.24
351.63	1049.12
352.01	1052.12
352.38	1060.73
352.75	1068.95
353.12	1073.00
353.50	1078.68
353.87	1079.81
354.24	1082.50
354.61	1082.50
354.98	1083.43
355.36	1086.59
355.73	1086.94
356.10	1085.07
356.47	1082.71
356.84	1082.33
357.22	1080.60
357.59	1080.23
357.96	1082.52
358.33	1079.01
358.70	1076.65
359.08	1074.21
359.45	1075.48
359.82	1074.84
360.19	1079.46
360.56	1078.24
360.94	1077.84
361.31	1078.82
361.68	1077.00
362.05	1075.69
362.42	1079.20
362.79	1081.44
363.16	1079.34
363.54	1079.57
363.91	1076.83
364.28	1076.23
364.65	1074.26
365.02	1072.74
365.39	1072.29
365.76	1072.95
366.14	1073.25
366.51	1074.87
366.88	1077.47
367.25	1075.27
367.62	1078.05
367.99	1077.96
368.36	1077.86
368.73	1072.55
369.10	1073.11
369.48	1071.52
369.85	1069.65
370.22	1069.06
370.59	1074.19
370.96	1073.56
371.33	1075.50
371.70	1075.71
372.07	1076.79
372.44	1075.41
372.81	1077.68
373.18	1077.11
373.55	1080.88
373.93	1085.33
374.30	1087.30
374.67	1085.82
375.04	1086.01
375.41	1082.90
375.78	1079.48
376.15	1080.93
376.52	1080.23
376.89	1079.34
377.26	1078.66
377.63	1077.79
378.00	1070.72
378.37	1072.83
378.74	1072.71
379.11	1073.35
379.48	1071.75
379.85	1077.40
380.22	1078.28
380.59	1077.33
380.96	1080.79
381.33	1084.35
381.70	1081.12
382.07	1079.83
382.44	1080.63
382.81	1077.93
383.18	1076.60
383.55	1079.22
383.92	1083.88
384.29	1085.19
384.66	1087.90
385.03	1083.39
385.40	1083.20
385.77	1078.82
386.14	1076.58
386.51	1071.54
386.88	1076.20
387.25	1076.01
387.62	1077.79
387.99	1079.95
388.36	1084.00
388.73	1086.71
389.10	1085.21
389.46	1085.59
389.83	1087.16
390.20	1085.40
390.57	1082.36
390.94	1086.43
391.31	1087.02
391.68	1083.79
392.05	1084.39
392.42	1088.16
392.79	1090.22
393.16	1090.88
393.53	1093.03
393.89	1092.02
394.26	1091.06
394.63	1086.20
395.00	1086.41
395.37	1084.35
395.74	1087.27
396.11	1087.62
396.48	1088.44
396.84	1086.55
397.21	1090.67
397.58	1086.06
397.95	1083.86
398.32	1083.08
398.69	1082.15
399.06	1080.20
399.42	1083.50
399.79	1082.94
400.16	1085.82
400.53	1087.09
400.90	1089.33
401.27	1091.13
401.64	1092.21
402.00	1091.79
402.37	1093.36
402.74	1094.11
403.11	1094.60
403.48	1095.46
403.84	1094.55
404.21	1097.90
404.58	1096.59
404.95	1095.89
405.32	1098.18
405.68	1098.83
406.05	1096.26
406.42	1095.63
406.79	1095.37
407.16	1092.89
407.52	1091.39
407.89	1089.73
408.26	1090.36
408.63	1089.19
408.99	1088.04
409.36	1087.39
409.73	1088.16
410.10	1089.99
410.47	1091.32
410.83	1090.43
411.20	1094.62
411.57	1092.02
411.94	1092.33
412.30	1094.15
412.67	1100.33
413.04	1099.47
413.40	1103.98
413.77	1101.36
414.14	1099.98
414.51	1098.95
414.87	1098.02
415.24	1097.27
415.61	1100.66
415.97	1101.01
416.34	1101.20
416.71	1105.08
417.08	1102.51
417.44	1101.67
417.81	1101.32
418.18	1101.67
418.54	1101.36
418.91	1104.22
419.28	1105.97
419.64	1107.31
420.01	1111.22
420.38	1112.48
420.74	1116.55
421.11	1120.65
421.48	1126.17
421.84	1119.43
422.21	1119.62
422.58	1122.33
422.94	1122.99
423.31	1124.65
423.68	1133.24
424.04	1139.79
424.41	1141.32
424.77	1143.40
425.14	1146.68
425.51	1149.09
425.87	1153.98
426.24	1156.37
426.61	1160.25
426.97	1167.60
427.34	1173.31
427.70	1178.11
428.07	1188.80
428.44	1196.15
428.80	1198.33
429.17	1206.29
429.53	1215.35
429.90	1223.94
430.27	1234.16
430.63	1245.09
431.00	1257.31
431.36	1265.90
431.73	1276.65
432.09	1286.87
432.46	1302.02
432.83	1314.05
433.19	1330.69
433.56	1345.76
433.92	1367.41
434.29	1390.63
434.65	1415.04
435.02	1441.56
435.38	1471.00
435.75	1500.70
436.11	1528.11
436.48	1563.08
436.84	1597.81
437.21	1636.71
437.57	1670.21
437.94	1711.00
438.30	1752.48
438.67	1799.40
439.03	1847.08
439.40	1906.39
439.76	1964.83
440.13	2025.64
440.49	2089.47
440.86	2155.28
441.22	2231.93
441.59	2306.20
441.95	2391.28
442.32	2471.54
442.68	2567.10
443.05	2656.32
443.41	2758.93
443.78	2855.27
444.14	2968.36
444.51	3086.30
444.87	3228.30
445.24	3370.68
445.60	3526.70
445.96	3680.12
446.33	3849.34
446.69	4014.74
447.06	4193.49
447.42	4376.36
447.79	4574.69
448.15	4798.71
448.51	5028.92
448.88	5288.84
449.24	5542.69
449.61	5830.91
449.97	6104.56
450.33	6387.79
450.70	6659.92
451.06	6981.98
451.43	7284.57
451.79	7649.92
452.15	8057.55
452.52	8508.20
452.88	8994.94
453.24	9539.79
453.61	10133.42
453.97	10711.20
454.34	11273.35
454.70	11917.56
455.06	12566.08
455.43	13198.91
455.79	13791.47
456.15	14513.87
456.52	15183.73
456.88	15977.29
457.24	16713.44
457.61	17589.03
457.97	18366.30
458.33	19141.67
458.70	19903.45
459.06	20665.46
459.42	21508.42
459.79	22294.94
460.15	23234.66
460.51	24119.90
460.88	25079.10
461.24	25899.43
461.60	26886.86
461.96	27770.90
462.33	28618.88
462.69	29396.47
463.05	30217.16
463.42	30929.62
463.78	31588.01
464.14	32135.86
464.50	32746.41
464.87	33252.08
465.23	33607.00
465.59	33949.66
465.95	34256.03
466.32	34513.56
466.68	34750.64
467.04	34923.53
467.40	35055.02
467.77	35231.66
468.13	35221.53
468.49	35097.78
468.85	34983.10
469.22	34807.53
469.58	34437.24
469.94	34149.54
470.30	33832.47
470.66	33412.55
471.03	32800.27
471.39	32385.92
471.75	31737.73
472.11	31108.43
472.47	30716.21
472.84	30395.93
473.20	29883.14
473.56	29625.49
473.92	29219.01
474.28	28710.30
474.65	28212.93
475.01	27754.42
475.37	27168.40
475.73	26694.77
476.09	26166.32
476.45	25625.17
476.81	25102.36
477.18	24558.12
477.54	24100.85
477.90	23720.51
478.26	23313.05
478.62	22963.74
478.98	22685.38
479.34	22384.06
479.71	21996.45
480.07	21644.20
480.43	21280.15
480.79	20880.74
481.15	20506.51
481.51	20180.96
481.87	19934.86
482.23	19647.70
482.59	19394.69
482.96	19117.12
483.32	18827.13
483.68	18442.53
484.04	18098.96
484.40	17730.14
484.76	17353.88
485.12	16985.22
485.48	16672.36
485.84	16316.04
486.20	15957.52
486.56	15598.06
486.92	15288.87
487.28	14925.29
487.64	14579.22
488.00	14242.23
488.37	13915.05
488.73	13542.69
489.09	13173.71
489.45	12857.59
489.81	12531.86
490.17	12227.47
490.53	11927.86
490.89	11634.05
491.25	11305.30
491.61	11002.32
491.97	10679.12
492.33	10357.10
492.69	10066.32
493.05	9778.85
493.41	9486.24
493.77	9204.48
494.13	8953.63
494.49	8697.20
494.85	8452.77
495.21	8233.16
495.57	8013.32
495.93	7786.26
496.29	7585.07
496.64	7397.05
497.00	7209.04
497.36	7030.36
497.72	6859.88
498.08	6671.77
498.44	6494.96
498.80	6318.49
499.16	6149.52
499.52	5984.52
499.88	5862.34
500.24	5733.33
500.60	5609.54
500.96	5492.28
501.32	5373.89
501.68	5245.07
502.03	5116.83
502.39	4986.51
502.75	4852.00
503.11	4727.74
503.47	4604.37
503.83	4479.67
504.19	4355.95
504.55	4243.91
504.91	4136.48
505.26	4041.22
505.62	3954.12
505.98	3873.02
506.34	3785.56
506.70	3701.35
507.06	3616.17
507.42	3531.17
507.78	3448.17
508.13	3372.50
508.49	3297.44
508.85	3221.93
509.21	3155.21
509.57	3088.48
509.93	3022.17
510.28	2960.01
510.64	2896.53
511.00	2834.79
511.36	2775.76
511.72	2722.14
512.07	2667.51
512.43	2621.89
512.79	2566.40
513.15	2520.83
513.51	2470.15
513.86	2422.29
514.22	2376.67
514.58	2336.46
514.94	2298.55
515.30	2264.40
515.65	2229.15
516.01	2198.56
516.37	2172.56
516.73	2136.46
517.08	2106.25
517.44	2076.92
517.80	2044.06
518.16	2017.71
518.51	1993.53
518.87	1962.63
519.23	1939.16
519.59	1912.85
519.94	1883.08
520.30	1860.21
520.66	1837.16
521.01	1814.08
521.37	1794.89
521.73	1775.67
522.09	1753.53
522.44	1738.74
522.80	1716.99
523.16	1691.11
523.51	1669.95
523.87	1653.03
524.23	1631.38
524.58	1612.49
524.94	1598.47
525.30	1578.86
525.65	1558.77
526.01	1542.93
526.37	1530.38
526.72	1519.80
527.08	1509.08
527.44	1498.86
527.79	1488.72
528.15	1474.30
528.51	1461.27
528.86	1451.39
529.22	1436.46
529.58	1424.38
529.93	1415.56
530.29	1404.63
530.65	1391.26
531.00	1384.66
531.36	1376.40
531.71	1362.94
532.07	1355.24
532.43	1348.29
532.78	1342.13
533.14	1331.93
533.49	1326.43
533.85	1320.02
534.21	1311.03
534.56	1305.50
534.92	1299.11
535.27	1297.31
535.63	1292.21
535.98	1289.61
536.34	1280.27
536.69	1271.00
537.05	1264.66
537.41	1259.02
537.76	1252.28
538.12	1247.69
538.47	1243.69
538.83	1240.44
539.18	1234.47
539.54	1230.47
539.89	1225.53
540.25	1225.06
540.60	1218.60
540.96	1215.81
541.31	1211.70
541.67	1207.53
542.02	1203.74
542.38	1204.11
542.73	1198.38
543.09	1197.44
543.44	1194.63
543.80	1192.78
544.15	1189.27
544.51	1187.07
544.86	1184.29
545.22	1183.16
545.57	1177.76
545.93	1170.29
546.28	1169.21
546.64	1166.76
546.99	1167.08
547.35	1167.01
547.70	1168.72
548.05	1167.53
548.41	1165.10
548.76	1161.54
549.12	1159.92
549.47	1156.74
549.83	1152.85
550.18	1150.51
550.53	1147.73
550.89	1146.70
551.24	1146.11
551.60	1142.25
551.95	1141.29
552.30	1140.75
552.66	1140.92
553.01	1141.22
553.37	1141.99
553.72	1138.25
554.07	1134.69
554.43	1132.49
554.78	1128.75
555.13	1128.63
555.49	1129.14
555.84	1126.57
556.19	1124.93
556.55	1124.53
556.90	1121.07
557.26	1123.32
557.61	1123.83
557.96	1120.02
558.32	1118.71
558.67	1120.16
559.02	1117.16
559.37	1119.08
559.73	1122.29
560.08	1122.40
560.43	1122.61
560.79	1119.36
561.14	1113.16
561.49	1109.84
561.85	1107.64
562.20	1104.97
562.55	1105.06
562.90	1109.72
563.26	1108.81
563.61	1109.74
563.96	1109.30
564.32	1111.05
564.67	1110.30
565.02	1113.44
565.37	1111.73
565.73	1112.11
566.08	1112.01
566.43	1110.58
566.78	1106.75
567.14	1106.56
567.49	1106.14
567.84	1102.16
568.19	1102.70
568.54	1105.53
568.90	1102.81
569.25	1104.17
569.60	1105.29
569.95	1102.13
570.31	1100.43
570.66	1100.89
571.01	1097.08
571.36	1096.47
571.71	1097.88
572.06	1096.63
572.42	1097.85
572.77	1099.02
573.12	1098.18
573.47	1099.02
573.82	1098.44
574.18	1097.85
574.53	1099.16
574.88	1100.24
575.23	1095.09
575.58	1095.70
575.93	1097.55
576.28	1094.57
576.64	1090.60
576.99	1093.52
577.34	1093.29
577.69	1091.67
578.04	1093.40
578.39	1096.26
578.74	1096.89
579.09	1096.38
579.44	1094.15
579.80	1095.82
580.15	1097.71
580.50	1096.78
580.85	1096.47
581.20	1097.22
581.55	1092.35
581.90	1089.05
582.25	1088.65
582.60	1085.24
582.95	1082.59
583.30	1084.63
583.65	1084.72
584.00	1085.28
584.35	1088.82
584.71	1091.84
585.06	1091.56
585.41	1091.09
585.76	1088.23
586.11	1086.80
586.46	1084.49
586.81	1083.81
587.16	1083.08
587.51	1086.45
587.86	1087.04
588.21	1088.47
588.56	1090.60
588.91	1095.16
589.26	1095.72
589.61	1095.49
589.96	1095.72
590.31	1092.21
590.66	1089.73
591.01	1089.64
591.36	1090.32
591.71	1092.12
592.06	1092.37
592.41	1095.16
592.76	1096.12
593.10	1092.89
593.45	1091.98
593.80	1092.89
594.15	1089.66
594.50	1088.93
594.85	1093.05
595.20	1093.85
595.55	1092.47
595.90	1090.13
596.25	1087.60
596.60	1085.14
596.95	1082.26
597.30	1084.16
597.64	1096.99
597.99	1101.57
598.34	1099.72
598.69	1101.20
599.04	1100.36
599.39	1088.47
599.74	1084.30
600.09	1086.64
600.44	1082.97
600.78	1083.15
601.13	1083.29
601.48	1082.87
601.83	1082.40
602.18	1085.10
602.53	1084.44
602.88	1084.60
603.22	1085.00
603.57	1085.75
603.92	1087.86
604.27	1088.04
604.62	1088.21
604.97	1090.22
605.31	1089.68
605.66	1087.79
606.01	1086.29
606.36	1086.29
606.71	1081.47
607.05	1081.37
607.40	1080.11
607.75	1082.64
608.10	1081.30
608.44	1082.24
608.79	1081.35
609.14	1079.01
609.49	1075.99
609.84	1077.49
610.18	1079.31
610.53	1080.23
610.88	1083.64
611.23	1084.63
611.57	1082.22
611.92	1081.94
612.27	1079.97
612.62	1080.44
612.96	1081.75
613.31	1082.50
613.66	1081.26
614.00	1081.40
614.35	1078.68
614.70	1079.60
615.05	1081.98
615.39	1085.68
615.74	1085.45
616.09	1086.59
616.43	1085.56
616.78	1086.15
617.13	1086.01
617.47	1088.75
617.82	1087.93
618.17	1086.87
618.51	1089.45
618.86	1086.80
619.21	1085.05
619.55	1089.45
619.90	1090.90
620.25	1089.33
620.59	1088.44
620.94	1089.22
621.29	1084.28
621.63	1083.46
621.98	1080.84
622.32	1080.58
622.67	1078.21
623.02	1079.46
623.36	1080.65
623.71	1079.69
624.05	1082.17
624.40	1081.94
624.75	1081.19
625.09	1076.97
625.44	1076.90
625.78	1075.15
626.13	1076.69
626.48	1078.52
626.82	1078.99
627.17	1080.91
627.51	1082.78
627.86	1083.55
628.20	1083.76
628.55	1086.71
628.89	1086.01
629.24	1087.02
629.58	1088.47
629.93	1087.81
630.28	1088.37
630.62	1089.38
630.97	1086.59
631.31	1085.03
631.66	1082.69
632.00	1081.33
632.35	1077.82
632.69	1078.03
633.04	1079.13
633.38	1081.58
633.73	1081.73
634.07	1083.93
634.42	1086.80
634.76	1085.21
635.11	1084.93
635.45	1085.28
635.79	1084.86
636.14	1083.13
636.48	1083.71
636.83	1083.15
637.17	1081.94
637.52	1080.11
637.86	1076.97
638.21	1081.05
638.55	1082.52
638.89	1085.17
639.24	1087.20
639.58	1091.42
639.93	1087.86
640.27	1088.49
640.61	1084.53
640.96	1083.46
641.30	1080.34
641.65	1079.08
641.99	1074.77
642.33	1076.72
642.68	1078.52
643.02	1080.25
643.37	1081.02
643.71	1084.00
644.05	1083.81
644.40	1082.45
644.74	1082.36
645.08	1080.02
645.43	1077.68
645.77	1076.95
646.11	1080.91
646.46	1080.39
646.80	1081.70
647.14	1083.60
647.49	1084.23
647.83	1080.13
648.17	1082.61
648.52	1083.88
648.86	1085.12
649.20	1088.14
649.55	1087.44
649.89	1086.20
650.23	1087.76
650.57	1087.37
650.92	1085.35
651.26	1089.31
651.60	1087.11
651.95	1084.91
652.29	1085.07
652.63	1084.89
652.97	1081.96
653.32	1082.85
653.66	1083.08
654.00	1080.18
654.34	1080.95
654.69	1081.44
655.03	1080.11
655.37	1079.57
655.71	1083.20
656.05	1082.94
656.40	1083.50
656.74	1084.21
657.08	1087.27
657.42	1084.60
657.76	1085.68
658.11	1085.59
658.45	1087.93
658.79	1085.40
659.13	1083.39
659.47	1082.69
659.82	1083.22
660.16	1080.86
660.50	1082.01
660.84	1084.74
661.18	1086.31
661.52	1083.50
661.87	1084.37
662.21	1085.70
662.55	1085.99
662.89	1082.90
663.23	1085.07
663.57	1082.05
663.91	1076.55
664.25	1077.33
664.60	1078.10
664.94	1078.66
665.28	1082.31
665.62	1084.14
665.96	1083.62
666.30	1081.05
666.64	1080.20
666.98	1080.63
667.32	1081.14
667.66	1080.70
668.01	1081.44
668.35	1080.67
668.69	1082.03
669.03	1082.50
669.37	1083.04
669.71	1086.48
670.05	1087.55
670.39	1083.06
670.73	1083.95
671.07	1085.21
671.41	1083.04
671.75	1081.70
672.09	1082.26
672.43	1079.71
672.77	1076.95
673.11	1077.40
673.45	1076.95
673.79	1077.58
674.13	1075.43
674.47	1076.83
674.81	1076.23
675.15	1080.25
675.49	1083.57
675.83	1083.62
676.17	1080.44
676.51	1079.55
676.85	1077.30
677.19	1071.22
677.53	1077.35
677.87	1084.18
678.21	1084.23
678.55	1082.50
678.89	1086.17
679.23	1082.52
679.57	1080.30
679.90	1080.11
680.24	1080.30
680.58	1080.23
680.92	1084.28
681.26	1086.06
681.60	1087.30
681.94	1088.19
682.28	1087.13
682.62	1082.71
682.96	1079.24
683.29	1076.93
683.63	1077.21
683.97	1079.90
684.31	1082.78
684.65	1084.14
684.99	1086.10
685.33	1084.02
685.67	1084.51
686.00	1082.61
686.34	1081.42
686.68	1077.89
687.02	1076.88
687.36	1076.39
687.70	1076.72
688.03	1079.53
688.37	1084.39
688.71	1087.46
689.05	1083.62
689.39	1084.74
689.72	1079.90
690.06	1079.95
690.40	1080.67
690.74	1085.59
691.08	1086.92
691.41	1087.27
691.75	1084.89
692.09	1080.81
692.43	1078.12
692.76	1074.91
693.10	1076.53
693.44	1078.82
693.78	1086.20
694.11	1083.62
694.45	1085.49
694.79	1082.54
695.13	1080.48
695.46	1076.20
695.80	1074.12
696.14	1073.09
696.48	1076.34
696.81	1079.67
697.15	1076.39
697.49	1079.64
697.82	1078.66
698.16	1076.37
698.50	1075.41
698.83	1078.38
699.17	1078.73
699.51	1081.98
699.84	1086.78
700.18	1086.24
700.52	1085.54
700.85	1085.84
701.19	1083.93
701.53	1081.16
701.86	1079.01
702.20	1080.53
702.54	1082.29
702.87	1082.64
703.21	1079.90
703.55	1080.30
703.88	1080.13
704.22	1082.12
704.55	1081.35
704.89	1084.07
705.23	1085.94
705.56	1084.37
705.90	1078.36
706.23	1077.42
706.57	1076.37
706.91	1076.93
707.24	1078.43
707.58	1079.67
707.91	1080.41
708.25	1080.65
708.58	1080.53
708.92	1080.67
709.26	1079.74
709.59	1080.32
709.93	1079.64
710.26	1079.13
710.60	1079.74
710.93	1082.83
711.27	1079.90
711.60	1078.31
711.94	1080.93
712.27	1078.05
712.61	1076.08
712.94	1082.19
713.28	1085.59
713.61	1081.70
713.95	1084.74
714.28	1084.02
714.62	1082.59
714.95	1082.61
715.29	1080.13
715.62	1081.66
715.96	1082.33
716.29	1077.70
716.63	1076.18
716.96	1077.25
717.29	1072.53
717.63	1074.21
717.96	1078.43
718.30	1080.32
718.63	1079.36
718.97	1080.51
719.30	1079.41
719.63	1074.52
719.97	1072.90
720.30	1075.34
720.64	1078.80
720.97	1081.05
721.30	1087.30
721.64	1087.30
721.97	1088.79
722.31	1086.52
722.64	1082.38
722.97	1076.60
723.31	1075.57
723.64	1071.94
723.97	1070.30
724.31	1068.59
724.64	1072.20
724.98	1074.45
725.31	1077.33
725.64	1077.96
725.98	1080.09
726.31	1081.54
726.64	1077.35
726.97	1075.10
727.31	1076.44
727.64	1079.36
727.97	1074.56
728.31	1080.20
728.64	1079.55
728.97	1078.96
729.31	1080.13
729.64	1083.34
729.97	1079.36
730.30	1080.70
730.64	1078.64
730.97	1077.68
731.30	1077.35
731.63	1077.75
731.97	1078.59
732.30	1079.08
732.63	1077.25
732.96	1075.83
733.30	1076.13
733.63	1076.67
733.96	1076.23
734.29	1075.92
734.63	1077.14
734.96	1076.34
735.29	1075.85
735.62	1078.19
735.95	1078.26
736.29	1077.11
736.62	1076.95
736.95	1075.94
737.28	1073.74
737.61	1071.87
737.94	1073.60
738.28	1073.74
738.61	1073.00
738.94	1076.01
739.27	1077.21
739.60	1078.21
739.93	1080.65
740.27	1082.38
740.60	1082.47
740.93	1082.71
741.26	1075.97
741.59	1073.16
741.92	1072.15
742.25	1071.26
742.58	1072.11
742.91	1075.45
743.25	1075.92
743.58	1076.81
743.91	1074.33
744.24	1076.83
744.57	1077.72
744.90	1080.74
745.23	1082.54
745.56	1084.30
745.89	1078.66
746.22	1077.58
746.55	1074.40
746.88	1072.55
747.21	1074.38
747.54	1078.03
747.87	1076.97
748.20	1083.08
748.53	1083.55
748.87	1080.48
749.20	1081.82
749.53	1084.39
749.86	1081.56
750.19	1080.63
750.52	1080.56
750.85	1077.65
751.18	1076.39
751.51	1075.27
751.84	1076.74
752.16	1077.09
752.49	1078.64
752.82	1081.61
753.15	1081.54
753.48	1081.26
753.81	1079.78
754.14	1079.53
754.47	1078.10
754.80	1077.93
755.13	1079.06
755.46	1083.88
755.79	1080.98
756.12	1083.83
756.45	1084.39
756.78	1081.19
757.11	1079.15
757.43	1079.99
757.76	1078.40
758.09	1076.23
758.42	1078.89
758.75	1077.02
759.08	1079.20
759.41	1075.71
759.74	1076.97
760.07	1074.96
760.39	1076.51
760.72	1073.74
761.05	1076.30
761.38	1076.39
761.71	1074.21
762.04	1073.02
762.36	1075.66
762.69	1075.24
763.02	1074.14
763.35	1078.10
763.68	1078.26
764.01	1077.14
764.33	1079.22
764.66	1079.46
764.99	1078.96
765.32	1082.17
765.65	1081.47
765.97	1079.27
766.30	1082.99
766.63	1083.76
766.96	1080.86
767.28	1081.12
767.61	1080.39
767.94	1077.04
768.27	1077.42
768.59	1078.00
768.92	1081.19
769.25	1081.54
769.58	1084.93
769.90	1082.05
770.23	1080.02
770.56	1078.61
770.89	1080.32
771.21	1076.53
771.54	1077.91
771.87	1081.44
772.19	1083.46
772.52	1083.76
772.85	1083.41
773.17	1086.97
773.50	1084.30
773.83	1080.77
774.15	1079.08
774.48	1083.01
774.81	1079.55
775.13	1079.69
775.46	1080.34
775.79	1079.64
776.11	1076.41
776.44	1075.05
776.77	1074.80
777.09	1077.33
777.42	1079.62
777.74	1080.37
778.07	1083.04
778.40	1084.18
778.72	1084.84
779.05	1082.92
779.37	1084.32
779.70	1080.70
780.03	1079.38
780.35	1075.27
780.68	1077.63
781.00	1074.14
781.33	1079.27
781.65	1083.76
781.98	1085.82
782.31	1081.30
782.63	1083.83
782.96	1080.88
783.28	1077.44
783.61	1078.50
783.93	1081.75
784.26	1081.23
784.58	1080.86
784.91	1079.88
785.23	1076.67
785.56	1074.42
785.88	1071.68
786.21	1069.53
786.53	1070.33
786.86	1074.14
787.18	1074.10
787.51	1074.17
787.83	1077.51
788.16	1076.58
788.48	1074.24
788.81	1076.11
789.13	1077.89
789.46	1078.50
789.78	1078.31
790.10	1075.29
790.43	1072.50
790.75	1071.08
791.08	1068.41
791.40	1070.33
791.73	1073.35
792.05	1077.40
792.37	1080.02
792.70	1081.14
793.02	1082.43
793.35	1083.34
793.67	1081.16
793.99	1078.24
794.32	1076.65
794.64	1075.13
794.96	1073.84
795.29	1076.51
795.61	1078.07
795.93	1077.25
796.26	1078.45
796.58	1078.85
796.91	1078.66
797.23	1076.37
797.55	1077.82
797.87	1077.40
798.20	1075.92
798.52	1072.18
798.84	1075.64
799.17	1071.57
799.49	1070.68
799.81	1074.12
800.14	1077.09
800.46	1072.88
800.78	1075.24
801.10	1074.94
801.43	1073.98
801.75	1071.90
802.07	1077.61
802.40	1078.73
802.72	1078.89
803.04	1075.52
803.36	1076.86
803.69	1073.91
804.01	1072.04
804.33	1070.77
804.65	1071.03
804.97	1067.38
805.30	1068.43
805.62	1072.25
805.94	1072.15
806.26	1074.66
806.58	1077.68
806.91	1080.11
807.23	1082.03
807.55	1083.60
807.87	1083.69
808.19	1084.67
808.52	1080.25
808.84	1077.86
809.16	1076.06
809.48	1076.44
809.80	1078.33
810.12	1079.69
810.44	1079.83
810.77	1082.78
811.09	1081.02
811.41	1077.42
811.73	1077.96
812.05	1076.48
812.37	1075.52
812.69	1076.11
813.01	1075.36
813.33	1075.45
813.66	1078.05
813.98	1076.04
814.30	1077.07
814.62	1079.03
814.94	1077.96
815.26	1073.95
815.58	1077.23
815.90	1079.01
816.22	1078.05
816.54	1079.78
816.86	1082.10
817.18	1078.38
817.50	1074.82
817.82	1074.66
818.14	1070.65
818.46	1069.79
818.78	1071.24
819.10	1071.01
819.42	1070.30
819.74	1070.65
820.06	1071.78
820.38	1072.01
820.70	1072.97
821.02	1074.84
821.34	1075.99
821.66	1076.97
821.98	1076.32
822.30	1073.44
822.62	1072.46
822.94	1076.11
823.26	1072.69
823.58	1070.28
823.90	1071.01
824.22	1072.15
824.54	1068.03
824.86	1068.99
825.18	1072.22
825.50	1073.04
825.81	1073.11
826.13	1075.55
826.45	1074.75
826.77	1074.98
827.09	1077.79
827.41	1081.84
827.73	1080.98
828.05	1082.94
828.36	1081.40
828.68	1081.37
829.00	1078.24
829.32	1078.82
829.64	1077.11
829.96	1079.27
830.28	1078.61
830.59	1074.54
830.91	1074.98
831.23	1073.91
831.55	1072.64
831.87	1071.54
832.19	1072.15
832.50	1074.96
832.82	1075.62
833.14	1076.51
833.46	1076.18
833.78	1079.69
834.09	1077.00
834.41	1082.45
834.73	1082.97
835.05	1083.08
835.36	1079.34
835.68	1079.43
836.00	1077.61
836.32	1073.07
836.63	1073.79
836.95	1076.76
837.27	1074.24
837.59	1072.92
837.90	1078.59
838.22	1077.98
838.54	1077.86
838.85	1079.81
839.17	1081.84
839.49	1080.18
839.80	1082.12
840.12	1084.37
840.44	1085.33
840.76	1084.04
841.07	1085.94
841.39	1084.09
841.71	1079.06
842.02	1077.93
842.34	1077.14
842.65	1076.44
842.97	1073.65
843.29	1073.32
843.60	1072.71
843.92	1072.04
844.24	1071.24
844.55	1076.01
844.87	1078.52
845.18	1078.94
845.50	1078.00
845.82	1076.72
846.13	1072.83
846.45	1074.68
846.76	1074.47
847.08	1075.03
847.40	1075.38
847.71	1079.22
848.03	1078.21
848.34	1080.06
848.66	1079.74
848.97	1078.87
849.29	1075.24
849.60	1074.38
849.92	1071.12
850.24	1071.10
850.55	1069.53
850.87	1072.25
851.18	1073.00
851.50	1074.17
851.81	1073.18
852.13	1075.97
852.44	1073.93
852.76	1073.42
853.07	1072.55
853.39	1071.61
853.70	1072.39
854.01	1075.87
854.33	1075.85
854.64	1075.71
854.96	1078.03
855.27	1077.91
855.59	1075.76
855.90	1078.00
856.22	1083.67
856.53	1083.32
856.84	1082.10
857.16	1081.91
857.47	1078.38
857.79	1074.63
858.10	1076.72
858.41	1079.20
858.73	1082.38
859.04	1083.13
859.36	1081.07
859.67	1081.47
859.98	1079.41
860.30	1077.68
860.61	1078.54
860.92	1079.46
861.24	1079.20
861.55	1078.87
861.87	1077.25
862.18	1077.93
862.49	1078.19
862.81	1076.53
863.12	1079.55
863.43	1083.11
863.74	1082.15
864.06	1083.55
864.37	1083.83
864.68	1079.88
865.00	1076.20
865.31	1075.29
865.62	1072.08
865.94	1072.27
866.25	1075.45
866.56	1075.57
866.87	1073.49
867.19	1075.24
867.50	1073.65
867.81	1070.72
868.12	1069.79
868.44	1071.64
868.75	1069.46
869.06	1071.15
869.37	1072.97
869.68	1075.36
870.00	1076.39
870.31	1079.43
870.62	1078.07
870.93	1077.09
871.24	1074.35
871.56	1073.72
871.87	1076.74
872.18	1078.80
872.49	1080.39
872.80	1080.53
873.12	1080.93
873.43	1077.84
873.74	1078.26
874.05	1076.20
874.36	1074.82
874.67	1074.82
874.98	1074.00
875.29	1071.99
875.61	1072.32
875.92	1075.20
876.23	1074.49
876.54	1074.75
876.85	1075.78
877.16	1073.70
877.47	1073.28
877.78	1076.06
878.09	1074.19
878.40	1072.34
878.72	1074.40
879.03	1076.32
879.34	1071.33
879.65	1073.77
879.96	1077.02
880.27	1076.72
880.58	1075.24
880.89	1077.40
881.20	1077.11
881.51	1076.15
881.82	1076.27
882.13	1078.85
882.44	1077.68
882.75	1079.36
883.06	1079.62
883.37	1077.58
883.68	1074.66
883.99	1075.99
884.30	1076.51
884.61	1075.20
884.92	1077.54
885.23	1078.12
885.54	1078.57
885.85	1076.53
886.16	1076.25
886.47	1075.27
886.78	1074.14
887.08	1072.85
887.39	1072.74
887.70	1071.50
888.01	1070.14
888.32	1070.26
888.63	1070.82
888.94	1071.68
889.25	1074.10
889.56	1077.51
889.87	1077.65
890.17	1078.00
890.48	1077.23
890.79	1077.14
891.10	1076.81
891.41	1077.07
891.72	1078.78
892.03	1078.82
892.34	1079.41
892.64	1078.03
892.95	1078.26
893.26	1075.87
893.57	1076.86
893.88	1077.00
894.18	1076.23
894.49	1075.52
894.80	1074.52
895.11	1074.77
895.42	1072.32
895.72	1071.45
896.03	1070.77
896.34	1073.07
896.65	1072.48
896.96	1073.18
897.26	1077.84
897.57	1081.70
897.88	1078.59
898.19	1079.34
898.49	1081.26
898.80	1077.89
899.11	1077.28
899.41	1080.27
899.72	1075.22
900.03	1073.77
900.34	1075.97
900.64	1072.74
900.95	1072.50
901.26	1075.41
901.56	1076.67
901.87	1076.62
902.18	1073.49
902.48	1072.60
902.79	1071.15
903.10	1070.19
903.40	1071.57
903.71	1076.06
904.02	1078.00
904.32	1080.56
904.63	1080.77
904.94	1076.08
905.24	1076.51
905.55	1074.52
905.85	1076.32
906.16	1074.52
906.47	1076.83
906.77	1076.81
907.08	1078.47
907.38	1074.24
907.69	1075.76
908.00	1074.77
908.30	1076.95
908.61	1076.51
908.91	1078.82
909.22	1078.47
909.52	1078.50
909.83	1075.43
910.14	1073.23
910.44	1074.96
910.75	1074.56
911.05	1074.66
911.36	1075.01
911.66	1076.95
911.97	1073.49
912.27	1073.00
912.58	1072.48
912.88	1072.15
913.19	1071.52
913.49	1074.10
913.80	1073.30
914.10	1073.74
914.41	1074.80
914.71	1076.01
915.01	1075.78
915.32	1075.59
915.62	1075.29
915.93	1073.93
916.23	1072.57
916.54	1073.95
916.84	1076.53
917.15	1077.33
917.45	1079.64
917.75	1078.68
918.06	1073.84
918.36	1073.88
918.67	1076.01
918.97	1074.14
919.27	1075.87
919.58	1077.93
919.88	1077.11
920.18	1076.20
920.49	1076.34
920.79	1075.62
921.10	1073.04
921.40	1074.05
921.70	1072.71
922.01	1071.47
922.31	1069.09
922.61	1067.82
922.92	1070.19
923.22	1072.29
923.52	1075.13
923.82	1078.00
924.13	1082.73
924.43	1079.13
924.73	1078.92
925.04	1075.03
925.34	1077.75
925.64	1078.38
925.94	1079.74
926.25	1077.89
926.55	1079.53
926.85	1076.83
927.15	1074.75
927.46	1073.53
927.76	1074.63
928.06	1071.90
928.36	1073.86
928.67	1074.54
928.97	1073.88
929.27	1073.77
929.57	1077.40
929.87	1076.88
930.18	1076.11
930.48	1077.30
930.78	1075.50
931.08	1075.08
931.38	1071.68
931.69	1072.08
931.99	1069.70
932.29	1072.25
932.59	1071.22
932.89	1074.24
933.19	1072.55
933.49	1071.66
933.80	1070.40
934.10	1073.35
934.40	1073.63
934.70	1075.57
935.00	1080.58
935.30	1080.06
935.60	1079.53
935.90	1077.23
936.20	1076.11
936.50	1074.28
936.81	1072.46
937.11	1073.53
937.41	1074.31
937.71	1071.71
938.01	1070.33
938.31	1073.02
938.61	1072.76
938.91	1074.05
939.21	1078.50
939.51	1080.41
939.81	1078.03
940.11	1077.98
940.41	1076.39
940.71	1075.64
941.01	1075.97
941.31	1078.43
941.61	1079.03
941.91	1080.46
942.21	1081.33
942.51	1079.92
942.81	1079.17
943.11	1075.78
943.41	1077.40
943.71	1075.57
944.01	1072.90
944.31	1074.14
944.61	1076.01
944.90	1072.71
945.20	1074.38
945.50	1078.14
945.80	1079.38
946.10	1081.77
946.40	1085.17
946.70	1084.14
947.00	1085.75
947.30	1084.09
947.60	1077.14
947.89	1075.78
948.19	1074.38
948.49	1074.05
948.79	1073.21
949.09	1078.43
949.39	1077.35
949.69	1078.94
949.98	1076.27
950.28	1077.51
950.58	1074.70
950.88	1072.29
951.18	1072.90
951.48	1072.90
951.77	1068.92
952.07	1065.79
952.37	1067.19
952.67	1066.04
952.97	1065.65
953.26	1065.72
953.56	1070.72
953.86	1075.27
954.16	1075.97
954.45	1076.62
954.75	1077.56
955.05	1077.25
955.35	1073.28
955.64	1072.81
955.94	1070.65
956.24	1071.99
956.54	1070.98
956.83	1072.81
957.13	1073.09
957.43	1075.57
957.72	1077.84
958.02	1076.15
958.32	1073.67
958.61	1074.35
958.91	1074.91
959.21	1072.06
959.50	1076.25
959.80	1078.10
960.10	1076.79
960.39	1077.79
960.69	1079.76
960.99	1084.35
961.28	1085.28
961.58	1085.52
961.87	1083.69
962.17	1081.91
962.47	1077.21
962.76	1075.83
963.06	1077.25
963.36	1079.60
963.65	1083.25
963.95	1080.77
964.24	1080.60
964.54	1079.34
964.83	1076.39
965.13	1072.57
965.42	1073.67
965.72	1071.17
966.02	1068.17
966.31	1069.44
966.61	1070.87
966.90	1070.54
967.20	1071.78
967.49	1074.21
967.79	1074.24
968.08	1075.27
968.38	1071.82
968.67	1073.86
968.97	1073.58
969.26	1073.18
969.56	1071.38
969.85	1073.25
970.15	1073.30
970.44	1077.44
970.74	1076.13
971.03	1078.38
971.32	1078.52
971.62	1077.72
971.91	1075.29
972.21	1077.11
972.50	1076.74
972.80	1079.22
973.09	1081.82
973.38	1083.04
973.68	1084.07
973.97	1083.29
974.27	1083.43
974.56	1081.33
974.85	1080.09
975.15	1078.66
975.44	1079.31
975.73	1080.34
976.03	1080.39
976.32	1080.51
976.61	1082.73
976.91	1084.14
977.20	1081.54
977.49	1081.54
977.79	1080.16
978.08	1080.81
978.37	1076.30
978.67	1077.89
978.96	1078.14
979.25	1077.91
979.55	1075.94
979.84	1077.84
980.13	1075.41
980.42	1072.48
980.72	1074.42
981.01	1073.51
981.30	1074.54
981.59	1075.92
981.89	1080.23
982.18	1081.82
982.47	1080.20
982.76	1081.16
983.06	1081.47
983.35	1078.71
983.64	1077.14
983.93	1079.95
984.22	1075.31
984.52	1073.02
984.81	1070.68
985.10	1071.26
985.39	1071.03
985.68	1074.98
985.97	1076.11
986.27	1078.61
986.56	1078.80
986.85	1076.39
987.14	1074.03
987.43	1076.58
987.72	1073.42
988.01	1072.34
988.31	1074.00
988.60	1078.38
988.89	1077.49
989.18	1078.36
989.47	1076.11
989.76	1077.44
990.05	1074.38
990.34	1074.07
990.63	1076.81
990.92	1077.86
991.21	1072.81
991.51	1073.79
991.80	1072.53
992.09	1069.95
992.38	1074.12
992.67	1078.94
992.96	1076.62
993.25	1078.31
993.54	1080.79
993.83	1080.32
994.12	1078.50
994.41	1079.31
994.70	1077.40
994.99	1078.38
995.28	1076.95
995.57	1077.23
995.86	1081.51
996.15	1083.11
996.44	1079.36
996.73	1079.46
997.02	1081.28
997.31	1078.43
997.59	1078.96
997.88	1080.95
998.17	1079.27
998.46	1074.05
998.75	1073.09
999.04	1071.47
999.33	1071.94
999.62	1073.11
999.91	1076.53
1000.20	1074.35
1000.49	1074.47
1000.77	1075.24
1001.06	1073.67
1001.35	1074.80
1001.64	1077.16
1001.93	1077.77
1002.22	1076.44
1002.51	1075.99
1002.79	1072.15
1003.08	1069.93
1003.37	1068.59
1003.66	1067.54
1003.95	1070.70
1004.23	1072.92
1004.52	1069.74
1004.81	1070.21
1005.10	1072.55
1005.39	1070.23
1005.67	1071.15
1005.96	1077.96
1006.25	1079.74
1006.54	1078.78
1006.83	1079.29
1007.11	1077.75
1007.40	1074.24
1007.69	1073.25
1007.97	1073.70
1008.26	1073.18
1008.55	1074.19
1008.84	1075.85
1009.12	1076.53
1009.41	1075.66
1009.70	1075.69
1009.98	1076.13
1010.27	1078.24
1010.56	1076.41
1010.85	1080.23
1011.13	1078.52
1011.42	1076.67
1011.71	1075.05
1011.99	1078.96
1012.28	1074.54
1012.56	1076.20
1012.85	1079.06
1013.14	1077.96
1013.42	1074.26
1013.71	1075.55
1014.00	1072.90
1014.28	1070.87
1014.57	1074.66
1014.85	1077.84
1015.14	1079.15
1015.43	1081.91
1015.71	1079.43
1016.00	1075.85
1016.28	1076.46
1016.57	1074.98
1016.85	1076.65
1017.14	1079.36
1017.43	1083.32
1017.71	1079.36
1018.00	1078.57
1018.28	1074.26
1018.57	1076.93
1018.85	1071.52
1019.14	1069.65
1019.42	1069.13
1019.71	1070.49
1019.99	1069.41
1020.28	1071.47
1020.56	1072.97
1020.85	1072.88
1021.13	1072.81
1021.42	1068.90
1021.70	1067.61
1021.99	1068.78
1022.27	1068.88
1022.55	1075.83
1022.84	1068.57
>>>>>End Processed Spectral Data<<<<<
