SpectraSuite Data File
++++++++++++++++++++++++++++++++++++
Date: Mon Aug 26 10:22:24 PDT 2019
User: corrico
Dark Spectrum Present: No
Reference Spectrum Present: No
Number of Sampled Component Spectra: 1
Spectrometers: USB2+H06089
Integration Time (usec): 2000 (USB2+H06089)
Spectra Averaged: 20 (USB2+H06089)
Boxcar Smoothing: 2 (USB2+H06089)
Correct for Electrical Dark: No (USB2+H06089)
Strobe/Lamp Enabled: No (USB2+H06089)
Correct for Detector Non-linearity: No (USB2+H06089)
Correct for Stray Light: No (USB2+H06089)
Number of Pixels in Processed Spectrum: 2048
>>>>>Begin Processed Spectral Data<<<<<
339.70	1035.10
340.07	1035.10
340.45	998.99
340.82	975.16
341.19	950.84
341.57	922.38
341.94	916.41
342.31	906.16
342.69	904.94
343.06	903.07
343.43	904.52
343.81	900.97
344.18	901.83
344.55	905.55
344.93	908.08
345.30	914.17
345.67	920.32
346.04	930.29
346.42	934.67
346.79	942.30
347.16	951.50
347.54	961.42
347.91	971.18
348.28	981.48
348.65	992.22
349.03	999.64
349.40	1007.41
349.77	1017.85
350.14	1025.44
350.52	1033.42
350.89	1042.54
351.26	1049.26
351.63	1053.03
352.01	1054.74
352.38	1058.74
352.75	1061.74
353.12	1066.75
353.50	1068.67
353.87	1075.01
354.24	1077.75
354.61	1077.91
354.98	1079.71
355.36	1081.02
355.73	1080.23
356.10	1081.02
356.47	1083.86
356.84	1083.55
357.22	1081.66
357.59	1081.94
357.96	1080.11
358.33	1077.70
358.70	1079.57
359.08	1079.83
359.45	1079.38
359.82	1081.19
360.19	1082.99
360.56	1081.89
360.94	1085.33
361.31	1087.11
361.68	1085.14
362.05	1083.76
362.42	1081.61
362.79	1077.82
363.16	1078.87
363.54	1080.44
363.91	1076.79
364.28	1076.37
364.65	1075.99
365.02	1073.49
365.39	1071.12
365.76	1075.10
366.14	1073.42
366.51	1072.48
366.88	1072.85
367.25	1073.53
367.62	1073.35
367.99	1077.30
368.36	1078.31
368.73	1078.19
369.10	1076.76
369.48	1072.97
369.85	1073.09
370.22	1072.60
370.59	1073.21
370.96	1077.09
371.33	1077.51
371.70	1073.18
372.07	1075.69
372.44	1071.80
372.81	1070.28
373.18	1071.05
373.55	1073.65
373.93	1072.60
374.30	1077.07
374.67	1070.28
375.04	1075.17
375.41	1075.36
375.78	1075.45
376.15	1073.86
376.52	1079.27
376.89	1074.56
377.26	1072.20
377.63	1070.72
378.00	1074.45
378.37	1077.47
378.74	1081.40
379.11	1084.07
379.48	1085.96
379.85	1081.94
380.22	1080.25
380.59	1078.52
380.96	1081.42
381.33	1079.06
381.70	1081.63
382.07	1083.48
382.44	1082.10
382.81	1081.21
383.18	1088.33
383.55	1087.93
383.92	1086.24
384.29	1088.79
384.66	1088.40
385.03	1083.86
385.40	1081.80
385.77	1083.53
386.14	1083.29
386.51	1080.98
386.88	1081.14
387.25	1084.37
387.62	1084.84
387.99	1084.53
388.36	1084.16
388.73	1084.14
389.10	1082.24
389.46	1079.85
389.83	1081.12
390.20	1087.20
390.57	1089.40
390.94	1088.63
391.31	1090.76
391.68	1090.01
392.05	1085.89
392.42	1084.53
392.79	1082.78
393.16	1084.35
393.53	1085.21
393.89	1086.22
394.26	1085.21
394.63	1087.51
395.00	1085.03
395.37	1085.56
395.74	1085.80
396.11	1086.03
396.48	1086.15
396.84	1088.30
397.21	1090.27
397.58	1089.54
397.95	1090.83
398.32	1093.62
398.69	1088.93
399.06	1089.24
399.42	1091.51
399.79	1090.85
400.16	1090.17
400.53	1093.12
400.90	1089.31
401.27	1084.93
401.64	1086.41
402.00	1085.40
402.37	1085.82
402.74	1086.90
403.11	1090.48
403.48	1090.78
403.84	1090.15
404.21	1089.68
404.58	1089.82
404.95	1091.65
405.32	1089.87
405.68	1091.77
406.05	1092.40
406.42	1093.87
406.79	1093.50
407.16	1093.94
407.52	1092.98
407.89	1090.41
408.26	1087.79
408.63	1085.68
408.99	1089.17
409.36	1092.59
409.73	1098.86
410.10	1103.89
410.47	1104.17
410.83	1101.03
411.20	1098.90
411.57	1095.75
411.94	1094.86
412.30	1096.87
412.67	1095.51
413.04	1096.66
413.40	1096.66
413.77	1094.50
414.14	1095.93
414.51	1098.11
414.87	1099.96
415.24	1103.45
415.61	1104.33
415.97	1100.66
416.34	1103.05
416.71	1105.67
417.08	1105.74
417.44	1108.34
417.81	1108.69
418.18	1106.46
418.54	1103.16
418.91	1103.45
419.28	1101.90
419.64	1104.52
420.01	1109.37
420.38	1112.18
420.74	1112.41
421.11	1114.33
421.48	1115.83
421.84	1114.42
422.21	1115.69
422.58	1118.03
422.94	1121.16
423.31	1123.71
423.68	1128.23
424.04	1132.16
424.41	1135.11
424.77	1138.67
425.14	1143.68
425.51	1148.64
425.87	1151.36
426.24	1154.89
426.61	1158.89
426.97	1164.74
427.34	1169.12
427.70	1174.62
428.07	1184.76
428.44	1191.80
428.80	1198.45
429.17	1205.98
429.53	1217.20
429.90	1224.92
430.27	1232.13
430.63	1241.42
431.00	1253.26
431.36	1263.63
431.73	1273.04
432.09	1289.12
432.46	1302.55
432.83	1319.64
433.19	1333.50
433.56	1354.44
433.92	1375.30
434.29	1399.38
434.65	1421.83
435.02	1447.83
435.38	1471.61
435.75	1497.29
436.11	1528.67
436.48	1560.11
436.84	1594.26
437.21	1634.51
437.57	1675.10
437.94	1712.24
438.30	1755.94
438.67	1802.31
439.03	1847.50
439.40	1897.92
439.76	1959.40
440.13	2021.85
440.49	2088.46
440.86	2153.95
441.22	2225.22
441.59	2294.05
441.95	2374.82
442.32	2459.58
442.68	2560.15
443.05	2664.21
443.41	2763.66
443.78	2863.01
444.14	2971.38
444.51	3080.89
444.87	3215.40
445.24	3360.35
445.60	3519.07
445.96	3673.45
446.33	3848.68
446.69	4014.09
447.06	4192.88
447.42	4369.43
447.79	4568.35
448.15	4793.02
448.51	5019.98
448.88	5283.99
449.24	5538.29
449.61	5817.24
449.97	6089.04
450.33	6374.94
450.70	6635.54
451.06	6955.35
451.43	7265.23
451.79	7622.59
452.15	8031.20
452.52	8481.91
452.88	8965.09
453.24	9504.21
453.61	10094.43
453.97	10652.27
454.34	11207.54
454.70	11857.29
455.06	12496.78
455.43	13123.36
455.79	13734.97
456.15	14467.30
456.52	15121.62
456.88	15902.79
457.24	16626.84
457.61	17479.71
457.97	18241.57
458.33	19009.76
458.70	19776.97
459.06	20547.05
459.42	21380.75
459.79	22167.24
460.15	23092.29
460.51	23953.79
460.88	24898.92
461.24	25700.49
461.60	26677.89
461.96	27557.87
462.33	28394.49
462.69	29186.95
463.05	30057.91
463.42	30763.14
463.78	31418.79
464.14	31964.98
464.50	32558.68
464.87	33007.40
465.23	33365.65
465.59	33723.05
465.95	34067.48
466.32	34320.63
466.68	34564.82
467.04	34712.44
467.40	34852.10
467.77	34998.76
468.13	34986.16
468.49	34890.97
468.85	34816.83
469.22	34623.59
469.58	34266.05
469.94	34009.06
470.30	33710.64
470.66	33291.50
471.03	32701.94
471.39	32319.73
471.75	31698.23
472.11	31097.79
472.47	30746.40
472.84	30451.49
473.20	29977.70
473.56	29691.61
473.92	29264.07
474.28	28739.44
474.65	28237.74
475.01	27743.33
475.37	27177.27
475.73	26709.68
476.09	26171.26
476.45	25641.97
476.81	25117.74
477.18	24571.95
477.54	24115.87
477.90	23766.10
478.26	23357.33
478.62	23009.90
478.98	22715.30
479.34	22401.06
479.71	21973.82
480.07	21619.67
480.43	21257.49
480.79	20862.67
481.15	20493.19
481.51	20172.70
481.87	19915.38
482.23	19618.44
482.59	19380.03
482.96	19101.79
483.32	18823.15
483.68	18435.04
484.04	18101.45
484.40	17742.41
484.76	17372.93
485.12	16985.67
485.48	16674.82
485.84	16320.32
486.20	15944.20
486.56	15574.91
486.92	15277.89
487.28	14922.90
487.64	14569.53
488.00	14245.46
488.37	13908.98
488.73	13539.98
489.09	13184.54
489.45	12865.39
489.81	12558.54
490.17	12263.40
490.53	11984.85
490.89	11674.48
491.25	11370.44
491.61	11040.00
491.97	10719.96
492.33	10377.94
492.69	10085.23
493.05	9783.04
493.41	9492.16
493.77	9215.88
494.13	8968.37
494.49	8714.24
494.85	8475.55
495.21	8252.21
495.57	8044.75
495.93	7834.80
496.29	7635.58
496.64	7445.67
497.00	7248.10
497.36	7049.46
497.72	6847.96
498.08	6658.75
498.44	6474.90
498.80	6310.22
499.16	6148.14
499.52	5995.07
499.88	5865.62
500.24	5735.30
500.60	5609.59
500.96	5485.14
501.32	5369.70
501.68	5241.54
502.03	5118.78
502.39	4994.42
502.75	4860.05
503.11	4729.61
503.47	4613.13
503.83	4487.51
504.19	4365.36
504.55	4260.97
504.91	4170.48
505.26	4076.53
505.62	3999.44
505.98	3910.54
506.34	3814.75
506.70	3714.76
507.06	3622.94
507.42	3528.31
507.78	3452.59
508.13	3381.49
508.49	3310.85
508.85	3240.07
509.21	3172.97
509.57	3104.91
509.93	3037.71
510.28	2966.68
510.64	2901.68
511.00	2836.68
511.36	2772.11
511.72	2716.52
512.07	2668.47
512.43	2616.86
512.79	2566.30
513.15	2519.63
513.51	2472.75
513.86	2431.96
514.22	2390.25
514.58	2348.73
514.94	2315.12
515.30	2283.26
515.65	2242.35
516.01	2208.69
516.37	2179.13
516.73	2146.36
517.08	2111.96
517.44	2079.99
517.80	2050.92
518.16	2024.59
518.51	1993.83
518.87	1962.16
519.23	1936.09
519.59	1906.69
519.94	1878.77
520.30	1852.37
520.66	1828.15
521.01	1804.32
521.37	1784.28
521.73	1763.76
522.09	1744.05
522.44	1724.09
522.80	1704.78
523.16	1686.08
523.51	1666.84
523.87	1653.31
524.23	1639.17
524.58	1619.11
524.94	1602.21
525.30	1584.71
525.65	1560.76
526.01	1545.76
526.37	1536.94
526.72	1520.37
527.08	1507.49
527.44	1502.39
527.79	1492.07
528.15	1479.50
528.51	1468.62
528.86	1457.66
529.22	1443.01
529.58	1426.84
529.93	1414.18
530.29	1402.75
530.65	1390.47
531.00	1380.99
531.36	1372.07
531.71	1363.57
532.07	1354.40
532.43	1347.12
532.78	1338.62
533.14	1332.05
533.49	1327.11
533.85	1323.81
534.21	1314.21
534.56	1309.16
534.92	1302.58
535.27	1291.04
535.63	1283.29
535.98	1278.24
536.34	1270.68
536.69	1265.36
537.05	1263.96
537.41	1260.40
537.76	1256.98
538.12	1252.05
538.47	1248.72
538.83	1242.43
539.18	1235.73
539.54	1230.96
539.89	1228.15
540.25	1221.29
540.60	1217.97
540.96	1215.28
541.31	1213.64
541.67	1212.42
542.02	1210.43
542.38	1208.35
542.73	1202.17
543.09	1197.00
543.44	1192.74
543.80	1188.73
544.15	1183.02
544.51	1182.65
544.86	1180.80
545.22	1178.48
545.57	1179.23
545.93	1178.51
546.28	1177.83
546.64	1173.69
546.99	1172.35
547.35	1167.34
547.70	1166.99
548.05	1164.23
548.41	1165.14
548.76	1161.12
549.12	1157.89
549.47	1152.29
549.83	1148.10
550.18	1147.21
550.53	1144.15
550.89	1141.78
551.24	1141.34
551.60	1142.58
551.95	1139.09
552.30	1140.15
552.66	1144.29
553.01	1142.65
553.37	1140.19
553.72	1141.43
554.07	1136.99
554.43	1133.43
554.78	1132.54
555.13	1133.38
555.49	1129.43
555.84	1130.39
556.19	1128.14
556.55	1128.75
556.90	1127.08
557.26	1128.04
557.61	1128.91
557.96	1130.01
558.32	1129.75
558.67	1127.25
559.02	1122.40
559.37	1118.21
559.73	1114.52
560.08	1112.60
560.43	1112.11
560.79	1115.05
561.14	1113.74
561.49	1112.85
561.85	1111.38
562.20	1110.63
562.55	1109.23
562.90	1112.53
563.26	1116.51
563.61	1117.28
563.96	1120.63
564.32	1120.70
564.67	1117.96
565.02	1114.33
565.37	1114.52
565.73	1111.10
566.08	1109.88
566.43	1107.45
566.78	1106.86
567.14	1105.34
567.49	1102.91
567.84	1100.87
568.19	1102.06
568.54	1100.17
568.90	1101.11
569.25	1102.42
569.60	1102.39
569.95	1102.65
570.31	1104.19
570.66	1101.57
571.01	1101.39
571.36	1102.42
571.71	1105.01
572.06	1105.81
572.42	1104.69
572.77	1101.25
573.12	1100.80
573.47	1096.80
573.82	1095.14
574.18	1097.27
574.53	1097.66
574.88	1095.75
575.23	1095.67
575.58	1098.58
575.93	1097.90
576.28	1098.23
576.64	1099.82
576.99	1096.73
577.34	1093.80
577.69	1089.89
578.04	1089.57
578.39	1089.52
578.74	1089.00
579.09	1086.76
579.44	1092.28
579.80	1091.09
580.15	1091.63
580.50	1092.91
580.85	1094.93
581.20	1094.22
581.55	1096.99
581.90	1096.05
582.25	1094.34
582.60	1090.99
582.95	1088.40
583.30	1087.37
583.65	1085.42
584.00	1089.40
584.35	1089.94
584.71	1089.03
585.06	1089.29
585.41	1091.09
585.76	1089.52
586.11	1088.42
586.46	1085.77
586.81	1086.50
587.16	1086.01
587.51	1086.57
587.86	1089.29
588.21	1091.79
588.56	1088.86
588.91	1091.30
589.26	1091.04
589.61	1093.43
589.96	1094.97
590.31	1096.17
590.66	1090.92
591.01	1092.21
591.36	1088.70
591.71	1087.55
592.06	1086.62
592.41	1090.60
592.76	1088.49
593.10	1088.44
593.45	1090.99
593.80	1093.03
594.15	1093.52
594.50	1093.62
594.85	1096.26
595.20	1093.05
595.55	1089.96
595.90	1087.86
596.25	1088.23
596.60	1087.86
596.95	1089.47
597.30	1090.55
597.64	1100.75
597.99	1100.92
598.34	1099.33
598.69	1103.23
599.04	1105.81
599.39	1093.73
599.74	1093.15
600.09	1094.46
600.44	1090.34
600.78	1088.40
601.13	1088.63
601.48	1087.06
601.83	1086.38
602.18	1086.15
602.53	1085.82
602.88	1085.75
603.22	1088.91
603.57	1086.92
603.92	1086.48
604.27	1086.29
604.62	1088.33
604.97	1087.09
605.31	1091.81
605.66	1090.57
606.01	1090.08
606.36	1088.02
606.71	1088.42
607.05	1086.52
607.40	1084.21
607.75	1085.99
608.10	1085.31
608.44	1085.49
608.79	1083.43
609.14	1086.15
609.49	1086.01
609.84	1085.61
610.18	1083.53
610.53	1082.76
610.88	1082.26
611.23	1082.22
611.57	1085.94
611.92	1088.65
612.27	1090.90
612.62	1092.80
612.96	1093.40
613.31	1091.46
613.66	1090.46
614.00	1091.32
614.35	1089.43
614.70	1088.82
615.05	1087.72
615.39	1088.07
615.74	1085.28
616.09	1087.76
616.43	1089.31
616.78	1096.61
617.13	1096.94
617.47	1097.38
617.82	1097.52
618.17	1093.87
618.51	1087.53
618.86	1087.13
619.21	1085.66
619.55	1082.59
619.90	1084.32
620.25	1083.67
620.59	1081.82
620.94	1081.23
621.29	1083.86
621.63	1083.43
621.98	1082.66
622.32	1084.81
622.67	1087.16
623.02	1084.32
623.36	1083.08
623.71	1082.29
624.05	1081.19
624.40	1081.28
624.75	1081.98
625.09	1084.14
625.44	1083.57
625.78	1082.64
626.13	1081.05
626.48	1081.33
626.82	1077.89
627.17	1079.88
627.51	1082.24
627.86	1082.92
628.20	1084.98
628.55	1086.03
628.89	1086.85
629.24	1085.42
629.58	1089.31
629.93	1086.92
630.28	1088.07
630.62	1085.05
630.97	1082.15
631.31	1080.74
631.66	1084.79
632.00	1084.25
632.35	1089.00
632.69	1092.09
633.04	1091.34
633.38	1086.66
633.73	1087.65
634.07	1087.09
634.42	1087.02
634.76	1083.18
635.11	1085.89
635.45	1085.68
635.79	1083.64
636.14	1081.40
636.48	1083.18
636.83	1082.36
637.17	1084.16
637.52	1086.15
637.86	1090.78
638.21	1093.01
638.55	1092.45
638.89	1090.69
639.24	1090.50
639.58	1084.00
639.93	1082.64
640.27	1080.86
640.61	1080.91
640.96	1079.13
641.30	1081.28
641.65	1080.56
641.99	1083.74
642.33	1082.78
642.68	1084.77
643.02	1087.44
643.37	1086.69
643.71	1083.22
644.05	1081.73
644.40	1079.17
644.74	1079.90
645.08	1081.66
645.43	1082.31
645.77	1082.83
646.11	1084.11
646.46	1082.94
646.80	1083.06
647.14	1084.30
647.49	1085.66
647.83	1084.09
648.17	1083.50
648.52	1082.80
648.86	1083.06
649.20	1081.14
649.55	1083.06
649.89	1085.00
650.23	1082.87
650.57	1083.01
650.92	1084.60
651.26	1084.02
651.60	1081.66
651.95	1083.88
652.29	1085.77
652.63	1086.52
652.97	1088.51
653.32	1088.44
653.66	1087.37
654.00	1086.13
654.34	1084.23
654.69	1082.97
655.03	1082.54
655.37	1085.19
655.71	1083.71
656.05	1085.59
656.40	1084.35
656.74	1087.69
657.08	1084.81
657.42	1084.98
657.76	1086.13
658.11	1086.06
658.45	1080.70
658.79	1080.60
659.13	1081.12
659.47	1075.62
659.82	1077.42
660.16	1082.05
660.50	1081.21
660.84	1078.80
661.18	1084.98
661.52	1084.53
661.87	1079.69
662.21	1082.97
662.55	1085.24
662.89	1081.84
663.23	1080.93
663.57	1081.58
663.91	1080.70
664.25	1081.30
664.60	1080.95
664.94	1081.80
665.28	1080.88
665.62	1080.48
665.96	1080.20
666.30	1080.65
666.64	1080.44
666.98	1086.52
667.32	1086.31
667.66	1085.40
668.01	1087.95
668.35	1086.83
668.69	1084.53
669.03	1086.41
669.37	1086.43
669.71	1082.45
670.05	1083.53
670.39	1080.65
670.73	1080.60
671.07	1082.05
671.41	1086.24
671.75	1087.88
672.09	1090.60
672.43	1089.78
672.77	1087.20
673.11	1083.32
673.45	1081.12
673.79	1082.64
674.13	1082.97
674.47	1083.11
674.81	1082.52
675.15	1085.03
675.49	1083.76
675.83	1083.64
676.17	1084.32
676.51	1087.74
676.85	1084.42
677.19	1083.39
677.53	1081.75
677.87	1084.93
678.21	1086.52
678.55	1088.70
678.89	1088.40
679.23	1087.02
679.57	1085.31
679.90	1084.72
680.24	1084.00
680.58	1082.26
680.92	1083.62
681.26	1082.76
681.60	1082.17
681.94	1083.39
682.28	1084.70
682.62	1084.35
682.96	1082.31
683.29	1080.81
683.63	1079.99
683.97	1080.81
684.31	1082.90
684.65	1086.45
684.99	1087.16
685.33	1082.64
685.67	1081.19
686.00	1080.93
686.34	1079.38
686.68	1077.14
687.02	1081.33
687.36	1080.44
687.70	1078.78
688.03	1077.89
688.37	1079.46
688.71	1079.01
689.05	1080.11
689.39	1077.98
689.72	1080.16
690.06	1081.35
690.40	1081.42
690.74	1078.10
691.08	1079.74
691.41	1077.65
691.75	1076.32
692.09	1076.76
692.43	1082.24
692.76	1084.14
693.10	1087.27
693.44	1086.57
693.78	1085.77
694.11	1085.52
694.45	1083.79
694.79	1082.47
695.13	1082.73
695.46	1081.44
695.80	1080.79
696.14	1078.64
696.48	1077.21
696.81	1074.59
697.15	1074.91
697.49	1074.52
697.82	1078.21
698.16	1078.14
698.50	1080.88
698.83	1082.12
699.17	1082.12
699.51	1082.78
699.84	1081.56
700.18	1082.33
700.52	1080.84
700.85	1082.29
701.19	1080.67
701.53	1080.46
701.86	1080.11
702.20	1080.84
702.54	1081.05
702.87	1081.28
703.21	1079.88
703.55	1078.59
703.88	1080.48
704.22	1077.37
704.55	1075.10
704.89	1076.90
705.23	1077.91
705.56	1079.78
705.90	1081.26
706.23	1083.13
706.57	1083.29
706.91	1080.44
707.24	1076.51
707.58	1076.11
707.91	1077.21
708.25	1077.56
708.58	1078.52
708.92	1080.46
709.26	1080.16
709.59	1079.10
709.93	1081.84
710.26	1084.74
710.60	1082.76
710.93	1084.53
711.27	1085.28
711.60	1081.51
711.94	1080.53
712.27	1080.74
712.61	1081.96
712.94	1080.20
713.28	1080.98
713.61	1081.70
713.95	1079.90
714.28	1075.50
714.62	1074.98
714.95	1079.06
715.29	1078.19
715.62	1080.84
715.96	1082.24
716.29	1083.53
716.63	1082.03
716.96	1079.55
717.29	1075.10
717.63	1076.60
717.96	1075.94
718.30	1072.08
718.63	1076.72
718.97	1081.00
719.30	1079.27
719.63	1081.75
719.97	1080.23
720.30	1079.22
720.64	1080.44
720.97	1080.04
721.30	1079.95
721.64	1084.23
721.97	1085.49
722.31	1082.87
722.64	1085.28
722.97	1083.53
723.31	1082.69
723.64	1083.06
723.97	1084.16
724.31	1084.42
724.64	1085.10
724.98	1087.90
725.31	1087.88
725.64	1089.71
725.98	1088.91
726.31	1086.92
726.64	1083.76
726.97	1081.42
727.31	1081.14
727.64	1079.60
727.97	1081.49
728.31	1081.84
728.64	1083.76
728.97	1083.15
729.31	1081.30
729.64	1079.24
729.97	1077.89
730.30	1076.46
730.64	1076.34
730.97	1078.78
731.30	1081.07
731.63	1083.15
731.97	1084.60
732.30	1083.20
732.63	1082.61
732.96	1081.49
733.30	1080.72
733.63	1078.96
733.96	1080.11
734.29	1082.59
734.63	1080.44
734.96	1081.89
735.29	1081.94
735.62	1081.75
735.95	1080.23
736.29	1083.43
736.62	1082.64
736.95	1082.19
737.28	1080.63
737.61	1082.52
737.94	1082.78
738.28	1080.70
738.61	1077.96
738.94	1077.91
739.27	1074.70
739.60	1073.39
739.93	1076.11
740.27	1081.94
740.60	1081.58
740.93	1082.03
741.26	1080.70
741.59	1079.78
741.92	1076.95
742.25	1078.59
742.58	1081.16
742.91	1084.16
743.25	1083.55
743.58	1084.63
743.91	1086.29
744.24	1083.69
744.57	1083.27
744.90	1086.83
745.23	1087.44
745.56	1088.65
745.89	1089.19
746.22	1089.54
746.55	1088.70
746.88	1087.13
747.21	1084.09
747.54	1085.99
747.87	1082.64
748.20	1077.49
748.53	1076.88
748.87	1075.27
749.20	1075.10
749.53	1076.53
749.86	1076.53
750.19	1079.27
750.52	1081.14
750.85	1080.98
751.18	1083.43
751.51	1084.56
751.84	1084.86
752.16	1088.21
752.49	1085.00
752.82	1082.87
753.15	1084.51
753.48	1084.51
753.81	1080.32
754.14	1084.30
754.47	1083.46
754.80	1085.31
755.13	1081.89
755.46	1079.85
755.79	1074.28
756.12	1075.38
756.45	1074.21
756.78	1073.09
757.11	1074.33
757.43	1078.99
757.76	1079.85
758.09	1076.13
758.42	1077.96
758.75	1076.90
759.08	1077.63
759.41	1078.36
759.74	1079.22
760.07	1076.60
760.39	1079.38
760.72	1079.06
761.05	1079.10
761.38	1081.02
761.71	1083.46
762.04	1081.37
762.36	1079.29
762.69	1077.37
763.02	1076.88
763.35	1077.65
763.68	1081.05
764.01	1079.46
764.33	1082.12
764.66	1083.71
764.99	1082.71
765.32	1080.58
765.65	1085.68
765.97	1084.04
766.30	1082.80
766.63	1083.55
766.96	1085.17
767.28	1080.34
767.61	1081.12
767.94	1082.52
768.27	1084.53
768.59	1083.79
768.92	1088.68
769.25	1093.52
769.58	1093.99
769.90	1091.30
770.23	1090.03
770.56	1086.43
770.89	1081.35
771.21	1079.67
771.54	1081.75
771.87	1078.96
772.19	1081.51
772.52	1078.47
772.85	1078.61
773.17	1077.33
773.50	1082.19
773.83	1077.89
774.15	1080.30
774.48	1079.81
774.81	1080.02
775.13	1078.89
775.46	1082.64
775.79	1084.00
776.11	1082.17
776.44	1081.82
776.77	1082.08
777.09	1080.95
777.42	1081.00
777.74	1082.83
778.07	1081.75
778.40	1080.77
778.72	1082.17
779.05	1081.44
779.37	1081.23
779.70	1081.94
780.03	1082.54
780.35	1081.63
780.68	1081.42
781.00	1080.98
781.33	1081.70
781.65	1080.58
781.98	1080.13
782.31	1076.48
782.63	1079.29
782.96	1077.02
783.28	1077.51
783.61	1077.07
783.93	1079.34
784.26	1077.82
784.58	1078.87
784.91	1077.98
785.23	1080.44
785.56	1082.59
785.88	1082.05
786.21	1083.20
786.53	1084.21
786.86	1081.91
787.18	1080.06
787.51	1079.74
787.83	1079.08
788.16	1078.94
788.48	1081.58
788.81	1077.96
789.13	1077.70
789.46	1077.33
789.78	1076.62
790.10	1073.02
790.43	1076.30
790.75	1078.64
791.08	1076.51
791.40	1076.25
791.73	1076.55
792.05	1077.70
792.37	1074.84
792.70	1079.17
793.02	1077.82
793.35	1079.64
793.67	1076.65
793.99	1079.17
794.32	1076.39
794.64	1078.54
794.96	1075.76
795.29	1081.37
795.61	1080.72
795.93	1080.30
796.26	1083.60
796.58	1087.72
796.91	1085.66
797.23	1085.47
797.55	1086.48
797.87	1084.98
798.20	1083.62
798.52	1083.13
798.84	1081.82
799.17	1083.67
799.49	1084.35
799.81	1083.15
800.14	1086.24
800.46	1089.03
800.78	1084.84
801.10	1083.53
801.43	1081.96
801.75	1079.95
802.07	1078.96
802.40	1082.29
802.72	1082.80
803.04	1084.70
803.36	1084.65
803.69	1082.17
804.01	1081.42
804.33	1078.26
804.65	1078.12
804.97	1075.01
805.30	1077.86
805.62	1077.68
805.94	1078.03
806.26	1076.06
806.58	1079.71
806.91	1080.09
807.23	1080.74
807.55	1085.28
807.87	1088.72
808.19	1086.22
808.52	1082.31
808.84	1082.19
809.16	1080.04
809.48	1079.29
809.80	1078.50
810.12	1082.31
810.44	1083.15
810.77	1079.90
811.09	1078.45
811.41	1077.86
811.73	1079.36
812.05	1076.90
812.37	1076.58
812.69	1077.54
813.01	1078.64
813.33	1074.91
813.66	1074.59
813.98	1074.94
814.30	1075.05
814.62	1077.54
814.94	1081.14
815.26	1079.13
815.58	1081.94
815.90	1080.34
816.22	1077.82
816.54	1073.63
816.86	1076.04
817.18	1078.14
817.50	1078.96
817.82	1080.51
818.14	1085.05
818.46	1085.05
818.78	1081.89
819.10	1081.58
819.42	1078.38
819.74	1078.50
820.06	1079.20
820.38	1081.26
820.70	1082.59
821.02	1082.50
821.34	1081.35
821.66	1081.49
821.98	1081.28
822.30	1083.86
822.62	1084.04
822.94	1082.05
823.26	1081.44
823.58	1079.43
823.90	1074.96
824.22	1073.04
824.54	1070.37
824.86	1072.67
825.18	1071.85
825.50	1072.78
825.81	1076.67
826.13	1080.93
826.45	1079.43
826.77	1081.07
827.09	1079.76
827.41	1081.87
827.73	1079.43
828.05	1080.48
828.36	1081.96
828.68	1081.21
829.00	1079.38
829.32	1078.59
829.64	1076.81
829.96	1077.93
830.28	1081.09
830.59	1080.51
830.91	1079.48
831.23	1080.02
831.55	1078.14
831.87	1078.12
832.19	1079.22
832.50	1080.20
832.82	1081.33
833.14	1081.44
833.46	1081.94
833.78	1082.29
834.09	1084.56
834.41	1085.03
834.73	1084.91
835.05	1083.60
835.36	1081.80
835.68	1079.92
836.00	1078.80
836.32	1078.64
836.63	1077.82
836.95	1077.98
837.27	1077.61
837.59	1076.34
837.90	1074.84
838.22	1076.69
838.54	1076.13
838.85	1074.07
839.17	1077.75
839.49	1077.09
839.80	1078.17
840.12	1079.97
840.44	1082.10
840.76	1077.91
841.07	1078.99
841.39	1076.69
841.71	1073.32
842.02	1075.17
842.34	1077.47
842.65	1076.34
842.97	1078.64
843.29	1082.12
843.60	1080.02
843.92	1079.10
844.24	1082.57
844.55	1079.50
844.87	1075.05
845.18	1076.51
845.50	1075.29
845.82	1071.71
846.13	1076.27
846.45	1081.61
846.76	1080.79
847.08	1083.50
847.40	1086.38
847.71	1079.57
848.03	1078.96
848.34	1078.45
848.66	1078.19
848.97	1079.69
849.29	1081.37
849.60	1078.87
849.92	1080.44
850.24	1080.25
850.55	1077.98
850.87	1078.43
851.18	1078.19
851.50	1076.30
851.81	1073.14
852.13	1071.68
852.44	1071.85
852.76	1072.18
853.07	1071.54
853.39	1074.89
853.70	1075.99
854.01	1078.28
854.33	1079.74
854.64	1082.83
854.96	1083.13
855.27	1084.65
855.59	1084.77
855.90	1084.44
856.22	1084.32
856.53	1081.05
856.84	1081.28
857.16	1079.24
857.47	1076.32
857.79	1076.90
858.10	1075.36
858.41	1074.80
858.73	1075.69
859.04	1077.68
859.36	1078.61
859.67	1083.76
859.98	1082.69
860.30	1084.02
860.61	1083.50
860.92	1080.93
861.24	1077.30
861.55	1077.04
861.87	1073.98
862.18	1072.62
862.49	1071.08
862.81	1072.25
863.12	1073.91
863.43	1075.31
863.74	1079.17
864.06	1081.98
864.37	1083.11
864.68	1083.46
865.00	1083.50
865.31	1082.43
865.62	1083.79
865.94	1082.54
866.25	1083.46
866.56	1082.10
866.87	1079.85
867.19	1074.91
867.50	1075.55
867.81	1070.02
868.12	1068.69
868.44	1068.67
868.75	1069.55
869.06	1071.05
869.37	1074.66
869.68	1079.22
870.00	1078.54
870.31	1080.67
870.62	1081.00
870.93	1080.53
871.24	1078.96
871.56	1081.82
871.87	1077.04
872.18	1073.23
872.49	1070.87
872.80	1069.77
873.12	1070.30
873.43	1076.53
873.74	1078.82
874.05	1081.61
874.36	1082.80
874.67	1083.48
874.98	1080.95
875.29	1079.10
875.61	1076.08
875.92	1074.24
876.23	1073.67
876.54	1073.00
876.85	1077.33
877.16	1078.17
877.47	1080.25
877.78	1080.39
878.09	1083.06
878.40	1079.24
878.72	1081.07
879.03	1082.52
879.34	1084.39
879.65	1081.44
879.96	1078.31
880.27	1077.28
880.58	1074.24
880.89	1072.18
881.20	1072.97
881.51	1077.51
881.82	1080.48
882.13	1083.34
882.44	1084.14
882.75	1083.88
883.06	1085.00
883.37	1084.58
883.68	1083.25
883.99	1081.77
884.30	1080.06
884.61	1078.82
884.92	1080.06
885.23	1077.72
885.54	1077.65
885.85	1081.58
886.16	1079.17
886.47	1075.27
886.78	1077.23
887.08	1077.82
887.39	1074.94
887.70	1078.26
888.01	1079.85
888.32	1080.56
888.63	1079.34
888.94	1082.92
889.25	1082.47
889.56	1079.78
889.87	1078.40
890.17	1082.12
890.48	1079.38
890.79	1077.49
891.10	1079.62
891.41	1077.82
891.72	1073.98
892.03	1078.26
892.34	1078.89
892.64	1079.34
892.95	1081.26
893.26	1084.70
893.57	1079.06
893.88	1079.76
894.18	1078.52
894.49	1077.72
894.80	1075.62
895.11	1075.99
895.42	1074.68
895.72	1077.02
896.03	1072.95
896.34	1071.40
896.65	1075.69
896.96	1078.87
897.26	1077.18
897.57	1081.40
897.88	1081.98
898.19	1081.96
898.49	1080.72
898.80	1081.70
899.11	1080.51
899.41	1082.10
899.72	1079.20
900.03	1079.34
900.34	1079.27
900.64	1083.64
900.95	1082.57
901.26	1081.51
901.56	1078.85
901.87	1075.69
902.18	1072.78
902.48	1073.86
902.79	1078.28
903.10	1078.17
903.40	1082.08
903.71	1078.87
904.02	1078.05
904.32	1072.57
904.63	1073.09
904.94	1070.61
905.24	1072.81
905.55	1074.12
905.85	1076.37
906.16	1076.27
906.47	1078.75
906.77	1080.30
907.08	1080.06
907.38	1081.73
907.69	1083.62
908.00	1081.94
908.30	1080.67
908.61	1076.06
908.91	1070.91
909.22	1067.47
909.52	1067.31
909.83	1069.67
910.14	1073.07
910.44	1076.83
910.75	1077.54
911.05	1077.44
911.36	1076.37
911.66	1075.64
911.97	1076.51
912.27	1079.62
912.58	1079.62
912.88	1078.03
913.19	1075.92
913.49	1074.52
913.80	1073.81
914.10	1074.21
914.41	1075.92
914.71	1077.35
915.01	1079.15
915.32	1081.35
915.62	1082.61
915.93	1083.62
916.23	1086.99
916.54	1086.48
916.84	1082.87
917.15	1082.85
917.45	1080.53
917.75	1078.19
918.06	1078.85
918.36	1081.58
918.67	1080.74
918.97	1082.66
919.27	1081.98
919.58	1080.63
919.88	1076.60
920.18	1077.61
920.49	1077.79
920.79	1079.15
921.10	1082.03
921.40	1081.26
921.70	1080.23
922.01	1079.41
922.31	1079.36
922.61	1076.69
922.92	1077.33
923.22	1078.14
923.52	1076.81
923.82	1077.14
924.13	1076.34
924.43	1078.94
924.73	1079.01
925.04	1081.80
925.34	1082.08
925.64	1083.22
925.94	1082.43
926.25	1080.70
926.55	1077.51
926.85	1076.51
927.15	1073.98
927.46	1077.70
927.76	1077.16
928.06	1074.63
928.36	1075.01
928.67	1078.82
928.97	1072.97
929.27	1073.02
929.57	1078.68
929.87	1078.96
930.18	1078.43
930.48	1082.80
930.78	1083.41
931.08	1083.46
931.38	1082.15
931.69	1079.74
931.99	1078.14
932.29	1077.47
932.59	1072.69
932.89	1074.84
933.19	1074.91
933.49	1074.47
933.80	1075.66
934.10	1078.12
934.40	1076.13
934.70	1074.28
935.00	1077.28
935.30	1078.57
935.60	1080.34
935.90	1082.08
936.20	1085.28
936.50	1082.87
936.81	1081.77
937.11	1082.10
937.41	1082.78
937.71	1082.90
938.01	1085.47
938.31	1085.17
938.61	1084.30
938.91	1084.04
939.21	1085.26
939.51	1083.95
939.81	1081.33
940.11	1079.95
940.41	1078.52
940.71	1074.91
941.01	1074.45
941.31	1078.05
941.61	1081.23
941.91	1080.16
942.21	1080.20
942.51	1079.34
942.81	1077.61
943.11	1074.10
943.41	1076.06
943.71	1079.36
944.01	1079.50
944.31	1081.51
944.61	1084.37
944.90	1083.90
945.20	1083.46
945.50	1083.13
945.80	1080.18
946.10	1077.84
946.40	1080.58
946.70	1077.93
947.00	1078.61
947.30	1076.81
947.60	1078.43
947.89	1072.69
948.19	1077.68
948.49	1072.74
948.79	1074.87
949.09	1073.04
949.39	1077.18
949.69	1074.24
949.98	1080.37
950.28	1083.32
950.58	1084.02
950.88	1082.15
951.18	1079.36
951.48	1078.82
951.77	1078.38
952.07	1078.75
952.37	1077.70
952.67	1080.32
952.97	1079.38
953.26	1078.68
953.56	1080.18
953.86	1079.81
954.16	1078.31
954.45	1080.04
954.75	1078.38
955.05	1074.77
955.35	1077.28
955.64	1081.05
955.94	1079.27
956.24	1080.56
956.54	1080.86
956.83	1080.37
957.13	1075.15
957.43	1074.38
957.72	1075.27
958.02	1078.38
958.32	1075.83
958.61	1078.17
958.91	1076.95
959.21	1077.09
959.50	1072.34
959.80	1075.52
960.10	1074.45
960.39	1077.18
960.69	1076.04
960.99	1081.23
961.28	1078.05
961.58	1079.81
961.87	1080.70
962.17	1078.54
962.47	1074.52
962.76	1077.25
963.06	1077.33
963.36	1076.30
963.65	1079.34
963.95	1079.36
964.24	1080.06
964.54	1077.18
964.83	1076.11
965.13	1073.16
965.42	1076.32
965.72	1076.37
966.02	1080.91
966.31	1076.37
966.61	1075.57
966.90	1073.84
967.20	1073.74
967.49	1071.26
967.79	1077.23
968.08	1081.68
968.38	1083.43
968.67	1079.81
968.97	1079.97
969.26	1080.34
969.56	1077.35
969.85	1074.05
970.15	1078.05
970.44	1076.08
970.74	1075.87
971.03	1079.22
971.32	1080.95
971.62	1080.86
971.91	1085.99
972.21	1084.53
972.50	1082.17
972.80	1084.77
973.09	1083.67
973.38	1082.64
973.68	1084.44
973.97	1085.63
974.27	1084.93
974.56	1084.81
974.85	1082.05
975.15	1082.33
975.44	1083.11
975.73	1079.64
976.03	1078.38
976.32	1081.40
976.61	1076.67
976.91	1072.18
977.20	1069.79
977.49	1068.71
977.79	1068.74
978.08	1070.91
978.37	1072.32
978.67	1075.48
978.96	1079.57
979.25	1077.84
979.55	1077.56
979.84	1076.65
980.13	1074.94
980.42	1070.96
980.72	1072.22
981.01	1077.23
981.30	1079.76
981.59	1082.31
981.89	1082.26
982.18	1080.81
982.47	1076.37
982.76	1073.72
983.06	1073.81
983.35	1073.23
983.64	1072.90
983.93	1073.07
984.22	1073.86
984.52	1076.72
984.81	1078.40
985.10	1078.96
985.39	1079.74
985.68	1081.96
985.97	1081.66
986.27	1083.15
986.56	1081.19
986.85	1083.06
987.14	1083.08
987.43	1082.73
987.72	1084.04
988.01	1086.69
988.31	1086.27
988.60	1083.81
988.89	1081.68
989.18	1079.36
989.47	1079.20
989.76	1080.34
990.05	1084.32
990.34	1083.90
990.63	1083.32
990.92	1081.33
991.21	1079.53
991.51	1079.41
991.80	1078.89
992.09	1082.10
992.38	1084.39
992.67	1085.19
992.96	1082.83
993.25	1084.37
993.54	1081.96
993.83	1078.92
994.12	1076.37
994.41	1076.01
994.70	1072.64
994.99	1071.73
995.28	1076.58
995.57	1078.61
995.86	1078.94
996.15	1081.77
996.44	1083.25
996.73	1082.10
997.02	1082.29
997.31	1081.02
997.59	1084.25
997.88	1084.51
998.17	1079.34
998.46	1079.43
998.75	1081.66
999.04	1077.00
999.33	1074.52
999.62	1079.22
999.91	1076.90
1000.20	1075.76
1000.49	1075.80
1000.77	1078.43
1001.06	1079.50
1001.35	1081.26
1001.64	1083.15
1001.93	1083.34
1002.22	1082.43
1002.51	1080.63
1002.79	1077.09
1003.08	1076.76
1003.37	1077.82
1003.66	1077.72
1003.95	1079.17
1004.23	1082.97
1004.52	1080.41
1004.81	1081.21
1005.10	1081.56
1005.39	1079.01
1005.67	1077.82
1005.96	1079.24
1006.25	1078.61
1006.54	1080.91
1006.83	1084.58
1007.11	1085.05
1007.40	1084.51
1007.69	1084.91
1007.97	1084.56
1008.26	1084.14
1008.55	1083.43
1008.84	1082.17
1009.12	1082.54
1009.41	1080.58
1009.70	1077.98
1009.98	1076.44
1010.27	1080.44
1010.56	1081.28
1010.85	1082.85
1011.13	1083.36
1011.42	1086.17
1011.71	1081.49
1011.99	1080.02
1012.28	1081.40
1012.56	1080.04
1012.85	1079.90
1013.14	1082.80
1013.42	1082.66
1013.71	1077.79
1014.00	1079.74
1014.28	1077.21
1014.57	1075.31
1014.85	1076.13
1015.14	1077.47
1015.43	1074.89
1015.71	1076.44
1016.00	1077.44
1016.28	1074.87
1016.57	1075.80
1016.85	1076.46
1017.14	1073.32
1017.43	1074.49
1017.71	1075.15
1018.00	1071.87
1018.28	1073.46
1018.57	1078.07
1018.85	1077.70
1019.14	1080.30
1019.42	1085.61
1019.71	1083.86
1019.99	1081.35
1020.28	1079.22
1020.56	1077.23
1020.85	1076.41
1021.13	1077.86
1021.42	1078.94
1021.70	1082.69
1021.99	1083.81
1022.27	1084.16
1022.55	1082.15
1022.84	1088.47
>>>>>End Processed Spectral Data<<<<<
