SpectraSuite Data File
++++++++++++++++++++++++++++++++++++
Date: Mon Aug 26 10:22:12 PDT 2019
User: corrico
Dark Spectrum Present: No
Reference Spectrum Present: No
Number of Sampled Component Spectra: 1
Spectrometers: USB2+H06089
Integration Time (usec): 2000 (USB2+H06089)
Spectra Averaged: 20 (USB2+H06089)
Boxcar Smoothing: 2 (USB2+H06089)
Correct for Electrical Dark: No (USB2+H06089)
Strobe/Lamp Enabled: No (USB2+H06089)
Correct for Detector Non-linearity: No (USB2+H06089)
Correct for Stray Light: No (USB2+H06089)
Number of Pixels in Processed Spectrum: 2048
>>>>>Begin Processed Spectral Data<<<<<
339.70	1021.64
340.07	1021.64
340.45	994.42
340.82	973.22
341.19	949.79
341.57	924.93
341.94	910.42
342.31	901.71
342.69	898.74
343.06	896.03
343.43	896.00
343.81	897.03
344.18	900.19
344.55	904.17
344.93	911.80
345.30	918.31
345.67	926.06
346.04	935.44
346.42	944.24
346.79	951.47
347.16	959.55
347.54	966.62
347.91	974.18
348.28	984.01
348.65	992.62
349.03	998.78
349.40	1009.03
349.77	1018.13
350.14	1022.86
350.52	1030.89
350.89	1040.56
351.26	1049.57
351.63	1053.66
352.01	1059.72
352.38	1064.55
352.75	1068.31
353.12	1068.03
353.50	1070.30
353.87	1073.16
354.24	1073.39
354.61	1076.23
354.98	1075.41
355.36	1080.18
355.73	1077.54
356.10	1077.37
356.47	1079.24
356.84	1082.59
357.22	1080.86
357.59	1084.70
357.96	1086.69
358.33	1084.77
358.70	1084.84
359.08	1084.49
359.45	1082.83
359.82	1083.32
360.19	1084.39
360.56	1084.58
360.94	1082.78
361.31	1084.63
361.68	1085.63
362.05	1082.43
362.42	1079.74
362.79	1081.40
363.16	1080.67
363.54	1079.46
363.91	1078.61
364.28	1080.74
364.65	1083.04
365.02	1082.87
365.39	1080.63
365.76	1082.24
366.14	1079.81
366.51	1075.59
366.88	1071.43
367.25	1073.18
367.62	1073.37
367.99	1075.31
368.36	1079.43
368.73	1081.73
369.10	1077.91
369.48	1076.81
369.85	1076.58
370.22	1074.17
370.59	1074.45
370.96	1077.51
371.33	1075.45
371.70	1076.97
372.07	1076.25
372.44	1073.67
372.81	1075.03
373.18	1078.03
373.55	1073.39
373.93	1075.57
374.30	1078.52
374.67	1078.45
375.04	1079.81
375.41	1081.96
375.78	1079.43
376.15	1076.08
376.52	1074.05
376.89	1073.14
377.26	1073.49
377.63	1073.28
378.00	1075.83
378.37	1078.24
378.74	1076.97
379.11	1077.44
379.48	1076.53
379.85	1078.00
380.22	1076.88
380.59	1081.05
380.96	1080.13
381.33	1081.56
381.70	1082.17
382.07	1082.26
382.44	1077.72
382.81	1078.50
383.18	1078.52
383.55	1079.62
383.92	1079.36
384.29	1079.85
384.66	1081.21
385.03	1084.49
385.40	1083.79
385.77	1083.36
386.14	1083.36
386.51	1081.61
386.88	1081.09
387.25	1080.63
387.62	1082.61
387.99	1082.54
388.36	1082.15
388.73	1080.65
389.10	1082.10
389.46	1081.58
389.83	1083.43
390.20	1084.53
390.57	1084.21
390.94	1081.94
391.31	1083.46
391.68	1084.93
392.05	1082.90
392.42	1082.10
392.79	1084.60
393.16	1081.21
393.53	1077.91
393.89	1082.50
394.26	1082.31
394.63	1081.42
395.00	1085.96
395.37	1086.50
395.74	1086.27
396.11	1088.72
396.48	1089.52
396.84	1086.20
397.21	1090.69
397.58	1088.72
397.95	1089.78
398.32	1091.18
398.69	1091.18
399.06	1087.11
399.42	1091.72
399.79	1088.00
400.16	1088.37
400.53	1087.76
400.90	1088.37
401.27	1084.70
401.64	1088.51
402.00	1084.70
402.37	1085.42
402.74	1089.12
403.11	1087.67
403.48	1086.01
403.84	1088.49
404.21	1087.90
404.58	1085.91
404.95	1087.79
405.32	1089.22
405.68	1089.50
406.05	1095.16
406.42	1095.77
406.79	1098.37
407.16	1101.25
407.52	1101.88
407.89	1101.43
408.26	1104.80
408.63	1103.91
408.99	1103.52
409.36	1102.02
409.73	1100.68
410.10	1099.44
410.47	1098.67
410.83	1098.09
411.20	1098.02
411.57	1097.97
411.94	1096.87
412.30	1095.63
412.67	1093.66
413.04	1097.88
413.40	1097.95
413.77	1097.64
414.14	1098.16
414.51	1101.22
414.87	1099.37
415.24	1099.05
415.61	1100.82
415.97	1100.24
416.34	1099.86
416.71	1101.34
417.08	1102.60
417.44	1100.66
417.81	1104.94
418.18	1102.63
418.54	1104.41
418.91	1108.76
419.28	1112.48
419.64	1114.94
420.01	1119.43
420.38	1117.25
420.74	1117.56
421.11	1123.34
421.48	1127.27
421.84	1127.86
422.21	1131.44
422.58	1133.26
422.94	1134.36
423.31	1134.81
423.68	1140.07
424.04	1145.36
424.41	1148.66
424.77	1149.41
425.14	1153.98
425.51	1155.73
425.87	1158.26
426.24	1163.11
426.61	1169.68
426.97	1174.43
427.34	1180.45
427.70	1187.24
428.07	1197.51
428.44	1208.82
428.80	1217.34
429.17	1229.51
429.53	1240.25
429.90	1249.52
430.27	1260.07
430.63	1271.89
431.00	1284.91
431.36	1299.82
431.73	1313.60
432.09	1327.55
432.46	1346.30
432.83	1367.25
433.19	1383.19
433.56	1403.46
433.92	1431.24
434.29	1460.24
434.65	1484.72
435.02	1519.62
435.38	1554.02
435.75	1580.89
436.11	1617.29
436.48	1660.98
436.84	1703.86
437.21	1749.60
437.57	1798.65
437.94	1847.76
438.30	1899.63
438.67	1953.76
439.03	2013.16
439.40	2080.92
439.76	2152.10
440.13	2231.21
440.49	2316.80
440.86	2402.14
441.22	2491.69
441.59	2580.53
441.95	2678.95
442.32	2779.55
442.68	2893.16
443.05	3012.74
443.41	3141.82
443.78	3272.33
444.14	3415.33
444.51	3553.03
444.87	3716.79
445.24	3880.40
445.60	4063.33
445.96	4242.83
446.33	4453.24
446.69	4651.84
447.06	4864.03
447.42	5082.52
447.79	5314.37
448.15	5577.68
448.51	5851.69
448.88	6173.94
449.24	6475.75
449.61	6825.89
449.97	7175.99
450.33	7546.71
450.70	7903.08
451.06	8323.97
451.43	8725.42
451.79	9184.92
452.15	9680.64
452.52	10209.84
452.88	10759.02
453.24	11384.16
453.61	12082.43
453.97	12780.92
454.34	13471.09
454.70	14293.63
455.06	15086.86
455.43	15831.50
455.79	16499.42
456.15	17313.20
456.52	18052.15
456.88	18962.69
457.24	19857.20
457.61	20989.03
457.97	22052.20
458.33	23151.17
458.70	24202.40
459.06	25200.08
459.42	26210.84
459.79	27099.96
460.15	28114.54
460.51	29080.03
460.88	30186.71
461.24	31144.67
461.60	32303.37
461.96	33327.68
462.33	34348.51
462.69	35334.15
463.05	36440.83
463.42	37432.96
463.78	38368.28
464.14	39127.58
464.50	39889.28
464.87	40430.67
465.23	40784.61
465.59	41196.38
465.95	41530.68
466.32	41759.25
466.68	41997.38
467.04	42145.93
467.40	42165.78
467.77	42286.53
468.13	42197.40
468.49	42027.92
468.85	41918.85
469.22	41769.01
469.58	41492.36
469.94	41339.34
470.30	41110.20
470.66	40746.55
471.03	40261.97
471.39	39896.44
471.75	39195.64
472.11	38497.06
472.47	37996.84
472.84	37470.57
473.20	36759.54
473.56	36362.42
473.92	35797.37
474.28	35149.95
474.65	34494.75
475.01	33813.53
475.37	32988.10
475.73	32315.21
476.09	31633.07
476.45	30992.67
476.81	30453.51
477.18	29915.81
477.54	29451.03
477.90	29024.16
478.26	28467.12
478.62	27941.55
478.98	27506.09
479.34	27052.89
479.71	26484.68
480.07	26055.90
480.43	25612.41
480.79	25149.03
481.15	24697.80
481.51	24350.47
481.87	24044.98
482.23	23704.74
482.59	23371.07
482.96	23033.80
483.32	22700.39
483.68	22286.91
484.04	21925.83
484.40	21516.52
484.76	21109.62
485.12	20663.84
485.48	20237.11
485.84	19744.90
486.20	19312.25
486.56	18864.20
486.92	18489.11
487.28	18090.61
487.64	17701.75
488.00	17317.04
488.37	16941.85
488.73	16518.99
489.09	16072.20
489.45	15658.42
489.81	15212.12
490.17	14779.99
490.53	14372.76
490.89	13974.38
491.25	13563.03
491.61	13180.38
491.97	12786.56
492.33	12383.33
492.69	12029.07
493.05	11691.89
493.41	11363.37
493.77	11041.66
494.13	10747.86
494.49	10453.35
494.85	10166.73
495.21	9895.86
495.57	9631.84
495.93	9364.34
496.29	9117.37
496.64	8904.36
497.00	8655.89
497.36	8419.14
497.72	8178.42
498.08	7949.86
498.44	7716.14
498.80	7510.69
499.16	7310.97
499.52	7114.39
499.88	6938.85
500.24	6773.07
500.60	6610.84
500.96	6457.35
501.32	6308.54
501.68	6141.78
502.03	5963.43
502.39	5801.86
502.75	5629.27
503.11	5476.64
503.47	5336.26
503.83	5205.73
504.19	5071.75
504.55	4957.02
504.91	4843.97
505.26	4724.39
505.62	4605.66
505.98	4498.65
506.34	4376.87
506.70	4254.60
507.06	4145.07
507.42	4051.98
507.78	3957.66
508.13	3866.89
508.49	3798.31
508.85	3727.05
509.21	3641.59
509.57	3556.05
509.93	3474.34
510.28	3377.35
510.64	3292.85
511.00	3213.16
511.36	3141.70
511.72	3080.43
512.07	3022.03
512.43	2961.01
512.79	2905.03
513.15	2844.01
513.51	2789.15
513.86	2729.70
514.22	2681.06
514.58	2629.24
514.94	2578.24
515.30	2530.14
515.65	2488.06
516.01	2446.07
516.37	2403.22
516.73	2367.43
517.08	2327.34
517.44	2284.53
517.80	2238.98
518.16	2204.46
518.51	2170.40
518.87	2135.36
519.23	2109.50
519.59	2084.93
519.94	2057.14
520.30	2027.47
520.66	1997.32
521.01	1961.93
521.37	1934.13
521.73	1904.66
522.09	1877.34
522.44	1857.31
522.80	1838.12
523.16	1814.78
523.51	1793.81
523.87	1772.18
524.23	1752.17
524.58	1734.90
524.94	1710.25
525.30	1692.75
525.65	1674.02
526.01	1654.13
526.37	1634.14
526.72	1625.53
527.08	1609.96
527.44	1593.69
527.79	1576.89
528.15	1561.84
528.51	1542.58
528.86	1527.90
529.22	1518.12
529.58	1504.24
529.93	1490.13
530.29	1479.62
530.65	1464.59
531.00	1450.83
531.36	1441.00
531.71	1432.27
532.07	1419.11
532.43	1406.73
532.78	1393.81
533.14	1383.89
533.49	1371.74
533.85	1363.06
534.21	1354.47
534.56	1347.77
534.92	1338.60
535.27	1331.16
535.63	1323.18
535.98	1315.78
536.34	1308.69
536.69	1304.12
537.05	1299.00
537.41	1292.72
537.76	1288.14
538.12	1281.86
538.47	1273.70
538.83	1267.49
539.18	1258.51
539.54	1254.43
539.89	1249.05
540.25	1244.06
540.60	1241.30
540.96	1240.86
541.31	1235.87
541.67	1231.00
542.02	1227.35
542.38	1223.84
542.73	1223.70
543.09	1219.16
543.44	1219.26
543.80	1217.83
544.15	1217.99
544.51	1212.35
544.86	1212.98
545.22	1209.61
545.57	1207.01
545.93	1198.92
546.28	1194.54
546.64	1187.38
546.99	1181.71
547.35	1177.80
547.70	1178.58
548.05	1177.55
548.41	1176.99
548.76	1173.99
549.12	1170.50
549.47	1168.82
549.83	1168.63
550.18	1164.42
550.53	1164.60
550.89	1165.61
551.24	1158.94
551.60	1156.46
551.95	1157.70
552.30	1156.13
552.66	1151.45
553.01	1149.13
553.37	1146.93
553.72	1143.98
554.07	1139.77
554.43	1137.66
554.78	1137.45
555.13	1135.37
555.49	1133.01
555.84	1132.42
556.19	1131.65
556.55	1132.94
556.90	1128.49
557.26	1128.56
557.61	1129.87
557.96	1128.96
558.32	1124.16
558.67	1123.71
559.02	1122.03
559.37	1119.64
559.73	1119.29
560.08	1119.97
560.43	1117.96
560.79	1114.75
561.14	1114.00
561.49	1112.27
561.85	1113.35
562.20	1117.51
562.55	1118.75
562.90	1117.51
563.26	1116.76
563.61	1113.51
563.96	1111.22
564.32	1110.98
564.67	1112.15
565.02	1114.07
565.37	1113.53
565.73	1114.59
566.08	1115.76
566.43	1114.33
566.78	1110.02
567.14	1108.66
567.49	1104.85
567.84	1101.13
568.19	1101.62
568.54	1100.71
568.90	1099.56
569.25	1097.80
569.60	1101.29
569.95	1100.15
570.31	1103.07
570.66	1102.88
571.01	1106.04
571.36	1104.45
571.71	1104.64
572.06	1103.26
572.42	1103.89
572.77	1104.05
573.12	1105.36
573.47	1105.13
573.82	1107.78
574.18	1107.54
574.53	1102.77
574.88	1099.07
575.23	1097.22
575.58	1090.90
575.93	1090.95
576.28	1091.27
576.64	1093.10
576.99	1092.80
577.34	1094.93
577.69	1095.67
578.04	1097.17
578.39	1094.74
578.74	1097.29
579.09	1097.66
579.44	1098.72
579.80	1097.73
580.15	1101.69
580.50	1098.27
580.85	1095.96
581.20	1092.19
581.55	1094.20
581.90	1091.23
582.25	1089.57
582.60	1092.33
582.95	1091.39
583.30	1090.46
583.65	1088.00
584.00	1090.01
584.35	1089.54
584.71	1092.40
585.06	1091.34
585.41	1090.62
585.76	1089.33
586.11	1086.80
586.46	1083.53
586.81	1083.57
587.16	1086.29
587.51	1089.80
587.86	1091.46
588.21	1093.78
588.56	1094.72
588.91	1096.92
589.26	1094.22
589.61	1092.35
589.96	1094.62
590.31	1093.90
590.66	1088.42
591.01	1090.39
591.36	1091.23
591.71	1090.74
592.06	1092.45
592.41	1093.62
592.76	1091.86
593.10	1092.75
593.45	1090.36
593.80	1086.20
594.15	1085.63
594.50	1084.63
594.85	1084.93
595.20	1085.80
595.55	1088.65
595.90	1091.02
596.25	1089.22
596.60	1085.63
596.95	1083.71
597.30	1083.79
597.64	1093.08
597.99	1095.70
598.34	1097.55
598.69	1096.63
599.04	1097.64
599.39	1085.89
599.74	1084.63
600.09	1085.00
600.44	1088.09
600.78	1081.12
601.13	1082.66
601.48	1085.21
601.83	1085.45
602.18	1083.06
602.53	1087.41
602.88	1085.54
603.22	1084.32
603.57	1082.94
603.92	1084.51
604.27	1086.08
604.62	1085.70
604.97	1085.33
605.31	1086.06
605.66	1084.56
606.01	1082.33
606.36	1084.51
606.71	1084.32
607.05	1084.81
607.40	1086.52
607.75	1085.14
608.10	1082.94
608.44	1081.19
608.79	1078.73
609.14	1079.92
609.49	1085.33
609.84	1087.18
610.18	1089.52
610.53	1093.50
610.88	1090.39
611.23	1087.30
611.57	1088.07
611.92	1084.32
612.27	1081.02
612.62	1083.06
612.96	1083.34
613.31	1082.71
613.66	1083.08
614.00	1088.56
614.35	1088.44
614.70	1084.86
615.05	1087.55
615.39	1087.97
615.74	1084.21
616.09	1085.28
616.43	1090.64
616.78	1084.98
617.13	1084.42
617.47	1086.36
617.82	1085.28
618.17	1081.12
618.51	1083.36
618.86	1083.53
619.21	1081.07
619.55	1082.47
619.90	1082.26
620.25	1082.76
620.59	1086.31
620.94	1085.96
621.29	1082.80
621.63	1086.10
621.98	1087.72
622.32	1085.61
622.67	1086.22
623.02	1087.86
623.36	1084.93
623.71	1081.02
624.05	1080.88
624.40	1077.93
624.75	1075.13
625.09	1077.84
625.44	1078.26
625.78	1079.13
626.13	1082.90
626.48	1086.45
626.82	1087.23
627.17	1089.75
627.51	1090.92
627.86	1088.37
628.20	1089.12
628.55	1087.81
628.89	1087.13
629.24	1084.89
629.58	1087.44
629.93	1086.29
630.28	1085.14
630.62	1083.90
630.97	1085.14
631.31	1084.70
631.66	1081.47
632.00	1082.24
632.35	1081.02
632.69	1078.57
633.04	1076.48
633.38	1078.33
633.73	1080.11
634.07	1082.19
634.42	1085.10
634.76	1085.21
635.11	1085.96
635.45	1080.32
635.79	1080.48
636.14	1079.15
636.48	1079.10
636.83	1077.16
637.17	1079.85
637.52	1080.44
637.86	1080.74
638.21	1083.69
638.55	1083.97
638.89	1084.09
639.24	1085.61
639.58	1087.37
639.93	1085.73
640.27	1084.63
640.61	1084.81
640.96	1084.93
641.30	1084.63
641.65	1085.75
641.99	1087.30
642.33	1087.53
642.68	1084.51
643.02	1083.79
643.37	1079.97
643.71	1080.39
644.05	1080.81
644.40	1080.93
644.74	1082.12
645.08	1086.36
645.43	1087.04
645.77	1085.56
646.11	1086.41
646.46	1083.41
646.80	1081.35
647.14	1077.16
647.49	1078.40
647.83	1076.23
648.17	1077.75
648.52	1077.37
648.86	1078.85
649.20	1078.28
649.55	1079.46
649.89	1079.76
650.23	1077.82
650.57	1081.40
650.92	1080.06
651.26	1079.10
651.60	1076.62
651.95	1077.18
652.29	1078.05
652.63	1081.63
652.97	1079.06
653.32	1081.12
653.66	1083.74
654.00	1082.29
654.34	1079.97
654.69	1081.68
655.03	1083.04
655.37	1083.46
655.71	1082.29
656.05	1084.32
656.40	1087.53
656.74	1087.37
657.08	1087.02
657.42	1085.19
657.76	1084.46
658.11	1080.37
658.45	1078.47
658.79	1078.19
659.13	1077.89
659.47	1077.42
659.82	1079.71
660.16	1080.39
660.50	1077.16
660.84	1079.29
661.18	1081.40
661.52	1079.38
661.87	1078.38
662.21	1082.64
662.55	1082.71
662.89	1077.02
663.23	1077.61
663.57	1080.48
663.91	1079.97
664.25	1079.08
664.60	1084.00
664.94	1088.49
665.28	1084.84
665.62	1080.60
665.96	1083.15
666.30	1079.69
666.64	1076.58
666.98	1076.53
667.32	1080.79
667.66	1079.97
668.01	1083.34
668.35	1085.66
668.69	1089.03
669.03	1086.24
669.37	1088.51
669.71	1085.63
670.05	1085.19
670.39	1082.78
670.73	1086.55
671.07	1084.98
671.41	1085.26
671.75	1087.37
672.09	1086.92
672.43	1082.40
672.77	1081.16
673.11	1082.47
673.45	1077.68
673.79	1078.66
674.13	1081.75
674.47	1083.06
674.81	1084.49
675.15	1084.72
675.49	1084.28
675.83	1082.78
676.17	1081.16
676.51	1080.32
676.85	1081.54
677.19	1082.47
677.53	1083.53
677.87	1082.99
678.21	1084.02
678.55	1083.97
678.89	1084.81
679.23	1084.63
679.57	1084.81
679.90	1083.08
680.24	1085.12
680.58	1082.47
680.92	1083.13
681.26	1083.48
681.60	1083.41
681.94	1082.78
682.28	1084.07
682.62	1085.94
682.96	1085.10
683.29	1082.19
683.63	1082.01
683.97	1080.06
684.31	1076.08
684.65	1076.48
684.99	1076.83
685.33	1075.13
685.67	1076.81
686.00	1077.23
686.34	1077.86
686.68	1079.81
687.02	1079.36
687.36	1078.21
687.70	1077.79
688.03	1078.12
688.37	1077.58
688.71	1079.34
689.05	1081.07
689.39	1082.15
689.72	1078.80
690.06	1078.66
690.40	1074.52
690.74	1077.14
691.08	1075.17
691.41	1076.88
691.75	1077.91
692.09	1079.20
692.43	1075.94
692.76	1079.13
693.10	1079.62
693.44	1078.99
693.78	1082.26
694.11	1082.17
694.45	1080.93
694.79	1081.82
695.13	1083.22
695.46	1084.42
695.80	1081.26
696.14	1081.89
696.48	1081.07
696.81	1081.19
697.15	1075.80
697.49	1081.98
697.82	1081.40
698.16	1082.01
698.50	1080.41
698.83	1084.58
699.17	1082.40
699.51	1081.16
699.84	1081.73
700.18	1082.36
700.52	1077.84
700.85	1075.36
701.19	1075.92
701.53	1073.88
701.86	1071.47
702.20	1071.01
702.54	1074.63
702.87	1072.62
703.21	1072.55
703.55	1073.98
703.88	1077.16
704.22	1073.09
704.55	1075.71
704.89	1077.16
705.23	1079.03
705.56	1076.69
705.90	1078.24
706.23	1077.93
706.57	1078.57
706.91	1076.62
707.24	1080.30
707.58	1079.55
707.91	1081.40
708.25	1082.12
708.58	1085.56
708.92	1083.04
709.26	1081.56
709.59	1081.42
709.93	1078.12
710.26	1073.74
710.60	1076.83
710.93	1080.02
711.27	1076.93
711.60	1076.48
711.94	1076.32
712.27	1073.88
712.61	1072.11
712.94	1073.79
713.28	1076.62
713.61	1078.54
713.95	1079.13
714.28	1080.02
714.62	1079.92
714.95	1077.91
715.29	1078.73
715.62	1079.13
715.96	1078.99
716.29	1079.20
716.63	1080.32
716.96	1079.76
717.29	1079.76
717.63	1081.63
717.96	1082.54
718.30	1084.56
718.63	1085.61
718.97	1085.38
719.30	1083.22
719.63	1082.52
719.97	1080.09
720.30	1078.82
720.64	1078.96
720.97	1080.58
721.30	1079.95
721.64	1080.60
721.97	1078.68
722.31	1078.45
722.64	1079.48
722.97	1078.26
723.31	1075.66
723.64	1074.12
723.97	1076.32
724.31	1074.45
724.64	1076.88
724.98	1078.68
725.31	1083.27
725.64	1081.87
725.98	1083.67
726.31	1086.52
726.64	1083.67
726.97	1082.47
727.31	1080.11
727.64	1078.52
727.97	1071.08
728.31	1076.34
728.64	1077.82
728.97	1080.20
729.31	1080.34
729.64	1083.86
729.97	1081.54
730.30	1080.91
730.64	1080.60
730.97	1081.05
731.30	1083.71
731.63	1082.10
731.97	1080.72
732.30	1080.18
732.63	1079.31
732.96	1077.02
733.30	1080.25
733.63	1082.01
733.96	1080.34
734.29	1082.22
734.63	1082.87
734.96	1079.97
735.29	1078.40
735.62	1080.81
735.95	1075.99
736.29	1077.72
736.62	1077.89
736.95	1081.96
737.28	1079.22
737.61	1083.64
737.94	1077.33
738.28	1077.93
738.61	1071.90
738.94	1070.00
739.27	1068.85
739.60	1072.04
739.93	1077.89
740.27	1082.19
740.60	1085.94
740.93	1087.23
741.26	1088.30
741.59	1083.48
741.92	1080.27
742.25	1084.37
742.58	1084.16
742.91	1084.37
743.25	1083.64
743.58	1083.34
743.91	1076.95
744.24	1075.08
744.57	1071.80
744.90	1072.11
745.23	1075.34
745.56	1080.37
745.89	1080.58
746.22	1084.91
746.55	1084.32
746.88	1081.80
747.21	1079.60
747.54	1081.68
747.87	1081.82
748.20	1083.18
748.53	1083.74
748.87	1084.18
749.20	1083.06
749.53	1084.32
749.86	1082.03
750.19	1078.71
750.52	1078.07
750.85	1075.55
751.18	1072.95
751.51	1075.01
751.84	1077.44
752.16	1077.33
752.49	1079.64
752.82	1078.68
753.15	1077.98
753.48	1080.11
753.81	1076.76
754.14	1074.89
754.47	1074.00
754.80	1072.76
755.13	1070.23
755.46	1074.14
755.79	1075.59
756.12	1076.30
756.45	1076.83
756.78	1077.23
757.11	1077.37
757.43	1073.72
757.76	1073.63
758.09	1074.91
758.42	1074.70
758.75	1075.80
759.08	1078.14
759.41	1079.24
759.74	1079.78
760.07	1079.55
760.39	1076.74
760.72	1077.68
761.05	1075.62
761.38	1075.78
761.71	1075.80
762.04	1077.33
762.36	1075.59
762.69	1076.81
763.02	1075.03
763.35	1077.35
763.68	1077.56
764.01	1080.70
764.33	1081.19
764.66	1080.98
764.99	1082.97
765.32	1082.45
765.65	1082.19
765.97	1083.08
766.30	1084.30
766.63	1083.43
766.96	1082.08
767.28	1080.86
767.61	1079.34
767.94	1080.13
768.27	1076.41
768.59	1078.54
768.92	1075.66
769.25	1078.50
769.58	1079.92
769.90	1080.60
770.23	1080.58
770.56	1086.03
770.89	1079.08
771.21	1076.04
771.54	1076.13
771.87	1072.22
772.19	1068.17
772.52	1073.37
772.85	1073.35
773.17	1073.63
773.50	1077.61
773.83	1082.57
774.15	1079.53
774.48	1077.63
774.81	1078.40
775.13	1078.96
775.46	1078.05
775.79	1084.23
776.11	1087.51
776.44	1086.10
776.77	1084.72
777.09	1082.36
777.42	1078.68
777.74	1079.67
778.07	1080.16
778.40	1077.02
778.72	1075.76
779.05	1078.68
779.37	1076.32
779.70	1078.36
780.03	1081.19
780.35	1081.30
780.68	1078.28
781.00	1078.80
781.33	1077.42
781.65	1078.14
781.98	1079.53
782.31	1079.29
782.63	1080.65
782.96	1082.87
783.28	1083.95
783.61	1082.69
783.93	1081.82
784.26	1078.87
784.58	1076.51
784.91	1075.73
785.23	1075.80
785.56	1077.09
785.88	1079.88
786.21	1079.76
786.53	1077.44
786.86	1080.56
787.18	1080.16
787.51	1078.07
787.83	1076.27
788.16	1077.70
788.48	1073.16
788.81	1072.85
789.13	1072.60
789.46	1071.38
789.78	1068.59
790.10	1071.36
790.43	1070.47
790.75	1070.80
791.08	1074.33
791.40	1074.42
791.73	1077.40
792.05	1078.10
792.37	1078.57
792.70	1081.84
793.02	1083.25
793.35	1077.00
793.67	1076.81
793.99	1076.32
794.32	1071.54
794.64	1072.48
794.96	1073.25
795.29	1075.97
795.61	1076.83
795.93	1076.60
796.26	1077.25
796.58	1079.46
796.91	1077.63
797.23	1077.09
797.55	1077.09
797.87	1075.85
798.20	1077.21
798.52	1077.86
798.84	1078.26
799.17	1082.05
799.49	1083.90
799.81	1086.13
800.14	1086.08
800.46	1088.19
800.78	1081.44
801.10	1081.21
801.43	1075.57
801.75	1075.24
802.07	1073.18
802.40	1076.62
802.72	1074.03
803.04	1073.16
803.36	1071.99
803.69	1070.84
804.01	1071.54
804.33	1073.79
804.65	1074.24
804.97	1076.01
805.30	1075.87
805.62	1073.39
805.94	1075.10
806.26	1075.76
806.58	1075.59
806.91	1076.11
807.23	1080.95
807.55	1075.66
807.87	1076.46
808.19	1076.23
808.52	1076.41
808.84	1075.64
809.16	1078.10
809.48	1080.25
809.80	1078.94
810.12	1080.91
810.44	1080.46
810.77	1079.13
811.09	1074.45
811.41	1078.10
811.73	1075.20
812.05	1074.07
812.37	1075.76
812.69	1078.82
813.01	1075.08
813.33	1076.27
813.66	1076.04
813.98	1077.16
814.30	1077.84
814.62	1080.04
814.94	1080.48
815.26	1081.16
815.58	1080.27
815.90	1078.45
816.22	1078.31
816.54	1078.64
816.86	1077.72
817.18	1078.38
817.50	1080.23
817.82	1079.97
818.14	1080.13
818.46	1079.69
818.78	1078.36
819.10	1079.81
819.42	1079.64
819.74	1079.34
820.06	1078.33
820.38	1079.34
820.70	1078.28
821.02	1080.53
821.34	1079.17
821.66	1082.97
821.98	1083.50
822.30	1083.43
822.62	1078.21
822.94	1081.21
823.26	1080.16
823.58	1077.63
823.90	1080.06
824.22	1083.06
824.54	1080.16
824.86	1080.98
825.18	1084.89
825.50	1084.70
825.81	1083.71
826.13	1083.74
826.45	1080.77
826.77	1076.76
827.09	1075.29
827.41	1076.41
827.73	1075.36
828.05	1076.08
828.36	1077.77
828.68	1076.27
829.00	1076.01
829.32	1075.05
829.64	1073.81
829.96	1072.83
830.28	1075.01
830.59	1074.14
830.91	1072.97
831.23	1072.29
831.55	1070.94
831.87	1067.19
832.19	1067.96
832.50	1068.48
832.82	1067.40
833.14	1069.48
833.46	1073.21
833.78	1070.82
834.09	1072.64
834.41	1078.24
834.73	1078.85
835.05	1072.53
835.36	1074.45
835.68	1072.13
836.00	1068.36
836.32	1068.29
836.63	1072.04
836.95	1071.45
837.27	1075.50
837.59	1079.76
837.90	1076.30
838.22	1078.82
838.54	1080.44
838.85	1080.20
839.17	1076.79
839.49	1076.67
839.80	1071.66
840.12	1069.84
840.44	1067.78
840.76	1067.71
841.07	1071.47
841.39	1073.46
841.71	1073.79
842.02	1075.10
842.34	1077.75
842.65	1079.15
842.97	1077.70
843.29	1078.61
843.60	1077.51
843.92	1075.57
844.24	1075.76
844.55	1078.92
844.87	1081.09
845.18	1083.62
845.50	1084.51
845.82	1081.44
846.13	1077.23
846.45	1075.08
846.76	1073.81
847.08	1074.75
847.40	1075.29
847.71	1077.68
848.03	1076.11
848.34	1074.66
848.66	1068.81
848.97	1070.98
849.29	1071.36
849.60	1075.01
849.92	1075.05
850.24	1078.87
850.55	1077.47
850.87	1075.45
851.18	1072.01
851.50	1071.68
851.81	1071.85
852.13	1069.53
852.44	1070.84
852.76	1073.23
853.07	1076.46
853.39	1075.69
853.70	1078.54
854.01	1081.66
854.33	1081.44
854.64	1077.04
854.96	1079.08
855.27	1080.39
855.59	1080.65
855.90	1079.38
856.22	1083.25
856.53	1082.54
856.84	1080.09
857.16	1079.67
857.47	1080.67
857.79	1076.46
858.10	1074.59
858.41	1075.48
858.73	1073.98
859.04	1072.43
859.36	1077.04
859.67	1077.77
859.98	1076.30
860.30	1075.52
860.61	1075.31
860.92	1075.24
861.24	1074.66
861.55	1075.36
861.87	1076.11
862.18	1076.93
862.49	1074.66
862.81	1076.23
863.12	1076.81
863.43	1074.54
863.74	1074.28
864.06	1073.42
864.37	1072.97
864.68	1072.20
865.00	1077.21
865.31	1076.06
865.62	1078.80
865.94	1081.21
866.25	1082.61
866.56	1079.48
866.87	1080.74
867.19	1082.10
867.50	1080.58
867.81	1079.99
868.12	1078.99
868.44	1080.06
868.75	1079.69
869.06	1077.89
869.37	1075.45
869.68	1073.51
870.00	1072.29
870.31	1072.57
870.62	1077.21
870.93	1080.41
871.24	1083.11
871.56	1084.53
871.87	1084.02
872.18	1082.85
872.49	1078.59
872.80	1079.01
873.12	1077.72
873.43	1077.61
873.74	1073.86
874.05	1076.69
874.36	1078.03
874.67	1078.66
874.98	1077.14
875.29	1077.63
875.61	1077.72
875.92	1078.64
876.23	1079.46
876.54	1082.57
876.85	1084.63
877.16	1086.36
877.47	1080.88
877.78	1080.88
878.09	1079.24
878.40	1077.54
878.72	1074.80
879.03	1077.75
879.34	1079.36
879.65	1082.40
879.96	1081.98
880.27	1082.10
880.58	1081.61
880.89	1079.55
881.20	1076.58
881.51	1078.87
881.82	1079.22
882.13	1078.00
882.44	1075.29
882.75	1073.32
883.06	1072.15
883.37	1075.62
883.68	1076.08
883.99	1076.86
884.30	1079.10
884.61	1078.43
884.92	1075.17
885.23	1075.97
885.54	1077.14
885.85	1073.91
886.16	1074.63
886.47	1075.62
886.78	1076.39
887.08	1074.33
887.39	1077.40
887.70	1076.58
888.01	1074.80
888.32	1073.77
888.63	1073.32
888.94	1071.78
889.25	1073.09
889.56	1076.13
889.87	1074.84
890.17	1077.63
890.48	1077.96
890.79	1077.61
891.10	1074.98
891.41	1078.45
891.72	1082.38
892.03	1082.76
892.34	1081.58
892.64	1083.64
892.95	1082.99
893.26	1075.99
893.57	1078.59
893.88	1077.47
894.18	1077.51
894.49	1079.13
894.80	1083.01
895.11	1080.39
895.42	1082.45
895.72	1083.08
896.03	1079.85
896.34	1079.57
896.65	1076.62
896.96	1076.62
897.26	1072.62
897.57	1076.69
897.88	1074.54
898.19	1077.42
898.49	1076.18
898.80	1081.30
899.11	1078.40
899.41	1077.98
899.72	1081.91
900.03	1082.12
900.34	1075.20
900.64	1075.43
900.95	1077.25
901.26	1074.54
901.56	1078.59
901.87	1082.26
902.18	1085.56
902.48	1083.81
902.79	1079.03
903.10	1077.93
903.40	1074.73
903.71	1071.52
904.02	1070.26
904.32	1072.53
904.63	1071.03
904.94	1071.94
905.24	1072.27
905.55	1077.98
905.85	1078.14
906.16	1079.71
906.47	1081.21
906.77	1079.67
907.08	1079.62
907.38	1082.99
907.69	1079.36
908.00	1079.48
908.30	1077.89
908.61	1074.31
908.91	1072.81
909.22	1073.00
909.52	1074.17
909.83	1077.42
910.14	1077.77
910.44	1075.20
910.75	1075.78
911.05	1075.15
911.36	1073.70
911.66	1073.63
911.97	1076.88
912.27	1076.88
912.58	1073.70
912.88	1073.70
913.19	1074.68
913.49	1072.81
913.80	1074.10
914.10	1078.00
914.41	1078.47
914.71	1076.81
915.01	1077.30
915.32	1075.73
915.62	1076.53
915.93	1079.85
916.23	1081.98
916.54	1079.90
916.84	1079.46
917.15	1079.53
917.45	1079.85
917.75	1078.92
918.06	1079.27
918.36	1082.29
918.67	1081.94
918.97	1079.34
919.27	1077.63
919.58	1079.48
919.88	1080.58
920.18	1077.49
920.49	1074.84
920.79	1073.21
921.10	1072.04
921.40	1068.36
921.70	1071.24
922.01	1073.72
922.31	1077.42
922.61	1077.84
922.92	1080.88
923.22	1080.32
923.52	1081.12
923.82	1080.81
924.13	1077.33
924.43	1076.32
924.73	1077.49
925.04	1075.10
925.34	1073.60
925.64	1075.73
925.94	1073.67
926.25	1072.95
926.55	1075.69
926.85	1076.37
927.15	1075.99
927.46	1075.57
927.76	1070.09
928.06	1066.18
928.36	1066.56
928.67	1068.74
928.97	1071.73
929.27	1075.36
929.57	1078.12
929.87	1078.36
930.18	1079.29
930.48	1075.57
930.78	1077.07
931.08	1077.47
931.38	1078.21
931.69	1077.25
931.99	1080.25
932.29	1081.47
932.59	1080.46
932.89	1077.42
933.19	1075.99
933.49	1072.06
933.80	1071.50
934.10	1069.25
934.40	1070.96
934.70	1074.19
935.00	1076.18
935.30	1073.11
935.60	1076.74
935.90	1076.27
936.20	1075.08
936.50	1074.54
936.81	1077.70
937.11	1075.08
937.41	1076.27
937.71	1078.31
938.01	1082.71
938.31	1079.08
938.61	1079.95
938.91	1077.51
939.21	1078.59
939.51	1075.59
939.81	1076.88
940.11	1075.69
940.41	1075.13
940.71	1072.08
941.01	1072.43
941.31	1074.75
941.61	1077.51
941.91	1077.51
942.21	1076.72
942.51	1077.68
942.81	1074.47
943.11	1070.54
943.41	1076.13
943.71	1075.64
944.01	1074.24
944.31	1078.24
944.61	1083.69
944.90	1079.76
945.20	1078.71
945.50	1078.21
945.80	1075.34
946.10	1073.51
946.40	1074.52
946.70	1077.28
947.00	1077.18
947.30	1079.24
947.60	1077.93
947.89	1077.70
948.19	1074.26
948.49	1071.61
948.79	1071.52
949.09	1071.22
949.39	1071.73
949.69	1074.12
949.98	1076.60
950.28	1078.71
950.58	1078.05
950.88	1075.78
951.18	1077.33
951.48	1079.53
951.77	1074.12
952.07	1075.57
952.37	1078.59
952.67	1075.57
952.97	1074.91
953.26	1079.78
953.56	1081.19
953.86	1082.71
954.16	1082.03
954.45	1081.75
954.75	1079.03
955.05	1079.38
955.35	1077.21
955.64	1079.81
955.94	1078.71
956.24	1075.99
956.54	1071.90
956.83	1070.75
957.13	1070.68
957.43	1074.12
957.72	1075.83
958.02	1077.00
958.32	1077.16
958.61	1076.97
958.91	1072.53
959.21	1073.04
959.50	1073.51
959.80	1073.18
960.10	1074.75
960.39	1078.43
960.69	1078.68
960.99	1078.00
961.28	1078.64
961.58	1075.01
961.87	1072.78
962.17	1072.25
962.47	1069.88
962.76	1069.04
963.06	1071.05
963.36	1071.26
963.65	1071.05
963.95	1075.66
964.24	1076.79
964.54	1075.71
964.83	1072.76
965.13	1073.07
965.42	1072.29
965.72	1070.23
966.02	1070.16
966.31	1073.07
966.61	1075.38
966.90	1075.85
967.20	1076.39
967.49	1075.55
967.79	1075.34
968.08	1072.97
968.38	1072.01
968.67	1076.25
968.97	1076.39
969.26	1075.20
969.56	1075.36
969.85	1073.11
970.15	1073.74
970.44	1074.94
970.74	1077.79
971.03	1076.67
971.32	1082.22
971.62	1077.44
971.91	1076.95
972.21	1074.26
972.50	1075.36
972.80	1072.76
973.09	1072.88
973.38	1075.94
973.68	1076.48
973.97	1076.11
974.27	1076.58
974.56	1076.53
974.85	1072.78
975.15	1072.06
975.44	1075.38
975.73	1076.62
976.03	1076.37
976.32	1079.67
976.61	1080.16
976.91	1076.55
977.20	1073.28
977.49	1074.68
977.79	1072.64
978.08	1074.66
978.37	1075.38
978.67	1076.83
978.96	1076.20
979.25	1078.33
979.55	1079.01
979.84	1082.03
980.13	1082.26
980.42	1084.11
980.72	1082.52
981.01	1081.51
981.30	1079.36
981.59	1080.98
981.89	1078.71
982.18	1079.13
982.47	1078.64
982.76	1078.40
983.06	1075.13
983.35	1076.58
983.64	1076.25
983.93	1076.93
984.22	1080.39
984.52	1081.91
984.81	1082.52
985.10	1082.36
985.39	1083.88
985.68	1081.44
985.97	1079.99
986.27	1078.87
986.56	1080.06
986.85	1077.02
987.14	1075.59
987.43	1077.18
987.72	1079.27
988.01	1078.57
988.31	1082.10
988.60	1085.10
988.89	1083.71
989.18	1081.33
989.47	1081.23
989.76	1077.89
990.05	1076.01
990.34	1076.79
990.63	1077.65
990.92	1076.25
991.21	1076.90
991.51	1073.56
991.80	1070.07
992.09	1069.30
992.38	1072.25
992.67	1072.88
992.96	1074.52
993.25	1080.56
993.54	1080.79
993.83	1078.73
994.12	1077.07
994.41	1073.04
994.70	1067.61
994.99	1068.22
995.28	1066.72
995.57	1069.18
995.86	1073.25
996.15	1076.93
996.44	1075.15
996.73	1075.03
997.02	1071.99
997.31	1075.94
997.59	1078.61
997.88	1080.79
998.17	1079.85
998.46	1079.76
998.75	1077.02
999.04	1072.71
999.33	1071.82
999.62	1074.52
999.91	1076.81
1000.20	1077.02
1000.49	1077.07
1000.77	1076.72
1001.06	1077.61
1001.35	1075.80
1001.64	1074.38
1001.93	1072.06
1002.22	1072.48
1002.51	1071.43
1002.79	1073.93
1003.08	1073.63
1003.37	1077.82
1003.66	1077.91
1003.95	1076.93
1004.23	1077.96
1004.52	1078.71
1004.81	1077.16
1005.10	1076.20
1005.39	1077.61
1005.67	1074.42
1005.96	1077.23
1006.25	1076.58
1006.54	1076.13
1006.83	1076.01
1007.11	1076.23
1007.40	1074.33
1007.69	1074.56
1007.97	1078.05
1008.26	1077.49
1008.55	1077.37
1008.84	1077.09
1009.12	1077.86
1009.41	1074.80
1009.70	1074.77
1009.98	1076.20
1010.27	1074.98
1010.56	1074.91
1010.85	1074.66
1011.13	1074.52
1011.42	1075.03
1011.71	1077.58
1011.99	1078.71
1012.28	1079.48
1012.56	1081.56
1012.85	1078.33
1013.14	1078.54
1013.42	1078.10
1013.71	1080.02
1014.00	1079.03
1014.28	1079.08
1014.57	1077.25
1014.85	1077.16
1015.14	1074.00
1015.43	1072.74
1015.71	1075.83
1016.00	1075.52
1016.28	1075.66
1016.57	1078.71
1016.85	1081.44
1017.14	1078.71
1017.43	1077.35
1017.71	1074.12
1018.00	1071.78
1018.28	1070.72
1018.57	1072.11
1018.85	1074.31
1019.14	1074.80
1019.42	1078.73
1019.71	1074.49
1019.99	1074.49
1020.28	1075.17
1020.56	1077.49
1020.85	1073.70
1021.13	1076.11
1021.42	1074.52
1021.70	1073.16
1021.99	1070.75
1022.27	1070.47
1022.55	1065.65
1022.84	1070.56
>>>>>End Processed Spectral Data<<<<<
