SpectraSuite Data File
++++++++++++++++++++++++++++++++++++
Date: Mon Aug 26 10:22:09 PDT 2019
User: corrico
Dark Spectrum Present: No
Reference Spectrum Present: No
Number of Sampled Component Spectra: 1
Spectrometers: USB2+H06089
Integration Time (usec): 2000 (USB2+H06089)
Spectra Averaged: 20 (USB2+H06089)
Boxcar Smoothing: 2 (USB2+H06089)
Correct for Electrical Dark: No (USB2+H06089)
Strobe/Lamp Enabled: No (USB2+H06089)
Correct for Detector Non-linearity: No (USB2+H06089)
Correct for Stray Light: No (USB2+H06089)
Number of Pixels in Processed Spectrum: 2048
>>>>>Begin Processed Spectral Data<<<<<
339.70	1011.93
340.07	1011.93
340.45	984.50
340.82	966.64
341.19	947.75
341.57	924.77
341.94	912.18
342.31	903.33
342.69	897.78
343.06	896.28
343.43	894.81
343.81	896.54
344.18	899.21
344.55	902.67
344.93	903.45
345.30	911.78
345.67	918.68
346.04	924.70
346.42	935.49
346.79	944.06
347.16	950.59
347.54	961.23
347.91	971.51
348.28	979.82
348.65	994.61
349.03	1005.35
349.40	1013.12
349.77	1026.07
350.14	1033.02
350.52	1034.61
350.89	1042.45
351.26	1049.96
351.63	1050.95
352.01	1053.78
352.38	1060.03
352.75	1062.72
353.12	1064.66
353.50	1071.24
353.87	1076.53
354.24	1081.07
354.61	1083.43
354.98	1088.21
355.36	1085.56
355.73	1086.34
356.10	1083.88
356.47	1086.76
356.84	1085.61
357.22	1087.72
357.59	1089.12
357.96	1092.09
358.33	1089.00
358.70	1088.28
359.08	1086.43
359.45	1080.63
359.82	1077.84
360.19	1081.05
360.56	1080.02
360.94	1079.53
361.31	1083.64
361.68	1080.84
362.05	1078.33
362.42	1077.33
362.79	1077.58
363.16	1075.83
363.54	1075.71
363.91	1075.90
364.28	1077.04
364.65	1075.22
365.02	1077.23
365.39	1081.54
365.76	1078.45
366.14	1075.59
366.51	1075.24
366.88	1075.94
367.25	1071.90
367.62	1073.56
367.99	1075.41
368.36	1076.72
368.73	1071.24
369.10	1071.12
369.48	1072.01
369.85	1073.72
370.22	1074.94
370.59	1076.25
370.96	1077.02
371.33	1073.70
371.70	1072.11
372.07	1072.08
372.44	1073.44
372.81	1077.07
373.18	1077.89
373.55	1077.61
373.93	1075.05
374.30	1075.41
374.67	1074.61
375.04	1077.51
375.41	1077.49
375.78	1080.41
376.15	1083.67
376.52	1082.15
376.89	1079.88
377.26	1082.36
377.63	1084.09
378.00	1083.29
378.37	1082.52
378.74	1084.18
379.11	1084.93
379.48	1086.20
379.85	1086.83
380.22	1090.71
380.59	1090.71
380.96	1089.68
381.33	1090.41
381.70	1087.53
382.07	1085.26
382.44	1083.50
382.81	1080.06
383.18	1075.20
383.55	1073.74
383.92	1076.48
384.29	1078.03
384.66	1081.26
385.03	1082.36
385.40	1083.13
385.77	1078.21
386.14	1077.65
386.51	1078.92
386.88	1079.15
387.25	1081.47
387.62	1082.90
387.99	1083.83
388.36	1082.17
388.73	1084.28
389.10	1081.19
389.46	1082.45
389.83	1083.18
390.20	1087.09
390.57	1086.38
390.94	1090.81
391.31	1093.24
391.68	1094.34
392.05	1095.07
392.42	1095.02
392.79	1092.21
393.16	1089.00
393.53	1089.80
393.89	1088.63
394.26	1089.68
394.63	1091.11
395.00	1094.36
395.37	1092.73
395.74	1089.45
396.11	1091.16
396.48	1092.33
396.84	1089.71
397.21	1089.71
397.58	1092.16
397.95	1087.83
398.32	1089.61
398.69	1090.83
399.06	1092.00
399.42	1092.63
399.79	1093.69
400.16	1091.06
400.53	1090.71
400.90	1089.24
401.27	1089.07
401.64	1089.80
402.00	1089.43
402.37	1090.99
402.74	1090.32
403.11	1090.48
403.48	1091.06
403.84	1094.25
404.21	1095.39
404.58	1099.33
404.95	1098.30
405.32	1099.84
405.68	1098.30
406.05	1096.75
406.42	1095.75
406.79	1098.90
407.16	1098.83
407.52	1098.34
407.89	1099.35
408.26	1100.26
408.63	1101.13
408.99	1101.11
409.36	1102.70
409.73	1103.14
410.10	1104.12
410.47	1102.44
410.83	1105.41
411.20	1106.65
411.57	1106.21
411.94	1102.63
412.30	1103.38
412.67	1099.30
413.04	1097.64
413.40	1097.57
413.77	1099.30
414.14	1096.07
414.51	1100.19
414.87	1101.36
415.24	1098.16
415.61	1097.69
415.97	1100.57
416.34	1098.81
416.71	1099.84
417.08	1104.69
417.44	1109.51
417.81	1112.62
418.18	1115.57
418.54	1116.01
418.91	1116.44
419.28	1114.14
419.64	1113.39
420.01	1114.42
420.38	1116.48
420.74	1121.23
421.11	1124.09
421.48	1128.04
421.84	1129.75
422.21	1128.44
422.58	1127.55
422.94	1131.25
423.31	1133.12
423.68	1133.92
424.04	1139.12
424.41	1146.72
424.77	1151.99
425.14	1153.65
425.51	1159.15
425.87	1166.69
426.24	1170.31
426.61	1174.43
426.97	1182.58
427.34	1190.28
427.70	1194.82
428.07	1201.07
428.44	1209.68
428.80	1218.30
429.17	1230.12
429.53	1242.15
429.90	1256.49
430.27	1268.17
430.63	1282.24
431.00	1294.62
431.36	1313.70
431.73	1327.62
432.09	1347.33
432.46	1361.68
432.83	1380.80
433.19	1395.17
433.56	1417.78
433.92	1441.11
434.29	1470.49
434.65	1495.39
435.02	1525.87
435.38	1555.29
435.75	1586.27
436.11	1624.54
436.48	1669.11
436.84	1711.68
437.21	1756.50
437.57	1804.93
437.94	1854.92
438.30	1906.16
438.67	1970.05
439.03	2032.83
439.40	2103.74
439.76	2172.34
440.13	2245.81
440.49	2320.78
440.86	2400.92
441.22	2484.29
441.59	2576.77
441.95	2677.39
442.32	2783.27
442.68	2905.66
443.05	3033.15
443.41	3161.55
443.78	3289.79
444.14	3431.34
444.51	3569.67
444.87	3722.65
445.24	3885.22
445.60	4072.32
445.96	4252.89
446.33	4466.58
446.69	4672.29
447.06	4896.73
447.42	5124.11
447.79	5367.41
448.15	5627.70
448.51	5904.70
448.88	6222.74
449.24	6527.01
449.61	6877.34
449.97	7239.30
450.33	7622.07
450.70	7976.08
451.06	8412.84
451.43	8829.39
451.79	9290.31
452.15	9782.83
452.52	10331.62
452.88	10877.27
453.24	11503.15
453.61	12215.77
453.97	12934.71
454.34	13635.28
454.70	14467.51
455.06	15271.95
455.43	16016.40
455.79	16689.59
456.15	17500.75
456.52	18237.57
456.88	19162.74
457.24	20084.00
457.61	21225.48
457.97	22284.33
458.33	23392.74
458.70	24435.29
459.06	25441.83
459.42	26460.27
459.79	27391.92
460.15	28457.97
460.51	29463.69
460.88	30548.41
461.24	31520.88
461.60	32684.93
461.96	33726.58
462.33	34764.35
462.69	35795.64
463.05	36935.43
463.42	37953.87
463.78	38877.07
464.14	39620.17
464.50	40380.30
464.87	40898.19
465.23	41241.15
465.59	41639.56
465.95	41974.11
466.32	42221.70
466.68	42483.65
467.04	42649.31
467.40	42676.35
467.77	42808.82
468.13	42712.67
468.49	42535.14
468.85	42437.89
469.22	42305.25
469.58	42037.47
469.94	41895.94
470.30	41680.42
470.66	41302.03
471.03	40795.19
471.39	40432.33
471.75	39692.63
472.11	38995.74
472.47	38484.73
472.84	37975.99
473.20	37259.50
473.56	36865.71
473.92	36284.48
474.28	35663.44
474.65	35000.98
475.01	34310.47
475.37	33485.37
475.73	32800.34
476.09	32087.60
476.45	31446.48
476.81	30872.91
477.18	30336.55
477.54	29842.67
477.90	29395.19
478.26	28811.64
478.62	28294.53
478.98	27834.28
479.34	27400.23
479.71	26823.45
480.07	26394.71
480.43	25968.50
480.79	25488.83
481.15	24998.54
481.51	24632.69
481.87	24293.68
482.23	23914.87
482.59	23614.25
482.96	23305.30
483.32	23001.94
483.68	22620.15
484.04	22261.47
484.40	21842.84
484.76	21414.33
485.12	20950.25
485.48	20510.44
485.84	20012.31
486.20	19558.31
486.56	19117.36
486.92	18718.67
487.28	18320.47
487.64	17944.40
488.00	17554.30
488.37	17164.30
488.73	16728.04
489.09	16261.81
489.45	15818.42
489.81	15375.89
490.17	14938.21
490.53	14539.38
490.89	14141.68
491.25	13728.67
491.61	13324.81
491.97	12917.02
492.33	12513.00
492.69	12157.89
493.05	11833.70
493.41	11508.23
493.77	11190.50
494.13	10898.52
494.49	10582.73
494.85	10288.39
495.21	10013.37
495.57	9754.11
495.93	9480.64
496.29	9226.79
496.64	8998.96
497.00	8746.09
497.36	8488.91
497.72	8240.00
498.08	8024.18
498.44	7784.97
498.80	7572.97
499.16	7381.98
499.52	7191.60
499.88	7013.67
500.24	6843.00
500.60	6682.53
500.96	6530.33
501.32	6375.48
501.68	6205.67
502.03	6038.89
502.39	5873.86
502.75	5695.55
503.11	5532.98
503.47	5394.82
503.83	5261.41
504.19	5128.37
504.55	5017.31
504.91	4909.95
505.26	4783.68
505.62	4666.70
505.98	4559.81
506.34	4438.43
506.70	4312.09
507.06	4205.36
507.42	4097.90
507.78	3996.37
508.13	3901.77
508.49	3826.35
508.85	3746.47
509.21	3662.12
509.57	3586.10
509.93	3503.92
510.28	3413.25
510.64	3331.57
511.00	3256.67
511.36	3175.48
511.72	3106.80
512.07	3049.34
512.43	2985.80
512.79	2926.14
513.15	2866.83
513.51	2806.14
513.86	2742.01
514.22	2687.33
514.58	2630.13
514.94	2578.94
515.30	2533.40
515.65	2496.18
516.01	2454.82
516.37	2417.70
516.73	2385.54
517.08	2347.81
517.44	2304.05
517.80	2267.75
518.16	2234.13
518.51	2199.94
518.87	2173.54
519.23	2142.50
519.59	2111.89
519.94	2076.13
520.30	2045.86
520.66	2010.15
521.01	1983.96
521.37	1955.63
521.73	1928.32
522.09	1899.16
522.44	1875.45
522.80	1849.49
523.16	1829.22
523.51	1808.27
523.87	1786.39
524.23	1765.89
524.58	1747.19
524.94	1724.53
525.30	1703.82
525.65	1683.76
526.01	1662.48
526.37	1642.19
526.72	1623.61
527.08	1608.32
527.44	1590.44
527.79	1579.56
528.15	1563.34
528.51	1547.80
528.86	1530.20
529.22	1522.03
529.58	1504.47
529.93	1491.67
530.29	1479.80
530.65	1470.02
531.00	1450.50
531.36	1441.37
531.71	1428.31
532.07	1417.87
532.43	1403.55
532.78	1399.01
533.14	1386.37
533.49	1379.44
533.85	1370.27
534.21	1362.31
534.56	1350.89
534.92	1345.36
535.27	1339.68
535.63	1332.40
535.98	1325.91
536.34	1319.27
536.69	1307.56
537.05	1298.41
537.41	1291.58
537.76	1286.59
538.12	1281.63
538.47	1280.41
538.83	1274.73
539.18	1267.80
539.54	1261.67
539.89	1257.64
540.25	1251.74
540.60	1250.38
540.96	1248.14
541.31	1245.17
541.67	1241.33
542.02	1238.05
542.38	1233.67
542.73	1230.58
543.09	1226.14
543.44	1224.24
543.80	1220.36
544.15	1212.91
544.51	1207.22
544.86	1202.01
545.22	1198.24
545.57	1196.95
545.93	1194.26
546.28	1192.83
546.64	1192.50
546.99	1191.66
547.35	1188.50
547.70	1186.68
548.05	1186.49
548.41	1185.39
548.76	1183.33
549.12	1179.04
549.47	1177.90
549.83	1170.85
550.18	1166.48
550.53	1160.04
550.89	1155.83
551.24	1153.16
551.60	1152.99
551.95	1152.97
552.30	1151.64
552.66	1153.04
553.01	1151.24
553.37	1148.27
553.72	1143.09
554.07	1143.61
554.43	1139.37
554.78	1135.63
555.13	1135.53
555.49	1138.25
555.84	1135.86
556.19	1135.09
556.55	1136.35
556.90	1133.17
557.26	1129.40
557.61	1125.91
557.96	1124.74
558.32	1121.51
558.67	1124.09
559.02	1121.84
559.37	1121.07
559.73	1122.19
560.08	1123.06
560.43	1124.02
560.79	1124.44
561.14	1123.53
561.49	1123.69
561.85	1122.75
562.20	1120.13
562.55	1120.84
562.90	1121.80
563.26	1119.13
563.61	1116.62
563.96	1116.30
564.32	1114.28
564.67	1113.23
565.02	1114.84
565.37	1116.88
565.73	1113.23
566.08	1110.72
566.43	1108.06
566.78	1106.14
567.14	1107.24
567.49	1107.80
567.84	1111.24
568.19	1110.72
568.54	1111.15
568.90	1111.33
569.25	1111.85
569.60	1108.88
569.95	1109.39
570.31	1107.40
570.66	1103.82
571.01	1103.77
571.36	1102.18
571.71	1101.95
572.06	1099.63
572.42	1098.18
572.77	1094.90
573.12	1094.79
573.47	1094.83
573.82	1095.98
574.18	1094.20
574.53	1095.91
574.88	1095.00
575.23	1091.58
575.58	1095.67
575.93	1097.45
576.28	1098.30
576.64	1102.18
576.99	1104.36
577.34	1101.43
577.69	1099.09
578.04	1099.70
578.39	1096.85
578.74	1099.26
579.09	1098.41
579.44	1100.54
579.80	1098.93
580.15	1096.87
580.50	1095.93
580.85	1095.96
581.20	1095.89
581.55	1096.35
581.90	1099.14
582.25	1097.80
582.60	1096.45
582.95	1094.48
583.30	1091.06
583.65	1090.69
584.00	1091.65
584.35	1088.16
584.71	1088.79
585.06	1089.78
585.41	1086.43
585.76	1086.94
586.11	1088.21
586.46	1088.84
586.81	1089.61
587.16	1095.18
587.51	1093.22
587.86	1095.56
588.21	1091.51
588.56	1089.64
588.91	1084.18
589.26	1084.91
589.61	1085.75
589.96	1091.53
590.31	1092.23
590.66	1093.43
591.01	1092.12
591.36	1093.80
591.71	1090.34
592.06	1087.67
592.41	1092.42
592.76	1097.15
593.10	1092.40
593.45	1093.57
593.80	1096.75
594.15	1094.13
594.50	1090.22
594.85	1090.83
595.20	1092.61
595.55	1091.63
595.90	1087.74
596.25	1085.00
596.60	1083.79
596.95	1079.90
597.30	1082.69
597.64	1094.25
597.99	1096.47
598.34	1095.21
598.69	1097.45
599.04	1093.90
599.39	1087.67
599.74	1086.38
600.09	1088.58
600.44	1086.43
600.78	1087.88
601.13	1084.84
601.48	1084.42
601.83	1082.66
602.18	1084.74
602.53	1085.00
602.88	1085.61
603.22	1090.03
603.57	1090.41
603.92	1089.45
604.27	1089.31
604.62	1088.82
604.97	1085.00
605.31	1086.41
605.66	1086.10
606.01	1086.22
606.36	1085.94
606.71	1085.68
607.05	1084.09
607.40	1084.14
607.75	1083.57
608.10	1083.34
608.44	1084.18
608.79	1085.68
609.14	1086.27
609.49	1086.66
609.84	1088.26
610.18	1086.43
610.53	1087.34
610.88	1086.92
611.23	1084.28
611.57	1081.33
611.92	1083.74
612.27	1081.70
612.62	1085.82
612.96	1090.92
613.31	1093.10
613.66	1090.24
614.00	1089.68
614.35	1085.68
614.70	1081.82
615.05	1079.95
615.39	1081.51
615.74	1087.95
616.09	1088.77
616.43	1086.41
616.78	1089.43
617.13	1092.98
617.47	1087.13
617.82	1085.00
618.17	1090.64
618.51	1089.03
618.86	1085.28
619.21	1087.76
619.55	1087.74
619.90	1083.97
620.25	1083.55
620.59	1087.67
620.94	1085.56
621.29	1090.03
621.63	1089.61
621.98	1089.19
622.32	1083.60
622.67	1081.70
623.02	1081.00
623.36	1082.59
623.71	1082.85
624.05	1082.92
624.40	1085.17
624.75	1081.91
625.09	1082.15
625.44	1082.10
625.78	1080.84
626.13	1079.69
626.48	1078.59
626.82	1077.79
627.17	1077.33
627.51	1077.98
627.86	1079.46
628.20	1082.29
628.55	1083.04
628.89	1083.04
629.24	1085.75
629.58	1085.26
629.93	1083.83
630.28	1082.57
630.62	1082.43
630.97	1079.17
631.31	1078.19
631.66	1081.21
632.00	1084.72
632.35	1082.26
632.69	1085.77
633.04	1086.36
633.38	1080.34
633.73	1078.47
634.07	1082.57
634.42	1083.48
634.76	1084.58
635.11	1087.04
635.45	1085.66
635.79	1085.59
636.14	1081.19
636.48	1079.76
636.83	1079.83
637.17	1083.60
637.52	1082.22
637.86	1084.53
638.21	1087.88
638.55	1088.86
638.89	1088.09
639.24	1085.47
639.58	1087.67
639.93	1087.30
640.27	1085.89
640.61	1084.89
640.96	1088.09
641.30	1084.91
641.65	1080.86
641.99	1080.39
642.33	1078.85
642.68	1078.05
643.02	1076.01
643.37	1080.91
643.71	1083.53
644.05	1083.74
644.40	1084.84
644.74	1089.36
645.08	1085.80
645.43	1082.54
645.77	1081.75
646.11	1083.01
646.46	1081.54
646.80	1081.14
647.14	1080.16
647.49	1081.09
647.83	1076.69
648.17	1074.00
648.52	1074.96
648.86	1078.10
649.20	1079.41
649.55	1085.00
649.89	1087.86
650.23	1089.96
650.57	1088.04
650.92	1085.82
651.26	1081.12
651.60	1080.63
651.95	1079.03
652.29	1082.43
652.63	1083.43
652.97	1086.62
653.32	1087.32
653.66	1087.09
654.00	1085.07
654.34	1083.97
654.69	1082.10
655.03	1081.51
655.37	1082.57
655.71	1083.64
656.05	1082.29
656.40	1082.47
656.74	1083.86
657.08	1082.59
657.42	1081.68
657.76	1083.25
658.11	1085.56
658.45	1083.64
658.79	1081.66
659.13	1082.73
659.47	1079.76
659.82	1076.46
660.16	1076.27
660.50	1078.43
660.84	1080.16
661.18	1083.71
661.52	1083.86
661.87	1084.21
662.21	1085.42
662.55	1083.22
662.89	1086.59
663.23	1088.40
663.57	1088.44
663.91	1088.70
664.25	1089.22
664.60	1086.31
664.94	1084.11
665.28	1082.66
665.62	1081.19
665.96	1079.78
666.30	1078.89
666.64	1081.63
666.98	1088.63
667.32	1088.04
667.66	1089.75
668.01	1089.66
668.35	1087.18
668.69	1081.68
669.03	1083.18
669.37	1081.09
669.71	1082.69
670.05	1084.35
670.39	1085.38
670.73	1085.82
671.07	1086.03
671.41	1082.47
671.75	1084.89
672.09	1087.20
672.43	1082.83
672.77	1084.86
673.11	1089.52
673.45	1084.21
673.79	1080.60
674.13	1082.71
674.47	1080.77
674.81	1078.10
675.15	1080.06
675.49	1080.79
675.83	1079.53
676.17	1081.44
676.51	1081.37
676.85	1081.73
677.19	1082.05
677.53	1083.39
677.87	1082.78
678.21	1085.59
678.55	1082.45
678.89	1081.37
679.23	1081.82
679.57	1080.25
679.90	1076.74
680.24	1080.51
680.58	1083.13
680.92	1083.20
681.26	1084.35
681.60	1085.31
681.94	1083.64
682.28	1079.15
682.62	1079.81
682.96	1081.16
683.29	1079.85
683.63	1080.23
683.97	1079.85
684.31	1079.46
684.65	1077.77
684.99	1078.54
685.33	1077.61
685.67	1081.28
686.00	1079.99
686.34	1079.29
686.68	1079.43
687.02	1079.78
687.36	1078.05
687.70	1081.91
688.03	1081.26
688.37	1085.17
688.71	1085.75
689.05	1085.31
689.39	1079.13
689.72	1079.03
690.06	1078.82
690.40	1079.53
690.74	1080.88
691.08	1083.67
691.41	1085.05
691.75	1081.63
692.09	1082.08
692.43	1080.30
692.76	1081.80
693.10	1082.31
693.44	1082.50
693.78	1082.45
694.11	1084.11
694.45	1081.68
694.79	1081.49
695.13	1083.15
695.46	1084.91
695.80	1082.90
696.14	1086.10
696.48	1087.88
696.81	1087.11
697.15	1085.42
697.49	1087.79
697.82	1082.19
698.16	1080.11
698.50	1080.02
698.83	1077.33
699.17	1075.27
699.51	1079.46
699.84	1079.60
700.18	1076.23
700.52	1082.31
700.85	1081.42
701.19	1082.17
701.53	1080.65
701.86	1084.56
702.20	1082.15
702.54	1087.06
702.87	1085.73
703.21	1087.74
703.55	1088.26
703.88	1087.76
704.22	1083.93
704.55	1083.83
704.89	1081.58
705.23	1078.85
705.56	1077.84
705.90	1077.70
706.23	1076.32
706.57	1076.83
706.91	1077.72
707.24	1080.44
707.58	1087.65
707.91	1086.71
708.25	1090.50
708.58	1089.22
708.92	1086.15
709.26	1080.32
709.59	1078.59
709.93	1073.58
710.26	1073.56
710.60	1076.46
710.93	1073.53
711.27	1080.70
711.60	1083.22
711.94	1085.63
712.27	1082.97
712.61	1087.58
712.94	1084.79
713.28	1083.60
713.61	1082.26
713.95	1081.80
714.28	1082.64
714.62	1081.82
714.95	1082.36
715.29	1080.41
715.62	1082.33
715.96	1081.70
716.29	1080.84
716.63	1083.20
716.96	1082.33
717.29	1082.54
717.63	1081.30
717.96	1083.64
718.30	1079.76
718.63	1081.89
718.97	1079.71
719.30	1081.19
719.63	1081.16
719.97	1083.20
720.30	1083.15
720.64	1083.22
720.97	1079.92
721.30	1079.13
721.64	1078.57
721.97	1076.06
722.31	1076.86
722.64	1080.39
722.97	1082.85
723.31	1084.65
723.64	1086.38
723.97	1083.55
724.31	1082.94
724.64	1084.60
724.98	1082.19
725.31	1086.06
725.64	1088.86
725.98	1085.82
726.31	1081.49
726.64	1084.53
726.97	1081.61
727.31	1080.74
727.64	1081.28
727.97	1082.92
728.31	1078.82
728.64	1081.21
728.97	1082.71
729.31	1085.68
729.64	1084.42
729.97	1085.28
730.30	1082.66
730.64	1081.40
730.97	1080.41
731.30	1080.30
731.63	1082.08
731.97	1081.12
732.30	1086.36
732.63	1084.65
732.96	1087.76
733.30	1087.27
733.63	1088.28
733.96	1080.13
734.29	1078.47
734.63	1076.37
734.96	1078.24
735.29	1078.94
735.62	1081.61
735.95	1082.43
736.29	1082.33
736.62	1081.56
736.95	1076.41
737.28	1078.10
737.61	1081.91
737.94	1077.86
738.28	1078.54
738.61	1082.59
738.94	1081.73
739.27	1077.91
739.60	1080.70
739.93	1079.85
740.27	1078.52
740.60	1076.41
740.93	1079.41
741.26	1079.64
741.59	1079.34
741.92	1080.88
742.25	1082.47
742.58	1078.50
742.91	1077.47
743.25	1075.38
743.58	1075.64
743.91	1074.61
744.24	1076.67
744.57	1078.40
744.90	1080.48
745.23	1078.80
745.56	1079.31
745.89	1080.74
746.22	1080.86
746.55	1082.19
746.88	1082.54
747.21	1083.74
747.54	1081.87
747.87	1082.01
748.20	1078.38
748.53	1077.75
748.87	1076.53
749.20	1079.27
749.53	1078.96
749.86	1081.94
750.19	1083.25
750.52	1082.03
750.85	1079.88
751.18	1079.53
751.51	1079.29
751.84	1080.37
752.16	1082.15
752.49	1081.96
752.82	1083.57
753.15	1080.51
753.48	1081.40
753.81	1080.77
754.14	1080.74
754.47	1078.99
754.80	1080.41
755.13	1081.66
755.46	1082.76
755.79	1084.56
756.12	1085.59
756.45	1083.39
756.78	1078.50
757.11	1076.13
757.43	1076.34
757.76	1073.84
758.09	1075.20
758.42	1079.20
758.75	1082.83
759.08	1079.90
759.41	1081.87
759.74	1081.40
760.07	1082.15
760.39	1079.38
760.72	1081.70
761.05	1080.39
761.38	1081.98
761.71	1081.40
762.04	1084.07
762.36	1084.35
762.69	1084.72
763.02	1085.54
763.35	1083.53
763.68	1079.64
764.01	1075.71
764.33	1078.10
764.66	1075.85
764.99	1077.61
765.32	1078.45
765.65	1081.47
765.97	1078.80
766.30	1080.60
766.63	1079.81
766.96	1079.99
767.28	1078.96
767.61	1078.43
767.94	1075.01
768.27	1072.71
768.59	1073.21
768.92	1069.81
769.25	1069.95
769.58	1073.35
769.90	1074.10
770.23	1072.25
770.56	1077.18
770.89	1079.13
771.21	1076.86
771.54	1079.55
771.87	1083.97
772.19	1080.20
772.52	1078.57
772.85	1081.80
773.17	1080.18
773.50	1078.45
773.83	1079.90
774.15	1078.45
774.48	1074.26
774.81	1069.34
775.13	1070.89
775.46	1071.71
775.79	1071.78
776.11	1073.63
776.44	1079.50
776.77	1077.96
777.09	1077.04
777.42	1076.83
777.74	1078.52
778.07	1079.69
778.40	1079.43
778.72	1080.98
779.05	1082.54
779.37	1081.89
779.70	1077.51
780.03	1074.31
780.35	1073.53
780.68	1072.48
781.00	1070.42
781.33	1071.61
781.65	1076.32
781.98	1079.41
782.31	1080.63
782.63	1082.12
782.96	1082.10
783.28	1078.57
783.61	1077.35
783.93	1075.76
784.26	1073.42
784.58	1072.81
784.91	1075.31
785.23	1073.60
785.56	1071.75
785.88	1074.52
786.21	1076.27
786.53	1074.87
786.86	1070.87
787.18	1074.87
787.51	1072.90
787.83	1071.01
788.16	1071.61
788.48	1078.21
788.81	1076.27
789.13	1078.89
789.46	1078.64
789.78	1080.37
790.10	1079.50
790.43	1082.01
790.75	1082.17
791.08	1083.53
791.40	1082.94
791.73	1080.63
792.05	1077.51
792.37	1074.49
792.70	1077.79
793.02	1074.40
793.35	1073.46
793.67	1073.32
793.99	1073.77
794.32	1068.74
794.64	1066.96
794.96	1070.80
795.29	1073.37
795.61	1073.67
795.93	1076.13
796.26	1079.31
796.58	1075.71
796.91	1071.50
797.23	1074.19
797.55	1075.48
797.87	1076.53
798.20	1078.94
798.52	1081.42
798.84	1078.33
799.17	1077.72
799.49	1078.80
799.81	1079.03
800.14	1080.93
800.46	1083.53
800.78	1082.43
801.10	1079.22
801.43	1077.35
801.75	1076.60
802.07	1076.48
802.40	1076.11
802.72	1078.87
803.04	1077.98
803.36	1079.10
803.69	1077.89
804.01	1078.03
804.33	1076.41
804.65	1079.03
804.97	1076.34
805.30	1076.90
805.62	1075.97
805.94	1077.44
806.26	1076.25
806.58	1077.79
806.91	1079.15
807.23	1080.77
807.55	1078.38
807.87	1077.51
808.19	1074.05
808.52	1069.93
808.84	1074.56
809.16	1076.08
809.48	1077.84
809.80	1083.83
810.12	1085.77
810.44	1080.56
810.77	1079.81
811.09	1078.96
811.41	1074.56
811.73	1074.68
812.05	1077.89
812.37	1080.30
812.69	1079.67
813.01	1082.94
813.33	1081.73
813.66	1081.26
813.98	1080.48
814.30	1079.71
814.62	1079.31
814.94	1080.23
815.26	1076.74
815.58	1076.32
815.90	1077.35
816.22	1075.92
816.54	1080.53
816.86	1081.33
817.18	1077.58
817.50	1077.65
817.82	1074.63
818.14	1071.01
818.46	1069.74
818.78	1073.49
819.10	1074.54
819.42	1077.04
819.74	1078.99
820.06	1077.75
820.38	1076.53
820.70	1075.55
821.02	1075.52
821.34	1073.44
821.66	1076.76
821.98	1077.23
822.30	1075.08
822.62	1074.49
822.94	1072.97
823.26	1073.39
823.58	1073.70
823.90	1074.68
824.22	1077.11
824.54	1078.05
824.86	1077.77
825.18	1078.00
825.50	1079.60
825.81	1079.81
826.13	1080.37
826.45	1079.22
826.77	1078.71
827.09	1077.25
827.41	1074.77
827.73	1077.02
828.05	1077.42
828.36	1078.54
828.68	1079.29
829.00	1078.92
829.32	1073.95
829.64	1073.25
829.96	1072.18
830.28	1075.27
830.59	1077.75
830.91	1080.65
831.23	1081.66
831.55	1080.77
831.87	1077.07
832.19	1078.50
832.50	1078.12
832.82	1077.72
833.14	1078.54
833.46	1079.76
833.78	1079.06
834.09	1082.92
834.41	1082.54
834.73	1083.64
835.05	1086.01
835.36	1085.00
835.68	1081.23
836.00	1082.05
836.32	1079.55
836.63	1078.10
836.95	1079.99
837.27	1077.68
837.59	1076.93
837.90	1079.76
838.22	1076.83
838.54	1074.28
838.85	1075.36
839.17	1075.24
839.49	1074.82
839.80	1074.21
840.12	1075.22
840.44	1077.58
840.76	1074.87
841.07	1074.38
841.39	1077.07
841.71	1078.59
842.02	1079.41
842.34	1082.61
842.65	1082.52
842.97	1082.15
843.29	1078.94
843.60	1074.12
843.92	1075.24
844.24	1076.27
844.55	1075.59
844.87	1074.07
845.18	1078.14
845.50	1076.76
845.82	1072.85
846.13	1075.52
846.45	1075.78
846.76	1074.68
847.08	1072.81
847.40	1076.55
847.71	1074.17
848.03	1078.07
848.34	1077.70
848.66	1082.10
848.97	1081.07
849.29	1083.27
849.60	1081.84
849.92	1084.28
850.24	1079.64
850.55	1080.74
850.87	1079.43
851.18	1080.30
851.50	1078.12
851.81	1082.26
852.13	1080.34
852.44	1082.45
852.76	1079.71
853.07	1079.78
853.39	1077.56
853.70	1077.35
854.01	1074.19
854.33	1074.87
854.64	1078.78
854.96	1079.62
855.27	1081.07
855.59	1082.45
855.90	1084.74
856.22	1079.95
856.53	1079.76
856.84	1080.11
857.16	1079.06
857.47	1076.76
857.79	1076.32
858.10	1075.57
858.41	1073.46
858.73	1072.08
859.04	1073.70
859.36	1072.62
859.67	1073.04
859.98	1074.59
860.30	1073.95
860.61	1072.83
860.92	1072.85
861.24	1072.90
861.55	1072.57
861.87	1074.12
862.18	1076.08
862.49	1079.53
862.81	1076.55
863.12	1076.62
863.43	1076.11
863.74	1074.98
864.06	1073.56
864.37	1076.27
864.68	1078.28
865.00	1080.48
865.31	1081.66
865.62	1082.38
865.94	1081.91
866.25	1083.69
866.56	1083.67
866.87	1082.66
867.19	1082.50
867.50	1080.98
867.81	1078.54
868.12	1079.57
868.44	1080.93
868.75	1082.47
869.06	1086.52
869.37	1084.09
869.68	1081.80
870.00	1080.27
870.31	1078.33
870.62	1075.99
870.93	1076.90
871.24	1081.00
871.56	1079.55
871.87	1077.09
872.18	1076.23
872.49	1074.96
872.80	1069.93
873.12	1072.62
873.43	1073.63
873.74	1072.06
874.05	1074.07
874.36	1074.33
874.67	1070.96
874.98	1072.06
875.29	1073.74
875.61	1072.64
875.92	1072.04
876.23	1074.84
876.54	1075.73
876.85	1073.91
877.16	1073.32
877.47	1073.60
877.78	1070.68
878.09	1072.92
878.40	1076.95
878.72	1079.01
879.03	1080.88
879.34	1083.79
879.65	1083.43
879.96	1084.16
880.27	1080.79
880.58	1080.25
880.89	1080.41
881.20	1077.72
881.51	1074.38
881.82	1076.76
882.13	1076.37
882.44	1072.69
882.75	1073.11
883.06	1073.37
883.37	1071.94
883.68	1072.67
883.99	1076.51
884.30	1076.41
884.61	1076.69
884.92	1078.64
885.23	1078.10
885.54	1077.89
885.85	1080.02
886.16	1080.11
886.47	1079.55
886.78	1079.83
887.08	1076.65
887.39	1077.14
887.70	1080.25
888.01	1080.56
888.32	1079.81
888.63	1084.53
888.94	1080.09
889.25	1077.56
889.56	1079.71
889.87	1081.00
890.17	1076.79
890.48	1077.70
890.79	1080.39
891.10	1079.06
891.41	1077.98
891.72	1079.62
892.03	1080.63
892.34	1078.26
892.64	1076.90
892.95	1076.44
893.26	1074.52
893.57	1075.94
893.88	1075.85
894.18	1075.24
894.49	1077.93
894.80	1081.35
895.11	1081.30
895.42	1082.19
895.72	1085.03
896.03	1083.20
896.34	1080.84
896.65	1081.07
896.96	1080.74
897.26	1080.63
897.57	1080.02
897.88	1081.98
898.19	1079.97
898.49	1077.79
898.80	1076.18
899.11	1076.72
899.41	1076.60
899.72	1075.57
900.03	1082.29
900.34	1083.27
900.64	1084.37
900.95	1083.79
901.26	1085.89
901.56	1082.92
901.87	1079.57
902.18	1077.49
902.48	1077.61
902.79	1077.23
903.10	1073.51
903.40	1072.76
903.71	1074.84
904.02	1076.41
904.32	1075.45
904.63	1076.39
904.94	1078.75
905.24	1077.51
905.55	1074.59
905.85	1075.01
906.16	1075.59
906.47	1076.27
906.77	1074.82
907.08	1078.28
907.38	1076.62
907.69	1073.30
908.00	1072.29
908.30	1072.29
908.61	1072.13
908.91	1072.67
909.22	1075.38
909.52	1075.90
909.83	1077.79
910.14	1071.26
910.44	1071.75
910.75	1073.44
911.05	1074.70
911.36	1074.98
911.66	1074.96
911.97	1077.61
912.27	1076.93
912.58	1075.38
912.88	1072.69
913.19	1076.48
913.49	1073.53
913.80	1075.38
914.10	1074.47
914.41	1076.11
914.71	1075.99
915.01	1080.02
915.32	1077.96
915.62	1081.19
915.93	1083.18
916.23	1082.92
916.54	1078.89
916.84	1077.04
917.15	1075.99
917.45	1074.61
917.75	1077.18
918.06	1077.21
918.36	1079.55
918.67	1079.31
918.97	1079.57
919.27	1073.53
919.58	1073.86
919.88	1074.12
920.18	1073.39
920.49	1073.65
920.79	1078.28
921.10	1077.68
921.40	1079.62
921.70	1077.21
922.01	1077.61
922.31	1077.18
922.61	1079.34
922.92	1078.17
923.22	1080.23
923.52	1078.80
923.82	1080.18
924.13	1081.37
924.43	1082.29
924.73	1081.56
925.04	1084.93
925.34	1087.23
925.64	1085.14
925.94	1083.90
926.25	1084.65
926.55	1080.93
926.85	1073.49
927.15	1075.50
927.46	1075.52
927.76	1076.58
928.06	1080.53
928.36	1086.03
928.67	1084.86
928.97	1083.76
929.27	1084.74
929.57	1081.61
929.87	1079.24
930.18	1078.59
930.48	1079.01
930.78	1076.76
931.08	1077.30
931.38	1079.17
931.69	1079.64
931.99	1078.68
932.29	1076.60
932.59	1077.65
932.89	1074.89
933.19	1076.30
933.49	1075.50
933.80	1076.25
934.10	1076.15
934.40	1079.85
934.70	1077.82
935.00	1077.54
935.30	1076.81
935.60	1076.58
935.90	1075.48
936.20	1075.20
936.50	1073.44
936.81	1077.40
937.11	1079.69
937.41	1079.38
937.71	1081.28
938.01	1083.11
938.31	1083.67
938.61	1080.46
938.91	1076.86
939.21	1074.38
939.51	1076.20
939.81	1073.67
940.11	1073.32
940.41	1075.15
940.71	1076.48
941.01	1075.76
941.31	1075.57
941.61	1076.44
941.91	1080.74
942.21	1080.88
942.51	1082.08
942.81	1083.25
943.11	1083.27
943.41	1079.92
943.71	1080.53
944.01	1079.67
944.31	1076.88
944.61	1074.07
944.90	1074.61
945.20	1071.33
945.50	1069.13
945.80	1069.06
946.10	1070.35
946.40	1066.23
946.70	1068.31
947.00	1072.29
947.30	1075.66
947.60	1075.01
947.89	1078.31
948.19	1082.33
948.49	1081.56
948.79	1080.18
949.09	1079.90
949.39	1078.40
949.69	1073.72
949.98	1073.23
950.28	1072.15
950.58	1073.88
950.88	1075.17
951.18	1076.34
951.48	1077.02
951.77	1077.84
952.07	1078.00
952.37	1078.47
952.67	1079.36
952.97	1078.38
953.26	1078.59
953.56	1077.28
953.86	1077.72
954.16	1075.99
954.45	1074.89
954.75	1076.15
955.05	1076.90
955.35	1075.03
955.64	1077.28
955.94	1076.27
956.24	1078.96
956.54	1079.78
956.83	1075.52
957.13	1072.90
957.43	1073.91
957.72	1073.58
958.02	1075.80
958.32	1083.25
958.61	1084.28
958.91	1086.10
959.21	1084.28
959.50	1080.86
959.80	1075.85
960.10	1075.59
960.39	1072.55
960.69	1073.60
960.99	1074.80
961.28	1079.34
961.58	1079.20
961.87	1080.63
962.17	1077.72
962.47	1077.84
962.76	1078.17
963.06	1078.21
963.36	1080.63
963.65	1082.50
963.95	1080.67
964.24	1077.58
964.54	1076.67
964.83	1073.86
965.13	1070.21
965.42	1071.54
965.72	1071.45
966.02	1070.75
966.31	1074.94
966.61	1076.67
966.90	1078.31
967.20	1077.96
967.49	1078.40
967.79	1076.39
968.08	1076.65
968.38	1078.89
968.67	1081.84
968.97	1083.39
969.26	1084.67
969.56	1084.89
969.85	1080.91
970.15	1079.08
970.44	1080.91
970.74	1078.94
971.03	1079.64
971.32	1078.14
971.62	1079.22
971.91	1073.07
972.21	1070.51
972.50	1068.52
972.80	1071.85
973.09	1070.72
973.38	1073.28
973.68	1074.66
973.97	1076.74
974.27	1077.70
974.56	1077.21
974.85	1080.23
975.15	1079.13
975.44	1077.96
975.73	1078.05
976.03	1080.74
976.32	1078.99
976.61	1080.86
976.91	1082.61
977.20	1078.59
977.49	1077.91
977.79	1076.88
978.08	1078.94
978.37	1077.09
978.67	1077.42
978.96	1076.48
979.25	1079.48
979.55	1077.35
979.84	1080.41
980.13	1079.60
980.42	1080.48
980.72	1078.12
981.01	1077.91
981.30	1076.48
981.59	1080.02
981.89	1080.58
982.18	1079.38
982.47	1081.47
982.76	1075.97
983.06	1073.28
983.35	1069.91
983.64	1072.76
983.93	1071.87
984.22	1076.18
984.52	1078.66
984.81	1080.79
985.10	1077.11
985.39	1074.52
985.68	1073.95
985.97	1073.37
986.27	1073.58
986.56	1076.55
986.85	1080.04
987.14	1081.73
987.43	1078.17
987.72	1077.61
988.01	1077.30
988.31	1077.16
988.60	1074.00
988.89	1080.39
989.18	1083.95
989.47	1082.22
989.76	1084.25
990.05	1088.12
990.34	1086.83
990.63	1083.88
990.92	1087.62
991.21	1083.86
991.51	1083.34
991.80	1080.72
992.09	1080.63
992.38	1079.15
992.67	1076.58
992.96	1073.58
993.25	1074.26
993.54	1075.85
993.83	1074.47
994.12	1074.82
994.41	1075.22
994.70	1075.69
994.99	1074.00
995.28	1072.97
995.57	1077.68
995.86	1078.14
996.15	1075.50
996.44	1072.39
996.73	1075.24
997.02	1070.21
997.31	1070.47
997.59	1070.19
997.88	1073.88
998.17	1074.24
998.46	1074.17
998.75	1076.79
999.04	1080.88
999.33	1078.47
999.62	1076.30
999.91	1079.74
1000.20	1076.95
1000.49	1072.76
1000.77	1075.99
1001.06	1074.10
1001.35	1073.95
1001.64	1073.91
1001.93	1076.53
1002.22	1073.42
1002.51	1076.37
1002.79	1072.46
1003.08	1073.07
1003.37	1071.54
1003.66	1076.27
1003.95	1074.35
1004.23	1077.86
1004.52	1080.48
1004.81	1081.23
1005.10	1077.58
1005.39	1077.65
1005.67	1078.61
1005.96	1078.47
1006.25	1076.97
1006.54	1077.51
1006.83	1078.59
1007.11	1075.45
1007.40	1072.64
1007.69	1073.46
1007.97	1073.95
1008.26	1074.14
1008.55	1075.08
1008.84	1077.00
1009.12	1078.50
1009.41	1079.38
1009.70	1078.43
1009.98	1077.75
1010.27	1077.16
1010.56	1072.62
1010.85	1070.47
1011.13	1069.53
1011.42	1072.78
1011.71	1072.81
1011.99	1077.11
1012.28	1078.87
1012.56	1079.88
1012.85	1079.55
1013.14	1079.50
1013.42	1078.89
1013.71	1075.27
1014.00	1076.15
1014.28	1072.74
1014.57	1072.64
1014.85	1073.42
1015.14	1077.33
1015.43	1075.20
1015.71	1078.00
1016.00	1076.97
1016.28	1079.46
1016.57	1075.80
1016.85	1078.94
1017.14	1080.25
1017.43	1080.23
1017.71	1075.27
1018.00	1073.32
1018.28	1073.77
1018.57	1070.40
1018.85	1070.56
1019.14	1072.11
1019.42	1075.45
1019.71	1075.01
1019.99	1074.03
1020.28	1075.34
1020.56	1075.22
1020.85	1075.13
1021.13	1075.50
1021.42	1077.04
1021.70	1075.64
1021.99	1077.02
1022.27	1078.61
1022.55	1082.50
1022.84	1080.86
>>>>>End Processed Spectral Data<<<<<
