SpectraSuite Data File
++++++++++++++++++++++++++++++++++++
Date: Mon Aug 26 10:22:08 PDT 2019
User: corrico
Dark Spectrum Present: No
Reference Spectrum Present: No
Number of Sampled Component Spectra: 1
Spectrometers: USB2+H06089
Integration Time (usec): 2000 (USB2+H06089)
Spectra Averaged: 20 (USB2+H06089)
Boxcar Smoothing: 2 (USB2+H06089)
Correct for Electrical Dark: No (USB2+H06089)
Strobe/Lamp Enabled: No (USB2+H06089)
Correct for Detector Non-linearity: No (USB2+H06089)
Correct for Stray Light: No (USB2+H06089)
Number of Pixels in Processed Spectrum: 2048
>>>>>Begin Processed Spectral Data<<<<<
339.70	1008.89
340.07	1008.89
340.45	985.01
340.82	965.73
341.19	947.66
341.57	923.83
341.94	913.82
342.31	904.15
342.69	901.43
343.06	896.21
343.43	899.19
343.81	898.13
344.18	901.48
344.55	906.54
344.93	915.06
345.30	921.66
345.67	927.20
346.04	934.90
346.42	942.39
346.79	950.19
347.16	958.57
347.54	968.89
347.91	979.56
348.28	988.08
348.65	998.36
349.03	1005.89
349.40	1016.80
349.77	1024.80
350.14	1035.59
350.52	1041.98
350.89	1051.56
351.26	1056.24
351.63	1059.98
352.01	1062.35
352.38	1065.95
352.75	1065.34
353.12	1070.91
353.50	1071.85
353.87	1072.88
354.24	1073.09
354.61	1076.37
354.98	1075.66
355.36	1080.46
355.73	1080.53
356.10	1086.85
356.47	1089.10
356.84	1090.50
357.22	1089.75
357.59	1094.08
357.96	1092.49
358.33	1092.63
358.70	1089.87
359.08	1086.78
359.45	1083.79
359.82	1080.23
360.19	1076.83
360.56	1077.89
360.94	1078.66
361.31	1077.91
361.68	1078.78
362.05	1083.29
362.42	1081.07
362.79	1082.94
363.16	1083.20
363.54	1080.98
363.91	1077.07
364.28	1079.97
364.65	1079.53
365.02	1079.92
365.39	1079.36
365.76	1076.51
366.14	1072.46
366.51	1069.91
366.88	1067.00
367.25	1069.70
367.62	1074.14
367.99	1074.94
368.36	1075.97
368.73	1077.40
369.10	1074.21
369.48	1069.04
369.85	1073.07
370.22	1072.83
370.59	1075.62
370.96	1076.58
371.33	1079.24
371.70	1075.76
372.07	1075.05
372.44	1073.07
372.81	1072.11
373.18	1074.40
373.55	1079.69
373.93	1081.33
374.30	1082.29
374.67	1082.24
375.04	1082.52
375.41	1077.51
375.78	1078.85
376.15	1079.13
376.52	1080.65
376.89	1081.02
377.26	1082.26
377.63	1081.82
378.00	1081.66
378.37	1083.27
378.74	1081.26
379.11	1078.96
379.48	1078.57
379.85	1079.13
380.22	1079.69
380.59	1081.26
380.96	1084.35
381.33	1085.19
381.70	1083.81
382.07	1080.86
382.44	1080.46
382.81	1080.65
383.18	1078.96
383.55	1078.28
383.92	1081.51
384.29	1081.16
384.66	1081.12
385.03	1080.44
385.40	1079.76
385.77	1078.57
386.14	1078.94
386.51	1080.30
386.88	1081.23
387.25	1083.20
387.62	1084.00
387.99	1087.34
388.36	1085.61
388.73	1086.62
389.10	1088.00
389.46	1086.80
389.83	1086.01
390.20	1084.63
390.57	1083.81
390.94	1081.75
391.31	1081.19
391.68	1079.13
392.05	1080.09
392.42	1081.91
392.79	1086.29
393.16	1090.08
393.53	1089.61
393.89	1092.75
394.26	1091.63
394.63	1087.76
395.00	1088.14
395.37	1089.45
395.74	1086.13
396.11	1087.06
396.48	1087.30
396.84	1086.52
397.21	1085.05
397.58	1088.42
397.95	1088.12
398.32	1089.17
398.69	1089.68
399.06	1091.49
399.42	1092.35
399.79	1092.94
400.16	1094.50
400.53	1093.19
400.90	1093.15
401.27	1090.17
401.64	1090.53
402.00	1087.55
402.37	1086.36
402.74	1090.48
403.11	1093.15
403.48	1093.55
403.84	1095.60
404.21	1095.09
404.58	1090.24
404.95	1088.70
405.32	1089.14
405.68	1088.37
406.05	1090.27
406.42	1094.55
406.79	1096.00
407.16	1094.32
407.52	1098.30
407.89	1097.95
408.26	1096.28
408.63	1094.74
408.99	1096.21
409.36	1093.19
409.73	1092.40
410.10	1087.93
410.47	1090.24
410.83	1090.55
411.20	1092.21
411.57	1095.53
411.94	1100.64
412.30	1098.25
412.67	1099.35
413.04	1099.07
413.40	1100.26
413.77	1100.57
414.14	1102.86
414.51	1108.62
414.87	1107.10
415.24	1105.97
415.61	1106.16
415.97	1105.15
416.34	1100.31
416.71	1105.22
417.08	1107.31
417.44	1105.93
417.81	1110.30
418.18	1113.88
418.54	1111.68
418.91	1111.82
419.28	1113.23
419.64	1110.82
420.01	1111.73
420.38	1113.14
420.74	1113.79
421.11	1119.55
421.48	1124.11
421.84	1123.86
422.21	1130.81
422.58	1136.19
422.94	1139.35
423.31	1140.66
423.68	1143.52
424.04	1143.00
424.41	1145.39
424.77	1143.26
425.14	1146.23
425.51	1152.32
425.87	1159.64
426.24	1163.90
426.61	1171.70
426.97	1182.91
427.34	1190.26
427.70	1196.90
428.07	1204.60
428.44	1216.38
428.80	1221.39
429.17	1229.16
429.53	1239.73
429.90	1253.80
430.27	1261.81
430.63	1271.12
431.00	1288.14
431.36	1305.15
431.73	1316.72
432.09	1335.79
432.46	1355.47
432.83	1371.30
433.19	1389.20
433.56	1410.87
433.92	1436.11
434.29	1464.71
434.65	1492.26
435.02	1518.77
435.38	1554.65
435.75	1587.07
436.11	1623.98
436.48	1667.19
436.84	1714.07
437.21	1761.67
437.57	1807.43
437.94	1860.49
438.30	1912.69
438.67	1968.09
439.03	2025.85
439.40	2097.19
439.76	2167.13
440.13	2243.17
440.49	2325.39
440.86	2407.01
441.22	2494.47
441.59	2587.60
441.95	2687.96
442.32	2790.11
442.68	2908.09
443.05	3026.90
443.41	3147.81
443.78	3277.26
444.14	3411.19
444.51	3547.92
444.87	3717.38
445.24	3891.07
445.60	4077.10
445.96	4276.35
446.33	4491.53
446.69	4688.47
447.06	4904.78
447.42	5126.66
447.79	5353.65
448.15	5617.10
448.51	5897.54
448.88	6222.17
449.24	6523.05
449.61	6870.97
449.97	7222.66
450.33	7596.96
450.70	7943.92
451.06	8386.42
451.43	8805.17
451.79	9268.45
452.15	9762.19
452.52	10313.83
452.88	10870.03
453.24	11499.61
453.61	12200.81
453.97	12918.33
454.34	13606.70
454.70	14406.14
455.06	15226.50
455.43	15977.13
455.79	16656.94
456.15	17481.09
456.52	18238.44
456.88	19138.79
457.24	20056.33
457.61	21188.59
457.97	22254.02
458.33	23342.30
458.70	24383.30
459.06	25389.12
459.42	26414.35
459.79	27343.54
460.15	28406.52
460.51	29431.21
460.88	30543.22
461.24	31509.46
461.60	32658.17
461.96	33724.45
462.33	34741.48
462.69	35772.02
463.05	36899.20
463.42	37922.79
463.78	38848.82
464.14	39616.59
464.50	40347.89
464.87	40875.91
465.23	41219.53
465.59	41630.03
465.95	41943.20
466.32	42182.59
466.68	42431.41
467.04	42598.12
467.40	42615.54
467.77	42736.78
468.13	42673.65
468.49	42531.19
468.85	42416.59
469.22	42256.90
469.58	42000.89
469.94	41857.39
470.30	41613.67
470.66	41280.73
471.03	40822.38
471.39	40449.56
471.75	39734.17
472.11	39031.34
472.47	38501.37
472.84	37974.70
473.20	37258.43
473.56	36851.78
473.92	36285.70
474.28	35662.42
474.65	34989.32
475.01	34302.35
475.37	33479.14
475.73	32785.87
476.09	32071.66
476.45	31420.45
476.81	30877.75
477.18	30299.43
477.54	29823.74
477.90	29355.07
478.26	28786.39
478.62	28246.90
478.98	27823.82
479.34	27381.90
479.71	26829.72
480.07	26388.07
480.43	25953.66
480.79	25479.19
481.15	25006.61
481.51	24616.80
481.87	24308.73
482.23	23960.37
482.59	23624.92
482.96	23301.37
483.32	22998.17
483.68	22583.36
484.04	22216.25
484.40	21794.32
484.76	21364.78
485.12	20910.28
485.48	20480.74
485.84	19979.23
486.20	19548.76
486.56	19106.80
486.92	18720.54
487.28	18330.14
487.64	17942.45
488.00	17565.81
488.37	17174.85
488.73	16736.98
489.09	16273.86
489.45	15847.72
489.81	15389.86
490.17	14950.92
490.53	14549.57
490.89	14130.73
491.25	13710.95
491.61	13303.82
491.97	12897.26
492.33	12493.19
492.69	12140.62
493.05	11809.95
493.41	11499.50
493.77	11187.50
494.13	10876.52
494.49	10586.95
494.85	10301.28
495.21	10024.07
495.57	9765.56
495.93	9500.45
496.29	9243.01
496.64	9005.23
497.00	8742.28
497.36	8484.16
497.72	8253.45
498.08	8029.40
498.44	7796.70
498.80	7582.12
499.16	7392.54
499.52	7194.06
499.88	7007.84
500.24	6835.56
500.60	6677.64
500.96	6522.23
501.32	6366.54
501.68	6193.06
502.03	6025.36
502.39	5861.82
502.75	5681.02
503.11	5527.88
503.47	5395.78
503.83	5263.12
504.19	5131.20
504.55	5008.51
504.91	4894.93
505.26	4773.59
505.62	4657.22
505.98	4544.24
506.34	4438.43
506.70	4317.73
507.06	4207.46
507.42	4099.82
507.78	4004.84
508.13	3909.63
508.49	3827.43
508.85	3750.78
509.21	3670.52
509.57	3585.96
509.93	3503.64
510.28	3413.44
510.64	3332.52
511.00	3253.88
511.36	3176.39
511.72	3106.36
512.07	3048.71
512.43	2983.50
512.79	2924.80
513.15	2862.48
513.51	2803.56
513.86	2743.83
514.22	2691.59
514.58	2636.61
514.94	2600.71
515.30	2554.88
515.65	2510.01
516.01	2467.56
516.37	2429.38
516.73	2384.42
517.08	2347.60
517.44	2305.80
517.80	2266.90
518.16	2229.85
518.51	2194.95
518.87	2158.72
519.23	2133.45
519.59	2102.57
519.94	2069.95
520.30	2036.17
520.66	2007.41
521.01	1972.21
521.37	1944.00
521.73	1913.48
522.09	1889.91
522.44	1868.29
522.80	1847.34
523.16	1827.19
523.51	1809.59
523.87	1792.22
524.23	1771.36
524.58	1752.38
524.94	1731.65
525.30	1713.90
525.65	1695.79
526.01	1673.65
526.37	1653.80
526.72	1638.16
527.08	1617.31
527.44	1595.08
527.79	1582.93
528.15	1568.42
528.51	1549.06
528.86	1538.95
529.22	1525.70
529.58	1508.62
529.93	1494.27
530.29	1481.33
530.65	1464.96
531.00	1452.96
531.36	1441.86
531.71	1433.95
532.07	1422.04
532.43	1412.37
532.78	1400.65
533.14	1390.89
533.49	1378.51
533.85	1372.75
534.21	1364.56
534.56	1356.46
534.92	1347.47
535.27	1336.19
535.63	1324.30
535.98	1318.38
536.34	1311.75
536.69	1308.94
537.05	1302.51
537.41	1296.10
537.76	1288.91
538.12	1283.01
538.47	1274.05
538.83	1270.26
539.18	1266.89
539.54	1262.30
539.89	1257.71
540.25	1253.61
540.60	1251.11
540.96	1247.65
541.31	1242.59
541.67	1238.89
542.02	1235.36
542.38	1230.37
542.73	1226.18
543.09	1222.91
543.44	1222.11
543.80	1217.27
544.15	1213.90
544.51	1210.34
544.86	1210.41
545.22	1204.42
545.57	1201.40
545.93	1197.79
546.28	1191.82
546.64	1185.74
546.99	1183.33
547.35	1180.99
547.70	1178.16
548.05	1176.59
548.41	1175.21
548.76	1173.61
549.12	1171.16
549.47	1167.95
549.83	1163.95
550.18	1163.18
550.53	1159.67
550.89	1158.24
551.24	1161.16
551.60	1162.17
551.95	1158.38
552.30	1158.19
552.66	1156.41
553.01	1152.41
553.37	1154.56
553.72	1152.95
554.07	1151.12
554.43	1149.37
554.78	1148.22
555.13	1144.19
555.49	1143.75
555.84	1141.55
556.19	1141.78
556.55	1138.18
556.90	1139.02
557.26	1135.60
557.61	1134.43
557.96	1131.65
558.32	1130.43
558.67	1129.31
559.02	1126.27
559.37	1126.01
559.73	1124.74
560.08	1122.50
560.43	1119.13
560.79	1121.75
561.14	1118.40
561.49	1118.40
561.85	1119.31
562.20	1117.72
562.55	1116.95
562.90	1118.61
563.26	1119.31
563.61	1119.64
563.96	1118.40
564.32	1117.93
564.67	1118.10
565.02	1116.60
565.37	1115.01
565.73	1116.15
566.08	1113.93
566.43	1111.47
566.78	1109.88
567.14	1109.09
567.49	1106.72
567.84	1105.62
568.19	1105.62
568.54	1105.46
568.90	1106.35
569.25	1105.95
569.60	1103.84
569.95	1100.89
570.31	1103.84
570.66	1099.16
571.01	1100.99
571.36	1098.44
571.71	1102.49
572.06	1095.79
572.42	1098.86
572.77	1096.87
573.12	1100.96
573.47	1097.71
573.82	1102.11
574.18	1102.35
574.53	1101.53
574.88	1100.03
575.23	1099.02
575.58	1095.23
575.93	1094.72
576.28	1094.08
576.64	1095.65
576.99	1097.17
577.34	1098.11
577.69	1095.16
578.04	1097.71
578.39	1098.44
578.74	1094.72
579.09	1095.79
579.44	1097.24
579.80	1097.48
580.15	1093.97
580.50	1099.23
580.85	1100.29
581.20	1098.93
581.55	1097.78
581.90	1097.95
582.25	1093.83
582.60	1088.93
582.95	1090.97
583.30	1088.44
583.65	1085.59
584.00	1085.45
584.35	1087.65
584.71	1086.85
585.06	1087.81
585.41	1093.26
585.76	1094.88
586.11	1096.85
586.46	1095.79
586.81	1097.36
587.16	1095.91
587.51	1097.45
587.86	1093.47
588.21	1091.81
588.56	1089.99
588.91	1088.51
589.26	1084.98
589.61	1087.44
589.96	1089.24
590.31	1088.21
590.66	1088.35
591.01	1088.30
591.36	1089.40
591.71	1090.15
592.06	1093.33
592.41	1093.62
592.76	1093.59
593.10	1090.60
593.45	1088.65
593.80	1084.28
594.15	1084.77
594.50	1088.82
594.85	1091.25
595.20	1094.22
595.55	1093.85
595.90	1091.27
596.25	1090.01
596.60	1089.03
596.95	1088.14
597.30	1091.56
597.64	1104.69
597.99	1102.93
598.34	1100.75
598.69	1099.37
599.04	1096.96
599.39	1086.15
599.74	1085.24
600.09	1087.93
600.44	1089.10
600.78	1089.47
601.13	1088.14
601.48	1089.87
601.83	1087.97
602.18	1087.27
602.53	1086.08
602.88	1085.52
603.22	1082.19
603.57	1085.28
603.92	1085.87
604.27	1085.07
604.62	1087.48
604.97	1092.94
605.31	1092.68
605.66	1090.46
606.01	1092.56
606.36	1092.87
606.71	1089.96
607.05	1086.34
607.40	1088.12
607.75	1087.65
608.10	1086.62
608.44	1084.32
608.79	1084.89
609.14	1085.91
609.49	1086.31
609.84	1084.86
610.18	1088.30
610.53	1088.16
610.88	1089.31
611.23	1089.75
611.57	1088.79
611.92	1087.55
612.27	1088.14
612.62	1084.46
612.96	1084.37
613.31	1083.74
613.66	1082.94
614.00	1079.41
614.35	1078.36
614.70	1079.60
615.05	1081.12
615.39	1082.54
615.74	1085.96
616.09	1086.69
616.43	1087.95
616.78	1086.66
617.13	1084.23
617.47	1082.36
617.82	1082.01
618.17	1079.01
618.51	1079.01
618.86	1078.71
619.21	1079.78
619.55	1081.30
619.90	1080.04
620.25	1085.70
620.59	1088.33
620.94	1086.03
621.29	1087.39
621.63	1088.28
621.98	1084.84
622.32	1083.71
622.67	1085.68
623.02	1085.87
623.36	1084.07
623.71	1085.35
624.05	1085.28
624.40	1083.71
624.75	1083.41
625.09	1083.90
625.44	1080.56
625.78	1077.82
626.13	1079.69
626.48	1077.25
626.82	1082.08
627.17	1084.49
627.51	1086.41
627.86	1085.68
628.20	1085.40
628.55	1082.50
628.89	1081.66
629.24	1083.81
629.58	1084.63
629.93	1084.91
630.28	1083.60
630.62	1083.62
630.97	1083.25
631.31	1083.29
631.66	1083.81
632.00	1084.30
632.35	1087.62
632.69	1085.26
633.04	1084.67
633.38	1087.81
633.73	1088.16
634.07	1084.44
634.42	1085.33
634.76	1086.36
635.11	1084.39
635.45	1084.32
635.79	1082.29
636.14	1083.22
636.48	1085.33
636.83	1083.43
637.17	1082.71
637.52	1085.54
637.86	1086.15
638.21	1081.63
638.55	1083.06
638.89	1084.23
639.24	1083.69
639.58	1082.40
639.93	1081.75
640.27	1082.10
640.61	1081.30
640.96	1081.61
641.30	1079.97
641.65	1085.12
641.99	1085.33
642.33	1086.85
642.68	1086.13
643.02	1089.07
643.37	1090.20
643.71	1091.70
644.05	1090.24
644.40	1089.31
644.74	1083.27
645.08	1077.14
645.43	1074.45
645.77	1077.09
646.11	1078.96
646.46	1083.25
646.80	1082.85
647.14	1086.43
647.49	1087.58
647.83	1088.65
648.17	1089.43
648.52	1093.22
648.86	1090.57
649.20	1087.55
649.55	1084.14
649.89	1085.56
650.23	1087.34
650.57	1089.64
650.92	1089.03
651.26	1088.02
651.60	1085.94
651.95	1083.22
652.29	1080.95
652.63	1081.42
652.97	1083.81
653.32	1083.48
653.66	1081.42
654.00	1078.68
654.34	1076.46
654.69	1077.16
655.03	1079.01
655.37	1080.18
655.71	1081.70
656.05	1084.60
656.40	1085.75
656.74	1086.55
657.08	1086.31
657.42	1082.97
657.76	1080.44
658.11	1079.76
658.45	1078.89
658.79	1080.25
659.13	1084.28
659.47	1087.30
659.82	1086.38
660.16	1082.66
660.50	1082.52
660.84	1079.46
661.18	1076.83
661.52	1077.02
661.87	1077.11
662.21	1076.97
662.55	1076.93
662.89	1077.33
663.23	1075.97
663.57	1075.83
663.91	1072.85
664.25	1074.28
664.60	1075.29
664.94	1076.48
665.28	1077.40
665.62	1079.55
665.96	1079.92
666.30	1076.97
666.64	1077.42
666.98	1077.96
667.32	1079.03
667.66	1077.93
668.01	1080.74
668.35	1081.91
668.69	1080.93
669.03	1081.77
669.37	1082.54
669.71	1080.70
670.05	1075.69
670.39	1077.40
670.73	1076.25
671.07	1076.34
671.41	1075.43
671.75	1079.62
672.09	1081.05
672.43	1081.21
672.77	1081.28
673.11	1084.39
673.45	1080.34
673.79	1079.13
674.13	1078.89
674.47	1081.40
674.81	1081.28
675.15	1086.10
675.49	1088.79
675.83	1089.12
676.17	1088.33
676.51	1088.93
676.85	1087.25
677.19	1085.38
677.53	1086.01
677.87	1085.38
678.21	1080.98
678.55	1081.84
678.89	1078.68
679.23	1081.02
679.57	1079.85
679.90	1081.96
680.24	1077.89
680.58	1078.57
680.92	1074.96
681.26	1075.34
681.60	1077.11
681.94	1078.75
682.28	1082.29
682.62	1080.79
682.96	1080.30
683.29	1077.33
683.63	1074.45
683.97	1072.81
684.31	1077.23
684.65	1079.74
684.99	1084.02
685.33	1090.46
685.67	1088.56
686.00	1086.34
686.34	1086.34
686.68	1084.37
687.02	1081.77
687.36	1082.12
687.70	1081.47
688.03	1079.17
688.37	1080.70
688.71	1079.53
689.05	1078.28
689.39	1077.37
689.72	1075.59
690.06	1073.53
690.40	1075.83
690.74	1075.62
691.08	1079.03
691.41	1081.80
691.75	1081.49
692.09	1082.61
692.43	1085.35
692.76	1082.24
693.10	1080.51
693.44	1082.69
693.78	1084.60
694.11	1087.69
694.45	1088.14
694.79	1089.59
695.13	1086.10
695.46	1083.50
695.80	1080.32
696.14	1079.97
696.48	1080.60
696.81	1087.20
697.15	1087.93
697.49	1084.84
697.82	1087.30
698.16	1086.17
698.50	1079.46
698.83	1076.18
699.17	1079.22
699.51	1077.68
699.84	1080.27
700.18	1083.08
700.52	1081.68
700.85	1079.81
701.19	1081.07
701.53	1077.37
701.86	1076.48
702.20	1082.01
702.54	1084.96
702.87	1081.61
703.21	1080.09
703.55	1081.54
703.88	1075.87
704.22	1072.97
704.55	1074.42
704.89	1077.63
705.23	1074.77
705.56	1075.71
705.90	1076.08
706.23	1077.07
706.57	1077.49
706.91	1077.56
707.24	1079.10
707.58	1080.27
707.91	1078.71
708.25	1078.68
708.58	1080.81
708.92	1081.00
709.26	1083.08
709.59	1085.70
709.93	1086.24
710.26	1086.17
710.60	1088.30
710.93	1088.49
711.27	1086.08
711.60	1086.15
711.94	1085.26
712.27	1081.70
712.61	1078.50
712.94	1078.73
713.28	1076.11
713.61	1077.51
713.95	1078.10
714.28	1079.20
714.62	1079.38
714.95	1079.71
715.29	1077.82
715.62	1080.20
715.96	1078.50
716.29	1079.34
716.63	1080.32
716.96	1080.25
717.29	1081.09
717.63	1084.46
717.96	1084.93
718.30	1083.20
718.63	1084.84
718.97	1083.06
719.30	1080.95
719.63	1080.06
719.97	1083.46
720.30	1081.73
720.64	1080.81
720.97	1082.36
721.30	1082.59
721.64	1082.45
721.97	1083.60
722.31	1084.96
722.64	1083.79
722.97	1084.04
723.31	1083.25
723.64	1082.05
723.97	1081.98
724.31	1082.10
724.64	1081.58
724.98	1081.12
725.31	1078.38
725.64	1080.86
725.98	1080.09
726.31	1081.80
726.64	1082.29
726.97	1085.26
727.31	1085.80
727.64	1085.82
727.97	1083.34
728.31	1080.25
728.64	1079.46
728.97	1073.28
729.31	1073.79
729.64	1073.39
729.97	1074.82
730.30	1078.43
730.64	1083.29
730.97	1084.42
731.30	1086.38
731.63	1087.02
731.97	1083.43
732.30	1082.01
732.63	1081.02
732.96	1078.45
733.30	1077.77
733.63	1077.04
733.96	1075.83
734.29	1075.64
734.63	1077.44
734.96	1077.68
735.29	1080.18
735.62	1084.23
735.95	1086.45
736.29	1084.60
736.62	1083.41
736.95	1083.20
737.28	1078.52
737.61	1075.59
737.94	1077.09
738.28	1081.21
738.61	1082.26
738.94	1086.48
739.27	1086.03
739.60	1086.64
739.93	1085.17
740.27	1082.83
740.60	1077.00
740.93	1078.43
741.26	1079.15
741.59	1079.31
741.92	1079.85
742.25	1081.37
742.58	1080.11
742.91	1079.53
743.25	1080.41
743.58	1079.48
743.91	1077.86
744.24	1078.57
744.57	1076.51
744.90	1074.03
745.23	1076.27
745.56	1076.81
745.89	1077.30
746.22	1079.78
746.55	1081.96
746.88	1079.15
747.21	1078.45
747.54	1078.12
747.87	1075.73
748.20	1074.75
748.53	1074.66
748.87	1077.25
749.20	1077.89
749.53	1076.69
749.86	1076.25
750.19	1074.98
750.52	1073.51
750.85	1069.62
751.18	1071.26
751.51	1072.01
751.84	1075.92
752.16	1077.58
752.49	1080.93
752.82	1082.22
753.15	1081.87
753.48	1079.92
753.81	1080.70
754.14	1078.73
754.47	1079.88
754.80	1080.18
755.13	1082.76
755.46	1079.22
755.79	1080.11
756.12	1081.68
756.45	1079.74
756.78	1080.30
757.11	1081.16
757.43	1080.60
757.76	1078.00
758.09	1078.68
758.42	1076.69
758.75	1077.33
759.08	1078.14
759.41	1078.31
759.74	1079.62
760.07	1079.31
760.39	1079.90
760.72	1080.70
761.05	1080.06
761.38	1079.10
761.71	1078.26
762.04	1079.55
762.36	1080.98
762.69	1082.43
763.02	1084.25
763.35	1085.26
763.68	1081.40
764.01	1081.05
764.33	1078.36
764.66	1075.03
764.99	1074.45
765.32	1076.90
765.65	1077.37
765.97	1081.26
766.30	1081.61
766.63	1084.81
766.96	1083.90
767.28	1083.48
767.61	1080.46
767.94	1081.00
768.27	1078.54
768.59	1079.43
768.92	1077.09
769.25	1077.44
769.58	1077.70
769.90	1076.34
770.23	1076.81
770.56	1075.90
770.89	1074.17
771.21	1073.86
771.54	1075.20
771.87	1075.83
772.19	1077.58
772.52	1077.42
772.85	1076.81
773.17	1075.90
773.50	1076.30
773.83	1075.50
774.15	1076.95
774.48	1078.59
774.81	1080.91
775.13	1082.43
775.46	1084.23
775.79	1080.91
776.11	1079.36
776.44	1075.01
776.77	1075.13
777.09	1073.39
777.42	1077.86
777.74	1079.27
778.07	1084.21
778.40	1081.00
778.72	1082.66
779.05	1080.37
779.37	1082.10
779.70	1078.87
780.03	1080.11
780.35	1078.85
780.68	1079.95
781.00	1080.34
781.33	1080.41
781.65	1080.04
781.98	1080.65
782.31	1081.44
782.63	1080.72
782.96	1082.10
783.28	1081.66
783.61	1084.46
783.93	1082.66
784.26	1080.72
784.58	1080.20
784.91	1079.76
785.23	1073.72
785.56	1074.84
785.88	1075.45
786.21	1078.00
786.53	1079.17
786.86	1079.90
787.18	1078.89
787.51	1080.39
787.83	1076.34
788.16	1075.50
788.48	1078.96
788.81	1082.15
789.13	1078.87
789.46	1080.93
789.78	1082.52
790.10	1081.14
790.43	1080.67
790.75	1082.54
791.08	1083.71
791.40	1081.33
791.73	1083.39
792.05	1082.90
792.37	1081.66
792.70	1081.12
793.02	1080.65
793.35	1077.77
793.67	1075.45
793.99	1076.72
794.32	1076.39
794.64	1076.25
794.96	1078.68
795.29	1078.54
795.61	1079.17
795.93	1080.91
796.26	1081.82
796.58	1081.89
796.91	1082.15
797.23	1081.98
797.55	1078.89
797.87	1078.28
798.20	1076.01
798.52	1075.22
798.84	1072.15
799.17	1074.10
799.49	1073.14
799.81	1073.42
800.14	1073.02
800.46	1075.52
800.78	1073.46
801.10	1073.95
801.43	1073.30
801.75	1075.55
802.07	1073.30
802.40	1073.02
802.72	1076.34
803.04	1076.53
803.36	1076.88
803.69	1078.54
804.01	1080.88
804.33	1076.23
804.65	1075.01
804.97	1075.52
805.30	1074.42
805.62	1076.93
805.94	1082.15
806.26	1084.58
806.58	1081.40
806.91	1081.07
807.23	1077.28
807.55	1073.23
807.87	1071.82
808.19	1075.34
808.52	1075.17
808.84	1074.40
809.16	1079.22
809.48	1078.40
809.80	1075.87
810.12	1074.19
810.44	1074.52
810.77	1072.04
811.09	1073.91
811.41	1074.77
811.73	1081.09
812.05	1083.62
812.37	1084.84
812.69	1082.66
813.01	1082.87
813.33	1080.37
813.66	1080.46
813.98	1076.74
814.30	1079.69
814.62	1080.37
814.94	1079.67
815.26	1076.60
815.58	1080.04
815.90	1080.27
816.22	1081.12
816.54	1080.74
816.86	1078.64
817.18	1077.42
817.50	1076.23
817.82	1073.28
818.14	1075.24
818.46	1074.80
818.78	1076.51
819.10	1079.13
819.42	1079.31
819.74	1080.41
820.06	1084.18
820.38	1083.27
820.70	1083.46
821.02	1086.76
821.34	1084.18
821.66	1086.64
821.98	1086.24
822.30	1082.15
822.62	1080.81
822.94	1082.57
823.26	1081.12
823.58	1079.92
823.90	1081.14
824.22	1081.47
824.54	1078.59
824.86	1078.68
825.18	1077.98
825.50	1079.41
825.81	1075.80
826.13	1076.72
826.45	1074.05
826.77	1075.55
827.09	1076.83
827.41	1079.74
827.73	1083.43
828.05	1088.12
828.36	1089.29
828.68	1086.59
829.00	1086.90
829.32	1083.57
829.64	1081.94
829.96	1080.25
830.28	1080.88
830.59	1080.98
830.91	1081.82
831.23	1080.60
831.55	1080.58
831.87	1080.51
832.19	1079.22
832.50	1079.88
832.82	1077.11
833.14	1077.86
833.46	1077.54
833.78	1074.98
834.09	1073.25
834.41	1074.98
834.73	1076.48
835.05	1076.81
835.36	1082.01
835.68	1081.35
836.00	1079.15
836.32	1080.09
836.63	1076.86
836.95	1072.50
837.27	1073.91
837.59	1076.46
837.90	1072.81
838.22	1074.80
838.54	1078.57
838.85	1078.80
839.17	1079.27
839.49	1081.09
839.80	1085.70
840.12	1083.50
840.44	1081.66
840.76	1079.38
841.07	1079.31
841.39	1076.74
841.71	1076.72
842.02	1076.01
842.34	1076.08
842.65	1074.10
842.97	1071.97
843.29	1073.53
843.60	1073.49
843.92	1071.47
844.24	1071.87
844.55	1073.88
844.87	1074.35
845.18	1079.67
845.50	1084.72
845.82	1082.36
846.13	1083.62
846.45	1080.79
846.76	1076.67
847.08	1074.12
847.40	1076.46
847.71	1075.27
848.03	1076.39
848.34	1078.31
848.66	1080.25
848.97	1081.16
849.29	1080.46
849.60	1079.69
849.92	1079.60
850.24	1078.71
850.55	1077.00
850.87	1077.56
851.18	1077.93
851.50	1074.94
851.81	1074.61
852.13	1076.95
852.44	1074.26
852.76	1074.35
853.07	1076.30
853.39	1077.58
853.70	1075.92
854.01	1079.41
854.33	1079.78
854.64	1080.04
854.96	1083.22
855.27	1081.12
855.59	1078.17
855.90	1077.28
856.22	1076.30
856.53	1069.04
856.84	1071.99
857.16	1071.73
857.47	1071.24
857.79	1073.35
858.10	1076.53
858.41	1076.97
858.73	1082.92
859.04	1084.60
859.36	1085.21
859.67	1084.51
859.98	1082.57
860.30	1078.61
860.61	1079.83
860.92	1080.91
861.24	1079.71
861.55	1083.60
861.87	1082.78
862.18	1084.67
862.49	1080.58
862.81	1082.59
863.12	1079.99
863.43	1081.21
863.74	1077.96
864.06	1078.24
864.37	1079.90
864.68	1080.37
865.00	1079.53
865.31	1078.96
865.62	1079.29
865.94	1076.01
866.25	1075.36
866.56	1074.47
866.87	1073.98
867.19	1074.73
867.50	1073.58
867.81	1074.77
868.12	1076.97
868.44	1075.83
868.75	1076.44
869.06	1078.45
869.37	1074.73
869.68	1076.23
870.00	1079.10
870.31	1078.07
870.62	1077.40
870.93	1078.92
871.24	1078.21
871.56	1078.17
871.87	1078.89
872.18	1079.57
872.49	1078.75
872.80	1077.93
873.12	1077.23
873.43	1074.91
873.74	1075.05
874.05	1075.36
874.36	1072.88
874.67	1070.82
874.98	1070.51
875.29	1069.77
875.61	1071.10
875.92	1077.16
876.23	1078.59
876.54	1081.00
876.85	1081.33
877.16	1082.03
877.47	1077.47
877.78	1079.13
878.09	1079.71
878.40	1079.62
878.72	1079.69
879.03	1077.93
879.34	1075.71
879.65	1074.63
879.96	1077.35
880.27	1072.85
880.58	1071.90
880.89	1073.95
881.20	1073.56
881.51	1073.11
881.82	1077.72
882.13	1080.84
882.44	1077.51
882.75	1077.00
883.06	1075.03
883.37	1074.66
883.68	1072.83
883.99	1073.63
884.30	1074.42
884.61	1078.43
884.92	1077.84
885.23	1079.81
885.54	1081.47
885.85	1080.93
886.16	1078.05
886.47	1078.05
886.78	1076.04
887.08	1073.79
887.39	1073.51
887.70	1072.01
888.01	1071.73
888.32	1070.54
888.63	1072.43
888.94	1072.13
889.25	1071.94
889.56	1069.79
889.87	1070.42
890.17	1071.45
890.48	1073.16
890.79	1072.48
891.10	1074.73
891.41	1073.67
891.72	1073.39
892.03	1074.40
892.34	1078.28
892.64	1079.74
892.95	1079.74
893.26	1078.33
893.57	1079.17
893.88	1076.58
894.18	1076.15
894.49	1077.49
894.80	1080.48
895.11	1077.07
895.42	1078.45
895.72	1078.75
896.03	1076.97
896.34	1075.34
896.65	1076.18
896.96	1074.77
897.26	1074.03
897.57	1076.58
897.88	1074.63
898.19	1073.79
898.49	1075.38
898.80	1076.46
899.11	1077.02
899.41	1081.12
899.72	1080.34
900.03	1079.78
900.34	1080.84
900.64	1081.23
900.95	1078.96
901.26	1083.04
901.56	1084.81
901.87	1081.35
902.18	1078.33
902.48	1077.40
902.79	1075.64
903.10	1072.92
903.40	1072.64
903.71	1074.03
904.02	1073.16
904.32	1073.77
904.63	1075.50
904.94	1075.83
905.24	1078.03
905.55	1080.88
905.85	1078.33
906.16	1076.93
906.47	1078.57
906.77	1077.91
907.08	1076.74
907.38	1078.59
907.69	1078.12
908.00	1079.57
908.30	1077.77
908.61	1076.97
908.91	1074.19
909.22	1074.77
909.52	1072.27
909.83	1074.12
910.14	1074.98
910.44	1076.67
910.75	1078.57
911.05	1077.25
911.36	1077.09
911.66	1075.52
911.97	1072.69
912.27	1072.08
912.58	1075.94
912.88	1076.41
913.19	1077.70
913.49	1077.21
913.80	1074.54
914.10	1074.47
914.41	1073.51
914.71	1073.23
915.01	1075.87
915.32	1078.96
915.62	1075.99
915.93	1074.35
916.23	1072.67
916.54	1071.57
916.84	1068.52
917.15	1068.41
917.45	1069.06
917.75	1068.71
918.06	1070.14
918.36	1070.84
918.67	1071.97
918.97	1072.06
919.27	1076.08
919.58	1076.15
919.88	1077.51
920.18	1075.38
920.49	1075.31
920.79	1074.31
921.10	1076.06
921.40	1073.77
921.70	1073.46
922.01	1074.91
922.31	1073.93
922.61	1072.39
922.92	1072.78
923.22	1074.91
923.52	1074.98
923.82	1075.03
924.13	1076.06
924.43	1077.18
924.73	1074.26
925.04	1074.56
925.34	1074.80
925.64	1071.66
925.94	1072.34
926.25	1075.45
926.55	1076.88
926.85	1074.28
927.15	1077.11
927.46	1077.68
927.76	1076.88
928.06	1073.63
928.36	1078.54
928.67	1076.58
928.97	1075.08
929.27	1076.60
929.57	1077.37
929.87	1073.88
930.18	1077.49
930.48	1078.21
930.78	1081.73
931.08	1082.45
931.38	1085.61
931.69	1084.98
931.99	1083.86
932.29	1079.62
932.59	1080.37
932.89	1078.64
933.19	1078.99
933.49	1080.13
933.80	1079.43
934.10	1075.38
934.40	1075.62
934.70	1076.25
935.00	1075.69
935.30	1076.76
935.60	1075.71
935.90	1073.02
936.20	1074.45
936.50	1073.67
936.81	1074.49
937.11	1076.62
937.41	1081.75
937.71	1081.47
938.01	1081.05
938.31	1080.37
938.61	1080.60
938.91	1079.10
939.21	1074.63
939.51	1075.05
939.81	1075.87
940.11	1079.76
940.41	1082.85
940.71	1084.84
941.01	1084.74
941.31	1082.31
941.61	1085.73
941.91	1078.57
942.21	1076.93
942.51	1078.94
942.81	1081.98
943.11	1077.33
943.41	1084.11
943.71	1085.59
944.01	1083.43
944.31	1080.25
944.61	1081.87
944.90	1074.82
945.20	1074.52
945.50	1076.30
945.80	1077.96
946.10	1075.80
946.40	1077.09
946.70	1078.66
947.00	1078.80
947.30	1079.76
947.60	1079.67
947.89	1080.20
948.19	1078.61
948.49	1077.04
948.79	1075.10
949.09	1076.67
949.39	1076.67
949.69	1076.65
949.98	1079.17
950.28	1079.92
950.58	1079.50
950.88	1080.51
951.18	1078.99
951.48	1080.51
951.77	1081.28
952.07	1080.41
952.37	1081.75
952.67	1081.94
952.97	1077.07
953.26	1077.68
953.56	1076.60
953.86	1074.07
954.16	1075.17
954.45	1076.95
954.75	1075.15
955.05	1075.34
955.35	1076.39
955.64	1072.71
955.94	1073.02
956.24	1074.52
956.54	1075.50
956.83	1073.32
957.13	1076.95
957.43	1077.04
957.72	1077.68
958.02	1078.33
958.32	1082.66
958.61	1082.73
958.91	1084.07
959.21	1084.96
959.50	1081.84
959.80	1080.09
960.10	1077.70
960.39	1075.59
960.69	1073.37
960.99	1074.49
961.28	1075.10
961.58	1076.74
961.87	1073.93
962.17	1075.41
962.47	1076.06
962.76	1075.71
963.06	1079.50
963.36	1083.06
963.65	1081.30
963.95	1081.05
964.24	1078.05
964.54	1075.52
964.83	1074.10
965.13	1074.56
965.42	1076.95
965.72	1080.60
966.02	1080.65
966.31	1081.84
966.61	1082.99
966.90	1082.69
967.20	1082.52
967.49	1079.92
967.79	1078.10
968.08	1075.34
968.38	1072.69
968.67	1075.22
968.97	1079.81
969.26	1081.26
969.56	1082.08
969.85	1080.06
970.15	1076.65
970.44	1076.51
970.74	1079.60
971.03	1080.39
971.32	1084.16
971.62	1086.15
971.91	1085.38
972.21	1083.11
972.50	1083.79
972.80	1083.48
973.09	1080.74
973.38	1078.66
973.68	1077.82
973.97	1076.48
974.27	1075.38
974.56	1075.83
974.85	1076.81
975.15	1076.86
975.44	1075.38
975.73	1074.28
976.03	1073.30
976.32	1071.66
976.61	1071.75
976.91	1074.59
977.20	1076.76
977.49	1079.48
977.79	1080.34
978.08	1079.43
978.37	1077.44
978.67	1074.19
978.96	1073.95
979.25	1075.29
979.55	1079.53
979.84	1079.90
980.13	1085.59
980.42	1087.81
980.72	1086.17
981.01	1081.07
981.30	1081.70
981.59	1082.57
981.89	1079.06
982.18	1080.63
982.47	1083.34
982.76	1083.48
983.06	1077.16
983.35	1077.21
983.64	1076.23
983.93	1076.62
984.22	1076.95
984.52	1080.91
984.81	1080.30
985.10	1077.75
985.39	1076.41
985.68	1077.65
985.97	1076.65
986.27	1079.43
986.56	1082.59
986.85	1081.87
987.14	1077.16
987.43	1075.13
987.72	1074.24
988.01	1072.76
988.31	1072.81
988.60	1074.19
988.89	1077.91
989.18	1077.00
989.47	1078.61
989.76	1078.92
990.05	1080.34
990.34	1075.78
990.63	1072.41
990.92	1070.72
991.21	1069.27
991.51	1068.13
991.80	1069.58
992.09	1072.69
992.38	1074.07
992.67	1076.06
992.96	1079.15
993.25	1077.89
993.54	1077.42
993.83	1076.83
994.12	1079.34
994.41	1078.05
994.70	1081.63
994.99	1079.03
995.28	1080.13
995.57	1077.58
995.86	1077.42
996.15	1075.83
996.44	1076.93
996.73	1078.71
997.02	1079.83
997.31	1079.34
997.59	1079.43
997.88	1081.82
998.17	1077.65
998.46	1076.62
998.75	1076.93
999.04	1076.83
999.33	1075.29
999.62	1076.51
999.91	1075.50
1000.20	1076.76
1000.49	1074.19
1000.77	1076.74
1001.06	1077.96
1001.35	1080.58
1001.64	1080.37
1001.93	1082.54
1002.22	1081.63
1002.51	1081.56
1002.79	1080.56
1003.08	1080.34
1003.37	1081.37
1003.66	1080.88
1003.95	1081.09
1004.23	1078.68
1004.52	1074.68
1004.81	1075.73
1005.10	1075.85
1005.39	1075.83
1005.67	1073.98
1005.96	1076.51
1006.25	1074.82
1006.54	1074.61
1006.83	1074.12
1007.11	1080.23
1007.40	1080.34
1007.69	1081.80
1007.97	1084.67
1008.26	1083.74
1008.55	1081.26
1008.84	1079.92
1009.12	1076.51
1009.41	1071.12
1009.70	1071.31
1009.98	1071.61
1010.27	1072.85
1010.56	1074.45
1010.85	1076.69
1011.13	1076.18
1011.42	1075.31
1011.71	1073.98
1011.99	1074.77
1012.28	1074.12
1012.56	1075.41
1012.85	1076.01
1013.14	1077.63
1013.42	1075.78
1013.71	1077.25
1014.00	1078.07
1014.28	1079.15
1014.57	1078.26
1014.85	1079.43
1015.14	1075.71
1015.43	1075.05
1015.71	1074.14
1016.00	1075.55
1016.28	1074.84
1016.57	1079.92
1016.85	1081.82
1017.14	1082.97
1017.43	1080.86
1017.71	1083.83
1018.00	1084.18
1018.28	1080.39
1018.57	1078.66
1018.85	1077.91
1019.14	1072.36
1019.42	1070.42
1019.71	1072.81
1019.99	1072.78
1020.28	1074.77
1020.56	1075.87
1020.85	1075.64
1021.13	1073.42
1021.42	1072.39
1021.70	1071.24
1021.99	1072.22
1022.27	1069.09
1022.55	1069.74
1022.84	1061.67
>>>>>End Processed Spectral Data<<<<<
