SpectraSuite Data File
++++++++++++++++++++++++++++++++++++
Date: Mon Aug 26 10:22:32 PDT 2019
User: corrico
Dark Spectrum Present: No
Reference Spectrum Present: No
Number of Sampled Component Spectra: 1
Spectrometers: USB2+H06089
Integration Time (usec): 2000 (USB2+H06089)
Spectra Averaged: 20 (USB2+H06089)
Boxcar Smoothing: 2 (USB2+H06089)
Correct for Electrical Dark: No (USB2+H06089)
Strobe/Lamp Enabled: No (USB2+H06089)
Correct for Detector Non-linearity: No (USB2+H06089)
Correct for Stray Light: No (USB2+H06089)
Number of Pixels in Processed Spectrum: 2048
>>>>>Begin Processed Spectral Data<<<<<
339.70	1026.68
340.07	1026.68
340.45	989.06
340.82	968.00
341.19	943.84
341.57	919.25
341.94	913.25
342.31	908.50
342.69	901.64
343.06	898.65
343.43	895.40
343.81	896.05
344.18	899.07
344.55	904.20
344.93	910.16
345.30	921.42
345.67	928.02
346.04	933.41
346.42	940.50
346.79	950.02
347.16	956.51
347.54	964.16
347.91	972.00
348.28	984.99
348.65	995.90
349.03	1007.04
349.40	1016.87
349.77	1027.45
350.14	1034.68
350.52	1037.91
350.89	1044.63
351.26	1047.55
351.63	1050.76
352.01	1051.37
352.38	1056.17
352.75	1054.79
353.12	1060.10
353.50	1067.35
353.87	1070.75
354.24	1073.53
354.61	1080.44
354.98	1084.25
355.36	1083.88
355.73	1085.14
356.10	1086.29
356.47	1084.86
356.84	1081.94
357.22	1076.55
357.59	1077.47
357.96	1075.34
358.33	1073.88
358.70	1075.71
359.08	1080.88
359.45	1080.58
359.82	1083.29
360.19	1083.32
360.56	1080.23
360.94	1079.36
361.31	1078.00
361.68	1076.30
362.05	1076.74
362.42	1075.90
362.79	1072.11
363.16	1074.49
363.54	1072.74
363.91	1072.13
364.28	1072.67
364.65	1074.40
365.02	1070.65
365.39	1071.61
365.76	1069.74
366.14	1072.60
366.51	1073.14
366.88	1074.33
367.25	1074.21
367.62	1075.01
367.99	1072.08
368.36	1070.44
368.73	1071.64
369.10	1071.71
369.48	1076.20
369.85	1078.89
370.22	1080.09
370.59	1076.48
370.96	1075.43
371.33	1067.31
371.70	1068.06
372.07	1066.44
372.44	1072.13
372.81	1072.85
373.18	1077.07
373.55	1075.76
373.93	1077.51
374.30	1075.59
374.67	1075.73
375.04	1072.71
375.41	1071.85
375.78	1072.92
376.15	1075.62
376.52	1078.68
376.89	1081.07
377.26	1081.61
377.63	1080.88
378.00	1078.00
378.37	1077.84
378.74	1079.55
379.11	1081.54
379.48	1080.63
379.85	1080.81
380.22	1079.38
380.59	1081.80
380.96	1078.10
381.33	1076.90
381.70	1076.30
382.07	1075.78
382.44	1073.16
382.81	1070.80
383.18	1070.07
383.55	1071.94
383.92	1073.07
384.29	1071.05
384.66	1075.99
385.03	1079.06
385.40	1076.58
385.77	1076.51
386.14	1078.45
386.51	1079.88
386.88	1081.66
387.25	1085.19
387.62	1085.38
387.99	1086.29
388.36	1082.19
388.73	1082.36
389.10	1083.20
389.46	1082.85
389.83	1080.30
390.20	1084.11
390.57	1082.22
390.94	1079.22
391.31	1077.96
391.68	1080.13
392.05	1078.28
392.42	1080.41
392.79	1079.34
393.16	1083.22
393.53	1083.90
393.89	1086.15
394.26	1085.61
394.63	1087.46
395.00	1088.61
395.37	1089.38
395.74	1089.66
396.11	1088.61
396.48	1091.49
396.84	1090.01
397.21	1089.22
397.58	1087.41
397.95	1089.05
398.32	1086.66
398.69	1087.69
399.06	1087.44
399.42	1087.27
399.79	1087.51
400.16	1086.80
400.53	1084.23
400.90	1086.15
401.27	1089.68
401.64	1090.34
402.00	1090.57
402.37	1091.93
402.74	1091.02
403.11	1087.93
403.48	1090.01
403.84	1093.78
404.21	1092.98
404.58	1093.71
404.95	1095.30
405.32	1093.15
405.68	1094.18
406.05	1096.40
406.42	1097.48
406.79	1100.26
407.16	1100.29
407.52	1090.85
407.89	1089.99
408.26	1090.34
408.63	1088.07
408.99	1087.81
409.36	1093.92
409.73	1095.84
410.10	1095.77
410.47	1095.21
410.83	1094.79
411.20	1093.38
411.57	1091.30
411.94	1091.04
412.30	1092.33
412.67	1095.72
413.04	1098.79
413.40	1099.70
413.77	1098.93
414.14	1100.64
414.51	1098.74
414.87	1098.27
415.24	1101.85
415.61	1101.11
415.97	1101.48
416.34	1101.53
416.71	1103.42
417.08	1101.32
417.44	1104.31
417.81	1107.28
418.18	1111.54
418.54	1111.75
418.91	1110.96
419.28	1109.91
419.64	1106.25
420.01	1105.34
420.38	1107.24
420.74	1110.87
421.11	1115.12
421.48	1116.62
421.84	1119.43
422.21	1120.79
422.58	1122.61
422.94	1124.58
423.31	1124.28
423.68	1127.06
424.04	1129.40
424.41	1131.20
424.77	1137.08
425.14	1145.39
425.51	1147.52
425.87	1154.19
426.24	1157.00
426.61	1159.08
426.97	1163.64
427.34	1170.31
427.70	1176.10
428.07	1183.70
428.44	1191.29
428.80	1198.61
429.17	1205.28
429.53	1212.05
429.90	1224.05
430.27	1234.59
430.63	1242.80
431.00	1253.87
431.36	1265.04
431.73	1273.56
432.09	1283.06
432.46	1299.37
432.83	1311.89
433.19	1328.89
433.56	1346.91
433.92	1367.65
434.29	1391.99
434.65	1416.54
435.02	1438.07
435.38	1463.05
435.75	1488.58
436.11	1516.46
436.48	1546.88
436.84	1581.90
437.21	1619.44
437.57	1656.49
437.94	1692.04
438.30	1735.88
438.67	1785.08
439.03	1832.76
439.40	1889.19
439.76	1945.13
440.13	2008.30
440.49	2067.72
440.86	2134.57
441.22	2204.46
441.59	2284.13
441.95	2357.67
442.32	2440.43
442.68	2534.29
443.05	2622.24
443.41	2710.97
443.78	2809.27
444.14	2911.93
444.51	3020.18
444.87	3160.68
445.24	3309.59
445.60	3468.28
445.96	3629.59
446.33	3799.02
446.69	3957.14
447.06	4129.92
447.42	4307.15
447.79	4495.05
448.15	4716.88
448.51	4947.87
448.88	5206.47
449.24	5455.13
449.61	5731.64
449.97	5998.04
450.33	6272.66
450.70	6530.19
451.06	6846.96
451.43	7152.44
451.79	7502.05
452.15	7904.13
452.52	8348.22
452.88	8806.94
453.24	9330.22
453.61	9906.25
453.97	10461.42
454.34	11005.34
454.70	11654.86
455.06	12297.41
455.43	12918.00
455.79	13518.89
456.15	14229.12
456.52	14866.26
456.88	15620.34
457.24	16340.68
457.61	17161.67
457.97	17915.96
458.33	18691.75
458.70	19447.42
459.06	20193.35
459.42	21032.12
459.79	21800.55
460.15	22696.20
460.51	23540.20
460.88	24476.27
461.24	25266.83
461.60	26237.01
461.96	27107.08
462.33	27936.03
462.69	28690.33
463.05	29522.07
463.42	30203.61
463.78	30824.32
464.14	31361.26
464.50	31946.91
464.87	32406.00
465.23	32764.95
465.59	33102.38
465.95	33406.02
466.32	33666.62
466.68	33900.02
467.04	34030.69
467.40	34168.64
467.77	34327.37
468.13	34311.95
468.49	34220.86
468.85	34132.99
469.22	33950.50
469.58	33607.64
469.94	33350.90
470.30	33052.39
470.66	32645.98
471.03	32060.92
471.39	31678.47
471.75	31037.17
472.11	30419.78
472.47	30036.17
472.84	29724.17
473.20	29227.67
473.56	28982.92
473.92	28559.99
474.28	28064.10
474.65	27591.31
475.01	27146.94
475.37	26581.67
475.73	26127.31
476.09	25601.62
476.45	25086.17
476.81	24560.43
477.18	24023.49
477.54	23586.63
477.90	23265.23
478.26	22869.07
478.62	22518.62
478.98	22232.98
479.34	21912.91
479.71	21504.26
480.07	21156.15
480.43	20817.40
480.79	20435.47
481.15	20089.78
481.51	19786.68
481.87	19543.87
482.23	19257.88
482.59	19018.96
482.96	18731.96
483.32	18431.67
483.68	18049.84
484.04	17713.57
484.40	17350.77
484.76	17000.13
485.12	16641.68
485.48	16326.31
485.84	15984.52
486.20	15631.71
486.56	15269.23
486.92	14955.34
487.28	14611.94
487.64	14256.23
488.00	13936.11
488.37	13621.10
488.73	13275.26
489.09	12934.78
489.45	12624.59
489.81	12299.77
490.17	12001.49
490.53	11713.84
490.89	11400.45
491.25	11106.40
491.61	10818.42
491.97	10500.95
492.33	10177.68
492.69	9886.26
493.05	9576.70
493.41	9278.59
493.77	9013.36
494.13	8766.78
494.49	8522.19
494.85	8298.25
495.21	8078.94
495.57	7859.66
495.93	7643.49
496.29	7448.36
496.64	7264.25
497.00	7081.55
497.36	6903.46
497.72	6729.27
498.08	6553.43
498.44	6363.87
498.80	6190.76
499.16	6035.94
499.52	5879.89
499.88	5754.35
500.24	5652.32
500.60	5535.55
500.96	5419.04
501.32	5307.26
501.68	5182.02
502.03	5045.75
502.39	4916.04
502.75	4774.20
503.11	4644.68
503.47	4531.77
503.83	4419.19
504.19	4312.18
504.55	4212.71
504.91	4120.33
505.26	4023.71
505.62	3940.03
505.98	3853.34
506.34	3763.28
506.70	3669.80
507.06	3583.27
507.42	3492.10
507.78	3409.18
508.13	3334.16
508.49	3263.41
508.85	3192.56
509.21	3123.66
509.57	3057.21
509.93	2990.97
510.28	2922.00
510.64	2853.79
511.00	2795.02
511.36	2735.34
511.72	2677.69
512.07	2633.22
512.43	2593.20
512.79	2541.75
513.15	2498.08
513.51	2453.54
513.86	2401.95
514.22	2352.99
514.58	2313.03
514.94	2276.08
515.30	2242.05
515.65	2214.10
516.01	2184.96
516.37	2156.27
516.73	2123.52
517.08	2093.00
517.44	2057.17
517.80	2028.61
518.16	2000.55
518.51	1972.65
518.87	1947.37
519.23	1922.70
519.59	1896.28
519.94	1868.99
520.30	1845.61
520.66	1818.60
521.01	1799.66
521.37	1778.27
521.73	1761.35
522.09	1741.78
522.44	1726.31
522.80	1701.94
523.16	1682.63
523.51	1661.15
523.87	1641.68
524.23	1623.61
524.58	1609.00
524.94	1590.86
525.30	1574.90
525.65	1561.65
526.01	1544.33
526.37	1526.97
526.72	1511.82
527.08	1495.53
527.44	1482.35
527.79	1467.89
528.15	1456.98
528.51	1444.11
528.86	1435.80
529.22	1421.55
529.58	1411.41
529.93	1400.55
530.29	1393.18
530.65	1383.54
531.00	1374.76
531.36	1368.04
531.71	1361.35
532.07	1348.20
532.43	1340.54
532.78	1332.82
533.14	1321.61
533.49	1312.39
533.85	1310.04
534.21	1303.94
534.56	1300.05
534.92	1298.32
535.27	1294.83
535.63	1292.07
535.98	1284.30
536.34	1279.92
536.69	1274.16
537.05	1268.10
537.41	1259.98
537.76	1255.02
538.12	1247.88
538.47	1245.59
538.83	1243.20
539.18	1240.60
539.54	1235.08
539.89	1227.19
540.25	1219.93
540.60	1215.86
540.96	1213.94
541.31	1212.61
541.67	1212.91
542.02	1210.48
542.38	1207.81
542.73	1201.35
543.09	1196.90
543.44	1192.67
543.80	1188.78
544.15	1183.75
544.51	1179.42
544.86	1177.76
545.22	1177.03
545.57	1175.07
545.93	1172.91
546.28	1170.76
546.64	1166.01
546.99	1163.71
547.35	1160.23
547.70	1157.72
548.05	1156.48
548.41	1159.45
548.76	1157.91
549.12	1157.04
549.47	1156.29
549.83	1154.87
550.18	1151.66
550.53	1147.26
550.89	1146.37
551.24	1140.99
551.60	1140.68
551.95	1139.47
552.30	1139.82
552.66	1136.66
553.01	1138.95
553.37	1134.46
553.72	1133.87
554.07	1129.17
554.43	1132.80
554.78	1129.57
555.13	1129.43
555.49	1127.39
555.84	1129.40
556.19	1123.46
556.55	1124.72
556.90	1125.12
557.26	1120.91
557.61	1121.82
557.96	1121.49
558.32	1119.29
558.67	1118.21
559.02	1118.10
559.37	1117.86
559.73	1115.57
560.08	1115.57
560.43	1114.19
560.79	1115.36
561.14	1113.16
561.49	1115.38
561.85	1113.11
562.20	1111.97
562.55	1115.15
562.90	1111.17
563.26	1110.91
563.61	1111.10
563.96	1112.13
564.32	1106.86
564.67	1104.55
565.02	1101.25
565.37	1100.33
565.73	1102.11
566.08	1103.73
566.43	1109.04
566.78	1109.74
567.14	1111.57
567.49	1106.56
567.84	1102.93
568.19	1097.80
568.54	1097.99
568.90	1099.09
569.25	1103.40
569.60	1106.44
569.95	1106.82
570.31	1104.66
570.66	1102.39
571.01	1098.81
571.36	1093.62
571.71	1095.37
572.06	1099.19
572.42	1097.08
572.77	1093.05
573.12	1097.66
573.47	1097.55
573.82	1095.42
574.18	1096.14
574.53	1100.78
574.88	1098.86
575.23	1098.06
575.58	1098.37
575.93	1099.82
576.28	1098.83
576.64	1100.45
576.99	1101.01
577.34	1100.68
577.69	1097.85
578.04	1096.07
578.39	1093.55
578.74	1091.02
579.09	1087.32
579.44	1089.36
579.80	1090.71
580.15	1091.81
580.50	1094.53
580.85	1095.93
581.20	1094.32
581.55	1095.42
581.90	1093.38
582.25	1092.70
582.60	1092.89
582.95	1091.18
583.30	1087.18
583.65	1088.19
584.00	1087.67
584.35	1085.68
584.71	1083.53
585.06	1088.96
585.41	1087.18
585.76	1087.32
586.11	1086.80
586.46	1090.29
586.81	1085.87
587.16	1087.39
587.51	1085.75
587.86	1089.24
588.21	1084.93
588.56	1085.49
588.91	1085.91
589.26	1084.79
589.61	1083.55
589.96	1085.94
590.31	1086.06
590.66	1086.48
591.01	1091.88
591.36	1090.81
591.71	1090.39
592.06	1091.72
592.41	1091.67
592.76	1086.29
593.10	1086.99
593.45	1087.41
593.80	1085.96
594.15	1085.35
594.50	1086.20
594.85	1086.48
595.20	1087.72
595.55	1088.12
595.90	1086.55
596.25	1088.35
596.60	1088.40
596.95	1089.40
597.30	1087.93
597.64	1099.79
597.99	1100.71
598.34	1099.79
598.69	1098.55
599.04	1099.63
599.39	1089.47
599.74	1090.92
600.09	1092.61
600.44	1092.91
600.78	1092.47
601.13	1093.08
601.48	1088.75
601.83	1082.87
602.18	1084.02
602.53	1084.25
602.88	1083.83
603.22	1085.68
603.57	1087.81
603.92	1087.58
604.27	1089.31
604.62	1089.12
604.97	1086.94
605.31	1089.17
605.66	1086.10
606.01	1079.95
606.36	1076.76
606.71	1076.15
607.05	1075.78
607.40	1077.84
607.75	1079.29
608.10	1083.50
608.44	1083.71
608.79	1084.51
609.14	1084.07
609.49	1086.38
609.84	1086.24
610.18	1086.78
610.53	1088.35
610.88	1091.56
611.23	1093.66
611.57	1091.18
611.92	1091.70
612.27	1091.04
612.62	1088.96
612.96	1089.57
613.31	1086.90
613.66	1085.91
614.00	1083.93
614.35	1082.31
614.70	1077.56
615.05	1081.12
615.39	1079.01
615.74	1078.96
616.09	1080.46
616.43	1082.61
616.78	1079.43
617.13	1082.01
617.47	1081.82
617.82	1080.81
618.17	1077.07
618.51	1079.10
618.86	1080.13
619.21	1080.86
619.55	1083.76
619.90	1084.86
620.25	1085.33
620.59	1086.97
620.94	1089.57
621.29	1088.65
621.63	1093.78
621.98	1096.14
622.32	1094.86
622.67	1092.45
623.02	1091.77
623.36	1089.03
623.71	1087.74
624.05	1085.33
624.40	1085.05
624.75	1084.42
625.09	1082.08
625.44	1077.79
625.78	1076.69
626.13	1078.92
626.48	1077.84
626.82	1078.05
627.17	1081.70
627.51	1084.56
627.86	1082.40
628.20	1085.82
628.55	1086.99
628.89	1085.84
629.24	1080.93
629.58	1079.17
629.93	1077.00
630.28	1078.33
630.62	1077.14
630.97	1081.84
631.31	1084.35
631.66	1081.54
632.00	1081.05
632.35	1082.73
632.69	1083.20
633.04	1083.53
633.38	1082.61
633.73	1083.36
634.07	1084.56
634.42	1084.81
634.76	1079.90
635.11	1081.91
635.45	1082.03
635.79	1079.08
636.14	1077.63
636.48	1081.00
636.83	1082.01
637.17	1082.29
637.52	1082.57
637.86	1084.74
638.21	1084.16
638.55	1083.60
638.89	1080.39
639.24	1080.88
639.58	1080.70
639.93	1082.64
640.27	1083.76
640.61	1085.49
640.96	1086.29
641.30	1083.60
641.65	1084.44
641.99	1082.83
642.33	1083.41
642.68	1084.14
643.02	1088.54
643.37	1088.40
643.71	1089.96
644.05	1090.50
644.40	1089.24
644.74	1086.48
645.08	1083.50
645.43	1081.87
645.77	1079.29
646.11	1078.73
646.46	1081.33
646.80	1084.42
647.14	1082.90
647.49	1084.07
647.83	1086.55
648.17	1083.79
648.52	1081.37
648.86	1084.07
649.20	1086.29
649.55	1085.45
649.89	1085.07
650.23	1086.36
650.57	1084.84
650.92	1081.33
651.26	1079.41
651.60	1080.39
651.95	1078.05
652.29	1079.95
652.63	1083.32
652.97	1085.35
653.32	1086.10
653.66	1088.58
654.00	1088.44
654.34	1085.05
654.69	1083.41
655.03	1081.40
655.37	1083.27
655.71	1081.58
656.05	1081.87
656.40	1082.33
656.74	1083.93
657.08	1079.08
657.42	1079.92
657.76	1082.71
658.11	1084.09
658.45	1082.83
658.79	1087.27
659.13	1086.52
659.47	1085.26
659.82	1084.21
660.16	1082.80
660.50	1078.47
660.84	1081.09
661.18	1077.84
661.52	1078.12
661.87	1081.89
662.21	1082.76
662.55	1081.47
662.89	1086.10
663.23	1081.23
663.57	1076.90
663.91	1077.18
664.25	1075.66
664.60	1075.34
664.94	1080.25
665.28	1084.63
665.62	1087.30
665.96	1086.31
666.30	1084.14
666.64	1087.30
666.98	1083.67
667.32	1080.93
667.66	1081.84
668.01	1080.95
668.35	1077.49
668.69	1075.62
669.03	1074.49
669.37	1073.60
669.71	1075.08
670.05	1071.61
670.39	1076.34
670.73	1077.84
671.07	1078.80
671.41	1077.23
671.75	1079.20
672.09	1077.35
672.43	1079.13
672.77	1080.70
673.11	1082.26
673.45	1082.15
673.79	1084.37
674.13	1081.14
674.47	1079.10
674.81	1079.22
675.15	1081.54
675.49	1081.42
675.83	1081.91
676.17	1084.30
676.51	1084.60
676.85	1086.22
677.19	1085.42
677.53	1089.78
677.87	1089.89
678.21	1091.11
678.55	1086.99
678.89	1083.43
679.23	1079.17
679.57	1078.80
679.90	1078.68
680.24	1079.76
680.58	1082.22
680.92	1082.54
681.26	1081.56
681.60	1079.83
681.94	1080.37
682.28	1080.79
682.62	1079.57
682.96	1078.80
683.29	1077.40
683.63	1078.87
683.97	1081.16
684.31	1084.21
684.65	1088.37
684.99	1092.00
685.33	1091.88
685.67	1089.10
686.00	1088.00
686.34	1084.79
686.68	1081.21
687.02	1078.94
687.36	1079.92
687.70	1081.30
688.03	1077.21
688.37	1077.49
688.71	1079.57
689.05	1078.64
689.39	1078.12
689.72	1081.94
690.06	1083.64
690.40	1083.39
690.74	1084.74
691.08	1083.93
691.41	1084.91
691.75	1084.51
692.09	1083.55
692.43	1082.19
692.76	1081.21
693.10	1080.56
693.44	1082.45
693.78	1083.11
694.11	1082.69
694.45	1083.95
694.79	1084.09
695.13	1082.10
695.46	1079.55
695.80	1078.31
696.14	1074.94
696.48	1073.98
696.81	1076.72
697.15	1078.26
697.49	1076.76
697.82	1076.62
698.16	1077.07
698.50	1076.20
698.83	1075.97
699.17	1078.14
699.51	1082.17
699.84	1082.03
700.18	1082.36
700.52	1086.08
700.85	1087.11
701.19	1086.71
701.53	1089.03
701.86	1087.30
702.20	1083.69
702.54	1085.19
702.87	1086.34
703.21	1085.17
703.55	1087.93
703.88	1086.50
704.22	1085.70
704.55	1086.06
704.89	1087.53
705.23	1079.83
705.56	1083.41
705.90	1080.32
706.23	1077.68
706.57	1075.66
706.91	1079.53
707.24	1078.59
707.58	1081.42
707.91	1082.33
708.25	1081.77
708.58	1079.29
708.92	1080.44
709.26	1078.50
709.59	1079.43
709.93	1080.51
710.26	1085.91
710.60	1085.89
710.93	1085.99
711.27	1082.57
711.60	1080.30
711.94	1078.36
712.27	1076.88
712.61	1075.90
712.94	1075.13
713.28	1073.93
713.61	1071.52
713.95	1069.95
714.28	1071.24
714.62	1076.53
714.95	1080.30
715.29	1081.94
715.62	1085.00
715.96	1083.13
716.29	1080.02
716.63	1077.68
716.96	1077.58
717.29	1078.38
717.63	1080.58
717.96	1078.94
718.30	1081.23
718.63	1084.42
718.97	1080.02
719.30	1076.81
719.63	1080.27
719.97	1076.32
720.30	1075.52
720.64	1078.07
720.97	1083.53
721.30	1082.94
721.64	1087.48
721.97	1088.30
722.31	1088.70
722.64	1088.49
722.97	1087.60
723.31	1084.93
723.64	1085.35
723.97	1082.08
724.31	1079.29
724.64	1075.66
724.98	1078.38
725.31	1074.33
725.64	1078.43
725.98	1079.01
726.31	1083.71
726.64	1080.37
726.97	1079.71
727.31	1074.47
727.64	1073.81
727.97	1070.35
728.31	1069.95
728.64	1071.57
728.97	1072.53
729.31	1071.61
729.64	1072.85
729.97	1073.39
730.30	1073.74
730.64	1073.49
730.97	1074.31
731.30	1076.08
731.63	1077.14
731.97	1078.64
732.30	1080.25
732.63	1081.28
732.96	1079.95
733.30	1078.66
733.63	1079.64
733.96	1079.20
734.29	1077.11
734.63	1080.51
734.96	1080.65
735.29	1077.77
735.62	1081.02
735.95	1082.61
736.29	1079.85
736.62	1080.23
736.95	1081.66
737.28	1077.63
737.61	1076.62
737.94	1074.42
738.28	1073.37
738.61	1072.39
738.94	1072.67
739.27	1070.51
739.60	1073.56
739.93	1076.69
740.27	1078.28
740.60	1078.82
740.93	1081.96
741.26	1080.16
741.59	1079.78
741.92	1077.89
742.25	1078.12
742.58	1078.94
742.91	1081.28
743.25	1079.71
743.58	1081.12
743.91	1081.40
744.24	1082.01
744.57	1081.70
744.90	1084.65
745.23	1084.65
745.56	1085.56
745.89	1085.99
746.22	1088.33
746.55	1089.96
746.88	1086.43
747.21	1084.04
747.54	1082.66
747.87	1079.01
748.20	1077.54
748.53	1076.79
748.87	1078.99
749.20	1078.47
749.53	1076.13
749.86	1075.57
750.19	1078.17
750.52	1079.88
750.85	1079.29
751.18	1082.73
751.51	1081.51
751.84	1079.95
752.16	1082.43
752.49	1086.90
752.82	1086.99
753.15	1087.13
753.48	1091.84
753.81	1085.45
754.14	1080.77
754.47	1078.47
754.80	1074.91
755.13	1071.97
755.46	1073.72
755.79	1077.63
756.12	1080.09
756.45	1083.41
756.78	1085.87
757.11	1083.08
757.43	1080.84
757.76	1081.05
758.09	1079.88
758.42	1077.42
758.75	1078.73
759.08	1079.67
759.41	1077.61
759.74	1077.96
760.07	1078.17
760.39	1079.95
760.72	1075.76
761.05	1077.61
761.38	1076.62
761.71	1074.07
762.04	1072.67
762.36	1075.43
762.69	1073.70
763.02	1075.38
763.35	1078.43
763.68	1078.45
764.01	1079.55
764.33	1082.15
764.66	1080.81
764.99	1079.34
765.32	1079.27
765.65	1081.73
765.97	1079.43
766.30	1078.47
766.63	1078.45
766.96	1078.12
767.28	1074.17
767.61	1073.81
767.94	1076.72
768.27	1078.59
768.59	1080.44
768.92	1080.48
769.25	1083.93
769.58	1082.08
769.90	1082.94
770.23	1082.52
770.56	1082.43
770.89	1080.56
771.21	1081.66
771.54	1081.30
771.87	1082.03
772.19	1082.90
772.52	1081.96
772.85	1083.08
773.17	1081.61
773.50	1081.23
773.83	1077.65
774.15	1079.57
774.48	1075.36
774.81	1074.77
775.13	1076.79
775.46	1076.60
775.79	1073.32
776.11	1075.13
776.44	1074.84
776.77	1072.29
777.09	1076.04
777.42	1077.07
777.74	1077.68
778.07	1078.92
778.40	1078.96
778.72	1079.29
779.05	1080.13
779.37	1078.99
779.70	1076.15
780.03	1074.89
780.35	1070.47
780.68	1070.61
781.00	1072.06
781.33	1072.04
781.65	1073.86
781.98	1074.33
782.31	1073.04
782.63	1071.50
782.96	1072.32
783.28	1069.53
783.61	1072.22
783.93	1074.03
784.26	1075.20
784.58	1078.17
784.91	1078.78
785.23	1079.01
785.56	1078.82
785.88	1080.27
786.21	1080.27
786.53	1084.25
786.86	1084.58
787.18	1083.43
787.51	1080.95
787.83	1078.43
788.16	1074.89
788.48	1075.92
788.81	1075.17
789.13	1075.55
789.46	1075.27
789.78	1078.17
790.10	1074.38
790.43	1072.74
790.75	1073.42
791.08	1072.60
791.40	1069.27
791.73	1073.07
792.05	1078.14
792.37	1079.17
792.70	1081.68
793.02	1083.41
793.35	1082.31
793.67	1082.22
793.99	1081.09
794.32	1080.70
794.64	1078.38
794.96	1080.74
795.29	1077.98
795.61	1078.99
795.93	1078.61
796.26	1080.37
796.58	1080.06
796.91	1080.86
797.23	1079.24
797.55	1080.84
797.87	1080.18
798.20	1077.58
798.52	1074.59
798.84	1076.27
799.17	1073.49
799.49	1075.57
799.81	1071.17
800.14	1073.07
800.46	1071.78
800.78	1075.43
801.10	1071.03
801.43	1079.13
801.75	1079.38
802.07	1080.25
802.40	1078.28
802.72	1081.12
803.04	1076.25
803.36	1075.99
803.69	1077.91
804.01	1078.82
804.33	1080.27
804.65	1079.20
804.97	1078.47
805.30	1077.49
805.62	1076.13
805.94	1075.20
806.26	1077.47
806.58	1076.01
806.91	1075.71
807.23	1076.06
807.55	1074.94
807.87	1074.61
808.19	1079.97
808.52	1080.65
808.84	1079.27
809.16	1079.29
809.48	1080.81
809.80	1078.28
810.12	1077.61
810.44	1076.01
810.77	1077.70
811.09	1078.66
811.41	1075.22
811.73	1073.23
812.05	1074.05
812.37	1072.41
812.69	1071.12
813.01	1074.89
813.33	1073.14
813.66	1074.63
813.98	1075.29
814.30	1073.81
814.62	1075.22
814.94	1076.53
815.26	1074.75
815.58	1076.08
815.90	1078.78
816.22	1076.34
816.54	1075.71
816.86	1079.76
817.18	1078.24
817.50	1075.66
817.82	1077.51
818.14	1082.92
818.46	1082.40
818.78	1081.89
819.10	1082.59
819.42	1083.06
819.74	1080.84
820.06	1081.42
820.38	1082.59
820.70	1083.95
821.02	1082.52
821.34	1081.54
821.66	1079.46
821.98	1080.95
822.30	1081.42
822.62	1079.15
822.94	1080.18
823.26	1079.74
823.58	1079.36
823.90	1075.73
824.22	1077.79
824.54	1076.15
824.86	1079.24
825.18	1076.37
825.50	1081.14
825.81	1081.07
826.13	1079.55
826.45	1077.09
826.77	1077.58
827.09	1076.76
827.41	1077.23
827.73	1078.54
828.05	1078.50
828.36	1080.23
828.68	1074.49
829.00	1071.61
829.32	1073.49
829.64	1071.43
829.96	1072.25
830.28	1075.48
830.59	1078.40
830.91	1075.20
831.23	1076.55
831.55	1077.02
831.87	1079.08
832.19	1079.83
832.50	1082.33
832.82	1080.77
833.14	1081.33
833.46	1080.23
833.78	1080.63
834.09	1078.54
834.41	1080.72
834.73	1079.50
835.05	1078.00
835.36	1076.30
835.68	1075.31
836.00	1072.34
836.32	1070.56
836.63	1071.94
836.95	1074.87
837.27	1076.65
837.59	1079.85
837.90	1077.93
838.22	1076.44
838.54	1075.24
838.85	1076.65
839.17	1077.63
839.49	1083.29
839.80	1086.17
840.12	1087.20
840.44	1086.41
840.76	1084.84
841.07	1079.06
841.39	1078.78
841.71	1078.03
842.02	1077.86
842.34	1076.04
842.65	1077.61
842.97	1075.78
843.29	1074.75
843.60	1074.82
843.92	1079.27
844.24	1081.61
844.55	1081.21
844.87	1079.36
845.18	1076.88
845.50	1077.04
845.82	1075.01
846.13	1075.36
846.45	1074.75
846.76	1076.72
847.08	1072.08
847.40	1070.28
847.71	1067.96
848.03	1068.81
848.34	1070.96
848.66	1071.22
848.97	1074.68
849.29	1077.79
849.60	1082.19
849.92	1083.18
850.24	1083.67
850.55	1084.49
850.87	1084.89
851.18	1081.63
851.50	1076.72
851.81	1076.37
852.13	1074.35
852.44	1073.49
852.76	1070.16
853.07	1073.81
853.39	1075.43
853.70	1075.85
854.01	1075.57
854.33	1080.09
854.64	1077.14
854.96	1075.85
855.27	1077.25
855.59	1076.90
855.90	1075.57
856.22	1078.45
856.53	1079.31
856.84	1077.33
857.16	1079.67
857.47	1076.32
857.79	1076.18
858.10	1076.93
858.41	1077.79
858.73	1075.52
859.04	1081.68
859.36	1079.29
859.67	1080.13
859.98	1078.73
860.30	1076.86
860.61	1075.10
860.92	1076.39
861.24	1079.22
861.55	1080.67
861.87	1082.47
862.18	1082.26
862.49	1083.88
862.81	1081.96
863.12	1082.90
863.43	1081.19
863.74	1081.61
864.06	1080.11
864.37	1079.08
864.68	1077.04
865.00	1080.34
865.31	1078.80
865.62	1078.38
865.94	1079.29
866.25	1079.38
866.56	1078.10
866.87	1079.24
867.19	1082.97
867.50	1080.30
867.81	1080.48
868.12	1081.16
868.44	1081.68
868.75	1077.56
869.06	1081.21
869.37	1082.24
869.68	1079.38
870.00	1076.97
870.31	1078.57
870.62	1074.66
870.93	1078.19
871.24	1082.10
871.56	1083.01
871.87	1081.23
872.18	1082.76
872.49	1081.12
872.80	1081.47
873.12	1079.92
873.43	1083.34
873.74	1081.28
874.05	1080.02
874.36	1079.27
874.67	1082.40
874.98	1080.74
875.29	1082.43
875.61	1078.66
875.92	1079.78
876.23	1076.32
876.54	1078.87
876.85	1079.67
877.16	1082.50
877.47	1082.73
877.78	1082.10
878.09	1079.62
878.40	1079.03
878.72	1076.65
879.03	1072.71
879.34	1071.82
879.65	1070.35
879.96	1071.64
880.27	1072.06
880.58	1072.11
880.89	1076.32
881.20	1077.18
881.51	1076.41
881.82	1077.37
882.13	1077.68
882.44	1077.77
882.75	1081.30
883.06	1077.86
883.37	1078.54
883.68	1077.72
883.99	1077.72
884.30	1073.49
884.61	1074.82
884.92	1073.70
885.23	1075.97
885.54	1075.73
885.85	1075.78
886.16	1077.04
886.47	1080.09
886.78	1080.37
887.08	1077.70
887.39	1078.54
887.70	1077.18
888.01	1073.86
888.32	1074.24
888.63	1077.04
888.94	1076.44
889.25	1076.86
889.56	1079.24
889.87	1078.54
890.17	1077.11
890.48	1075.45
890.79	1075.66
891.10	1073.72
891.41	1072.25
891.72	1071.52
892.03	1074.56
892.34	1077.16
892.64	1078.00
892.95	1077.77
893.26	1076.53
893.57	1075.64
893.88	1073.77
894.18	1070.72
894.49	1071.33
894.80	1072.48
895.11	1070.65
895.42	1069.55
895.72	1073.18
896.03	1072.81
896.34	1073.14
896.65	1071.38
896.96	1070.44
897.26	1070.12
897.57	1070.12
897.88	1071.36
898.19	1074.42
898.49	1077.58
898.80	1081.77
899.11	1081.91
899.41	1082.76
899.72	1084.30
900.03	1083.76
900.34	1080.20
900.64	1082.17
900.95	1082.31
901.26	1081.23
901.56	1083.74
901.87	1083.88
902.18	1081.56
902.48	1079.20
902.79	1079.10
903.10	1074.77
903.40	1073.84
903.71	1076.41
904.02	1076.46
904.32	1077.44
904.63	1082.10
904.94	1080.65
905.24	1079.71
905.55	1079.67
905.85	1076.46
906.16	1073.93
906.47	1073.65
906.77	1069.88
907.08	1069.04
907.38	1069.48
907.69	1070.35
908.00	1070.89
908.30	1070.77
908.61	1070.12
908.91	1071.08
909.22	1067.38
909.52	1067.45
909.83	1070.61
910.14	1071.90
910.44	1072.71
910.75	1074.61
911.05	1076.18
911.36	1074.89
911.66	1074.28
911.97	1073.63
912.27	1072.95
912.58	1073.09
912.88	1074.56
913.19	1076.23
913.49	1079.78
913.80	1078.71
914.10	1075.17
914.41	1075.71
914.71	1072.97
915.01	1069.98
915.32	1069.98
915.62	1073.42
915.93	1073.79
916.23	1074.56
916.54	1074.66
916.84	1074.84
917.15	1075.38
917.45	1074.96
917.75	1079.13
918.06	1077.25
918.36	1079.43
918.67	1076.39
918.97	1073.60
919.27	1073.51
919.58	1075.34
919.88	1074.59
920.18	1075.34
920.49	1077.51
920.79	1076.44
921.10	1075.08
921.40	1073.53
921.70	1075.31
922.01	1074.38
922.31	1073.32
922.61	1074.75
922.92	1077.96
923.22	1077.16
923.52	1077.84
923.82	1080.93
924.13	1078.43
924.43	1077.68
924.73	1077.49
925.04	1077.33
925.34	1075.62
925.64	1078.85
925.94	1079.24
926.25	1077.96
926.55	1078.38
926.85	1076.81
927.15	1076.72
927.46	1075.05
927.76	1075.64
928.06	1074.66
928.36	1075.71
928.67	1073.56
928.97	1073.51
929.27	1074.14
929.57	1076.55
929.87	1077.21
930.18	1082.80
930.48	1085.14
930.78	1085.96
931.08	1083.53
931.38	1079.48
931.69	1078.87
931.99	1076.15
932.29	1074.45
932.59	1080.16
932.89	1084.46
933.19	1080.06
933.49	1082.90
933.80	1083.04
934.10	1078.85
934.40	1076.18
934.70	1075.99
935.00	1071.47
935.30	1074.42
935.60	1073.42
935.90	1073.02
936.20	1072.36
936.50	1073.98
936.81	1071.19
937.11	1071.68
937.41	1074.52
937.71	1075.27
938.01	1076.93
938.31	1076.32
938.61	1074.59
938.91	1074.47
939.21	1076.13
939.51	1071.87
939.81	1074.35
940.11	1078.38
940.41	1077.96
940.71	1076.48
941.01	1079.74
941.31	1078.19
941.61	1076.30
941.91	1077.77
942.21	1077.75
942.51	1079.27
942.81	1076.53
943.11	1077.63
943.41	1075.87
943.71	1073.60
944.01	1070.56
944.31	1073.39
944.61	1070.30
944.90	1070.35
945.20	1071.01
945.50	1073.70
945.80	1077.07
946.10	1080.37
946.40	1078.36
946.70	1080.34
947.00	1079.88
947.30	1074.87
947.60	1073.51
947.89	1075.10
948.19	1075.24
948.49	1075.27
948.79	1078.64
949.09	1077.96
949.39	1076.34
949.69	1079.27
949.98	1079.15
950.28	1076.62
950.58	1077.75
950.88	1078.73
951.18	1076.88
951.48	1073.81
951.77	1077.63
952.07	1077.96
952.37	1078.71
952.67	1079.74
952.97	1085.00
953.26	1084.89
953.56	1084.14
953.86	1081.82
954.16	1079.74
954.45	1077.23
954.75	1075.10
955.05	1078.17
955.35	1080.23
955.64	1080.39
955.94	1081.58
956.24	1079.15
956.54	1078.45
956.83	1077.28
957.13	1075.59
957.43	1072.18
957.72	1073.16
958.02	1072.25
958.32	1071.66
958.61	1072.85
958.91	1075.27
959.21	1076.86
959.50	1075.34
959.80	1076.65
960.10	1076.01
960.39	1074.47
960.69	1074.59
960.99	1073.42
961.28	1073.98
961.58	1075.55
961.87	1079.03
962.17	1077.93
962.47	1075.97
962.76	1076.72
963.06	1073.16
963.36	1069.84
963.65	1069.93
963.95	1075.24
964.24	1075.29
964.54	1075.87
964.83	1078.38
965.13	1077.42
965.42	1076.79
965.72	1075.38
966.02	1077.96
966.31	1076.20
966.61	1080.23
966.90	1080.37
967.20	1078.24
967.49	1080.81
967.79	1082.90
968.08	1080.77
968.38	1082.03
968.67	1086.59
968.97	1084.79
969.26	1083.29
969.56	1082.66
969.85	1077.47
970.15	1075.55
970.44	1071.78
970.74	1068.57
971.03	1068.95
971.32	1068.01
971.62	1068.69
971.91	1070.61
972.21	1074.38
972.50	1076.69
972.80	1077.44
973.09	1078.03
973.38	1077.02
973.68	1075.41
973.97	1071.97
974.27	1076.32
974.56	1075.08
974.85	1076.79
975.15	1078.82
975.44	1081.94
975.73	1080.41
976.03	1079.08
976.32	1079.48
976.61	1075.92
976.91	1073.58
977.20	1071.90
977.49	1073.93
977.79	1074.21
978.08	1073.58
978.37	1073.11
978.67	1075.66
978.96	1073.14
979.25	1071.10
979.55	1075.55
979.84	1078.33
980.13	1077.91
980.42	1080.06
980.72	1082.38
981.01	1081.56
981.30	1079.90
981.59	1081.00
981.89	1078.47
982.18	1076.37
982.47	1075.27
982.76	1074.70
983.06	1073.09
983.35	1073.30
983.64	1075.01
983.93	1073.09
984.22	1072.41
984.52	1073.86
984.81	1073.79
985.10	1072.43
985.39	1071.94
985.68	1072.34
985.97	1067.99
986.27	1069.84
986.56	1066.56
986.85	1067.21
987.14	1066.96
987.43	1068.41
987.72	1069.11
988.01	1074.00
988.31	1076.55
988.60	1075.34
988.89	1077.82
989.18	1075.20
989.47	1070.70
989.76	1069.86
990.05	1072.27
990.34	1070.44
990.63	1074.91
990.92	1080.44
991.21	1082.69
991.51	1081.66
991.80	1081.30
992.09	1078.94
992.38	1077.11
992.67	1072.13
992.96	1073.11
993.25	1072.15
993.54	1071.64
993.83	1072.67
994.12	1074.12
994.41	1074.00
994.70	1076.83
994.99	1080.98
995.28	1077.16
995.57	1080.41
995.86	1080.72
996.15	1078.40
996.44	1075.66
996.73	1080.56
997.02	1076.95
997.31	1076.41
997.59	1078.59
997.88	1076.11
998.17	1074.82
998.46	1076.18
998.75	1077.14
999.04	1074.68
999.33	1073.58
999.62	1070.77
999.91	1072.78
1000.20	1072.60
1000.49	1073.39
1000.77	1073.51
1001.06	1076.04
1001.35	1074.35
1001.64	1073.02
1001.93	1072.60
1002.22	1073.67
1002.51	1069.86
1002.79	1069.79
1003.08	1070.33
1003.37	1072.60
1003.66	1077.33
1003.95	1080.44
1004.23	1078.89
1004.52	1077.86
1004.81	1075.99
1005.10	1069.86
1005.39	1072.39
1005.67	1075.80
1005.96	1075.85
1006.25	1077.61
1006.54	1080.79
1006.83	1078.43
1007.11	1075.57
1007.40	1077.47
1007.69	1076.83
1007.97	1075.73
1008.26	1074.42
1008.55	1079.06
1008.84	1079.08
1009.12	1078.94
1009.41	1078.71
1009.70	1082.92
1009.98	1077.77
1010.27	1073.70
1010.56	1075.43
1010.85	1076.88
1011.13	1071.08
1011.42	1072.29
1011.71	1074.05
1011.99	1073.16
1012.28	1072.62
1012.56	1076.93
1012.85	1078.50
1013.14	1079.48
1013.42	1079.88
1013.71	1079.90
1014.00	1079.57
1014.28	1077.47
1014.57	1077.54
1014.85	1075.45
1015.14	1075.78
1015.43	1075.52
1015.71	1079.29
1016.00	1077.09
1016.28	1080.48
1016.57	1081.51
1016.85	1080.60
1017.14	1079.88
1017.43	1082.87
1017.71	1080.30
1018.00	1081.49
1018.28	1083.46
1018.57	1083.34
1018.85	1086.03
1019.14	1086.17
1019.42	1084.28
1019.71	1084.65
1019.99	1084.63
1020.28	1082.33
1020.56	1081.63
1020.85	1080.60
1021.13	1077.07
1021.42	1076.65
1021.70	1075.87
1021.99	1075.24
1022.27	1075.66
1022.55	1070.56
1022.84	1077.35
>>>>>End Processed Spectral Data<<<<<
