SpectraSuite Data File
++++++++++++++++++++++++++++++++++++
Date: Mon Aug 26 10:22:05 PDT 2019
User: corrico
Dark Spectrum Present: No
Reference Spectrum Present: No
Number of Sampled Component Spectra: 1
Spectrometers: USB2+H06089
Integration Time (usec): 2000 (USB2+H06089)
Spectra Averaged: 20 (USB2+H06089)
Boxcar Smoothing: 2 (USB2+H06089)
Correct for Electrical Dark: No (USB2+H06089)
Strobe/Lamp Enabled: No (USB2+H06089)
Correct for Detector Non-linearity: No (USB2+H06089)
Correct for Stray Light: No (USB2+H06089)
Number of Pixels in Processed Spectrum: 2048
>>>>>Begin Processed Spectral Data<<<<<
339.70	1022.23
340.07	1022.23
340.45	991.90
340.82	975.25
341.19	950.61
341.57	923.13
341.94	913.35
342.31	904.90
342.69	897.13
343.06	896.19
343.43	898.41
343.81	899.00
344.18	901.46
344.55	903.21
344.93	909.58
345.30	917.26
345.67	922.24
346.04	930.01
346.42	938.13
346.79	944.78
347.16	952.27
347.54	962.08
347.91	968.77
348.28	980.15
348.65	989.39
349.03	996.95
349.40	1005.89
349.77	1018.06
350.14	1023.66
350.52	1030.09
350.89	1038.52
351.26	1044.77
351.63	1050.60
352.01	1055.63
352.38	1063.14
352.75	1064.64
353.12	1066.61
353.50	1065.72
353.87	1068.10
354.24	1065.51
354.61	1070.51
354.98	1076.51
355.36	1081.73
355.73	1083.81
356.10	1088.19
356.47	1090.13
356.84	1088.93
357.22	1088.68
357.59	1089.50
357.96	1090.32
358.33	1089.99
358.70	1089.17
359.08	1087.11
359.45	1085.33
359.82	1084.56
360.19	1083.13
360.56	1079.90
360.94	1081.42
361.31	1081.58
361.68	1078.33
362.05	1080.27
362.42	1080.04
362.79	1078.36
363.16	1080.58
363.54	1081.70
363.91	1079.67
364.28	1080.32
364.65	1080.67
365.02	1080.86
365.39	1079.55
365.76	1080.06
366.14	1080.39
366.51	1076.20
366.88	1076.27
367.25	1075.59
367.62	1073.07
367.99	1073.04
368.36	1075.34
368.73	1073.42
369.10	1073.30
369.48	1072.06
369.85	1070.58
370.22	1072.39
370.59	1074.10
370.96	1075.64
371.33	1075.38
371.70	1076.83
372.07	1078.71
372.44	1076.90
372.81	1078.33
373.18	1082.80
373.55	1085.05
373.93	1083.79
374.30	1083.83
374.67	1083.71
375.04	1081.07
375.41	1080.51
375.78	1080.74
376.15	1078.82
376.52	1077.96
376.89	1077.84
377.26	1079.60
377.63	1078.92
378.00	1079.06
378.37	1080.98
378.74	1082.47
379.11	1079.43
379.48	1079.95
379.85	1084.16
380.22	1085.10
380.59	1086.34
380.96	1086.45
381.33	1086.41
381.70	1085.89
382.07	1083.11
382.44	1079.38
382.81	1082.24
383.18	1081.26
383.55	1079.20
383.92	1082.19
384.29	1083.88
384.66	1086.66
385.03	1087.83
385.40	1090.29
385.77	1085.82
386.14	1088.02
386.51	1086.03
386.88	1083.86
387.25	1085.35
387.62	1088.04
387.99	1085.14
388.36	1083.90
388.73	1087.30
389.10	1084.67
389.46	1088.70
389.83	1089.05
390.20	1087.53
390.57	1081.51
390.94	1082.71
391.31	1079.43
391.68	1081.37
392.05	1081.87
392.42	1088.33
392.79	1085.84
393.16	1087.81
393.53	1085.52
393.89	1085.56
394.26	1086.55
394.63	1086.17
395.00	1088.04
395.37	1090.20
395.74	1089.64
396.11	1085.03
396.48	1089.75
396.84	1084.44
397.21	1085.38
397.58	1088.19
397.95	1091.81
398.32	1087.34
398.69	1090.57
399.06	1091.91
399.42	1092.56
399.79	1091.37
400.16	1092.52
400.53	1091.11
400.90	1089.05
401.27	1086.34
401.64	1086.27
402.00	1087.44
402.37	1088.47
402.74	1089.52
403.11	1093.76
403.48	1095.46
403.84	1095.14
404.21	1094.32
404.58	1095.21
404.95	1091.18
405.32	1092.52
405.68	1093.52
406.05	1096.75
406.42	1095.75
406.79	1098.72
407.16	1096.52
407.52	1098.86
407.89	1099.26
408.26	1100.08
408.63	1100.78
408.99	1102.77
409.36	1100.47
409.73	1101.74
410.10	1104.15
410.47	1104.62
410.83	1105.11
411.20	1106.46
411.57	1104.15
411.94	1104.69
412.30	1102.95
412.67	1101.83
413.04	1100.38
413.40	1102.84
413.77	1101.06
414.14	1100.59
414.51	1100.19
414.87	1106.11
415.24	1106.63
415.61	1107.73
415.97	1109.55
416.34	1109.55
416.71	1107.45
417.08	1105.34
417.44	1104.31
417.81	1108.62
418.18	1110.61
418.54	1111.73
418.91	1114.77
419.28	1118.85
419.64	1119.13
420.01	1122.59
420.38	1124.44
420.74	1123.62
421.11	1125.61
421.48	1125.12
421.84	1126.52
422.21	1129.26
422.58	1136.70
422.94	1139.51
423.31	1144.62
423.68	1150.00
424.04	1151.85
424.41	1148.59
424.77	1147.96
425.14	1150.14
425.51	1150.09
425.87	1154.05
426.24	1167.25
426.61	1177.92
426.97	1185.46
427.34	1194.82
427.70	1203.18
428.07	1207.13
428.44	1214.06
428.80	1223.14
429.17	1233.25
429.53	1239.38
429.90	1251.16
430.27	1262.56
430.63	1273.42
431.00	1284.88
431.36	1302.72
431.73	1319.85
432.09	1337.24
432.46	1353.60
432.83	1375.56
433.19	1397.14
433.56	1420.52
433.92	1442.94
434.29	1472.34
434.65	1498.15
435.02	1528.14
435.38	1558.19
435.75	1595.52
436.11	1631.92
436.48	1672.41
436.84	1713.39
437.21	1759.33
437.57	1804.93
437.94	1854.97
438.30	1914.77
438.67	1974.66
439.03	2034.35
439.40	2104.89
439.76	2178.24
440.13	2249.54
440.49	2331.13
440.86	2409.09
441.22	2493.51
441.59	2577.84
441.95	2678.49
442.32	2782.12
442.68	2905.26
443.05	3027.04
443.41	3161.83
443.78	3291.50
444.14	3428.23
444.51	3562.34
444.87	3732.55
445.24	3898.30
445.60	4075.97
445.96	4257.88
446.33	4473.93
446.69	4669.65
447.06	4893.55
447.42	5119.36
447.79	5363.03
448.15	5643.55
448.51	5928.72
448.88	6247.87
449.24	6562.65
449.61	6919.33
449.97	7272.44
450.33	7654.72
450.70	8006.69
451.06	8443.74
451.43	8850.57
451.79	9319.47
452.15	9799.52
452.52	10346.48
452.88	10884.47
453.24	11517.26
453.61	12204.56
453.97	12920.34
454.34	13621.31
454.70	14450.91
455.06	15254.39
455.43	16012.03
455.79	16703.37
456.15	17528.23
456.52	18282.72
456.88	19203.72
457.24	20117.07
457.61	21238.63
457.97	22285.50
458.33	23375.63
458.70	24416.66
459.06	25399.54
459.42	26409.11
459.79	27354.66
460.15	28408.18
460.51	29414.31
460.88	30520.59
461.24	31507.22
461.60	32639.03
461.96	33698.35
462.33	34758.69
462.69	35817.31
463.05	36959.87
463.42	37991.15
463.78	38942.77
464.14	39682.26
464.50	40428.59
464.87	40944.02
465.23	41277.50
465.59	41653.79
465.95	41968.50
466.32	42212.94
466.68	42484.42
467.04	42684.12
467.40	42720.28
467.77	42855.82
468.13	42758.87
468.49	42598.92
468.85	42471.60
469.22	42362.69
469.58	42117.82
469.94	41980.25
470.30	41770.82
470.66	41431.79
471.03	40908.23
471.39	40512.24
471.75	39773.64
472.11	39040.51
472.47	38500.74
472.84	37957.90
473.20	37263.51
473.56	36876.64
473.92	36330.71
474.28	35738.62
474.65	35110.68
475.01	34428.13
475.37	33620.30
475.73	32926.35
476.09	32217.12
476.45	31589.88
476.81	31023.22
477.18	30451.02
477.54	29975.94
477.90	29509.22
478.26	28900.61
478.62	28386.51
478.98	27962.47
479.34	27518.76
479.71	26962.27
480.07	26558.76
480.43	26102.52
480.79	25638.67
481.15	25175.62
481.51	24794.93
481.87	24440.88
482.23	24091.58
482.59	23749.11
482.96	23415.68
483.32	23109.40
483.68	22715.93
484.04	22365.48
484.40	21957.24
484.76	21515.42
485.12	21045.39
485.48	20613.19
485.84	20125.26
486.20	19676.67
486.56	19232.37
486.92	18840.49
487.28	18441.99
487.64	18024.63
488.00	17634.23
488.37	17237.83
488.73	16794.23
489.09	16302.53
489.45	15857.32
489.81	15395.79
490.17	14941.77
490.53	14542.38
490.89	14159.98
491.25	13752.10
491.61	13367.81
491.97	12981.57
492.33	12567.90
492.69	12206.85
493.05	11893.69
493.41	11553.35
493.77	11243.98
494.13	10943.29
494.49	10648.88
494.85	10350.93
495.21	10065.94
495.57	9788.52
495.93	9520.29
496.29	9252.18
496.64	9010.57
497.00	8767.62
497.36	8511.73
497.72	8275.01
498.08	8056.80
498.44	7821.20
498.80	7598.55
499.16	7400.19
499.52	7200.45
499.88	7018.49
500.24	6846.72
500.60	6692.76
500.96	6545.61
501.32	6395.40
501.68	6226.13
502.03	6052.11
502.39	5887.29
502.75	5706.53
503.11	5545.55
503.47	5404.04
503.83	5272.99
504.19	5150.98
504.55	5037.79
504.91	4926.62
505.26	4809.92
505.62	4691.67
505.98	4571.84
506.34	4451.63
506.70	4330.67
507.06	4219.82
507.42	4121.59
507.78	4023.47
508.13	3934.30
508.49	3848.19
508.85	3771.16
509.21	3683.98
509.57	3598.64
509.93	3515.39
510.28	3429.96
510.64	3342.28
511.00	3261.44
511.36	3188.39
511.72	3115.44
512.07	3056.34
512.43	2994.79
512.79	2938.43
513.15	2875.09
513.51	2812.11
513.86	2749.31
514.22	2695.45
514.58	2641.90
514.94	2594.27
515.30	2556.12
515.65	2512.78
516.01	2474.81
516.37	2434.86
516.73	2396.33
517.08	2354.42
517.44	2313.46
517.80	2273.53
518.16	2235.82
518.51	2201.93
518.87	2169.98
519.23	2144.49
519.59	2109.24
519.94	2078.16
520.30	2052.13
520.66	2021.73
521.01	1987.49
521.37	1958.47
521.73	1931.69
522.09	1898.53
522.44	1872.29
522.80	1850.78
523.16	1828.87
523.51	1807.36
523.87	1789.13
524.23	1766.07
524.58	1743.09
524.94	1724.04
525.30	1704.00
525.65	1682.61
526.01	1665.85
526.37	1646.57
526.72	1627.59
527.08	1607.85
527.44	1594.54
527.79	1579.77
528.15	1565.65
528.51	1553.18
528.86	1540.56
529.22	1520.53
529.58	1504.85
529.93	1491.44
530.29	1477.63
530.65	1461.95
531.00	1450.90
531.36	1441.00
531.71	1433.67
532.07	1422.79
532.43	1415.35
532.78	1406.33
533.14	1395.71
533.49	1381.95
533.85	1375.51
534.21	1367.22
534.56	1358.92
534.92	1353.11
535.27	1348.57
535.63	1342.60
535.98	1333.43
536.34	1327.67
536.69	1319.20
537.05	1311.40
537.41	1297.24
537.76	1290.99
538.12	1282.78
538.47	1277.35
538.83	1272.60
539.18	1269.09
539.54	1265.36
539.89	1260.14
540.25	1256.94
540.60	1253.99
540.96	1250.29
541.31	1245.49
541.67	1244.42
542.02	1236.74
542.38	1228.57
542.73	1225.72
543.09	1223.07
543.44	1218.67
543.80	1215.96
544.15	1214.81
544.51	1214.04
544.86	1209.61
545.22	1207.67
545.57	1209.21
545.93	1203.11
546.28	1198.64
546.64	1196.51
546.99	1190.02
547.35	1184.94
547.70	1181.99
548.05	1179.19
548.41	1178.72
548.76	1177.71
549.12	1171.77
549.47	1171.44
549.83	1168.91
550.18	1164.53
550.53	1163.97
550.89	1164.95
551.24	1161.35
551.60	1158.05
551.95	1155.78
552.30	1152.78
552.66	1151.85
553.01	1152.78
553.37	1152.99
553.72	1151.24
554.07	1150.07
554.43	1144.73
554.78	1142.32
555.13	1141.85
555.49	1139.75
555.84	1134.74
556.19	1137.03
556.55	1135.51
556.90	1132.89
557.26	1131.37
557.61	1133.99
557.96	1131.37
558.32	1129.47
558.67	1130.24
559.02	1131.72
559.37	1132.91
559.73	1133.19
560.08	1136.96
560.43	1133.47
560.79	1127.79
561.14	1121.47
561.49	1119.90
561.85	1116.95
562.20	1115.12
562.55	1113.30
562.90	1117.56
563.26	1115.59
563.61	1113.25
563.96	1112.48
564.32	1117.02
564.67	1114.31
565.02	1113.51
565.37	1113.53
565.73	1115.85
566.08	1114.42
566.43	1111.57
566.78	1111.33
567.14	1110.23
567.49	1107.61
567.84	1107.05
568.19	1105.04
568.54	1102.21
568.90	1101.18
569.25	1098.32
569.60	1098.30
569.95	1101.43
570.31	1104.31
570.66	1102.09
571.01	1106.84
571.36	1104.52
571.71	1106.63
572.06	1103.56
572.42	1106.89
572.77	1106.35
573.12	1105.88
573.47	1101.18
573.82	1102.51
574.18	1100.47
574.53	1100.78
574.88	1102.72
575.23	1106.56
575.58	1107.80
575.93	1107.80
576.28	1103.82
576.64	1104.22
576.99	1099.16
577.34	1096.35
577.69	1095.25
578.04	1098.23
578.39	1093.19
578.74	1094.43
579.09	1093.76
579.44	1096.00
579.80	1089.57
580.15	1089.43
580.50	1090.32
580.85	1089.29
581.20	1085.82
581.55	1092.16
581.90	1093.80
582.25	1095.21
582.60	1096.28
582.95	1097.43
583.30	1094.06
583.65	1096.28
584.00	1094.62
584.35	1095.91
584.71	1095.28
585.06	1098.25
585.41	1097.15
585.76	1094.32
586.11	1091.95
586.46	1094.06
586.81	1092.96
587.16	1092.16
587.51	1094.74
587.86	1097.13
588.21	1092.26
588.56	1089.05
588.91	1085.89
589.26	1085.56
589.61	1084.09
589.96	1086.85
590.31	1087.25
590.66	1090.69
591.01	1089.10
591.36	1090.15
591.71	1090.29
592.06	1091.72
592.41	1089.73
592.76	1087.65
593.10	1086.24
593.45	1085.45
593.80	1084.65
594.15	1087.18
594.50	1088.37
594.85	1087.02
595.20	1086.50
595.55	1087.18
595.90	1083.81
596.25	1083.13
596.60	1084.60
596.95	1087.41
597.30	1086.52
597.64	1098.48
597.99	1102.56
598.34	1103.73
598.69	1101.90
599.04	1100.45
599.39	1092.00
599.74	1091.91
600.09	1088.51
600.44	1088.21
600.78	1090.95
601.13	1088.61
601.48	1086.41
601.83	1086.78
602.18	1084.72
602.53	1081.89
602.88	1082.80
603.22	1082.61
603.57	1085.05
603.92	1085.70
604.27	1086.71
604.62	1087.79
604.97	1086.83
605.31	1088.56
605.66	1089.61
606.01	1094.29
606.36	1093.22
606.71	1091.91
607.05	1089.03
607.40	1087.44
607.75	1078.14
608.10	1077.35
608.44	1081.40
608.79	1081.07
609.14	1082.03
609.49	1088.35
609.84	1088.16
610.18	1083.29
610.53	1084.89
610.88	1083.53
611.23	1083.79
611.57	1085.70
611.92	1089.03
612.27	1090.99
612.62	1094.83
612.96	1094.95
613.31	1094.04
613.66	1092.54
614.00	1091.06
614.35	1084.60
614.70	1081.19
615.05	1079.83
615.39	1080.91
615.74	1080.34
616.09	1081.75
616.43	1083.11
616.78	1084.79
617.13	1082.19
617.47	1079.67
617.82	1080.93
618.17	1080.72
618.51	1080.58
618.86	1081.42
619.21	1080.60
619.55	1080.77
619.90	1083.25
620.25	1080.46
620.59	1078.82
620.94	1082.08
621.29	1080.81
621.63	1079.17
621.98	1079.46
622.32	1086.48
622.67	1083.71
623.02	1085.96
623.36	1084.98
623.71	1086.50
624.05	1083.55
624.40	1082.17
624.75	1084.44
625.09	1083.46
625.44	1084.84
625.78	1085.68
626.13	1090.06
626.48	1088.21
626.82	1088.96
627.17	1087.04
627.51	1085.75
627.86	1081.54
628.20	1081.84
628.55	1079.34
628.89	1079.10
629.24	1079.20
629.58	1083.64
629.93	1082.78
630.28	1083.46
630.62	1083.88
630.97	1083.93
631.31	1083.22
631.66	1082.87
632.00	1084.30
632.35	1087.79
632.69	1089.00
633.04	1089.54
633.38	1090.74
633.73	1091.67
634.07	1088.33
634.42	1088.12
634.76	1087.53
635.11	1087.51
635.45	1087.30
635.79	1084.60
636.14	1081.19
636.48	1081.42
636.83	1083.39
637.17	1084.77
637.52	1086.50
637.86	1089.75
638.21	1087.25
638.55	1083.79
638.89	1082.76
639.24	1084.86
639.58	1086.71
639.93	1089.80
640.27	1089.17
640.61	1090.39
640.96	1092.77
641.30	1090.13
641.65	1090.06
641.99	1089.80
642.33	1085.14
642.68	1081.98
643.02	1077.16
643.37	1076.11
643.71	1076.44
644.05	1082.54
644.40	1080.58
644.74	1086.69
645.08	1082.10
645.43	1083.13
645.77	1080.88
646.11	1084.91
646.46	1087.04
646.80	1091.02
647.14	1089.22
647.49	1088.82
647.83	1089.94
648.17	1086.78
648.52	1086.15
648.86	1087.02
649.20	1087.60
649.55	1086.94
649.89	1085.54
650.23	1085.14
650.57	1087.20
650.92	1084.18
651.26	1078.80
651.60	1081.98
651.95	1083.43
652.29	1081.00
652.63	1083.55
652.97	1087.30
653.32	1085.75
653.66	1084.44
654.00	1084.96
654.34	1083.29
654.69	1082.52
655.03	1079.90
655.37	1079.22
655.71	1080.70
656.05	1079.24
656.40	1080.09
656.74	1083.25
657.08	1086.90
657.42	1086.03
657.76	1088.79
658.11	1085.07
658.45	1083.06
658.79	1080.13
659.13	1082.99
659.47	1083.22
659.82	1083.08
660.16	1082.78
660.50	1084.21
660.84	1081.35
661.18	1078.71
661.52	1082.45
661.87	1081.70
662.21	1077.47
662.55	1078.21
662.89	1078.92
663.23	1078.71
663.57	1078.89
663.91	1080.79
664.25	1080.23
664.60	1082.64
664.94	1081.26
665.28	1084.44
665.62	1086.38
665.96	1088.12
666.30	1085.84
666.64	1086.34
666.98	1084.14
667.32	1081.58
667.66	1078.26
668.01	1077.00
668.35	1074.73
668.69	1074.24
669.03	1076.76
669.37	1080.84
669.71	1084.35
670.05	1086.52
670.39	1088.93
670.73	1087.86
671.07	1084.84
671.41	1084.79
671.75	1082.31
672.09	1081.14
672.43	1083.29
672.77	1085.07
673.11	1085.03
673.45	1088.14
673.79	1085.94
674.13	1082.61
674.47	1079.15
674.81	1077.61
675.15	1076.62
675.49	1078.61
675.83	1082.36
676.17	1084.00
676.51	1084.42
676.85	1088.40
677.19	1090.48
677.53	1089.00
677.87	1087.39
678.21	1086.36
678.55	1078.87
678.89	1076.95
679.23	1074.59
679.57	1076.72
679.90	1075.38
680.24	1073.30
680.58	1071.59
680.92	1074.38
681.26	1075.43
681.60	1077.68
681.94	1082.29
682.28	1083.32
682.62	1083.41
682.96	1082.47
683.29	1081.89
683.63	1082.33
683.97	1082.90
684.31	1080.13
684.65	1080.25
684.99	1080.32
685.33	1081.49
685.67	1080.91
686.00	1082.03
686.34	1083.64
686.68	1081.33
687.02	1079.90
687.36	1084.02
687.70	1084.32
688.03	1083.93
688.37	1088.79
688.71	1088.56
689.05	1085.42
689.39	1084.65
689.72	1083.60
690.06	1080.77
690.40	1081.49
690.74	1080.56
691.08	1079.62
691.41	1082.29
691.75	1083.18
692.09	1084.04
692.43	1085.00
692.76	1088.72
693.10	1086.03
693.44	1088.19
693.78	1083.97
694.11	1083.32
694.45	1080.88
694.79	1078.61
695.13	1074.47
695.46	1077.58
695.80	1076.95
696.14	1076.65
696.48	1079.43
696.81	1078.40
697.15	1079.13
697.49	1078.66
697.82	1077.65
698.16	1075.45
698.50	1077.14
698.83	1075.59
699.17	1072.90
699.51	1072.92
699.84	1075.99
700.18	1076.72
700.52	1078.28
700.85	1082.54
701.19	1081.33
701.53	1079.53
701.86	1083.43
702.20	1082.90
702.54	1082.38
702.87	1085.28
703.21	1082.38
703.55	1079.60
703.88	1080.98
704.22	1081.12
704.55	1081.33
704.89	1086.80
705.23	1087.44
705.56	1087.16
705.90	1087.65
706.23	1086.73
706.57	1084.91
706.91	1083.79
707.24	1084.02
707.58	1081.68
707.91	1083.06
708.25	1081.42
708.58	1080.79
708.92	1078.94
709.26	1079.85
709.59	1078.71
709.93	1078.24
710.26	1079.36
710.60	1080.70
710.93	1080.37
711.27	1079.60
711.60	1079.83
711.94	1080.06
712.27	1079.15
712.61	1077.79
712.94	1079.97
713.28	1081.47
713.61	1081.70
713.95	1076.15
714.28	1079.08
714.62	1078.75
714.95	1076.93
715.29	1075.22
715.62	1079.74
715.96	1078.03
716.29	1075.55
716.63	1076.20
716.96	1073.93
717.29	1073.25
717.63	1074.07
717.96	1077.84
718.30	1075.03
718.63	1076.06
718.97	1077.21
719.30	1078.36
719.63	1080.06
719.97	1086.01
720.30	1088.44
720.64	1089.10
720.97	1087.37
721.30	1087.76
721.64	1083.83
721.97	1082.24
722.31	1081.77
722.64	1081.89
722.97	1078.80
723.31	1078.89
723.64	1078.78
723.97	1078.36
724.31	1078.92
724.64	1080.32
724.98	1079.71
725.31	1081.35
725.64	1083.74
725.98	1084.00
726.31	1083.62
726.64	1083.43
726.97	1080.04
727.31	1081.82
727.64	1084.11
727.97	1080.79
728.31	1079.69
728.64	1083.79
728.97	1081.14
729.31	1079.69
729.64	1079.41
729.97	1084.37
730.30	1083.81
730.64	1084.56
730.97	1081.68
731.30	1086.31
731.63	1083.53
731.97	1082.52
732.30	1082.61
732.63	1084.56
732.96	1082.19
733.30	1086.08
733.63	1087.34
733.96	1087.27
734.29	1084.07
734.63	1086.24
734.96	1081.58
735.29	1080.53
735.62	1078.28
735.95	1081.75
736.29	1076.62
736.62	1079.55
736.95	1081.12
737.28	1085.35
737.61	1085.28
737.94	1088.23
738.28	1085.84
738.61	1081.87
738.94	1079.74
739.27	1078.71
739.60	1078.03
739.93	1078.36
740.27	1079.74
740.60	1078.66
740.93	1079.62
741.26	1079.78
741.59	1082.52
741.92	1080.81
742.25	1081.09
742.58	1080.86
742.91	1082.05
743.25	1081.30
743.58	1082.36
743.91	1078.26
744.24	1079.27
744.57	1080.84
744.90	1081.37
745.23	1080.56
745.56	1083.79
745.89	1081.56
746.22	1078.31
746.55	1076.44
746.88	1079.48
747.21	1078.68
747.54	1078.59
747.87	1080.74
748.20	1080.77
748.53	1079.50
748.87	1083.34
749.20	1085.54
749.53	1082.26
749.86	1080.63
750.19	1076.27
750.52	1072.81
750.85	1072.34
751.18	1076.34
751.51	1076.95
751.84	1079.57
752.16	1080.77
752.49	1081.51
752.82	1078.07
753.15	1080.74
753.48	1083.64
753.81	1084.42
754.14	1082.40
754.47	1081.42
754.80	1078.71
755.13	1076.97
755.46	1077.86
755.79	1079.62
756.12	1082.10
756.45	1085.12
756.78	1088.04
757.11	1087.18
757.43	1086.17
757.76	1085.61
758.09	1085.66
758.42	1084.32
758.75	1083.43
759.08	1083.83
759.41	1081.98
759.74	1082.24
760.07	1083.32
760.39	1080.98
760.72	1081.37
761.05	1079.92
761.38	1079.41
761.71	1076.48
762.04	1078.52
762.36	1077.37
762.69	1082.69
763.02	1081.09
763.35	1080.37
763.68	1079.31
764.01	1077.40
764.33	1076.06
764.66	1075.69
764.99	1077.04
765.32	1078.94
765.65	1080.09
765.97	1080.30
766.30	1077.49
766.63	1077.70
766.96	1076.88
767.28	1079.90
767.61	1079.29
767.94	1083.55
768.27	1083.46
768.59	1083.15
768.92	1080.60
769.25	1080.09
769.58	1078.38
769.90	1078.31
770.23	1076.08
770.56	1078.00
770.89	1079.81
771.21	1081.80
771.54	1079.99
771.87	1082.54
772.19	1083.08
772.52	1081.02
772.85	1076.27
773.17	1076.27
773.50	1075.90
773.83	1076.32
774.15	1075.45
774.48	1077.02
774.81	1081.51
775.13	1081.56
775.46	1079.03
775.79	1081.21
776.11	1082.78
776.44	1081.44
776.77	1083.48
777.09	1085.75
777.42	1085.56
777.74	1084.72
778.07	1085.00
778.40	1081.89
778.72	1078.73
779.05	1078.61
779.37	1080.20
779.70	1081.26
780.03	1080.32
780.35	1083.08
780.68	1083.32
781.00	1080.39
781.33	1076.20
781.65	1076.39
781.98	1075.36
782.31	1076.46
782.63	1080.70
782.96	1079.64
783.28	1082.43
783.61	1082.10
783.93	1080.88
784.26	1081.14
784.58	1084.77
784.91	1082.45
785.23	1080.86
785.56	1080.30
785.88	1078.73
786.21	1078.66
786.53	1080.60
786.86	1082.47
787.18	1081.75
787.51	1078.03
787.83	1075.73
788.16	1074.03
788.48	1073.88
788.81	1073.79
789.13	1078.05
789.46	1079.81
789.78	1081.05
790.10	1082.15
790.43	1081.98
790.75	1081.07
791.08	1080.79
791.40	1080.98
791.73	1079.29
792.05	1079.29
792.37	1078.07
792.70	1077.28
793.02	1077.91
793.35	1078.94
793.67	1079.55
793.99	1083.36
794.32	1084.07
794.64	1083.36
794.96	1083.83
795.29	1082.87
795.61	1078.75
795.93	1079.62
796.26	1076.41
796.58	1075.29
796.91	1077.04
797.23	1077.14
797.55	1075.15
797.87	1077.89
798.20	1078.00
798.52	1079.95
798.84	1077.84
799.17	1080.60
799.49	1081.33
799.81	1081.58
800.14	1081.84
800.46	1084.23
800.78	1084.14
801.10	1085.73
801.43	1084.79
801.75	1082.36
802.07	1082.47
802.40	1079.95
802.72	1075.01
803.04	1075.99
803.36	1075.76
803.69	1079.38
804.01	1078.57
804.33	1080.18
804.65	1079.41
804.97	1076.83
805.30	1074.00
805.62	1074.68
805.94	1072.13
806.26	1073.91
806.58	1077.93
806.91	1078.96
807.23	1077.65
807.55	1079.74
807.87	1078.87
808.19	1075.27
808.52	1075.41
808.84	1076.15
809.16	1079.24
809.48	1082.22
809.80	1088.09
810.12	1086.94
810.44	1089.40
810.77	1089.43
811.09	1084.53
811.41	1080.37
811.73	1079.13
812.05	1081.40
812.37	1079.22
812.69	1081.61
813.01	1078.24
813.33	1079.08
813.66	1075.78
813.98	1077.25
814.30	1074.47
814.62	1079.53
814.94	1079.08
815.26	1078.45
815.58	1077.21
815.90	1075.20
816.22	1074.35
816.54	1075.22
816.86	1074.31
817.18	1075.29
817.50	1078.89
817.82	1078.12
818.14	1074.52
818.46	1076.18
818.78	1076.53
819.10	1077.44
819.42	1076.18
819.74	1076.93
820.06	1078.07
820.38	1075.52
820.70	1072.81
821.02	1076.27
821.34	1079.03
821.66	1079.10
821.98	1081.40
822.30	1082.83
822.62	1080.53
822.94	1080.67
823.26	1080.48
823.58	1079.83
823.90	1076.97
824.22	1077.84
824.54	1079.83
824.86	1078.68
825.18	1075.69
825.50	1080.20
825.81	1081.58
826.13	1077.09
826.45	1078.50
826.77	1079.62
827.09	1079.95
827.41	1076.83
827.73	1077.49
828.05	1077.84
828.36	1081.61
828.68	1076.69
829.00	1077.86
829.32	1079.83
829.64	1079.01
829.96	1076.51
830.28	1077.70
830.59	1080.11
830.91	1079.17
831.23	1076.97
831.55	1078.85
831.87	1083.20
832.19	1084.30
832.50	1085.89
832.82	1087.11
833.14	1086.69
833.46	1083.36
833.78	1079.78
834.09	1077.16
834.41	1077.82
834.73	1076.74
835.05	1076.74
835.36	1076.32
835.68	1076.04
836.00	1077.00
836.32	1076.97
836.63	1078.82
836.95	1080.25
837.27	1083.36
837.59	1080.88
837.90	1081.07
838.22	1077.07
838.54	1076.83
838.85	1075.24
839.17	1075.76
839.49	1074.66
839.80	1078.12
840.12	1078.10
840.44	1076.97
840.76	1078.64
841.07	1082.19
841.39	1084.67
841.71	1083.08
842.02	1084.30
842.34	1080.39
842.65	1078.50
842.97	1076.37
843.29	1077.42
843.60	1075.31
843.92	1079.53
844.24	1079.13
844.55	1076.69
844.87	1075.85
845.18	1077.23
845.50	1075.36
845.82	1076.48
846.13	1078.43
846.45	1078.68
846.76	1078.92
847.08	1079.29
847.40	1079.90
847.71	1079.95
848.03	1080.91
848.34	1082.12
848.66	1081.30
848.97	1079.64
849.29	1081.16
849.60	1081.44
849.92	1079.27
850.24	1078.28
850.55	1078.03
850.87	1076.86
851.18	1074.07
851.50	1076.15
851.81	1078.89
852.13	1079.10
852.44	1077.82
852.76	1080.32
853.07	1077.49
853.39	1077.07
853.70	1079.43
854.01	1078.64
854.33	1078.71
854.64	1083.11
854.96	1084.14
855.27	1079.22
855.59	1082.10
855.90	1081.70
856.22	1076.18
856.53	1075.24
856.84	1075.80
857.16	1073.65
857.47	1072.92
857.79	1076.60
858.10	1074.82
858.41	1080.58
858.73	1081.02
859.04	1081.09
859.36	1078.92
859.67	1080.27
859.98	1076.55
860.30	1076.32
860.61	1077.51
860.92	1080.32
861.24	1078.10
861.55	1078.21
861.87	1082.19
862.18	1081.61
862.49	1080.27
862.81	1080.81
863.12	1081.28
863.43	1079.22
863.74	1077.00
864.06	1077.70
864.37	1080.53
864.68	1077.98
865.00	1076.48
865.31	1077.61
865.62	1077.65
865.94	1078.14
866.25	1078.38
866.56	1077.51
866.87	1075.08
867.19	1072.67
867.50	1071.08
867.81	1073.30
868.12	1072.20
868.44	1079.78
868.75	1080.70
869.06	1079.31
869.37	1078.64
869.68	1081.23
870.00	1076.97
870.31	1077.07
870.62	1079.50
870.93	1079.10
871.24	1075.31
871.56	1076.18
871.87	1078.78
872.18	1076.67
872.49	1077.54
872.80	1080.11
873.12	1080.93
873.43	1082.24
873.74	1084.84
874.05	1085.05
874.36	1084.23
874.67	1081.28
874.98	1077.16
875.29	1077.04
875.61	1077.11
875.92	1077.47
876.23	1079.69
876.54	1081.40
876.85	1080.32
877.16	1078.52
877.47	1077.68
877.78	1077.54
878.09	1078.71
878.40	1080.20
878.72	1081.40
879.03	1082.97
879.34	1081.54
879.65	1079.41
879.96	1077.02
880.27	1078.40
880.58	1079.13
880.89	1079.27
881.20	1078.89
881.51	1080.30
881.82	1079.17
882.13	1077.14
882.44	1077.54
882.75	1077.68
883.06	1075.62
883.37	1074.49
883.68	1077.70
883.99	1077.47
884.30	1079.29
884.61	1082.54
884.92	1083.95
885.23	1083.48
885.54	1082.45
885.85	1080.41
886.16	1074.21
886.47	1074.21
886.78	1073.84
887.08	1073.46
887.39	1072.74
887.70	1075.62
888.01	1076.51
888.32	1075.43
888.63	1076.32
888.94	1080.04
889.25	1080.81
889.56	1079.22
889.87	1079.53
890.17	1079.69
890.48	1077.42
890.79	1078.05
891.10	1077.77
891.41	1077.40
891.72	1078.26
892.03	1079.41
892.34	1080.37
892.64	1081.77
892.95	1082.19
893.26	1083.13
893.57	1083.29
893.88	1084.37
894.18	1081.61
894.49	1080.60
894.80	1080.77
895.11	1079.34
895.42	1078.00
895.72	1080.09
896.03	1076.55
896.34	1073.74
896.65	1073.72
896.96	1070.65
897.26	1068.41
897.57	1070.75
897.88	1071.52
898.19	1072.06
898.49	1074.89
898.80	1076.65
899.11	1079.60
899.41	1079.17
899.72	1076.67
900.03	1075.52
900.34	1075.69
900.64	1075.57
900.95	1075.99
901.26	1075.08
901.56	1073.88
901.87	1075.43
902.18	1075.24
902.48	1076.51
902.79	1081.26
903.10	1083.41
903.40	1081.56
903.71	1083.64
904.02	1082.38
904.32	1079.69
904.63	1078.36
904.94	1078.73
905.24	1074.35
905.55	1076.39
905.85	1075.57
906.16	1075.85
906.47	1072.85
906.77	1077.44
907.08	1076.13
907.38	1080.18
907.69	1082.29
908.00	1086.41
908.30	1083.97
908.61	1081.91
908.91	1077.44
909.22	1075.24
909.52	1073.60
909.83	1072.06
910.14	1070.91
910.44	1074.87
910.75	1076.41
911.05	1075.76
911.36	1074.28
911.66	1075.36
911.97	1073.37
912.27	1073.11
912.58	1069.88
912.88	1072.41
913.19	1077.40
913.49	1078.10
913.80	1075.69
914.10	1080.39
914.41	1083.15
914.71	1080.56
915.01	1080.81
915.32	1083.43
915.62	1082.19
915.93	1078.50
916.23	1077.84
916.54	1077.21
916.84	1074.94
917.15	1074.35
917.45	1075.94
917.75	1075.45
918.06	1073.63
918.36	1073.63
918.67	1075.62
918.97	1077.49
919.27	1077.14
919.58	1077.84
919.88	1079.01
920.18	1076.11
920.49	1071.50
920.79	1073.21
921.10	1075.85
921.40	1073.74
921.70	1074.14
922.01	1074.80
922.31	1077.70
922.61	1078.36
922.92	1079.88
923.22	1084.00
923.52	1087.09
923.82	1085.77
924.13	1083.53
924.43	1083.67
924.73	1082.29
925.04	1081.89
925.34	1080.53
925.64	1083.18
925.94	1084.23
926.25	1084.65
926.55	1083.15
926.85	1081.26
927.15	1080.02
927.46	1078.89
927.76	1079.03
928.06	1079.81
928.36	1080.04
928.67	1079.50
928.97	1081.63
929.27	1078.12
929.57	1076.51
929.87	1078.12
930.18	1078.50
930.48	1078.05
930.78	1078.50
931.08	1078.52
931.38	1078.45
931.69	1078.10
931.99	1076.62
932.29	1078.61
932.59	1079.10
932.89	1076.69
933.19	1075.43
933.49	1075.59
933.80	1076.69
934.10	1076.23
934.40	1077.61
934.70	1079.01
935.00	1082.17
935.30	1080.41
935.60	1079.46
935.90	1078.17
936.20	1075.38
936.50	1073.23
936.81	1074.26
937.11	1075.20
937.41	1076.90
937.71	1078.26
938.01	1076.58
938.31	1075.94
938.61	1079.95
938.91	1080.39
939.21	1083.39
939.51	1083.22
939.81	1080.48
940.11	1074.61
940.41	1072.64
940.71	1069.58
941.01	1068.78
941.31	1069.46
941.61	1076.41
941.91	1075.76
942.21	1077.89
942.51	1079.22
942.81	1080.67
943.11	1075.55
943.41	1076.79
943.71	1072.43
944.01	1070.96
944.31	1071.22
944.61	1071.24
944.90	1072.88
945.20	1076.27
945.50	1079.22
945.80	1077.11
946.10	1078.28
946.40	1074.70
946.70	1072.15
947.00	1072.53
947.30	1076.88
947.60	1077.54
947.89	1079.64
948.19	1081.23
948.49	1080.95
948.79	1078.92
949.09	1078.87
949.39	1081.12
949.69	1080.39
949.98	1079.81
950.28	1079.71
950.58	1078.73
950.88	1077.33
951.18	1079.69
951.48	1080.06
951.77	1081.14
952.07	1083.08
952.37	1083.74
952.67	1083.64
952.97	1082.17
953.26	1083.34
953.56	1081.05
953.86	1079.48
954.16	1079.08
954.45	1078.57
954.75	1077.33
955.05	1076.23
955.35	1079.57
955.64	1077.56
955.94	1077.86
956.24	1074.73
956.54	1074.98
956.83	1075.41
957.13	1072.25
957.43	1073.95
957.72	1076.41
958.02	1078.66
958.32	1077.42
958.61	1080.93
958.91	1081.42
959.21	1081.58
959.50	1079.99
959.80	1078.28
960.10	1078.99
960.39	1077.63
960.69	1077.63
960.99	1078.10
961.28	1077.56
961.58	1075.52
961.87	1076.20
962.17	1076.27
962.47	1076.76
962.76	1076.37
963.06	1077.54
963.36	1074.66
963.65	1073.93
963.95	1073.25
964.24	1071.54
964.54	1073.23
964.83	1076.88
965.13	1078.61
965.42	1077.58
965.72	1079.76
966.02	1078.82
966.31	1077.75
966.61	1076.48
966.90	1077.82
967.20	1078.33
967.49	1080.18
967.79	1081.98
968.08	1082.38
968.38	1084.60
968.67	1083.46
968.97	1080.88
969.26	1078.31
969.56	1075.69
969.85	1073.37
970.15	1074.21
970.44	1078.05
970.74	1078.99
971.03	1083.25
971.32	1084.21
971.62	1083.36
971.91	1080.60
972.21	1081.47
972.50	1079.10
972.80	1077.84
973.09	1077.82
973.38	1078.31
973.68	1078.33
973.97	1082.69
974.27	1083.20
974.56	1083.81
974.85	1083.34
975.15	1082.80
975.44	1079.22
975.73	1081.35
976.03	1082.47
976.32	1082.15
976.61	1079.64
976.91	1076.69
977.20	1076.76
977.49	1077.18
977.79	1077.63
978.08	1079.88
978.37	1081.12
978.67	1078.24
978.96	1075.41
979.25	1078.28
979.55	1079.31
979.84	1082.40
980.13	1082.59
980.42	1084.23
980.72	1079.62
981.01	1077.72
981.30	1073.53
981.59	1075.83
981.89	1077.07
982.18	1079.60
982.47	1077.42
982.76	1079.53
983.06	1078.64
983.35	1077.72
983.64	1077.54
983.93	1081.07
984.22	1079.41
984.52	1077.30
984.81	1077.96
985.10	1075.87
985.39	1073.95
985.68	1078.50
985.97	1080.37
986.27	1079.55
986.56	1078.38
986.85	1077.96
987.14	1075.62
987.43	1075.05
987.72	1074.14
988.01	1077.28
988.31	1078.14
988.60	1076.53
988.89	1074.28
989.18	1076.34
989.47	1074.94
989.76	1076.23
990.05	1077.96
990.34	1082.36
990.63	1079.74
990.92	1081.61
991.21	1082.38
991.51	1083.06
991.80	1080.46
992.09	1082.47
992.38	1082.05
992.67	1079.34
992.96	1079.62
993.25	1081.58
993.54	1082.94
993.83	1082.78
994.12	1084.37
994.41	1082.10
994.70	1081.21
994.99	1078.31
995.28	1074.70
995.57	1075.38
995.86	1077.61
996.15	1081.19
996.44	1082.12
996.73	1085.28
997.02	1084.16
997.31	1085.52
997.59	1081.00
997.88	1081.23
998.17	1081.16
998.46	1079.99
998.75	1080.53
999.04	1079.69
999.33	1081.07
999.62	1079.46
999.91	1079.15
1000.20	1075.15
1000.49	1074.42
1000.77	1072.29
1001.06	1073.70
1001.35	1073.74
1001.64	1075.48
1001.93	1077.02
1002.22	1078.03
1002.51	1078.92
1002.79	1079.64
1003.08	1081.16
1003.37	1081.77
1003.66	1080.30
1003.95	1074.47
1004.23	1074.45
1004.52	1073.23
1004.81	1073.74
1005.10	1075.50
1005.39	1078.92
1005.67	1079.20
1005.96	1074.56
1006.25	1074.45
1006.54	1072.29
1006.83	1073.37
1007.11	1073.25
1007.40	1077.79
1007.69	1078.99
1007.97	1080.70
1008.26	1082.87
1008.55	1082.57
1008.84	1080.63
1009.12	1076.55
1009.41	1074.52
1009.70	1071.71
1009.98	1073.28
1010.27	1073.44
1010.56	1075.41
1010.85	1075.66
1011.13	1074.68
1011.42	1072.62
1011.71	1076.88
1011.99	1075.10
1012.28	1077.18
1012.56	1077.93
1012.85	1080.91
1013.14	1077.42
1013.42	1079.43
1013.71	1080.63
1014.00	1083.57
1014.28	1083.86
1014.57	1082.40
1014.85	1084.16
1015.14	1082.83
1015.43	1082.29
1015.71	1078.99
1016.00	1078.21
1016.28	1076.34
1016.57	1078.40
1016.85	1079.06
1017.14	1082.12
1017.43	1084.53
1017.71	1086.69
1018.00	1081.61
1018.28	1082.50
1018.57	1084.60
1018.85	1083.67
1019.14	1083.93
1019.42	1084.84
1019.71	1083.01
1019.99	1078.94
1020.28	1081.37
1020.56	1078.71
1020.85	1080.93
1021.13	1082.17
1021.42	1084.25
1021.70	1082.76
1021.99	1084.04
1022.27	1084.91
1022.55	1082.97
1022.84	1086.13
>>>>>End Processed Spectral Data<<<<<
