SpectraSuite Data File
++++++++++++++++++++++++++++++++++++
Date: Mon Aug 26 10:22:11 PDT 2019
User: corrico
Dark Spectrum Present: No
Reference Spectrum Present: No
Number of Sampled Component Spectra: 1
Spectrometers: USB2+H06089
Integration Time (usec): 2000 (USB2+H06089)
Spectra Averaged: 20 (USB2+H06089)
Boxcar Smoothing: 2 (USB2+H06089)
Correct for Electrical Dark: No (USB2+H06089)
Strobe/Lamp Enabled: No (USB2+H06089)
Correct for Detector Non-linearity: No (USB2+H06089)
Correct for Stray Light: No (USB2+H06089)
Number of Pixels in Processed Spectrum: 2048
>>>>>Begin Processed Spectral Data<<<<<
339.70	1037.56
340.07	1037.56
340.45	1000.02
340.82	977.22
341.19	951.03
341.57	925.64
341.94	916.04
342.31	906.70
342.69	899.16
343.06	896.00
343.43	892.82
343.81	892.84
344.18	896.21
344.55	901.90
344.93	908.20
345.30	915.85
345.67	922.45
346.04	932.31
346.42	940.64
346.79	948.48
347.16	952.69
347.54	964.72
347.91	971.95
348.28	979.63
348.65	988.92
349.03	1000.70
349.40	1006.43
349.77	1014.18
350.14	1023.96
350.52	1031.05
350.89	1039.43
351.26	1045.35
351.63	1051.56
352.01	1054.41
352.38	1058.65
352.75	1063.84
353.12	1065.95
353.50	1065.79
353.87	1069.46
354.24	1069.58
354.61	1069.25
354.98	1073.98
355.36	1078.00
355.73	1078.19
356.10	1083.36
356.47	1087.23
356.84	1086.73
357.22	1089.31
357.59	1091.27
357.96	1091.32
358.33	1086.43
358.70	1083.06
359.08	1078.59
359.45	1076.20
359.82	1074.75
360.19	1077.11
360.56	1076.90
360.94	1078.78
361.31	1080.84
361.68	1078.52
362.05	1076.74
362.42	1077.21
362.79	1077.16
363.16	1075.85
363.54	1076.32
363.91	1077.56
364.28	1078.52
364.65	1078.87
365.02	1080.95
365.39	1080.95
365.76	1081.28
366.14	1081.91
366.51	1080.88
366.88	1077.21
367.25	1077.58
367.62	1076.51
367.99	1077.18
368.36	1079.34
368.73	1079.67
369.10	1079.43
369.48	1081.12
369.85	1075.99
370.22	1074.03
370.59	1073.88
370.96	1073.02
371.33	1067.59
371.70	1070.58
372.07	1071.45
372.44	1074.82
372.81	1076.83
373.18	1077.63
373.55	1080.72
373.93	1079.55
374.30	1077.93
374.67	1077.51
375.04	1080.84
375.41	1080.63
375.78	1079.97
376.15	1077.33
376.52	1077.16
376.89	1077.42
377.26	1073.16
377.63	1074.05
378.00	1075.69
378.37	1075.17
378.74	1073.21
379.11	1076.32
379.48	1078.57
379.85	1080.34
380.22	1082.76
380.59	1083.74
380.96	1082.50
381.33	1079.60
381.70	1077.09
382.07	1077.16
382.44	1078.71
382.81	1078.38
383.18	1081.96
383.55	1086.97
383.92	1088.28
384.29	1089.45
384.66	1093.45
385.03	1090.27
385.40	1084.58
385.77	1079.17
386.14	1077.56
386.51	1076.53
386.88	1080.04
387.25	1085.91
387.62	1088.44
387.99	1089.85
388.36	1089.05
388.73	1088.00
389.10	1085.31
389.46	1086.08
389.83	1084.60
390.20	1083.34
390.57	1083.04
390.94	1083.06
391.31	1080.77
391.68	1080.27
392.05	1080.53
392.42	1077.54
392.79	1075.48
393.16	1078.78
393.53	1080.95
393.89	1083.39
394.26	1088.00
394.63	1090.01
395.00	1089.33
395.37	1090.32
395.74	1091.34
396.11	1088.42
396.48	1092.14
396.84	1090.92
397.21	1087.46
397.58	1085.45
397.95	1084.58
398.32	1081.91
398.69	1084.77
399.06	1087.79
399.42	1090.81
399.79	1094.95
400.16	1092.87
400.53	1091.67
400.90	1088.84
401.27	1085.96
401.64	1083.55
402.00	1087.25
402.37	1086.69
402.74	1088.56
403.11	1087.27
403.48	1087.69
403.84	1086.66
404.21	1088.68
404.58	1089.45
404.95	1086.71
405.32	1090.20
405.68	1092.70
406.05	1091.46
406.42	1089.17
406.79	1092.91
407.16	1091.09
407.52	1089.38
407.89	1091.95
408.26	1098.09
408.63	1098.25
408.99	1097.66
409.36	1100.80
409.73	1100.05
410.10	1099.70
410.47	1102.32
410.83	1106.79
411.20	1105.29
411.57	1104.45
411.94	1099.98
412.30	1101.81
412.67	1098.48
413.04	1095.79
413.40	1097.15
413.77	1098.93
414.14	1098.39
414.51	1099.23
414.87	1104.69
415.24	1106.44
415.61	1107.12
415.97	1104.97
416.34	1104.62
416.71	1099.72
417.08	1098.65
417.44	1101.08
417.81	1102.09
418.18	1103.96
418.54	1105.58
418.91	1108.99
419.28	1109.30
419.64	1113.16
420.01	1114.54
420.38	1117.54
420.74	1119.95
421.11	1122.31
421.48	1121.68
421.84	1123.11
422.21	1124.51
422.58	1127.74
422.94	1129.05
423.31	1134.83
423.68	1137.97
424.04	1142.72
424.41	1145.76
424.77	1149.67
425.14	1154.94
425.51	1162.36
425.87	1164.53
426.24	1166.24
426.61	1174.90
426.97	1179.68
427.34	1184.52
427.70	1193.63
428.07	1203.53
428.44	1212.21
428.80	1222.32
429.17	1233.37
429.53	1244.67
429.90	1255.81
430.27	1267.21
430.63	1278.19
431.00	1289.38
431.36	1302.20
431.73	1316.60
432.09	1332.70
432.46	1344.22
432.83	1364.79
433.19	1382.46
433.56	1405.40
433.92	1428.34
434.29	1456.96
434.65	1483.10
435.02	1515.33
435.38	1546.25
435.75	1579.16
436.11	1619.91
436.48	1661.38
436.84	1707.33
437.21	1755.43
437.57	1805.37
437.94	1856.12
438.30	1911.87
438.67	1966.35
439.03	2023.86
439.40	2093.84
439.76	2162.89
440.13	2236.22
440.49	2317.22
440.86	2397.06
441.22	2477.85
441.59	2562.21
441.95	2662.22
442.32	2765.18
442.68	2879.51
443.05	2996.26
443.41	3134.33
443.78	3265.12
444.14	3403.51
444.51	3539.64
444.87	3709.94
445.24	3864.88
445.60	4043.46
445.96	4221.20
446.33	4435.90
446.69	4635.17
447.06	4847.65
447.42	5070.72
447.79	5307.68
448.15	5574.03
448.51	5844.81
448.88	6174.10
449.24	6466.97
449.61	6821.30
449.97	7171.59
450.33	7549.47
450.70	7909.35
451.06	8338.25
451.43	8731.84
451.79	9191.14
452.15	9677.09
452.52	10206.54
452.88	10763.63
453.24	11397.99
453.61	12101.79
453.97	12806.19
454.34	13504.31
454.70	14326.47
455.06	15129.39
455.43	15867.64
455.79	16538.83
456.15	17330.29
456.52	18066.43
456.88	18974.77
457.24	19871.55
457.61	21010.19
457.97	22085.65
458.33	23177.39
458.70	24218.90
459.06	25233.41
459.42	26243.75
459.79	27156.91
460.15	28200.32
460.51	29181.45
460.88	30272.70
461.24	31225.23
461.60	32382.93
461.96	33420.63
462.33	34439.86
462.69	35441.54
463.05	36557.01
463.42	37529.74
463.78	38448.17
464.14	39205.52
464.50	39948.33
464.87	40486.17
465.23	40835.23
465.59	41234.48
465.95	41580.27
466.32	41827.57
466.68	42071.41
467.04	42241.43
467.40	42259.05
467.77	42352.98
468.13	42261.65
468.49	42085.80
468.85	41965.01
469.22	41817.91
469.58	41565.06
469.94	41426.71
470.30	41208.81
470.66	40847.03
471.03	40354.44
471.39	39967.62
471.75	39244.91
472.11	38550.57
472.47	38066.26
472.84	37552.07
473.20	36837.08
473.56	36444.97
473.92	35848.96
474.28	35196.37
474.65	34525.43
475.01	33861.96
475.37	33036.52
475.73	32365.98
476.09	31657.99
476.45	31029.56
476.81	30479.74
477.18	29947.83
477.54	29488.64
477.90	29050.94
478.26	28498.83
478.62	27984.64
478.98	27523.88
479.34	27086.53
479.71	26526.63
480.07	26083.40
480.43	25634.44
480.79	25161.02
481.15	24697.71
481.51	24340.12
481.87	24032.13
482.23	23683.79
482.59	23357.00
482.96	23011.30
483.32	22705.07
483.68	22301.07
484.04	21938.68
484.40	21543.70
484.76	21125.28
485.12	20670.44
485.48	20251.60
485.84	19765.89
486.20	19319.09
486.56	18896.43
486.92	18525.57
487.28	18128.17
487.64	17737.80
488.00	17366.49
488.37	16984.10
488.73	16548.78
489.09	16088.77
489.45	15669.58
489.81	15220.43
490.17	14777.37
490.53	14372.81
490.89	13970.05
491.25	13557.27
491.61	13160.50
491.97	12762.75
492.33	12366.52
492.69	12016.68
493.05	11683.72
493.41	11361.33
493.77	11052.78
494.13	10748.47
494.49	10448.53
494.85	10169.51
495.21	9916.10
495.57	9657.68
495.93	9401.42
496.29	9157.65
496.64	8931.58
497.00	8666.75
497.36	8410.55
497.72	8169.71
498.08	7941.48
498.44	7716.40
498.80	7509.28
499.16	7312.28
499.52	7109.54
499.88	6934.61
500.24	6756.38
500.60	6598.09
500.96	6449.21
501.32	6295.60
501.68	6121.65
502.03	5941.05
502.39	5775.90
502.75	5603.50
503.11	5456.16
503.47	5314.51
503.83	5199.85
504.19	5068.85
504.55	4951.68
504.91	4838.80
505.26	4734.67
505.62	4618.32
505.98	4510.35
506.34	4394.96
506.70	4275.60
507.06	4157.96
507.42	4050.77
507.78	3956.07
508.13	3863.19
508.49	3787.36
508.85	3722.55
509.21	3638.18
509.57	3554.92
509.93	3473.78
510.28	3379.85
510.64	3287.80
511.00	3210.56
511.36	3137.11
511.72	3073.76
512.07	3018.00
512.43	2953.69
512.79	2894.77
513.15	2836.85
513.51	2778.89
513.86	2725.65
514.22	2677.62
514.58	2629.40
514.94	2578.22
515.30	2531.41
515.65	2478.93
516.01	2441.23
516.37	2402.14
516.73	2366.70
517.08	2333.72
517.44	2300.70
517.80	2258.15
518.16	2221.66
518.51	2191.26
518.87	2155.98
519.23	2124.36
519.59	2095.67
519.94	2067.32
520.30	2027.65
520.66	1995.03
521.01	1959.22
521.37	1929.51
521.73	1895.46
522.09	1876.64
522.44	1852.81
522.80	1832.57
523.16	1812.51
523.51	1793.83
523.87	1769.00
524.23	1751.38
524.58	1734.99
524.94	1715.19
525.30	1696.49
525.65	1679.50
526.01	1659.16
526.37	1638.40
526.72	1617.45
527.08	1599.64
527.44	1582.74
527.79	1563.29
528.15	1548.55
528.51	1536.82
528.86	1525.40
529.22	1514.14
529.58	1505.74
529.93	1493.75
530.29	1479.05
530.65	1463.89
531.00	1450.41
531.36	1435.92
531.71	1421.59
532.07	1411.53
532.43	1403.90
532.78	1393.58
533.14	1383.35
533.49	1375.79
533.85	1369.28
534.21	1361.23
534.56	1355.08
534.92	1350.00
535.27	1341.24
535.63	1331.16
535.98	1322.15
536.34	1309.55
536.69	1299.21
537.05	1291.69
537.41	1285.02
537.76	1275.85
538.12	1273.46
538.47	1271.33
538.83	1269.46
539.18	1263.56
539.54	1259.40
539.89	1252.84
540.25	1247.39
540.60	1240.76
540.96	1238.78
541.31	1238.61
541.67	1236.81
542.02	1232.06
542.38	1227.70
542.73	1223.77
543.09	1217.52
543.44	1212.65
543.80	1211.93
544.15	1211.25
544.51	1210.17
544.86	1210.10
545.22	1206.43
545.57	1198.87
545.93	1196.53
546.28	1193.88
546.64	1188.34
546.99	1185.01
547.35	1183.14
547.70	1179.35
548.05	1174.60
548.41	1170.81
548.76	1169.99
549.12	1170.06
549.47	1169.17
549.83	1162.87
550.18	1162.66
550.53	1158.28
550.89	1156.39
551.24	1151.52
551.60	1154.70
551.95	1154.28
552.30	1153.21
552.66	1152.88
553.01	1153.95
553.37	1149.67
553.72	1144.94
554.07	1147.10
554.43	1145.76
554.78	1143.56
555.13	1143.26
555.49	1142.88
555.84	1137.83
556.19	1135.91
556.55	1133.01
556.90	1132.77
557.26	1131.20
557.61	1129.73
557.96	1128.54
558.32	1129.17
558.67	1128.96
559.02	1127.90
559.37	1129.38
559.73	1127.97
560.08	1128.30
560.43	1124.49
560.79	1124.58
561.14	1122.15
561.49	1122.97
561.85	1118.45
562.20	1119.67
562.55	1117.07
562.90	1116.74
563.26	1114.94
563.61	1115.94
563.96	1113.72
564.32	1112.64
564.67	1110.30
565.02	1108.85
565.37	1106.93
565.73	1106.46
566.08	1108.38
566.43	1110.44
566.78	1109.11
567.14	1110.14
567.49	1110.49
567.84	1110.75
568.19	1110.75
568.54	1108.01
568.90	1103.49
569.25	1098.06
569.60	1095.89
569.95	1092.61
570.31	1095.79
570.66	1099.77
571.01	1102.11
571.36	1100.64
571.71	1098.79
572.06	1098.93
572.42	1098.90
572.77	1099.91
573.12	1102.98
573.47	1104.38
573.82	1103.02
574.18	1101.11
574.53	1101.41
574.88	1097.52
575.23	1096.28
575.58	1096.26
575.93	1097.43
576.28	1093.52
576.64	1096.52
576.99	1099.98
577.34	1099.51
577.69	1098.16
578.04	1100.43
578.39	1098.09
578.74	1095.44
579.09	1093.15
579.44	1093.22
579.80	1093.43
580.15	1092.00
580.50	1090.60
580.85	1089.89
581.20	1088.56
581.55	1087.13
581.90	1085.52
582.25	1087.62
582.60	1089.61
582.95	1088.21
583.30	1089.14
583.65	1091.77
584.00	1092.54
584.35	1092.33
584.71	1095.39
585.06	1096.28
585.41	1095.58
585.76	1095.04
586.11	1096.07
586.46	1093.47
586.81	1091.65
587.16	1092.68
587.51	1090.69
587.86	1087.81
588.21	1085.05
588.56	1085.80
588.91	1086.50
589.26	1085.84
589.61	1085.38
589.96	1085.03
590.31	1086.48
590.66	1084.74
591.01	1084.16
591.36	1085.17
591.71	1088.19
592.06	1088.49
592.41	1087.81
592.76	1090.85
593.10	1089.78
593.45	1090.74
593.80	1090.43
594.15	1090.17
594.50	1089.92
594.85	1091.42
595.20	1093.01
595.55	1089.47
595.90	1089.12
596.25	1086.20
596.60	1085.28
596.95	1083.13
597.30	1086.57
597.64	1101.18
597.99	1103.91
598.34	1105.08
598.69	1106.30
599.04	1105.20
599.39	1090.71
599.74	1090.43
600.09	1089.96
600.44	1085.35
600.78	1085.35
601.13	1086.31
601.48	1084.07
601.83	1083.53
602.18	1085.38
602.53	1086.78
602.88	1088.72
603.22	1088.00
603.57	1091.32
603.92	1093.10
604.27	1088.51
604.62	1086.59
604.97	1085.52
605.31	1082.26
605.66	1080.06
606.01	1081.87
606.36	1080.60
606.71	1084.44
607.05	1084.72
607.40	1085.91
607.75	1084.51
608.10	1085.52
608.44	1085.19
608.79	1082.94
609.14	1084.65
609.49	1087.18
609.84	1086.34
610.18	1084.02
610.53	1086.85
610.88	1085.45
611.23	1086.57
611.57	1085.75
611.92	1086.17
612.27	1087.34
612.62	1088.33
612.96	1085.84
613.31	1086.38
613.66	1087.25
614.00	1084.37
614.35	1083.57
614.70	1084.18
615.05	1085.10
615.39	1086.55
615.74	1085.26
616.09	1084.98
616.43	1083.93
616.78	1083.55
617.13	1085.14
617.47	1083.67
617.82	1083.25
618.17	1082.40
618.51	1082.24
618.86	1077.89
619.21	1079.71
619.55	1078.12
619.90	1079.03
620.25	1081.33
620.59	1084.04
620.94	1088.42
621.29	1090.15
621.63	1091.51
621.98	1090.85
622.32	1087.86
622.67	1083.06
623.02	1083.83
623.36	1087.81
623.71	1084.65
624.05	1088.40
624.40	1088.23
624.75	1085.61
625.09	1079.92
625.44	1082.43
625.78	1077.96
626.13	1079.53
626.48	1078.21
626.82	1079.81
627.17	1078.68
627.51	1079.71
627.86	1083.29
628.20	1087.74
628.55	1085.91
628.89	1087.09
629.24	1088.37
629.58	1082.40
629.93	1078.00
630.28	1078.05
630.62	1073.56
630.97	1070.63
631.31	1075.05
631.66	1078.89
632.00	1081.02
632.35	1083.93
632.69	1089.19
633.04	1088.21
633.38	1087.04
633.73	1084.96
634.07	1083.67
634.42	1078.99
634.76	1078.71
635.11	1078.05
635.45	1079.20
635.79	1084.72
636.14	1086.15
636.48	1085.33
636.83	1085.89
637.17	1082.83
637.52	1076.93
637.86	1077.49
638.21	1077.21
638.55	1077.79
638.89	1079.64
639.24	1083.36
639.58	1084.44
639.93	1082.71
640.27	1080.84
640.61	1082.38
640.96	1081.98
641.30	1079.22
641.65	1082.26
641.99	1086.57
642.33	1086.10
642.68	1082.97
643.02	1083.39
643.37	1081.12
643.71	1079.69
644.05	1078.33
644.40	1081.19
644.74	1082.03
645.08	1083.06
645.43	1080.56
645.77	1082.01
646.11	1079.76
646.46	1080.30
646.80	1079.38
647.14	1081.37
647.49	1079.83
647.83	1081.30
648.17	1080.27
648.52	1081.47
648.86	1076.83
649.20	1076.51
649.55	1075.45
649.89	1076.46
650.23	1075.08
650.57	1077.25
650.92	1080.27
651.26	1080.27
651.60	1080.11
651.95	1079.95
652.29	1079.92
652.63	1078.89
652.97	1077.49
653.32	1077.30
653.66	1080.95
654.00	1083.01
654.34	1082.76
654.69	1083.90
655.03	1082.15
655.37	1080.93
655.71	1082.43
656.05	1081.89
656.40	1082.90
656.74	1084.65
657.08	1083.79
657.42	1081.12
657.76	1080.93
658.11	1077.11
658.45	1079.41
658.79	1078.61
659.13	1080.30
659.47	1083.20
659.82	1085.38
660.16	1081.28
660.50	1083.53
660.84	1080.13
661.18	1078.73
661.52	1079.69
661.87	1081.73
662.21	1078.43
662.55	1079.34
662.89	1081.12
663.23	1082.03
663.57	1083.18
663.91	1085.00
664.25	1086.17
664.60	1081.58
664.94	1080.27
665.28	1077.40
665.62	1078.10
665.96	1080.34
666.30	1082.10
666.64	1083.76
666.98	1085.99
667.32	1084.16
667.66	1083.36
668.01	1082.54
668.35	1082.01
668.69	1080.20
669.03	1080.53
669.37	1077.65
669.71	1077.21
670.05	1077.42
670.39	1079.29
670.73	1079.76
671.07	1081.80
671.41	1087.34
671.75	1088.47
672.09	1088.07
672.43	1087.27
672.77	1087.04
673.11	1081.82
673.45	1085.38
673.79	1084.00
674.13	1086.15
674.47	1084.28
674.81	1085.07
675.15	1079.53
675.49	1081.42
675.83	1079.88
676.17	1080.84
676.51	1083.93
676.85	1085.70
677.19	1084.18
677.53	1083.25
677.87	1083.83
678.21	1081.28
678.55	1080.23
678.89	1082.87
679.23	1084.07
679.57	1086.31
679.90	1087.95
680.24	1088.91
680.58	1088.04
680.92	1089.00
681.26	1089.89
681.60	1085.89
681.94	1083.79
682.28	1085.42
682.62	1084.46
682.96	1079.38
683.29	1081.63
683.63	1081.02
683.97	1082.08
684.31	1082.69
684.65	1082.90
684.99	1082.17
685.33	1083.62
685.67	1079.50
686.00	1079.48
686.34	1081.89
686.68	1081.12
687.02	1082.29
687.36	1081.56
687.70	1080.77
688.03	1080.51
688.37	1082.19
688.71	1079.76
689.05	1082.38
689.39	1081.47
689.72	1079.53
690.06	1079.36
690.40	1080.65
690.74	1080.60
691.08	1081.96
691.41	1083.27
691.75	1082.43
692.09	1082.08
692.43	1078.26
692.76	1078.33
693.10	1079.24
693.44	1079.03
693.78	1080.51
694.11	1082.69
694.45	1081.40
694.79	1082.22
695.13	1084.25
695.46	1082.99
695.80	1082.78
696.14	1084.02
696.48	1081.77
696.81	1079.97
697.15	1082.15
697.49	1083.64
697.82	1082.50
698.16	1083.01
698.50	1082.54
698.83	1083.06
699.17	1078.75
699.51	1079.50
699.84	1079.78
700.18	1078.07
700.52	1074.28
700.85	1077.79
701.19	1079.62
701.53	1079.27
701.86	1080.46
702.20	1081.35
702.54	1079.97
702.87	1076.18
703.21	1076.15
703.55	1078.33
703.88	1077.98
704.22	1078.19
704.55	1077.51
704.89	1077.70
705.23	1074.54
705.56	1076.60
705.90	1077.04
706.23	1081.40
706.57	1082.15
706.91	1084.11
707.24	1086.83
707.58	1087.16
707.91	1082.99
708.25	1081.40
708.58	1081.91
708.92	1074.07
709.26	1072.43
709.59	1073.67
709.93	1072.43
710.26	1072.81
710.60	1074.31
710.93	1073.67
711.27	1076.25
711.60	1080.58
711.94	1082.64
712.27	1083.67
712.61	1085.54
712.94	1087.16
713.28	1084.32
713.61	1079.67
713.95	1078.75
714.28	1078.47
714.62	1074.70
714.95	1073.11
715.29	1071.71
715.62	1072.27
715.96	1071.75
716.29	1073.67
716.63	1074.28
716.96	1079.01
717.29	1079.36
717.63	1079.60
717.96	1076.81
718.30	1077.00
718.63	1074.59
718.97	1075.69
719.30	1078.68
719.63	1081.89
719.97	1083.76
720.30	1084.00
720.64	1086.36
720.97	1084.79
721.30	1082.10
721.64	1083.04
721.97	1081.68
722.31	1079.34
722.64	1078.26
722.97	1081.73
723.31	1081.82
723.64	1082.29
723.97	1078.24
724.31	1078.40
724.64	1077.33
724.98	1076.83
725.31	1077.44
725.64	1078.96
725.98	1076.90
726.31	1077.35
726.64	1075.71
726.97	1076.39
727.31	1079.74
727.64	1081.16
727.97	1076.93
728.31	1076.23
728.64	1073.11
728.97	1073.93
729.31	1073.30
729.64	1076.81
729.97	1079.92
730.30	1083.41
730.64	1080.70
730.97	1079.78
731.30	1078.19
731.63	1077.37
731.97	1076.18
732.30	1074.54
732.63	1078.14
732.96	1077.04
733.30	1073.77
733.63	1077.42
733.96	1078.89
734.29	1078.96
734.63	1080.58
734.96	1084.91
735.29	1082.57
735.62	1083.88
735.95	1082.83
736.29	1082.76
736.62	1081.09
736.95	1080.72
737.28	1081.37
737.61	1080.77
737.94	1079.29
738.28	1077.91
738.61	1078.19
738.94	1080.65
739.27	1083.13
739.60	1083.04
739.93	1085.03
740.27	1083.50
740.60	1080.34
740.93	1080.67
741.26	1082.87
741.59	1081.73
741.92	1083.20
742.25	1083.95
742.58	1082.83
742.91	1081.73
743.25	1081.73
743.58	1080.46
743.91	1078.54
744.24	1077.93
744.57	1074.98
744.90	1074.54
745.23	1077.21
745.56	1079.53
745.89	1077.42
746.22	1079.64
746.55	1082.45
746.88	1083.93
747.21	1084.02
747.54	1085.59
747.87	1084.09
748.20	1080.53
748.53	1077.98
748.87	1076.72
749.20	1077.42
749.53	1080.58
749.86	1083.43
750.19	1082.17
750.52	1082.05
750.85	1080.95
751.18	1082.05
751.51	1082.03
751.84	1082.99
752.16	1083.11
752.49	1078.36
752.82	1075.80
753.15	1076.67
753.48	1077.65
753.81	1076.72
754.14	1080.56
754.47	1085.07
754.80	1084.53
755.13	1082.85
755.46	1082.36
755.79	1083.01
756.12	1078.75
756.45	1077.21
756.78	1073.42
757.11	1075.48
757.43	1073.74
757.76	1076.06
758.09	1074.89
758.42	1080.91
758.75	1078.38
759.08	1079.78
759.41	1078.43
759.74	1081.70
760.07	1078.12
760.39	1076.37
760.72	1074.91
761.05	1073.60
761.38	1069.74
761.71	1069.58
762.04	1073.53
762.36	1076.41
762.69	1074.33
763.02	1075.43
763.35	1076.18
763.68	1074.42
764.01	1074.35
764.33	1077.11
764.66	1077.37
764.99	1078.28
765.32	1079.43
765.65	1078.54
765.97	1078.07
766.30	1077.61
766.63	1076.53
766.96	1074.56
767.28	1075.01
767.61	1076.88
767.94	1076.93
768.27	1077.11
768.59	1079.55
768.92	1076.41
769.25	1075.71
769.58	1075.71
769.90	1078.00
770.23	1077.75
770.56	1079.08
770.89	1077.86
771.21	1078.92
771.54	1078.64
771.87	1077.68
772.19	1077.04
772.52	1076.51
772.85	1076.90
773.17	1075.05
773.50	1077.63
773.83	1078.78
774.15	1080.86
774.48	1078.45
774.81	1080.84
775.13	1078.57
775.46	1079.76
775.79	1080.06
776.11	1084.39
776.44	1083.29
776.77	1082.05
777.09	1082.69
777.42	1082.76
777.74	1079.13
778.07	1081.00
778.40	1083.43
778.72	1080.11
779.05	1082.22
779.37	1081.68
779.70	1078.26
780.03	1080.06
780.35	1080.30
780.68	1078.43
781.00	1079.38
781.33	1078.64
781.65	1073.44
781.98	1075.36
782.31	1072.74
782.63	1070.61
782.96	1073.65
783.28	1076.97
783.61	1078.45
783.93	1079.36
784.26	1080.70
784.58	1079.62
784.91	1078.00
785.23	1073.84
785.56	1071.66
785.88	1072.55
786.21	1071.66
786.53	1072.32
786.86	1074.31
787.18	1078.05
787.51	1077.84
787.83	1078.92
788.16	1075.78
788.48	1075.52
788.81	1076.93
789.13	1075.78
789.46	1076.37
789.78	1079.78
790.10	1079.43
790.43	1077.18
790.75	1077.96
791.08	1075.97
791.40	1077.72
791.73	1079.62
792.05	1080.58
792.37	1081.16
792.70	1082.22
793.02	1080.48
793.35	1079.60
793.67	1076.58
793.99	1075.10
794.32	1074.12
794.64	1073.53
794.96	1075.92
795.29	1078.03
795.61	1080.20
795.93	1081.94
796.26	1080.91
796.58	1078.82
796.91	1076.41
797.23	1074.56
797.55	1070.40
797.87	1072.50
798.20	1072.20
798.52	1072.46
798.84	1072.08
799.17	1074.26
799.49	1074.82
799.81	1071.94
800.14	1075.01
800.46	1075.45
800.78	1077.02
801.10	1072.48
801.43	1075.50
801.75	1071.52
802.07	1069.79
802.40	1068.78
802.72	1073.77
803.04	1073.39
803.36	1074.82
803.69	1077.37
804.01	1078.78
804.33	1076.88
804.65	1076.34
804.97	1077.04
805.30	1080.11
805.62	1079.57
805.94	1078.12
806.26	1079.17
806.58	1078.40
806.91	1076.30
807.23	1075.43
807.55	1078.99
807.87	1076.79
808.19	1076.86
808.52	1076.39
808.84	1075.80
809.16	1071.90
809.48	1072.78
809.80	1070.75
810.12	1069.91
810.44	1071.82
810.77	1075.48
811.09	1077.37
811.41	1077.98
811.73	1078.66
812.05	1077.21
812.37	1076.74
812.69	1076.15
813.01	1078.43
813.33	1079.03
813.66	1078.19
813.98	1079.53
814.30	1079.06
814.62	1077.89
814.94	1076.81
815.26	1077.68
815.58	1075.55
815.90	1075.08
816.22	1076.55
816.54	1079.10
816.86	1076.65
817.18	1075.10
817.50	1075.45
817.82	1074.35
818.14	1071.24
818.46	1075.13
818.78	1076.32
819.10	1075.20
819.42	1075.15
819.74	1075.92
820.06	1075.20
820.38	1072.32
820.70	1076.72
821.02	1080.02
821.34	1078.59
821.66	1078.12
821.98	1079.55
822.30	1074.68
822.62	1073.32
822.94	1075.36
823.26	1072.74
823.58	1070.89
823.90	1070.26
824.22	1070.94
824.54	1068.57
824.86	1072.69
825.18	1076.95
825.50	1080.53
825.81	1075.92
826.13	1079.13
826.45	1078.24
826.77	1077.61
827.09	1077.35
827.41	1078.31
827.73	1076.46
828.05	1074.31
828.36	1072.50
828.68	1071.85
829.00	1072.64
829.32	1068.69
829.64	1069.72
829.96	1068.08
830.28	1064.83
830.59	1067.24
830.91	1072.18
831.23	1073.98
831.55	1075.01
831.87	1079.15
832.19	1076.01
832.50	1076.60
832.82	1074.52
833.14	1077.58
833.46	1077.25
833.78	1079.01
834.09	1077.58
834.41	1077.89
834.73	1078.43
835.05	1077.93
835.36	1076.60
835.68	1076.90
836.00	1079.10
836.32	1077.96
836.63	1078.85
836.95	1081.51
837.27	1080.93
837.59	1080.58
837.90	1078.21
838.22	1078.05
838.54	1078.24
838.85	1080.53
839.17	1078.40
839.49	1079.97
839.80	1077.40
840.12	1075.99
840.44	1072.08
840.76	1072.06
841.07	1074.33
841.39	1075.62
841.71	1075.71
842.02	1076.95
842.34	1079.13
842.65	1079.92
842.97	1082.22
843.29	1082.26
843.60	1081.66
843.92	1076.93
844.24	1074.59
844.55	1073.37
844.87	1074.07
845.18	1074.17
845.50	1075.87
845.82	1074.61
846.13	1076.62
846.45	1073.93
846.76	1074.31
847.08	1077.18
847.40	1076.81
847.71	1073.25
848.03	1074.75
848.34	1075.66
848.66	1075.94
848.97	1079.76
849.29	1080.84
849.60	1082.92
849.92	1083.90
850.24	1079.92
850.55	1078.14
850.87	1078.21
851.18	1076.39
851.50	1077.44
851.81	1079.60
852.13	1078.00
852.44	1078.14
852.76	1076.20
853.07	1074.54
853.39	1079.06
853.70	1079.34
854.01	1078.96
854.33	1081.61
854.64	1081.12
854.96	1076.27
855.27	1077.23
855.59	1076.90
855.90	1076.62
856.22	1077.23
856.53	1076.55
856.84	1076.67
857.16	1075.55
857.47	1074.87
857.79	1074.24
858.10	1074.17
858.41	1074.89
858.73	1076.74
859.04	1075.48
859.36	1076.34
859.67	1078.24
859.98	1075.38
860.30	1075.38
860.61	1075.87
860.92	1071.68
861.24	1072.48
861.55	1073.79
861.87	1072.92
862.18	1072.67
862.49	1077.70
862.81	1078.33
863.12	1077.49
863.43	1078.43
863.74	1079.99
864.06	1079.15
864.37	1075.94
864.68	1077.75
865.00	1077.28
865.31	1077.47
865.62	1075.66
865.94	1074.54
866.25	1073.23
866.56	1075.73
866.87	1075.15
867.19	1075.48
867.50	1079.57
867.81	1078.73
868.12	1076.08
868.44	1076.51
868.75	1077.72
869.06	1078.82
869.37	1078.73
869.68	1076.39
870.00	1078.03
870.31	1076.76
870.62	1074.70
870.93	1080.30
871.24	1084.09
871.56	1083.93
871.87	1085.68
872.18	1084.60
872.49	1083.50
872.80	1084.00
873.12	1083.79
873.43	1082.45
873.74	1083.67
874.05	1080.56
874.36	1080.25
874.67	1080.44
874.98	1080.23
875.29	1080.32
875.61	1084.58
875.92	1082.71
876.23	1078.64
876.54	1079.08
876.85	1078.71
877.16	1077.11
877.47	1077.35
877.78	1077.77
878.09	1077.42
878.40	1078.14
878.72	1076.44
879.03	1076.65
879.34	1080.02
879.65	1079.29
879.96	1081.14
880.27	1079.99
880.58	1077.56
880.89	1074.73
881.20	1076.83
881.51	1072.41
881.82	1072.60
882.13	1072.08
882.44	1072.36
882.75	1069.37
883.06	1067.68
883.37	1069.77
883.68	1072.18
883.99	1073.32
884.30	1073.65
884.61	1075.15
884.92	1073.81
885.23	1070.26
885.54	1071.10
885.85	1072.08
886.16	1075.20
886.47	1074.10
886.78	1079.85
887.08	1081.61
887.39	1081.51
887.70	1077.47
888.01	1078.17
888.32	1077.72
888.63	1075.36
888.94	1077.35
889.25	1078.19
889.56	1078.33
889.87	1079.48
890.17	1078.82
890.48	1077.79
890.79	1079.81
891.10	1082.17
891.41	1079.76
891.72	1079.95
892.03	1080.95
892.34	1081.42
892.64	1080.39
892.95	1078.75
893.26	1079.88
893.57	1077.02
893.88	1076.88
894.18	1075.43
894.49	1077.72
894.80	1074.70
895.11	1077.93
895.42	1076.90
895.72	1075.97
896.03	1075.64
896.34	1079.55
896.65	1076.27
896.96	1080.81
897.26	1082.71
897.57	1080.79
897.88	1080.74
898.19	1080.44
898.49	1076.69
898.80	1073.70
899.11	1074.75
899.41	1074.75
899.72	1078.14
900.03	1077.25
900.34	1079.69
900.64	1076.20
900.95	1075.08
901.26	1077.98
901.56	1079.71
901.87	1080.11
902.18	1081.98
902.48	1080.39
902.79	1076.65
903.10	1078.52
903.40	1077.51
903.71	1079.83
904.02	1080.13
904.32	1078.99
904.63	1076.48
904.94	1077.28
905.24	1075.24
905.55	1075.97
905.85	1079.60
906.16	1081.42
906.47	1083.43
906.77	1084.37
907.08	1085.19
907.38	1080.16
907.69	1076.46
908.00	1075.34
908.30	1079.17
908.61	1078.78
908.91	1081.54
909.22	1079.10
909.52	1076.95
909.83	1074.63
910.14	1073.49
910.44	1073.53
910.75	1077.63
911.05	1079.76
911.36	1076.86
911.66	1076.44
911.97	1073.46
912.27	1074.75
912.58	1070.91
912.88	1073.63
913.19	1076.53
913.49	1078.59
913.80	1078.64
914.10	1081.28
914.41	1080.18
914.71	1079.31
915.01	1076.95
915.32	1074.14
915.62	1074.68
915.93	1072.04
916.23	1073.95
916.54	1076.95
916.84	1078.92
917.15	1076.58
917.45	1078.59
917.75	1076.23
918.06	1073.95
918.36	1071.33
918.67	1071.03
918.97	1072.46
919.27	1072.48
919.58	1076.74
919.88	1077.79
920.18	1080.09
920.49	1078.33
920.79	1075.24
921.10	1072.97
921.40	1072.34
921.70	1071.01
922.01	1073.65
922.31	1076.76
922.61	1077.75
922.92	1078.12
923.22	1079.01
923.52	1076.86
923.82	1075.05
924.13	1075.80
924.43	1079.06
924.73	1078.82
925.04	1079.92
925.34	1082.99
925.64	1081.19
925.94	1080.13
926.25	1081.05
926.55	1082.87
926.85	1081.42
927.15	1081.07
927.46	1080.48
927.76	1080.18
928.06	1078.00
928.36	1075.55
928.67	1074.14
928.97	1069.74
929.27	1068.69
929.57	1068.15
929.87	1069.30
930.18	1071.57
930.48	1076.37
930.78	1078.57
931.08	1079.69
931.38	1081.00
931.69	1081.19
931.99	1082.15
932.29	1082.50
932.59	1080.72
932.89	1077.00
933.19	1074.00
933.49	1072.71
933.80	1068.71
934.10	1069.88
934.40	1072.83
934.70	1074.59
935.00	1077.54
935.30	1077.93
935.60	1078.28
935.90	1077.58
936.20	1078.26
936.50	1075.41
936.81	1074.33
937.11	1073.39
937.41	1074.59
937.71	1074.28
938.01	1073.21
938.31	1075.87
938.61	1076.58
938.91	1077.63
939.21	1079.43
939.51	1079.95
939.81	1079.69
940.11	1080.65
940.41	1080.32
940.71	1079.10
941.01	1080.60
941.31	1078.64
941.61	1075.94
941.91	1075.43
942.21	1073.63
942.51	1068.31
942.81	1068.15
943.11	1070.12
943.41	1070.09
943.71	1072.62
944.01	1075.66
944.31	1077.58
944.61	1077.40
944.90	1075.48
945.20	1073.93
945.50	1073.18
945.80	1071.40
946.10	1070.65
946.40	1072.04
946.70	1071.71
947.00	1072.57
947.30	1071.97
947.60	1072.85
947.89	1074.61
948.19	1074.61
948.49	1077.09
948.79	1080.18
949.09	1080.56
949.39	1076.95
949.69	1073.98
949.98	1072.06
950.28	1073.49
950.58	1074.63
950.88	1077.37
951.18	1081.14
951.48	1078.61
951.77	1076.88
952.07	1075.87
952.37	1076.62
952.67	1074.82
952.97	1076.32
953.26	1075.29
953.56	1075.50
953.86	1075.08
954.16	1075.27
954.45	1077.44
954.75	1080.70
955.05	1075.83
955.35	1074.42
955.64	1072.85
955.94	1073.70
956.24	1072.55
956.54	1077.98
956.83	1077.98
957.13	1081.73
957.43	1080.13
957.72	1078.28
958.02	1077.23
958.32	1078.00
958.61	1077.47
958.91	1078.75
959.21	1076.55
959.50	1074.84
959.80	1074.05
960.10	1072.32
960.39	1071.01
960.69	1071.33
960.99	1070.96
961.28	1070.00
961.58	1068.85
961.87	1068.45
962.17	1071.71
962.47	1071.26
962.76	1074.26
963.06	1076.60
963.36	1076.79
963.65	1075.41
963.95	1077.82
964.24	1077.30
964.54	1078.59
964.83	1080.27
965.13	1078.73
965.42	1079.85
965.72	1078.38
966.02	1075.31
966.31	1072.04
966.61	1075.83
966.90	1076.39
967.20	1078.64
967.49	1080.72
967.79	1085.75
968.08	1083.20
968.38	1080.13
968.67	1078.21
968.97	1077.54
969.26	1075.78
969.56	1076.39
969.85	1077.93
970.15	1080.48
970.44	1080.77
970.74	1076.65
971.03	1075.13
971.32	1076.55
971.62	1072.15
971.91	1069.77
972.21	1070.30
972.50	1074.84
972.80	1074.66
973.09	1074.35
973.38	1078.12
973.68	1081.05
973.97	1074.94
974.27	1073.79
974.56	1075.83
974.85	1073.42
975.15	1073.95
975.44	1078.99
975.73	1079.38
976.03	1081.23
976.32	1084.58
976.61	1081.96
976.91	1079.67
977.20	1075.36
977.49	1078.52
977.79	1077.91
978.08	1076.32
978.37	1074.26
978.67	1078.26
978.96	1072.20
979.25	1072.76
979.55	1074.84
979.84	1081.58
980.13	1084.02
980.42	1085.49
980.72	1083.01
981.01	1083.34
981.30	1081.21
981.59	1077.79
981.89	1076.48
982.18	1077.56
982.47	1076.67
982.76	1074.47
983.06	1072.71
983.35	1073.79
983.64	1072.83
983.93	1074.28
984.22	1071.78
984.52	1075.05
984.81	1076.93
985.10	1077.47
985.39	1077.21
985.68	1078.94
985.97	1078.21
986.27	1078.14
986.56	1079.83
986.85	1082.50
987.14	1085.61
987.43	1085.45
987.72	1082.92
988.01	1080.53
988.31	1076.11
988.60	1073.86
988.89	1072.64
989.18	1071.99
989.47	1073.60
989.76	1076.11
990.05	1075.05
990.34	1075.99
990.63	1075.73
990.92	1076.01
991.21	1072.76
991.51	1073.37
991.80	1076.32
992.09	1076.20
992.38	1074.80
992.67	1077.00
992.96	1077.35
993.25	1075.38
993.54	1075.05
993.83	1075.64
994.12	1074.56
994.41	1075.22
994.70	1075.31
994.99	1077.33
995.28	1080.41
995.57	1082.17
995.86	1084.28
996.15	1084.49
996.44	1087.06
996.73	1085.19
997.02	1083.88
997.31	1082.01
997.59	1081.33
997.88	1079.67
998.17	1077.42
998.46	1079.36
998.75	1081.40
999.04	1081.44
999.33	1078.66
999.62	1080.74
999.91	1075.64
1000.20	1072.06
1000.49	1070.16
1000.77	1073.98
1001.06	1071.75
1001.35	1076.13
1001.64	1077.00
1001.93	1078.03
1002.22	1073.86
1002.51	1073.56
1002.79	1074.47
1003.08	1070.28
1003.37	1071.29
1003.66	1070.14
1003.95	1070.23
1004.23	1069.95
1004.52	1073.70
1004.81	1073.56
1005.10	1078.71
1005.39	1079.85
1005.67	1077.77
1005.96	1079.60
1006.25	1076.88
1006.54	1074.00
1006.83	1073.84
1007.11	1074.54
1007.40	1074.05
1007.69	1078.14
1007.97	1082.01
1008.26	1082.83
1008.55	1081.30
1008.84	1078.54
1009.12	1075.20
1009.41	1072.55
1009.70	1073.23
1009.98	1076.69
1010.27	1078.64
1010.56	1080.34
1010.85	1080.48
1011.13	1076.18
1011.42	1072.34
1011.71	1074.61
1011.99	1073.98
1012.28	1077.40
1012.56	1079.57
1012.85	1081.30
1013.14	1078.85
1013.42	1078.17
1013.71	1074.73
1014.00	1076.46
1014.28	1079.27
1014.57	1079.55
1014.85	1081.77
1015.14	1082.38
1015.43	1077.33
1015.71	1073.51
1016.00	1075.13
1016.28	1075.38
1016.57	1075.15
1016.85	1079.01
1017.14	1079.95
1017.43	1078.31
1017.71	1080.27
1018.00	1077.42
1018.28	1078.24
1018.57	1079.95
1018.85	1080.09
1019.14	1077.40
1019.42	1080.65
1019.71	1081.56
1019.99	1083.39
1020.28	1083.55
1020.56	1083.29
1020.85	1081.61
1021.13	1081.14
1021.42	1077.21
1021.70	1078.43
1021.99	1078.03
1022.27	1077.82
1022.55	1076.76
1022.84	1072.78
>>>>>End Processed Spectral Data<<<<<
