SpectraSuite Data File
++++++++++++++++++++++++++++++++++++
Date: Mon Aug 26 10:22:19 PDT 2019
User: corrico
Dark Spectrum Present: No
Reference Spectrum Present: No
Number of Sampled Component Spectra: 1
Spectrometers: USB2+H06089
Integration Time (usec): 2000 (USB2+H06089)
Spectra Averaged: 20 (USB2+H06089)
Boxcar Smoothing: 2 (USB2+H06089)
Correct for Electrical Dark: No (USB2+H06089)
Strobe/Lamp Enabled: No (USB2+H06089)
Correct for Detector Non-linearity: No (USB2+H06089)
Correct for Stray Light: No (USB2+H06089)
Number of Pixels in Processed Spectrum: 2048
>>>>>Begin Processed Spectral Data<<<<<
339.70	1038.50
340.07	1038.50
340.45	998.96
340.82	975.68
341.19	948.36
341.57	921.82
341.94	910.12
342.31	902.84
342.69	896.59
343.06	897.20
343.43	897.27
343.81	899.35
344.18	906.91
344.55	913.04
344.93	917.00
345.30	922.36
345.67	927.98
346.04	932.73
346.42	939.87
346.79	949.63
347.16	958.75
347.54	966.43
347.91	974.69
348.28	983.84
348.65	991.24
349.03	1000.51
349.40	1011.21
349.77	1018.86
350.14	1026.51
350.52	1033.21
350.89	1037.37
351.26	1044.91
351.63	1053.24
352.01	1059.07
352.38	1065.01
352.75	1069.60
353.12	1069.20
353.50	1070.51
353.87	1073.00
354.24	1075.76
354.61	1075.22
354.98	1076.58
355.36	1077.28
355.73	1079.76
356.10	1078.96
356.47	1083.01
356.84	1086.36
357.22	1087.37
357.59	1084.53
357.96	1085.10
358.33	1083.95
358.70	1082.40
359.08	1082.50
359.45	1084.67
359.82	1082.92
360.19	1082.61
360.56	1083.48
360.94	1081.28
361.31	1076.86
361.68	1077.42
362.05	1076.48
362.42	1073.74
362.79	1076.76
363.16	1077.02
363.54	1074.38
363.91	1075.99
364.28	1077.98
364.65	1075.85
365.02	1077.72
365.39	1080.11
365.76	1078.52
366.14	1077.33
366.51	1077.77
366.88	1078.07
367.25	1079.76
367.62	1078.68
367.99	1080.06
368.36	1079.60
368.73	1078.87
369.10	1076.01
369.48	1078.54
369.85	1075.57
370.22	1077.28
370.59	1077.16
370.96	1076.62
371.33	1076.48
371.70	1075.73
372.07	1074.61
372.44	1077.07
372.81	1076.79
373.18	1077.54
373.55	1081.02
373.93	1079.83
374.30	1076.53
374.67	1077.61
375.04	1075.31
375.41	1073.07
375.78	1077.11
376.15	1077.40
376.52	1078.00
376.89	1080.98
377.26	1082.47
377.63	1079.53
378.00	1079.24
378.37	1079.88
378.74	1080.53
379.11	1081.07
379.48	1082.05
379.85	1083.97
380.22	1085.91
380.59	1084.28
380.96	1083.06
381.33	1080.46
381.70	1082.29
382.07	1082.03
382.44	1081.98
382.81	1081.23
383.18	1081.47
383.55	1083.76
383.92	1083.15
384.29	1081.40
384.66	1085.12
385.03	1086.97
385.40	1082.31
385.77	1078.78
386.14	1080.70
386.51	1076.60
386.88	1075.31
387.25	1078.45
387.62	1079.85
387.99	1081.61
388.36	1084.60
388.73	1084.21
389.10	1080.58
389.46	1082.92
389.83	1080.18
390.20	1079.24
390.57	1079.55
390.94	1077.40
391.31	1075.36
391.68	1076.74
392.05	1081.77
392.42	1084.42
392.79	1088.56
393.16	1090.95
393.53	1092.70
393.89	1088.63
394.26	1089.03
394.63	1088.65
395.00	1088.68
395.37	1090.97
395.74	1093.29
396.11	1092.70
396.48	1094.27
396.84	1096.47
397.21	1090.60
397.58	1087.97
397.95	1086.55
398.32	1086.10
398.69	1085.33
399.06	1086.62
399.42	1086.64
399.79	1086.97
400.16	1083.64
400.53	1080.11
400.90	1082.19
401.27	1082.24
401.64	1082.97
402.00	1083.36
402.37	1082.57
402.74	1081.26
403.11	1082.12
403.48	1080.11
403.84	1082.47
404.21	1085.45
404.58	1086.10
404.95	1085.68
405.32	1090.48
405.68	1091.25
406.05	1090.53
406.42	1090.20
406.79	1092.96
407.16	1092.26
407.52	1093.71
407.89	1096.80
408.26	1095.82
408.63	1096.59
408.99	1097.03
409.36	1096.59
409.73	1096.10
410.10	1097.06
410.47	1098.53
410.83	1097.71
411.20	1096.33
411.57	1097.01
411.94	1099.79
412.30	1096.26
412.67	1099.63
413.04	1101.18
413.40	1100.12
413.77	1099.51
414.14	1101.64
414.51	1099.63
414.87	1100.40
415.24	1100.68
415.61	1103.00
415.97	1105.53
416.34	1104.80
416.71	1107.21
417.08	1108.01
417.44	1106.44
417.81	1104.69
418.18	1104.55
418.54	1101.53
418.91	1103.33
419.28	1106.65
419.64	1106.82
420.01	1109.02
420.38	1111.64
420.74	1114.45
421.11	1113.18
421.48	1115.90
421.84	1117.65
422.21	1120.16
422.58	1120.25
422.94	1123.01
423.31	1124.07
423.68	1124.53
424.04	1129.31
424.41	1133.01
424.77	1135.72
425.14	1138.67
425.51	1144.76
425.87	1147.00
426.24	1152.15
426.61	1156.69
426.97	1165.21
427.34	1173.85
427.70	1181.46
428.07	1187.10
428.44	1193.72
428.80	1199.57
429.17	1205.19
429.53	1209.94
429.90	1217.57
430.27	1228.06
430.63	1239.83
431.00	1252.30
431.36	1266.25
431.73	1279.71
432.09	1295.16
432.46	1306.37
432.83	1320.53
433.19	1335.81
433.56	1356.01
433.92	1370.31
434.29	1394.49
434.65	1419.07
435.02	1444.49
435.38	1469.06
435.75	1502.18
436.11	1532.65
436.48	1560.15
436.84	1591.10
437.21	1630.70
437.57	1666.72
437.94	1707.61
438.30	1755.96
438.67	1807.76
439.03	1856.04
439.40	1910.86
439.76	1965.09
440.13	2024.96
440.49	2087.87
440.86	2151.05
441.22	2227.14
441.59	2308.00
441.95	2388.91
442.32	2474.16
442.68	2572.37
443.05	2670.01
443.41	2765.86
443.78	2869.94
444.14	2979.78
444.51	3091.89
444.87	3231.44
445.24	3375.31
445.60	3529.93
445.96	3686.74
446.33	3862.54
446.69	4016.66
447.06	4193.37
447.42	4371.00
447.79	4572.40
448.15	4795.97
448.51	5032.92
448.88	5299.42
449.24	5554.58
449.61	5837.27
449.97	6109.29
450.33	6400.31
450.70	6663.67
451.06	6986.57
451.43	7287.94
451.79	7654.18
452.15	8054.18
452.52	8521.00
452.88	9008.60
453.24	9564.69
453.61	10151.35
453.97	10722.16
454.34	11271.32
454.70	11924.58
455.06	12556.23
455.43	13192.27
455.79	13802.12
456.15	14519.42
456.52	15159.30
456.88	15945.88
457.24	16677.32
457.61	17546.04
457.97	18336.86
458.33	19146.12
458.70	19938.56
459.06	20706.63
459.42	21546.11
459.79	22341.98
460.15	23271.67
460.51	24135.11
460.88	25071.19
461.24	25874.25
461.60	26844.38
461.96	27711.29
462.33	28568.23
462.69	29398.63
463.05	30304.62
463.42	31050.44
463.78	31733.15
464.14	32290.38
464.50	32892.25
464.87	33342.97
465.23	33674.69
465.59	34007.70
465.95	34325.83
466.32	34603.88
466.68	34855.82
467.04	35034.68
467.40	35192.55
467.77	35343.61
468.13	35293.03
468.49	35184.52
468.85	35090.81
469.22	34931.51
469.58	34580.57
469.94	34351.20
470.30	34042.69
470.66	33628.07
471.03	33014.26
471.39	32634.51
471.75	32005.35
472.11	31423.73
472.47	31076.14
472.84	30771.63
473.20	30278.22
473.56	29987.15
473.92	29537.00
474.28	28993.29
474.65	28498.67
475.01	28031.19
475.37	27476.98
475.73	27033.00
476.09	26526.84
476.45	26024.95
476.81	25514.02
477.18	24965.53
477.54	24489.31
477.90	24119.17
478.26	23658.23
478.62	23268.08
478.98	22954.80
479.34	22624.41
479.71	22180.91
480.07	21813.49
480.43	21428.14
480.79	21032.76
481.15	20651.67
481.51	20340.03
481.87	20092.31
482.23	19828.27
482.59	19566.60
482.96	19293.67
483.32	19002.67
483.68	18632.93
484.04	18286.93
484.40	17912.75
484.76	17542.53
485.12	17158.87
485.48	16834.12
485.84	16469.27
486.20	16090.74
486.56	15719.08
486.92	15401.97
487.28	15052.08
487.64	14697.77
488.00	14405.83
488.37	14083.61
488.73	13720.57
489.09	13351.00
489.45	13040.01
489.81	12710.00
490.17	12397.89
490.53	12106.75
490.89	11797.66
491.25	11495.31
491.61	11169.06
491.97	10852.39
492.33	10522.67
492.69	10225.05
493.05	9911.47
493.41	9629.15
493.77	9348.83
494.13	9092.47
494.49	8836.46
494.85	8587.80
495.21	8353.77
495.57	8118.29
495.93	7892.31
496.29	7683.25
496.64	7502.84
497.00	7310.29
497.36	7122.86
497.72	6935.71
498.08	6754.60
498.44	6555.58
498.80	6381.31
499.16	6214.54
499.52	6058.90
499.88	5923.29
500.24	5801.37
500.60	5669.03
500.96	5551.42
501.32	5428.40
501.68	5300.85
502.03	5173.15
502.39	5042.87
502.75	4905.88
503.11	4783.38
503.47	4654.39
503.83	4527.58
504.19	4409.50
504.55	4298.23
504.91	4196.74
505.26	4104.60
505.62	4017.62
505.98	3930.30
506.34	3841.97
506.70	3746.82
507.06	3655.12
507.42	3565.74
507.78	3484.07
508.13	3407.52
508.49	3331.24
508.85	3264.53
509.21	3192.33
509.57	3124.22
509.93	3055.73
510.28	2986.59
510.64	2919.70
511.00	2856.95
511.36	2799.07
511.72	2744.61
512.07	2696.39
512.43	2639.23
512.79	2590.86
513.15	2538.38
513.51	2493.98
513.86	2444.69
514.22	2408.58
514.58	2367.83
514.94	2332.11
515.30	2293.19
515.65	2256.35
516.01	2220.26
516.37	2186.48
516.73	2154.81
517.08	2121.34
517.44	2094.24
517.80	2067.77
518.16	2040.46
518.51	2011.71
518.87	1981.45
519.23	1951.70
519.59	1923.52
519.94	1896.84
520.30	1870.04
520.66	1848.30
521.01	1828.94
521.37	1805.93
521.73	1783.70
522.09	1762.56
522.44	1741.59
522.80	1716.81
523.16	1697.29
523.51	1680.32
523.87	1661.10
524.23	1643.13
524.58	1624.36
524.94	1606.31
525.30	1587.47
525.65	1575.48
526.01	1561.14
526.37	1552.06
526.72	1539.93
527.08	1527.32
527.44	1514.30
527.79	1500.24
528.15	1485.84
528.51	1470.79
528.86	1458.83
529.22	1444.02
529.58	1431.50
529.93	1422.46
530.29	1408.25
530.65	1396.34
531.00	1384.73
531.36	1375.35
531.71	1366.29
532.07	1362.43
532.43	1352.36
532.78	1344.22
533.14	1340.05
533.49	1326.71
533.85	1319.27
534.21	1317.42
534.56	1311.82
534.92	1301.06
535.27	1299.16
535.63	1295.32
535.98	1289.99
536.34	1284.13
536.69	1282.17
537.05	1273.30
537.41	1262.93
537.76	1256.70
538.12	1252.21
538.47	1242.68
538.83	1237.46
539.18	1234.89
539.54	1226.51
539.89	1224.76
540.25	1224.15
540.60	1220.82
540.96	1214.97
541.31	1213.94
541.67	1208.77
542.02	1207.22
542.38	1205.98
542.73	1205.35
543.09	1204.04
543.44	1202.12
543.80	1198.42
544.15	1197.79
544.51	1194.05
544.86	1189.46
545.22	1183.02
545.57	1177.73
545.93	1173.90
546.28	1174.76
546.64	1171.93
546.99	1169.54
547.35	1166.01
547.70	1161.40
548.05	1156.22
548.41	1155.55
548.76	1155.01
549.12	1156.29
549.47	1155.24
549.83	1154.75
550.18	1153.30
550.53	1154.84
550.89	1151.40
551.24	1151.99
551.60	1149.09
551.95	1146.23
552.30	1141.71
552.66	1138.72
553.01	1138.11
553.37	1137.73
553.72	1136.89
554.07	1134.83
554.43	1135.65
554.78	1130.46
555.13	1128.58
555.49	1125.03
555.84	1125.45
556.19	1127.72
556.55	1131.04
556.90	1131.56
557.26	1130.41
557.61	1129.80
557.96	1125.96
558.32	1124.21
558.67	1121.42
559.02	1122.50
559.37	1116.67
559.73	1112.55
560.08	1109.72
560.43	1108.34
560.79	1107.19
561.14	1113.74
561.49	1117.04
561.85	1116.27
562.20	1118.57
562.55	1118.59
562.90	1115.27
563.26	1113.77
563.61	1111.36
563.96	1109.16
564.32	1108.78
564.67	1107.73
565.02	1105.32
565.37	1109.65
565.73	1110.09
566.08	1107.66
566.43	1107.66
566.78	1109.13
567.14	1107.59
567.49	1107.59
567.84	1108.74
568.19	1106.72
568.54	1104.57
568.90	1101.27
569.25	1095.96
569.60	1096.80
569.95	1094.79
570.31	1094.46
570.66	1092.52
571.01	1094.76
571.36	1093.45
571.71	1093.94
572.06	1096.82
572.42	1098.90
572.77	1095.35
573.12	1092.07
573.47	1093.92
573.82	1094.41
574.18	1095.42
574.53	1099.09
574.88	1102.16
575.23	1100.99
575.58	1098.79
575.93	1094.88
576.28	1093.92
576.64	1094.79
576.99	1094.72
577.34	1096.42
577.69	1099.16
578.04	1098.13
578.39	1095.86
578.74	1097.50
579.09	1093.99
579.44	1094.11
579.80	1095.30
580.15	1093.94
580.50	1090.62
580.85	1092.40
581.20	1091.70
581.55	1090.78
581.90	1092.91
582.25	1094.22
582.60	1092.02
582.95	1091.32
583.30	1092.70
583.65	1092.42
584.00	1091.18
584.35	1091.23
584.71	1091.11
585.06	1088.91
585.41	1089.50
585.76	1090.71
586.11	1093.78
586.46	1093.15
586.81	1093.08
587.16	1091.53
587.51	1088.96
587.86	1084.58
588.21	1085.89
588.56	1087.30
588.91	1086.36
589.26	1089.64
589.61	1090.03
589.96	1089.78
590.31	1087.46
590.66	1087.67
591.01	1087.11
591.36	1087.95
591.71	1086.66
592.06	1086.90
592.41	1090.41
592.76	1087.81
593.10	1086.99
593.45	1087.16
593.80	1086.24
594.15	1080.65
594.50	1080.72
594.85	1081.05
595.20	1081.51
595.55	1081.40
595.90	1082.87
596.25	1086.55
596.60	1087.18
596.95	1086.52
597.30	1089.47
597.64	1101.01
597.99	1096.61
598.34	1095.16
598.69	1097.69
599.04	1096.70
599.39	1086.52
599.74	1086.85
600.09	1088.21
600.44	1086.41
600.78	1088.49
601.13	1088.12
601.48	1090.97
601.83	1093.08
602.18	1093.71
602.53	1090.43
602.88	1088.54
603.22	1088.40
603.57	1083.90
603.92	1080.41
604.27	1082.47
604.62	1087.90
604.97	1086.41
605.31	1087.39
605.66	1091.20
606.01	1089.43
606.36	1085.70
606.71	1086.99
607.05	1085.07
607.40	1081.70
607.75	1082.15
608.10	1082.76
608.44	1079.36
608.79	1083.97
609.14	1086.01
609.49	1084.67
609.84	1083.69
610.18	1085.75
610.53	1083.69
610.88	1083.93
611.23	1084.00
611.57	1082.83
611.92	1082.94
612.27	1082.10
612.62	1082.08
612.96	1084.81
613.31	1085.54
613.66	1087.95
614.00	1088.79
614.35	1090.64
614.70	1088.82
615.05	1090.10
615.39	1089.64
615.74	1086.48
616.09	1081.58
616.43	1082.26
616.78	1080.30
617.13	1076.30
617.47	1080.48
617.82	1084.63
618.17	1084.60
618.51	1086.06
618.86	1087.60
619.21	1082.97
619.55	1080.74
619.90	1078.78
620.25	1078.33
620.59	1080.60
620.94	1084.72
621.29	1083.69
621.63	1086.06
621.98	1084.00
622.32	1081.09
622.67	1080.32
623.02	1080.81
623.36	1079.85
623.71	1082.76
624.05	1084.02
624.40	1084.84
624.75	1085.89
625.09	1082.80
625.44	1081.68
625.78	1082.43
626.13	1083.25
626.48	1084.21
626.82	1085.75
627.17	1083.60
627.51	1081.54
627.86	1080.77
628.20	1077.47
628.55	1078.73
628.89	1079.03
629.24	1079.17
629.58	1081.19
629.93	1079.10
630.28	1077.28
630.62	1078.40
630.97	1077.89
631.31	1076.79
631.66	1080.84
632.00	1081.35
632.35	1082.66
632.69	1084.96
633.04	1085.10
633.38	1086.27
633.73	1086.15
634.07	1085.54
634.42	1081.35
634.76	1080.74
635.11	1081.70
635.45	1085.12
635.79	1085.77
636.14	1087.97
636.48	1086.13
636.83	1084.39
637.17	1082.78
637.52	1084.98
637.86	1085.66
638.21	1085.82
638.55	1083.69
638.89	1086.66
639.24	1084.49
639.58	1083.95
639.93	1080.25
640.27	1080.27
640.61	1077.77
640.96	1078.57
641.30	1076.74
641.65	1080.39
641.99	1081.68
642.33	1081.44
642.68	1085.24
643.02	1086.97
643.37	1085.40
643.71	1084.98
644.05	1083.74
644.40	1077.04
644.74	1076.37
645.08	1072.71
645.43	1075.43
645.77	1075.36
646.11	1077.16
646.46	1076.48
646.80	1081.42
647.14	1077.86
647.49	1079.67
647.83	1078.96
648.17	1082.45
648.52	1080.91
648.86	1081.28
649.20	1080.84
649.55	1081.73
649.89	1080.30
650.23	1082.26
650.57	1081.12
650.92	1080.98
651.26	1081.75
651.60	1084.91
651.95	1084.42
652.29	1089.07
652.63	1088.26
652.97	1087.48
653.32	1084.09
653.66	1082.97
654.00	1078.26
654.34	1078.26
654.69	1078.89
655.03	1081.26
655.37	1083.06
655.71	1086.24
656.05	1084.21
656.40	1083.48
656.74	1084.37
657.08	1082.66
657.42	1084.37
657.76	1086.85
658.11	1084.93
658.45	1081.19
658.79	1084.42
659.13	1081.12
659.47	1083.29
659.82	1086.73
660.16	1088.47
660.50	1085.75
660.84	1086.62
661.18	1086.10
661.52	1083.76
661.87	1082.03
662.21	1086.85
662.55	1084.00
662.89	1079.85
663.23	1080.34
663.57	1081.00
663.91	1076.06
664.25	1081.21
664.60	1084.79
664.94	1083.08
665.28	1083.15
665.62	1085.00
665.96	1081.47
666.30	1079.46
666.64	1079.90
666.98	1078.54
667.32	1080.95
667.66	1082.33
668.01	1084.84
668.35	1086.34
668.69	1086.38
669.03	1084.07
669.37	1082.24
669.71	1081.19
670.05	1081.44
670.39	1081.84
670.73	1080.53
671.07	1080.46
671.41	1080.23
671.75	1079.90
672.09	1077.65
672.43	1076.97
672.77	1079.97
673.11	1081.70
673.45	1081.91
673.79	1085.40
674.13	1089.75
674.47	1090.88
674.81	1088.96
675.15	1086.34
675.49	1086.62
675.83	1082.71
676.17	1081.21
676.51	1081.12
676.85	1082.85
677.19	1082.64
677.53	1083.71
677.87	1084.09
678.21	1084.53
678.55	1084.93
678.89	1082.92
679.23	1081.63
679.57	1078.64
679.90	1078.05
680.24	1079.08
680.58	1081.70
680.92	1084.98
681.26	1086.48
681.60	1088.04
681.94	1087.30
682.28	1086.29
682.62	1085.66
682.96	1085.45
683.29	1083.95
683.63	1082.57
683.97	1083.69
684.31	1082.80
684.65	1084.37
684.99	1085.49
685.33	1086.36
685.67	1083.13
686.00	1078.31
686.34	1076.48
686.68	1073.63
687.02	1074.54
687.36	1077.28
687.70	1081.05
688.03	1081.02
688.37	1080.70
688.71	1077.84
689.05	1073.70
689.39	1075.99
689.72	1075.97
690.06	1080.04
690.40	1079.46
690.74	1082.73
691.08	1081.84
691.41	1085.77
691.75	1084.11
692.09	1085.77
692.43	1085.21
692.76	1083.22
693.10	1081.19
693.44	1080.04
693.78	1077.02
694.11	1076.88
694.45	1077.00
694.79	1074.61
695.13	1073.21
695.46	1076.06
695.80	1075.78
696.14	1078.64
696.48	1079.76
696.81	1081.70
697.15	1082.73
697.49	1082.29
697.82	1079.76
698.16	1079.48
698.50	1080.44
698.83	1078.78
699.17	1081.02
699.51	1084.37
699.84	1082.85
700.18	1081.61
700.52	1085.35
700.85	1084.07
701.19	1080.27
701.53	1080.16
701.86	1081.77
702.20	1080.18
702.54	1081.26
702.87	1079.48
703.21	1079.99
703.55	1077.28
703.88	1076.27
704.22	1076.60
704.55	1078.92
704.89	1078.96
705.23	1080.30
705.56	1080.09
705.90	1077.23
706.23	1075.48
706.57	1077.21
706.91	1077.09
707.24	1077.86
707.58	1079.53
707.91	1083.48
708.25	1081.51
708.58	1081.73
708.92	1083.83
709.26	1081.09
709.59	1076.60
709.93	1078.17
710.26	1081.21
710.60	1079.53
710.93	1082.26
711.27	1085.75
711.60	1086.69
711.94	1085.12
712.27	1084.49
712.61	1086.01
712.94	1085.68
713.28	1083.22
713.61	1079.88
713.95	1079.38
714.28	1077.18
714.62	1076.13
714.95	1078.17
715.29	1077.51
715.62	1077.42
715.96	1081.14
716.29	1082.19
716.63	1080.65
716.96	1085.26
717.29	1084.72
717.63	1078.99
717.96	1079.78
718.30	1081.00
718.63	1079.15
718.97	1078.75
719.30	1079.83
719.63	1078.87
719.97	1077.47
720.30	1077.33
720.64	1079.60
720.97	1082.61
721.30	1082.92
721.64	1081.96
721.97	1081.12
722.31	1080.86
722.64	1078.85
722.97	1078.78
723.31	1080.86
723.64	1079.31
723.97	1079.27
724.31	1078.68
724.64	1077.61
724.98	1077.33
725.31	1079.06
725.64	1078.71
725.98	1079.83
726.31	1081.66
726.64	1080.44
726.97	1079.34
727.31	1077.96
727.64	1078.07
727.97	1076.83
728.31	1079.90
728.64	1082.24
728.97	1083.90
729.31	1082.99
729.64	1083.36
729.97	1083.01
730.30	1083.11
730.64	1082.29
730.97	1083.34
731.30	1082.50
731.63	1079.08
731.97	1078.31
732.30	1077.96
732.63	1081.28
732.96	1080.51
733.30	1084.49
733.63	1084.86
733.96	1087.51
734.29	1087.02
734.63	1091.56
734.96	1086.92
735.29	1085.05
735.62	1085.12
735.95	1085.40
736.29	1080.09
736.62	1083.43
736.95	1086.90
737.28	1087.74
737.61	1084.70
737.94	1085.68
738.28	1084.14
738.61	1084.04
738.94	1080.18
739.27	1080.72
739.60	1082.22
739.93	1084.63
740.27	1084.25
740.60	1083.22
740.93	1084.25
741.26	1082.80
741.59	1082.45
741.92	1079.69
742.25	1079.17
742.58	1079.81
742.91	1078.19
743.25	1074.87
743.58	1076.72
743.91	1078.14
744.24	1073.95
744.57	1078.33
744.90	1080.72
745.23	1081.75
745.56	1083.67
745.89	1086.64
746.22	1083.90
746.55	1083.36
746.88	1080.70
747.21	1080.88
747.54	1078.66
747.87	1079.99
748.20	1082.01
748.53	1083.81
748.87	1079.99
749.20	1082.40
749.53	1079.62
749.86	1079.99
750.19	1076.55
750.52	1078.94
750.85	1076.62
751.18	1079.53
751.51	1076.13
751.84	1079.53
752.16	1079.60
752.49	1078.96
752.82	1078.33
753.15	1076.65
753.48	1075.71
753.81	1077.11
754.14	1078.14
754.47	1079.99
754.80	1083.27
755.13	1082.61
755.46	1077.56
755.79	1077.44
756.12	1071.31
756.45	1072.60
756.78	1072.90
757.11	1078.21
757.43	1076.04
757.76	1078.96
758.09	1076.51
758.42	1076.72
758.75	1072.92
759.08	1075.71
759.41	1076.46
759.74	1078.57
760.07	1078.31
760.39	1080.65
760.72	1083.43
761.05	1082.92
761.38	1081.75
761.71	1080.86
762.04	1082.64
762.36	1078.14
762.69	1078.87
763.02	1079.03
763.35	1077.02
763.68	1073.49
764.01	1079.29
764.33	1077.98
764.66	1077.58
764.99	1080.30
765.32	1083.95
765.65	1079.99
765.97	1081.23
766.30	1080.91
766.63	1080.88
766.96	1079.27
767.28	1078.26
767.61	1079.17
767.94	1082.12
768.27	1080.44
768.59	1079.20
768.92	1079.62
769.25	1080.34
769.58	1077.49
769.90	1077.75
770.23	1079.62
770.56	1079.29
770.89	1076.06
771.21	1074.49
771.54	1076.23
771.87	1076.51
772.19	1077.70
772.52	1076.76
772.85	1077.14
773.17	1078.43
773.50	1076.90
773.83	1073.93
774.15	1074.17
774.48	1076.51
774.81	1074.77
775.13	1071.40
775.46	1074.42
775.79	1074.82
776.11	1069.77
776.44	1071.54
776.77	1077.25
777.09	1078.05
777.42	1079.74
777.74	1085.31
778.07	1082.80
778.40	1079.78
778.72	1076.81
779.05	1076.65
779.37	1076.23
779.70	1076.65
780.03	1079.71
780.35	1082.03
780.68	1081.19
781.00	1081.98
781.33	1081.84
781.65	1078.45
781.98	1076.93
782.31	1078.00
782.63	1074.80
782.96	1077.56
783.28	1082.05
783.61	1081.44
783.93	1077.98
784.26	1077.37
784.58	1075.55
784.91	1072.55
785.23	1071.31
785.56	1071.99
785.88	1075.13
786.21	1075.10
786.53	1075.52
786.86	1075.87
787.18	1078.94
787.51	1078.24
787.83	1079.97
788.16	1079.41
788.48	1082.83
788.81	1082.29
789.13	1081.05
789.46	1080.74
789.78	1081.19
790.10	1078.12
790.43	1078.07
790.75	1080.23
791.08	1075.85
791.40	1076.88
791.73	1081.05
792.05	1080.04
792.37	1076.72
792.70	1077.91
793.02	1076.76
793.35	1078.28
793.67	1082.40
793.99	1085.84
794.32	1086.64
794.64	1086.52
794.96	1082.59
795.29	1079.92
795.61	1079.24
795.93	1078.21
796.26	1077.37
796.58	1077.86
796.91	1078.99
797.23	1077.65
797.55	1078.82
797.87	1077.98
798.20	1077.23
798.52	1075.64
798.84	1077.35
799.17	1076.81
799.49	1080.37
799.81	1078.54
800.14	1077.07
800.46	1073.21
800.78	1075.38
801.10	1072.29
801.43	1074.59
801.75	1078.24
802.07	1079.38
802.40	1079.13
802.72	1082.54
803.04	1083.97
803.36	1082.08
803.69	1084.39
804.01	1082.31
804.33	1079.97
804.65	1079.31
804.97	1076.23
805.30	1073.02
805.62	1075.13
805.94	1073.37
806.26	1070.12
806.58	1071.92
806.91	1075.31
807.23	1072.60
807.55	1074.66
807.87	1077.35
808.19	1078.66
808.52	1079.67
808.84	1081.70
809.16	1080.67
809.48	1079.46
809.80	1078.33
810.12	1077.16
810.44	1076.51
810.77	1078.94
811.09	1081.51
811.41	1084.07
811.73	1081.70
812.05	1083.29
812.37	1081.44
812.69	1078.59
813.01	1079.03
813.33	1080.95
813.66	1080.04
813.98	1079.20
814.30	1075.69
814.62	1074.19
814.94	1071.08
815.26	1067.12
815.58	1068.27
815.90	1072.85
816.22	1072.67
816.54	1076.23
816.86	1081.42
817.18	1081.30
817.50	1081.12
817.82	1078.38
818.14	1077.49
818.46	1075.99
818.78	1075.80
819.10	1076.86
819.42	1080.81
819.74	1078.03
820.06	1077.63
820.38	1076.74
820.70	1072.43
821.02	1068.36
821.34	1071.05
821.66	1071.45
821.98	1070.84
822.30	1073.58
822.62	1077.93
822.94	1077.54
823.26	1075.36
823.58	1072.92
823.90	1072.41
824.22	1069.25
824.54	1067.31
824.86	1070.37
825.18	1073.42
825.50	1075.76
825.81	1078.05
826.13	1080.13
826.45	1078.96
826.77	1078.78
827.09	1075.78
827.41	1075.87
827.73	1074.80
828.05	1076.06
828.36	1073.60
828.68	1073.86
829.00	1073.81
829.32	1074.68
829.64	1073.91
829.96	1076.46
830.28	1079.64
830.59	1079.90
830.91	1077.77
831.23	1080.18
831.55	1081.14
831.87	1078.47
832.19	1079.03
832.50	1082.17
832.82	1078.82
833.14	1079.90
833.46	1081.75
833.78	1079.13
834.09	1080.20
834.41	1081.21
834.73	1080.72
835.05	1073.79
835.36	1072.36
835.68	1071.52
836.00	1070.91
836.32	1069.44
836.63	1074.52
836.95	1078.05
837.27	1078.66
837.59	1079.36
837.90	1079.38
838.22	1080.58
838.54	1079.34
838.85	1076.23
839.17	1076.79
839.49	1079.08
839.80	1080.88
840.12	1080.34
840.44	1082.08
840.76	1082.36
841.07	1079.41
841.39	1078.38
841.71	1080.41
842.02	1084.37
842.34	1085.10
842.65	1090.92
842.97	1090.22
843.29	1087.83
843.60	1086.99
843.92	1086.99
844.24	1082.90
844.55	1082.12
844.87	1085.24
845.18	1085.28
845.50	1083.13
845.82	1082.50
846.13	1081.12
846.45	1077.93
846.76	1076.76
847.08	1078.28
847.40	1079.78
847.71	1079.48
848.03	1079.08
848.34	1075.64
848.66	1072.97
848.97	1072.85
849.29	1072.20
849.60	1071.57
849.92	1072.32
850.24	1073.18
850.55	1074.19
850.87	1076.86
851.18	1078.54
851.50	1079.01
851.81	1077.82
852.13	1076.15
852.44	1076.81
852.76	1075.43
853.07	1077.21
853.39	1081.44
853.70	1080.65
854.01	1081.05
854.33	1079.57
854.64	1076.90
854.96	1073.42
855.27	1070.63
855.59	1069.55
855.90	1075.34
856.22	1076.18
856.53	1074.66
856.84	1075.66
857.16	1075.64
857.47	1072.39
857.79	1070.72
858.10	1073.18
858.41	1073.35
858.73	1071.97
859.04	1074.07
859.36	1072.67
859.67	1074.33
859.98	1072.92
860.30	1074.14
860.61	1073.51
860.92	1076.51
861.24	1075.22
861.55	1080.18
861.87	1080.23
862.18	1079.92
862.49	1078.75
862.81	1080.27
863.12	1078.89
863.43	1077.09
863.74	1077.82
864.06	1079.88
864.37	1077.77
864.68	1076.48
865.00	1076.32
865.31	1074.07
865.62	1071.73
865.94	1072.01
866.25	1074.14
866.56	1074.47
866.87	1075.20
867.19	1073.58
867.50	1070.58
867.81	1070.02
868.12	1071.47
868.44	1069.95
868.75	1070.37
869.06	1071.19
869.37	1072.76
869.68	1074.84
870.00	1079.03
870.31	1082.45
870.62	1083.48
870.93	1082.61
871.24	1082.33
871.56	1078.28
871.87	1076.11
872.18	1078.00
872.49	1074.17
872.80	1071.54
873.12	1074.47
873.43	1078.45
873.74	1076.25
874.05	1074.03
874.36	1074.40
874.67	1072.60
874.98	1069.11
875.29	1068.50
875.61	1076.51
875.92	1078.07
876.23	1078.05
876.54	1080.04
876.85	1080.84
877.16	1078.07
877.47	1076.88
877.78	1079.43
878.09	1077.23
878.40	1077.04
878.72	1079.13
879.03	1080.20
879.34	1079.24
879.65	1079.48
879.96	1078.80
880.27	1073.63
880.58	1073.95
880.89	1073.37
881.20	1074.14
881.51	1077.25
881.82	1081.02
882.13	1080.81
882.44	1077.28
882.75	1077.11
883.06	1079.10
883.37	1076.46
883.68	1073.91
883.99	1077.63
884.30	1075.73
884.61	1072.15
884.92	1075.80
885.23	1079.64
885.54	1079.15
885.85	1080.72
886.16	1077.42
886.47	1074.35
886.78	1070.82
887.08	1070.02
887.39	1071.40
887.70	1075.57
888.01	1076.62
888.32	1077.89
888.63	1077.47
888.94	1076.86
889.25	1074.17
889.56	1073.74
889.87	1072.55
890.17	1075.13
890.48	1074.56
890.79	1080.25
891.10	1083.18
891.41	1083.60
891.72	1080.86
892.03	1082.22
892.34	1079.60
892.64	1079.71
892.95	1081.58
893.26	1083.04
893.57	1082.85
893.88	1080.63
894.18	1077.58
894.49	1075.64
894.80	1076.30
895.11	1074.98
895.42	1076.79
895.72	1078.87
896.03	1077.56
896.34	1076.34
896.65	1077.84
896.96	1078.21
897.26	1075.83
897.57	1078.19
897.88	1079.01
898.19	1081.09
898.49	1079.22
898.80	1078.24
899.11	1076.83
899.41	1075.71
899.72	1072.36
900.03	1073.28
900.34	1073.46
900.64	1077.11
900.95	1078.00
901.26	1079.53
901.56	1081.66
901.87	1083.27
902.18	1082.08
902.48	1083.27
902.79	1084.14
903.10	1081.84
903.40	1082.22
903.71	1084.18
904.02	1084.35
904.32	1081.63
904.63	1081.49
904.94	1078.68
905.24	1074.63
905.55	1075.90
905.85	1075.20
906.16	1075.17
906.47	1079.29
906.77	1078.00
907.08	1076.83
907.38	1076.90
907.69	1080.02
908.00	1077.02
908.30	1080.18
908.61	1077.82
908.91	1077.49
909.22	1074.42
909.52	1077.09
909.83	1078.07
910.14	1081.30
910.44	1084.44
910.75	1086.90
911.05	1087.11
911.36	1084.49
911.66	1082.69
911.97	1080.04
912.27	1079.15
912.58	1076.72
912.88	1079.78
913.19	1078.31
913.49	1081.98
913.80	1079.83
914.10	1080.67
914.41	1079.57
914.71	1081.66
915.01	1080.72
915.32	1080.04
915.62	1081.33
915.93	1082.57
916.23	1081.23
916.54	1077.25
916.84	1080.79
917.15	1080.02
917.45	1077.30
917.75	1077.07
918.06	1078.43
918.36	1077.61
918.67	1077.65
918.97	1076.79
919.27	1078.03
919.58	1081.82
919.88	1082.54
920.18	1079.97
920.49	1078.87
920.79	1077.23
921.10	1073.51
921.40	1068.55
921.70	1068.78
922.01	1068.24
922.31	1067.21
922.61	1068.17
922.92	1073.04
923.22	1076.04
923.52	1077.84
923.82	1076.86
924.13	1072.81
924.43	1072.55
924.73	1072.69
925.04	1073.04
925.34	1074.52
925.64	1078.24
925.94	1076.58
926.25	1073.56
926.55	1074.56
926.85	1077.51
927.15	1079.92
927.46	1078.05
927.76	1078.54
928.06	1077.30
928.36	1074.52
928.67	1074.82
928.97	1077.79
929.27	1078.40
929.57	1078.87
929.87	1078.36
930.18	1077.23
930.48	1075.03
930.78	1075.69
931.08	1077.91
931.38	1083.43
931.69	1081.82
931.99	1086.71
932.29	1086.27
932.59	1085.33
932.89	1081.96
933.19	1082.71
933.49	1083.13
933.80	1084.14
934.10	1081.07
934.40	1079.36
934.70	1078.24
935.00	1073.72
935.30	1071.64
935.60	1074.73
935.90	1074.89
936.20	1077.02
936.50	1078.45
936.81	1077.75
937.11	1078.21
937.41	1080.81
937.71	1079.03
938.01	1080.81
938.31	1084.56
938.61	1084.56
938.91	1083.08
939.21	1085.07
939.51	1080.74
939.81	1081.26
940.11	1078.12
940.41	1076.55
940.71	1076.18
941.01	1077.00
941.31	1074.87
941.61	1078.03
941.91	1079.06
942.21	1078.33
942.51	1079.78
942.81	1081.23
943.11	1077.89
943.41	1076.97
943.71	1078.38
944.01	1079.13
944.31	1076.53
944.61	1078.38
944.90	1080.63
945.20	1077.09
945.50	1076.83
945.80	1078.54
946.10	1080.18
946.40	1079.20
946.70	1081.82
947.00	1078.45
947.30	1076.46
947.60	1073.53
947.89	1072.74
948.19	1073.60
948.49	1076.62
948.79	1077.72
949.09	1081.14
949.39	1082.05
949.69	1079.22
949.98	1080.51
950.28	1080.72
950.58	1077.79
950.88	1077.14
951.18	1078.28
951.48	1074.49
951.77	1071.01
952.07	1070.23
952.37	1069.32
952.67	1068.97
952.97	1070.96
953.26	1074.82
953.56	1076.23
953.86	1078.78
954.16	1078.24
954.45	1078.66
954.75	1077.68
955.05	1075.66
955.35	1073.07
955.64	1076.20
955.94	1076.15
956.24	1076.41
956.54	1080.30
956.83	1081.30
957.13	1079.10
957.43	1075.80
957.72	1076.79
958.02	1074.33
958.32	1073.65
958.61	1072.01
958.91	1075.24
959.21	1075.62
959.50	1075.92
959.80	1075.36
960.10	1080.95
960.39	1081.05
960.69	1081.87
960.99	1083.86
961.28	1083.41
961.58	1079.62
961.87	1079.15
962.17	1076.74
962.47	1074.94
962.76	1076.41
963.06	1076.76
963.36	1076.27
963.65	1075.64
963.95	1075.29
964.24	1074.98
964.54	1072.22
964.83	1071.80
965.13	1072.74
965.42	1071.99
965.72	1072.76
966.02	1073.65
966.31	1074.66
966.61	1074.96
966.90	1077.61
967.20	1076.72
967.49	1076.76
967.79	1074.63
968.08	1076.04
968.38	1075.05
968.67	1076.11
968.97	1078.24
969.26	1079.06
969.56	1076.67
969.85	1077.70
970.15	1078.17
970.44	1076.67
970.74	1077.33
971.03	1080.39
971.32	1078.64
971.62	1078.31
971.91	1081.68
972.21	1078.66
972.50	1076.58
972.80	1077.61
973.09	1077.07
973.38	1075.52
973.68	1079.38
973.97	1079.74
974.27	1079.36
974.56	1080.93
974.85	1079.76
975.15	1079.53
975.44	1078.99
975.73	1080.20
976.03	1079.85
976.32	1079.95
976.61	1081.33
976.91	1079.92
977.20	1078.59
977.49	1076.32
977.79	1075.17
978.08	1074.73
978.37	1075.83
978.67	1074.87
978.96	1078.07
979.25	1082.71
979.55	1081.54
979.84	1082.83
980.13	1084.39
980.42	1080.41
980.72	1073.51
981.01	1074.28
981.30	1072.92
981.59	1071.94
981.89	1074.42
982.18	1078.47
982.47	1079.13
982.76	1078.52
983.06	1080.67
983.35	1080.23
983.64	1078.71
983.93	1076.51
984.22	1076.20
984.52	1074.73
984.81	1074.89
985.10	1075.43
985.39	1073.35
985.68	1074.38
985.97	1074.05
986.27	1073.88
986.56	1072.95
986.85	1073.63
987.14	1071.03
987.43	1070.72
987.72	1070.37
988.01	1071.57
988.31	1072.78
988.60	1073.86
988.89	1073.46
989.18	1075.20
989.47	1078.36
989.76	1079.81
990.05	1082.01
990.34	1081.47
990.63	1082.50
990.92	1079.34
991.21	1079.29
991.51	1081.02
991.80	1082.22
992.09	1079.01
992.38	1079.71
992.67	1077.82
992.96	1078.26
993.25	1076.93
993.54	1078.87
993.83	1079.53
994.12	1081.40
994.41	1077.14
994.70	1078.92
994.99	1077.68
995.28	1075.71
995.57	1075.48
995.86	1075.43
996.15	1074.49
996.44	1074.03
996.73	1073.28
997.02	1074.94
997.31	1076.62
997.59	1076.04
997.88	1076.48
998.17	1079.46
998.46	1077.33
998.75	1076.60
999.04	1076.01
999.33	1074.73
999.62	1071.40
999.91	1069.88
1000.20	1073.95
1000.49	1073.65
1000.77	1076.69
1001.06	1078.17
1001.35	1080.44
1001.64	1074.89
1001.93	1077.47
1002.22	1074.87
1002.51	1079.69
1002.79	1080.44
1003.08	1081.26
1003.37	1081.14
1003.66	1084.81
1003.95	1081.61
1004.23	1082.05
1004.52	1083.18
1004.81	1085.00
1005.10	1080.65
1005.39	1079.69
1005.67	1074.66
1005.96	1074.10
1006.25	1071.26
1006.54	1071.08
1006.83	1069.25
1007.11	1073.56
1007.40	1074.03
1007.69	1075.76
1007.97	1077.18
1008.26	1079.43
1008.55	1078.45
1008.84	1078.99
1009.12	1078.89
1009.41	1081.26
1009.70	1081.42
1009.98	1079.60
1010.27	1081.16
1010.56	1079.69
1010.85	1077.82
1011.13	1076.27
1011.42	1078.45
1011.71	1078.78
1011.99	1077.91
1012.28	1080.34
1012.56	1078.36
1012.85	1079.22
1013.14	1077.18
1013.42	1077.63
1013.71	1079.83
1014.00	1080.23
1014.28	1079.76
1014.57	1080.09
1014.85	1084.00
1015.14	1078.17
1015.43	1077.54
1015.71	1076.27
1016.00	1073.65
1016.28	1069.48
1016.57	1072.04
1016.85	1075.17
1017.14	1074.14
1017.43	1075.50
1017.71	1076.41
1018.00	1076.60
1018.28	1078.96
1018.57	1081.30
1018.85	1081.16
1019.14	1081.07
1019.42	1081.02
1019.71	1076.04
1019.99	1075.52
1020.28	1076.01
1020.56	1074.56
1020.85	1073.63
1021.13	1076.81
1021.42	1076.90
1021.70	1081.42
1021.99	1084.72
1022.27	1086.64
1022.55	1084.84
1022.84	1090.10
>>>>>End Processed Spectral Data<<<<<
