SpectraSuite Data File
++++++++++++++++++++++++++++++++++++
Date: Mon Aug 26 10:22:27 PDT 2019
User: corrico
Dark Spectrum Present: No
Reference Spectrum Present: No
Number of Sampled Component Spectra: 1
Spectrometers: USB2+H06089
Integration Time (usec): 2000 (USB2+H06089)
Spectra Averaged: 20 (USB2+H06089)
Boxcar Smoothing: 2 (USB2+H06089)
Correct for Electrical Dark: No (USB2+H06089)
Strobe/Lamp Enabled: No (USB2+H06089)
Correct for Detector Non-linearity: No (USB2+H06089)
Correct for Stray Light: No (USB2+H06089)
Number of Pixels in Processed Spectrum: 2048
>>>>>Begin Processed Spectral Data<<<<<
339.70	1023.40
340.07	1023.40
340.45	990.87
340.82	968.75
341.19	948.31
341.57	923.86
341.94	916.58
342.31	906.65
342.69	900.31
343.06	892.84
343.43	890.60
343.81	890.41
344.18	893.27
344.55	898.53
344.93	906.09
345.30	915.31
345.67	923.25
346.04	930.74
346.42	941.04
346.79	949.86
347.16	957.84
347.54	962.40
347.91	973.83
348.28	981.64
348.65	992.29
349.03	1000.93
349.40	1012.61
349.77	1020.71
350.14	1027.85
350.52	1034.12
350.89	1041.28
351.26	1049.29
351.63	1054.83
352.01	1062.02
352.38	1063.35
352.75	1064.57
353.12	1066.58
353.50	1069.09
353.87	1072.06
354.24	1076.37
354.61	1083.79
354.98	1086.97
355.36	1087.60
355.73	1084.46
356.10	1086.64
356.47	1085.61
356.84	1081.30
357.22	1080.79
357.59	1081.58
357.96	1082.26
358.33	1084.02
358.70	1087.69
359.08	1089.68
359.45	1091.95
359.82	1092.98
360.19	1090.60
360.56	1089.43
360.94	1089.38
361.31	1089.64
361.68	1083.88
362.05	1080.74
362.42	1078.50
362.79	1074.40
363.16	1071.03
363.54	1069.91
363.91	1070.75
364.28	1070.28
364.65	1072.85
365.02	1074.66
365.39	1079.29
365.76	1079.10
366.14	1080.91
366.51	1081.75
366.88	1079.60
367.25	1078.85
367.62	1076.60
367.99	1075.94
368.36	1074.73
368.73	1076.18
369.10	1073.67
369.48	1075.36
369.85	1073.81
370.22	1074.31
370.59	1073.79
370.96	1075.97
371.33	1075.99
371.70	1076.15
372.07	1075.13
372.44	1074.59
372.81	1073.88
373.18	1076.41
373.55	1077.79
373.93	1077.98
374.30	1077.18
374.67	1078.17
375.04	1071.36
375.41	1070.91
375.78	1071.47
376.15	1073.88
376.52	1071.73
376.89	1077.07
377.26	1076.88
377.63	1077.02
378.00	1078.19
378.37	1081.87
378.74	1079.01
379.11	1080.63
379.48	1079.06
379.85	1075.31
380.22	1074.26
380.59	1077.51
380.96	1077.75
381.33	1078.64
381.70	1079.20
382.07	1079.06
382.44	1076.25
382.81	1074.24
383.18	1074.73
383.55	1079.31
383.92	1078.50
384.29	1082.05
384.66	1083.81
385.03	1083.97
385.40	1079.01
385.77	1079.78
386.14	1082.61
386.51	1082.38
386.88	1082.92
387.25	1086.27
387.62	1086.27
387.99	1084.86
388.36	1083.76
388.73	1082.33
389.10	1082.47
389.46	1081.42
389.83	1082.10
390.20	1080.65
390.57	1083.79
390.94	1083.71
391.31	1085.24
391.68	1083.41
392.05	1086.57
392.42	1084.37
392.79	1084.00
393.16	1083.74
393.53	1081.94
393.89	1081.02
394.26	1080.23
394.63	1082.69
395.00	1084.16
395.37	1086.64
395.74	1087.11
396.11	1087.97
396.48	1087.72
396.84	1085.17
397.21	1085.82
397.58	1088.56
397.95	1090.20
398.32	1089.64
398.69	1092.12
399.06	1090.97
399.42	1090.53
399.79	1088.07
400.16	1085.54
400.53	1085.52
400.90	1086.76
401.27	1086.78
401.64	1088.26
402.00	1091.25
402.37	1091.32
402.74	1090.13
403.11	1086.17
403.48	1089.57
403.84	1090.97
404.21	1092.19
404.58	1090.27
404.95	1092.23
405.32	1090.92
405.68	1092.68
406.05	1091.04
406.42	1093.33
406.79	1096.45
407.16	1097.62
407.52	1093.31
407.89	1093.31
408.26	1094.83
408.63	1095.28
408.99	1093.83
409.36	1094.60
409.73	1097.97
410.10	1098.04
410.47	1095.53
410.83	1095.16
411.20	1094.27
411.57	1091.20
411.94	1090.92
412.30	1089.03
412.67	1094.76
413.04	1095.35
413.40	1096.31
413.77	1097.97
414.14	1101.39
414.51	1097.29
414.87	1102.93
415.24	1102.30
415.61	1103.23
415.97	1106.75
416.34	1110.26
416.71	1109.53
417.08	1111.17
417.44	1111.31
417.81	1108.95
418.18	1105.67
418.54	1102.46
418.91	1107.42
419.28	1106.77
419.64	1110.58
420.01	1112.22
420.38	1119.22
420.74	1115.94
421.11	1119.48
421.48	1118.82
421.84	1119.10
422.21	1119.62
422.58	1125.56
422.94	1127.39
423.31	1132.91
423.68	1137.76
424.04	1139.21
424.41	1138.76
424.77	1141.48
425.14	1139.49
425.51	1144.76
425.87	1148.45
426.24	1155.78
426.61	1161.21
426.97	1168.00
427.34	1171.51
427.70	1175.49
428.07	1178.48
428.44	1182.32
428.80	1192.60
429.17	1203.76
429.53	1215.53
429.90	1228.64
430.27	1240.06
430.63	1245.68
431.00	1256.82
431.36	1268.80
431.73	1279.22
432.09	1291.46
432.46	1305.53
432.83	1317.32
433.19	1334.13
433.56	1353.98
433.92	1374.11
434.29	1397.09
434.65	1420.19
435.02	1440.97
435.38	1470.28
435.75	1494.55
436.11	1527.67
436.48	1558.09
436.84	1593.44
437.21	1622.93
437.57	1664.47
437.94	1701.85
438.30	1747.49
438.67	1792.99
439.03	1842.31
439.40	1891.90
439.76	1944.82
440.13	2003.80
440.49	2069.53
440.86	2135.53
441.22	2213.09
441.59	2291.62
441.95	2373.63
442.32	2454.75
442.68	2549.78
443.05	2642.32
443.41	2742.43
443.78	2838.39
444.14	2945.85
444.51	3049.81
444.87	3180.81
445.24	3323.56
445.60	3474.78
445.96	3634.43
446.33	3814.63
446.69	3981.11
447.06	4153.68
447.42	4342.28
447.79	4531.25
448.15	4746.56
448.51	4964.28
448.88	5220.64
449.24	5455.13
449.61	5728.91
449.97	6006.96
450.33	6301.99
450.70	6563.63
451.06	6883.77
451.43	7182.17
451.79	7534.72
452.15	7928.05
452.52	8375.09
452.88	8849.66
453.24	9388.12
453.61	9958.79
453.97	10521.67
454.34	11069.14
454.70	11724.68
455.06	12363.32
455.43	12996.01
455.79	13596.57
456.15	14309.89
456.52	14954.76
456.88	15726.11
457.24	16434.82
457.61	17289.21
457.97	18044.73
458.33	18813.23
458.70	19575.09
459.06	20347.49
459.42	21159.29
459.79	21935.22
460.15	22830.38
460.51	23693.41
460.88	24627.33
461.24	25432.33
461.60	26406.32
461.96	27274.08
462.33	28087.36
462.69	28850.03
463.05	29687.17
463.42	30396.70
463.78	31044.87
464.14	31588.01
464.50	32177.31
464.87	32656.51
465.23	33002.05
465.59	33365.67
465.95	33697.44
466.32	33985.87
466.68	34202.41
467.04	34343.64
467.40	34476.86
467.77	34613.34
468.13	34568.26
468.49	34476.86
468.85	34413.22
469.22	34250.16
469.58	33927.73
469.94	33680.43
470.30	33388.56
470.66	32972.09
471.03	32382.76
471.39	31999.76
471.75	31371.42
472.11	30762.04
472.47	30384.60
472.84	30083.63
473.20	29589.97
473.56	29339.46
473.92	28902.41
474.28	28371.46
474.65	27865.27
475.01	27383.17
475.37	26794.29
475.73	26347.20
476.09	25836.07
476.45	25302.69
476.81	24772.44
477.18	24223.49
477.54	23771.56
477.90	23425.70
478.26	23022.12
478.62	22681.22
478.98	22397.62
479.34	22073.73
479.71	21673.97
480.07	21314.30
480.43	20968.84
480.79	20577.94
481.15	20225.51
481.51	19906.91
481.87	19668.22
482.23	19382.84
482.59	19149.80
482.96	18869.42
483.32	18571.73
483.68	18175.69
484.04	17839.59
484.40	17462.08
484.76	17089.80
485.12	16716.46
485.48	16416.05
485.84	16060.19
486.20	15717.07
486.56	15371.37
486.92	15074.15
487.28	14716.54
487.64	14371.47
488.00	14045.77
488.37	13735.41
488.73	13370.78
489.09	13028.55
489.45	12724.28
489.81	12407.95
490.17	12103.54
490.53	11819.14
490.89	11520.94
491.25	11209.81
491.61	10903.06
491.97	10576.27
492.33	10253.58
492.69	9948.05
493.05	9649.51
493.41	9360.08
493.77	9091.72
494.13	8847.67
494.49	8613.08
494.85	8371.84
495.21	8155.03
495.57	7941.58
495.93	7729.13
496.29	7529.74
496.64	7353.26
497.00	7161.69
497.36	6966.86
497.72	6778.54
498.08	6598.18
498.44	6407.17
498.80	6230.79
499.16	6073.74
499.52	5926.92
499.88	5794.70
500.24	5675.61
500.60	5556.57
500.96	5439.69
501.32	5315.89
501.68	5195.01
502.03	5070.77
502.39	4949.88
502.75	4822.02
503.11	4695.56
503.47	4576.38
503.83	4455.68
504.19	4337.43
504.55	4235.76
504.91	4144.67
505.26	4046.58
505.62	3959.30
505.98	3874.27
506.34	3775.47
506.70	3678.46
507.06	3587.48
507.42	3504.74
507.78	3425.02
508.13	3352.42
508.49	3278.34
508.85	3215.29
509.21	3146.36
509.57	3080.19
509.93	3015.50
510.28	2951.53
510.64	2886.65
511.00	2820.95
511.36	2757.20
511.72	2695.99
512.07	2651.24
512.43	2597.62
512.79	2546.08
513.15	2498.55
513.51	2454.22
513.86	2404.64
514.22	2361.46
514.58	2326.59
514.94	2288.90
515.30	2256.42
515.65	2219.04
516.01	2186.88
516.37	2152.78
516.73	2127.38
517.08	2094.38
517.44	2065.80
517.80	2040.46
518.16	2012.46
518.51	1980.00
518.87	1953.79
519.23	1929.84
519.59	1900.02
519.94	1875.40
520.30	1854.36
520.66	1831.14
521.01	1808.46
521.37	1787.75
521.73	1769.12
522.09	1747.51
522.44	1728.42
522.80	1707.49
523.16	1685.86
523.51	1659.44
523.87	1640.79
524.23	1623.18
524.58	1606.22
524.94	1592.90
525.30	1578.06
525.65	1563.50
526.01	1545.71
526.37	1532.02
526.72	1513.79
527.08	1501.48
527.44	1489.49
527.79	1474.96
528.15	1461.64
528.51	1450.24
528.86	1443.03
529.22	1428.64
529.58	1418.41
529.93	1408.30
530.29	1399.24
530.65	1386.53
531.00	1381.52
531.36	1374.20
531.71	1363.62
532.07	1358.99
532.43	1350.61
532.78	1336.42
533.14	1329.00
533.49	1326.66
533.85	1319.55
534.21	1314.52
534.56	1309.18
534.92	1304.05
535.27	1296.66
535.63	1290.17
535.98	1282.29
536.34	1280.37
536.69	1269.65
537.05	1263.26
537.41	1254.41
537.76	1250.99
538.12	1245.56
538.47	1245.66
538.83	1237.75
539.18	1235.62
539.54	1232.50
539.89	1228.62
540.25	1223.40
540.60	1221.24
540.96	1218.72
541.31	1212.51
541.67	1209.96
542.02	1207.30
542.38	1207.32
542.73	1203.01
543.09	1199.38
543.44	1192.97
543.80	1190.63
544.15	1187.12
544.51	1189.83
544.86	1189.72
545.22	1187.42
545.57	1184.03
545.93	1179.02
546.28	1172.84
546.64	1170.36
546.99	1168.28
547.35	1168.28
547.70	1170.60
548.05	1167.23
548.41	1165.40
548.76	1165.66
549.12	1158.68
549.47	1152.04
549.83	1150.05
550.18	1147.42
550.53	1144.73
550.89	1147.52
551.24	1147.47
551.60	1146.35
551.95	1144.80
552.30	1140.99
552.66	1139.28
553.01	1140.07
553.37	1138.88
553.72	1136.75
554.07	1135.42
554.43	1133.26
554.78	1127.11
555.13	1127.16
555.49	1125.45
555.84	1128.28
556.19	1126.83
556.55	1130.48
556.90	1131.20
557.26	1131.04
557.61	1129.85
557.96	1129.19
558.32	1127.37
558.67	1122.45
559.02	1120.74
559.37	1117.77
559.73	1116.06
560.08	1112.08
560.43	1110.84
560.79	1110.75
561.14	1110.35
561.49	1111.54
561.85	1112.92
562.20	1111.80
562.55	1111.52
562.90	1109.81
563.26	1106.77
563.61	1104.90
563.96	1104.92
564.32	1103.21
564.67	1102.13
565.02	1101.46
565.37	1100.05
565.73	1099.98
566.08	1099.40
566.43	1100.80
566.78	1099.93
567.14	1103.07
567.49	1103.98
567.84	1104.24
568.19	1101.57
568.54	1101.50
568.90	1098.67
569.25	1095.09
569.60	1095.39
569.95	1096.70
570.31	1095.18
570.66	1093.99
571.01	1097.69
571.36	1099.12
571.71	1098.32
572.06	1100.78
572.42	1103.40
572.77	1102.44
573.12	1102.84
573.47	1102.86
573.82	1103.80
574.18	1099.30
574.53	1096.40
574.88	1093.50
575.23	1093.36
575.58	1091.53
575.93	1094.46
576.28	1093.59
576.64	1093.17
576.99	1091.37
577.34	1088.84
577.69	1089.05
578.04	1090.83
578.39	1088.47
578.74	1091.44
579.09	1093.01
579.44	1092.56
579.80	1092.35
580.15	1095.82
580.50	1095.51
580.85	1093.87
581.20	1096.66
581.55	1096.61
581.90	1094.79
582.25	1094.60
582.60	1098.69
582.95	1095.37
583.30	1094.83
583.65	1093.76
584.00	1088.14
584.35	1087.39
584.71	1085.45
585.06	1086.92
585.41	1088.12
585.76	1092.61
586.11	1090.76
586.46	1090.85
586.81	1088.63
587.16	1088.28
587.51	1088.26
587.86	1088.96
588.21	1090.39
588.56	1092.94
588.91	1090.46
589.26	1089.54
589.61	1089.99
589.96	1090.15
590.31	1088.37
590.66	1091.51
591.01	1090.92
591.36	1087.06
591.71	1085.68
592.06	1084.18
592.41	1081.56
592.76	1081.37
593.10	1082.97
593.45	1083.97
593.80	1083.69
594.15	1083.86
594.50	1083.71
594.85	1084.60
595.20	1085.33
595.55	1087.76
595.90	1088.93
596.25	1090.90
596.60	1090.64
596.95	1089.03
597.30	1090.32
597.64	1101.22
597.99	1099.26
598.34	1100.59
598.69	1096.47
599.04	1093.40
599.39	1083.86
599.74	1085.84
600.09	1086.20
600.44	1092.61
600.78	1093.36
601.13	1092.00
601.48	1092.05
601.83	1089.78
602.18	1086.94
602.53	1084.89
602.88	1085.99
603.22	1084.18
603.57	1084.63
603.92	1086.20
604.27	1085.77
604.62	1084.37
604.97	1082.10
605.31	1082.80
605.66	1083.71
606.01	1085.70
606.36	1084.60
606.71	1083.88
607.05	1085.03
607.40	1084.14
607.75	1081.16
608.10	1083.01
608.44	1087.79
608.79	1086.10
609.14	1083.86
609.49	1086.99
609.84	1091.86
610.18	1091.74
610.53	1092.02
610.88	1093.31
611.23	1093.80
611.57	1085.21
611.92	1081.28
612.27	1081.80
612.62	1082.26
612.96	1079.15
613.31	1082.97
613.66	1087.88
614.00	1086.57
614.35	1088.82
614.70	1090.88
615.05	1087.72
615.39	1082.08
615.74	1082.31
616.09	1077.93
616.43	1078.03
616.78	1080.23
617.13	1083.95
617.47	1082.99
617.82	1087.13
618.17	1084.02
618.51	1081.94
618.86	1080.81
619.21	1077.33
619.55	1075.45
619.90	1077.91
620.25	1078.66
620.59	1076.37
620.94	1080.70
621.29	1078.68
621.63	1077.93
621.98	1079.95
622.32	1083.88
622.67	1082.97
623.02	1082.90
623.36	1082.05
623.71	1080.41
624.05	1079.03
624.40	1080.93
624.75	1082.26
625.09	1085.87
625.44	1085.73
625.78	1084.89
626.13	1082.90
626.48	1086.15
626.82	1083.50
627.17	1085.84
627.51	1087.65
627.86	1087.51
628.20	1085.80
628.55	1084.60
628.89	1082.64
629.24	1081.05
629.58	1081.40
629.93	1081.12
630.28	1082.12
630.62	1084.21
630.97	1086.03
631.31	1086.92
631.66	1082.24
632.00	1082.99
632.35	1082.03
632.69	1079.29
633.04	1078.89
633.38	1083.13
633.73	1083.95
634.07	1082.97
634.42	1082.66
634.76	1082.87
635.11	1081.68
635.45	1075.90
635.79	1074.61
636.14	1078.50
636.48	1078.75
636.83	1078.61
637.17	1085.63
637.52	1089.54
637.86	1088.89
638.21	1087.46
638.55	1085.82
638.89	1084.23
639.24	1083.48
639.58	1080.37
639.93	1082.66
640.27	1083.41
640.61	1080.27
640.96	1075.85
641.30	1078.12
641.65	1077.61
641.99	1078.14
642.33	1081.51
642.68	1083.95
643.02	1087.48
643.37	1087.83
643.71	1087.69
644.05	1086.41
644.40	1087.55
644.74	1083.60
645.08	1083.97
645.43	1086.57
645.77	1089.22
646.11	1089.59
646.46	1092.12
646.80	1089.31
647.14	1084.53
647.49	1080.65
647.83	1078.12
648.17	1075.64
648.52	1079.99
648.86	1084.37
649.20	1085.56
649.55	1087.53
649.89	1086.64
650.23	1082.90
650.57	1079.24
650.92	1080.11
651.26	1077.63
651.60	1076.76
651.95	1075.57
652.29	1080.56
652.63	1080.39
652.97	1082.10
653.32	1083.22
653.66	1085.14
654.00	1082.15
654.34	1082.33
654.69	1082.54
655.03	1085.63
655.37	1086.10
655.71	1083.69
656.05	1080.39
656.40	1079.81
656.74	1074.77
657.08	1075.31
657.42	1078.40
657.76	1081.44
658.11	1083.53
658.45	1086.01
658.79	1082.45
659.13	1080.98
659.47	1079.88
659.82	1079.78
660.16	1081.82
660.50	1084.74
660.84	1082.64
661.18	1085.70
661.52	1081.56
661.87	1079.69
662.21	1081.56
662.55	1085.14
662.89	1083.25
663.23	1085.42
663.57	1082.61
663.91	1082.26
664.25	1082.94
664.60	1083.88
664.94	1086.10
665.28	1088.12
665.62	1089.43
665.96	1087.67
666.30	1088.47
666.64	1087.83
666.98	1089.50
667.32	1087.72
667.66	1088.30
668.01	1090.08
668.35	1086.38
668.69	1082.64
669.03	1078.07
669.37	1077.00
669.71	1073.63
670.05	1078.54
670.39	1082.19
670.73	1084.28
671.07	1083.71
671.41	1081.37
671.75	1078.52
672.09	1078.52
672.43	1081.33
672.77	1083.46
673.11	1085.54
673.45	1084.84
673.79	1084.42
674.13	1079.55
674.47	1077.79
674.81	1077.44
675.15	1079.55
675.49	1077.37
675.83	1080.93
676.17	1082.87
676.51	1083.57
676.85	1081.68
677.19	1082.85
677.53	1083.48
677.87	1082.66
678.21	1080.70
678.55	1081.63
678.89	1080.86
679.23	1079.27
679.57	1077.89
679.90	1078.50
680.24	1075.48
680.58	1074.47
680.92	1075.69
681.26	1078.31
681.60	1079.78
681.94	1084.74
682.28	1087.41
682.62	1085.99
682.96	1084.23
683.29	1084.58
683.63	1081.49
683.97	1082.03
684.31	1082.99
684.65	1085.42
684.99	1085.31
685.33	1084.98
685.67	1083.29
686.00	1084.42
686.34	1083.41
686.68	1079.71
687.02	1082.50
687.36	1083.88
687.70	1082.33
688.03	1080.11
688.37	1085.84
688.71	1087.11
689.05	1086.45
689.39	1085.28
689.72	1084.70
690.06	1084.16
690.40	1080.44
690.74	1079.62
691.08	1080.41
691.41	1085.49
691.75	1086.92
692.09	1087.60
692.43	1090.78
692.76	1091.98
693.10	1089.14
693.44	1085.80
693.78	1086.15
694.11	1083.20
694.45	1083.93
694.79	1086.03
695.13	1087.39
695.46	1086.24
695.80	1088.35
696.14	1087.93
696.48	1084.79
696.81	1082.24
697.15	1083.41
697.49	1083.81
697.82	1081.63
698.16	1083.55
698.50	1085.54
698.83	1084.04
699.17	1082.50
699.51	1081.19
699.84	1079.43
700.18	1076.90
700.52	1077.51
700.85	1077.07
701.19	1077.93
701.53	1079.78
701.86	1079.99
702.20	1078.61
702.54	1078.68
702.87	1080.04
703.21	1078.61
703.55	1080.56
703.88	1086.08
704.22	1086.20
704.55	1085.77
704.89	1086.08
705.23	1085.63
705.56	1084.18
705.90	1081.98
706.23	1081.66
706.57	1078.89
706.91	1079.71
707.24	1079.01
707.58	1081.09
707.91	1080.88
708.25	1080.74
708.58	1081.02
708.92	1079.08
709.26	1080.34
709.59	1081.58
709.93	1081.61
710.26	1076.95
710.60	1079.85
710.93	1077.54
711.27	1078.31
711.60	1083.69
711.94	1086.17
712.27	1086.52
712.61	1087.18
712.94	1086.90
713.28	1083.32
713.61	1084.89
713.95	1084.53
714.28	1085.80
714.62	1083.95
714.95	1083.04
715.29	1082.12
715.62	1076.67
715.96	1074.54
716.29	1075.05
716.63	1075.50
716.96	1078.61
717.29	1081.75
717.63	1079.06
717.96	1080.34
718.30	1080.11
718.63	1077.63
718.97	1077.18
719.30	1081.91
719.63	1081.56
719.97	1081.05
720.30	1079.95
720.64	1079.10
720.97	1079.36
721.30	1079.41
721.64	1082.59
721.97	1085.84
722.31	1086.87
722.64	1086.45
722.97	1086.52
723.31	1087.20
723.64	1084.23
723.97	1083.25
724.31	1084.81
724.64	1084.53
724.98	1081.98
725.31	1081.61
725.64	1082.69
725.98	1081.44
726.31	1078.33
726.64	1082.08
726.97	1082.59
727.31	1081.16
727.64	1080.53
727.97	1083.04
728.31	1081.05
728.64	1078.82
728.97	1078.28
729.31	1077.63
729.64	1077.63
729.97	1076.83
730.30	1077.30
730.64	1081.42
730.97	1079.90
731.30	1081.47
731.63	1082.03
731.97	1084.96
732.30	1083.15
732.63	1082.01
732.96	1081.94
733.30	1077.61
733.63	1077.47
733.96	1077.35
734.29	1078.82
734.63	1076.51
734.96	1076.97
735.29	1075.05
735.62	1073.28
735.95	1071.45
736.29	1071.92
736.62	1075.20
736.95	1072.95
737.28	1075.48
737.61	1078.05
737.94	1079.27
738.28	1079.78
738.61	1081.23
738.94	1080.44
739.27	1080.67
739.60	1081.28
739.93	1081.05
740.27	1084.37
740.60	1081.82
740.93	1080.86
741.26	1077.47
741.59	1076.81
741.92	1073.42
742.25	1079.24
742.58	1081.73
742.91	1085.75
743.25	1084.56
743.58	1086.45
743.91	1081.70
744.24	1084.25
744.57	1084.37
744.90	1084.86
745.23	1082.26
745.56	1085.19
745.89	1079.81
746.22	1075.17
746.55	1072.71
746.88	1075.13
747.21	1076.01
747.54	1078.12
747.87	1077.28
748.20	1079.06
748.53	1080.53
748.87	1080.09
749.20	1081.49
749.53	1084.60
749.86	1083.01
750.19	1081.58
750.52	1079.34
750.85	1077.63
751.18	1077.51
751.51	1077.44
751.84	1078.57
752.16	1078.10
752.49	1076.46
752.82	1078.82
753.15	1080.86
753.48	1075.83
753.81	1078.43
754.14	1078.03
754.47	1076.60
754.80	1077.25
755.13	1080.27
755.46	1077.04
755.79	1077.70
756.12	1077.35
756.45	1080.13
756.78	1081.00
757.11	1081.61
757.43	1081.66
757.76	1081.49
758.09	1078.19
758.42	1074.98
758.75	1076.60
759.08	1079.88
759.41	1079.27
759.74	1079.34
760.07	1082.78
760.39	1079.60
760.72	1077.07
761.05	1079.95
761.38	1080.34
761.71	1080.51
762.04	1080.93
762.36	1079.99
762.69	1079.27
763.02	1079.64
763.35	1076.27
763.68	1078.94
764.01	1081.05
764.33	1084.25
764.66	1086.03
764.99	1089.78
765.32	1089.29
765.65	1085.80
765.97	1080.13
766.30	1073.74
766.63	1070.98
766.96	1071.59
767.28	1072.88
767.61	1074.26
767.94	1079.50
768.27	1079.48
768.59	1078.59
768.92	1080.39
769.25	1080.91
769.58	1079.48
769.90	1079.06
770.23	1080.88
770.56	1082.59
770.89	1080.56
771.21	1079.24
771.54	1080.25
771.87	1074.77
772.19	1071.90
772.52	1072.60
772.85	1074.94
773.17	1075.48
773.50	1079.57
773.83	1080.95
774.15	1077.47
774.48	1078.17
774.81	1078.92
775.13	1077.70
775.46	1076.83
775.79	1077.40
776.11	1073.74
776.44	1073.14
776.77	1071.94
777.09	1072.08
777.42	1076.08
777.74	1079.29
778.07	1081.77
778.40	1081.96
778.72	1081.09
779.05	1080.44
779.37	1078.50
779.70	1075.78
780.03	1079.29
780.35	1081.49
780.68	1079.76
781.00	1079.85
781.33	1079.90
781.65	1077.72
781.98	1075.92
782.31	1078.28
782.63	1082.57
782.96	1082.50
783.28	1083.15
783.61	1084.56
783.93	1083.01
784.26	1080.41
784.58	1082.15
784.91	1082.59
785.23	1082.29
785.56	1081.37
785.88	1079.81
786.21	1079.38
786.53	1079.01
786.86	1077.23
787.18	1078.07
787.51	1076.55
787.83	1075.13
788.16	1075.10
788.48	1074.80
788.81	1074.68
789.13	1077.72
789.46	1079.36
789.78	1081.35
790.10	1082.99
790.43	1085.26
790.75	1085.82
791.08	1086.85
791.40	1085.77
791.73	1087.65
792.05	1088.79
792.37	1086.52
792.70	1089.00
793.02	1090.29
793.35	1086.73
793.67	1083.64
793.99	1084.51
794.32	1078.71
794.64	1075.17
794.96	1074.91
795.29	1078.57
795.61	1078.87
795.93	1078.43
796.26	1076.69
796.58	1076.06
796.91	1071.12
797.23	1070.82
797.55	1070.84
797.87	1074.49
798.20	1076.58
798.52	1078.05
798.84	1077.33
799.17	1077.02
799.49	1076.90
799.81	1077.68
800.14	1080.20
800.46	1080.84
800.78	1083.27
801.10	1082.43
801.43	1084.25
801.75	1081.70
802.07	1082.50
802.40	1083.97
802.72	1081.35
803.04	1078.36
803.36	1080.27
803.69	1080.95
804.01	1081.87
804.33	1086.10
804.65	1087.53
804.97	1083.32
805.30	1083.74
805.62	1084.74
805.94	1082.03
806.26	1082.03
806.58	1083.67
806.91	1081.12
807.23	1079.20
807.55	1083.29
807.87	1080.65
808.19	1082.76
808.52	1083.29
808.84	1082.57
809.16	1077.25
809.48	1078.19
809.80	1073.65
810.12	1071.38
810.44	1071.22
810.77	1071.71
811.09	1072.06
811.41	1077.23
811.73	1078.47
812.05	1076.20
812.37	1077.02
812.69	1079.08
813.01	1076.60
813.33	1078.89
813.66	1077.23
813.98	1077.77
814.30	1078.10
814.62	1079.60
814.94	1076.90
815.26	1083.34
815.58	1083.81
815.90	1081.82
816.22	1083.18
816.54	1084.67
816.86	1081.63
817.18	1080.70
817.50	1081.35
817.82	1079.71
818.14	1077.82
818.46	1078.33
818.78	1080.65
819.10	1078.24
819.42	1078.26
819.74	1080.02
820.06	1075.41
820.38	1075.34
820.70	1076.25
821.02	1076.44
821.34	1080.77
821.66	1088.49
821.98	1086.03
822.30	1089.12
822.62	1087.88
822.94	1084.32
823.26	1082.87
823.58	1087.34
823.90	1083.69
824.22	1081.96
824.54	1082.45
824.86	1083.48
825.18	1079.31
825.50	1078.71
825.81	1082.92
826.13	1083.43
826.45	1077.54
826.77	1079.29
827.09	1081.82
827.41	1079.46
827.73	1076.51
828.05	1079.67
828.36	1082.03
828.68	1078.61
829.00	1079.95
829.32	1080.93
829.64	1080.56
829.96	1077.86
830.28	1082.52
830.59	1081.42
830.91	1082.22
831.23	1083.64
831.55	1080.84
831.87	1078.89
832.19	1078.75
832.50	1080.53
832.82	1078.19
833.14	1080.79
833.46	1079.74
833.78	1080.04
834.09	1076.76
834.41	1079.10
834.73	1077.30
835.05	1079.64
835.36	1080.46
835.68	1081.16
836.00	1078.71
836.32	1079.46
836.63	1077.23
836.95	1077.14
837.27	1078.52
837.59	1077.02
837.90	1075.87
838.22	1074.63
838.54	1076.06
838.85	1074.63
839.17	1075.01
839.49	1074.87
839.80	1077.75
840.12	1076.39
840.44	1075.05
840.76	1076.79
841.07	1079.57
841.39	1078.94
841.71	1078.40
842.02	1079.76
842.34	1078.96
842.65	1077.89
842.97	1080.06
843.29	1077.42
843.60	1080.93
843.92	1079.57
844.24	1080.60
844.55	1078.21
844.87	1080.37
845.18	1076.06
845.50	1080.18
845.82	1080.27
846.13	1077.96
846.45	1076.41
846.76	1078.82
847.08	1078.00
847.40	1076.62
847.71	1077.79
848.03	1080.51
848.34	1080.93
848.66	1079.83
848.97	1079.20
849.29	1082.01
849.60	1080.11
849.92	1077.40
850.24	1078.31
850.55	1079.50
850.87	1077.09
851.18	1076.74
851.50	1078.31
851.81	1079.06
852.13	1081.87
852.44	1083.18
852.76	1083.15
853.07	1081.14
853.39	1078.96
853.70	1074.31
854.01	1071.94
854.33	1072.01
854.64	1071.80
854.96	1070.82
855.27	1073.04
855.59	1074.52
855.90	1075.05
856.22	1076.18
856.53	1079.57
856.84	1077.44
857.16	1077.07
857.47	1078.68
857.79	1079.97
858.10	1075.83
858.41	1079.83
858.73	1082.40
859.04	1080.41
859.36	1078.68
859.67	1077.84
859.98	1079.95
860.30	1077.79
860.61	1078.57
860.92	1078.33
861.24	1083.53
861.55	1076.34
861.87	1077.16
862.18	1077.65
862.49	1079.81
862.81	1075.45
863.12	1077.82
863.43	1075.52
863.74	1076.13
864.06	1077.35
864.37	1078.47
864.68	1079.62
865.00	1081.28
865.31	1079.46
865.62	1077.84
865.94	1079.46
866.25	1077.82
866.56	1080.41
866.87	1081.28
867.19	1081.75
867.50	1084.53
867.81	1084.96
868.12	1080.84
868.44	1080.23
868.75	1079.27
869.06	1074.77
869.37	1073.35
869.68	1074.61
870.00	1076.20
870.31	1075.97
870.62	1073.65
870.93	1075.85
871.24	1076.08
871.56	1073.88
871.87	1075.03
872.18	1078.94
872.49	1077.63
872.80	1076.62
873.12	1076.88
873.43	1074.75
873.74	1074.24
874.05	1073.53
874.36	1073.39
874.67	1074.66
874.98	1075.64
875.29	1075.05
875.61	1077.07
875.92	1077.37
876.23	1075.73
876.54	1076.08
876.85	1075.99
877.16	1078.17
877.47	1082.57
877.78	1083.01
878.09	1082.03
878.40	1079.46
878.72	1079.29
879.03	1076.32
879.34	1077.91
879.65	1075.55
879.96	1078.99
880.27	1079.24
880.58	1075.59
880.89	1074.31
881.20	1077.56
881.51	1079.06
881.82	1074.26
882.13	1077.07
882.44	1075.59
882.75	1074.52
883.06	1070.63
883.37	1070.00
883.68	1070.51
883.99	1071.52
884.30	1071.59
884.61	1075.36
884.92	1079.99
885.23	1078.19
885.54	1080.23
885.85	1080.70
886.16	1078.89
886.47	1077.30
886.78	1078.00
887.08	1076.90
887.39	1077.21
887.70	1076.18
888.01	1077.51
888.32	1078.59
888.63	1078.99
888.94	1077.93
889.25	1079.67
889.56	1077.16
889.87	1075.73
890.17	1072.39
890.48	1071.10
890.79	1070.05
891.10	1071.78
891.41	1072.29
891.72	1073.79
892.03	1078.05
892.34	1076.18
892.64	1071.94
892.95	1071.97
893.26	1071.31
893.57	1068.62
893.88	1070.58
894.18	1073.91
894.49	1074.47
894.80	1077.44
895.11	1079.17
895.42	1080.25
895.72	1078.78
896.03	1077.02
896.34	1076.90
896.65	1074.05
896.96	1071.90
897.26	1072.04
897.57	1073.88
897.88	1072.29
898.19	1074.26
898.49	1075.20
898.80	1075.31
899.11	1074.82
899.41	1077.00
899.72	1078.07
900.03	1078.57
900.34	1080.39
900.64	1080.20
900.95	1077.21
901.26	1076.90
901.56	1078.17
901.87	1077.77
902.18	1079.20
902.48	1082.73
902.79	1080.04
903.10	1079.20
903.40	1077.33
903.71	1078.43
904.02	1072.53
904.32	1072.67
904.63	1074.63
904.94	1075.73
905.24	1072.74
905.55	1077.30
905.85	1078.12
906.16	1076.51
906.47	1077.28
906.77	1076.79
907.08	1077.96
907.38	1076.39
907.69	1076.39
908.00	1076.90
908.30	1080.65
908.61	1079.64
908.91	1083.34
909.22	1083.13
909.52	1081.61
909.83	1079.06
910.14	1078.12
910.44	1075.97
910.75	1076.93
911.05	1080.11
911.36	1077.11
911.66	1077.30
911.97	1079.43
912.27	1080.23
912.58	1079.95
912.88	1083.08
913.19	1082.83
913.49	1080.16
913.80	1079.50
914.10	1077.37
914.41	1076.04
914.71	1077.54
915.01	1080.23
915.32	1076.83
915.62	1077.16
915.93	1076.30
916.23	1078.52
916.54	1079.36
916.84	1079.10
917.15	1079.24
917.45	1080.51
917.75	1077.96
918.06	1075.69
918.36	1078.61
918.67	1077.98
918.97	1077.96
919.27	1078.57
919.58	1077.96
919.88	1078.26
920.18	1078.36
920.49	1079.64
920.79	1080.51
921.10	1078.43
921.40	1077.68
921.70	1075.64
922.01	1074.91
922.31	1074.10
922.61	1074.19
922.92	1074.70
923.22	1076.23
923.52	1075.31
923.82	1075.34
924.13	1075.69
924.43	1076.62
924.73	1079.06
925.04	1075.22
925.34	1073.81
925.64	1075.31
925.94	1075.99
926.25	1076.46
926.55	1081.21
926.85	1080.39
927.15	1079.60
927.46	1077.30
927.76	1076.01
928.06	1077.89
928.36	1078.40
928.67	1079.53
928.97	1080.25
929.27	1079.53
929.57	1079.15
929.87	1078.73
930.18	1080.27
930.48	1078.26
930.78	1080.23
931.08	1079.85
931.38	1079.15
931.69	1077.37
931.99	1078.92
932.29	1075.48
932.59	1078.89
932.89	1082.83
933.19	1084.09
933.49	1084.65
933.80	1087.20
934.10	1083.18
934.40	1080.34
934.70	1077.47
935.00	1074.89
935.30	1074.00
935.60	1074.05
935.90	1073.30
936.20	1076.25
936.50	1077.58
936.81	1080.86
937.11	1080.02
937.41	1080.81
937.71	1082.78
938.01	1082.33
938.31	1079.15
938.61	1079.31
938.91	1079.06
939.21	1077.47
939.51	1078.71
939.81	1077.93
940.11	1081.19
940.41	1082.78
940.71	1083.04
941.01	1081.51
941.31	1078.12
941.61	1079.24
941.91	1079.15
942.21	1077.42
942.51	1080.06
942.81	1087.53
943.11	1084.46
943.41	1085.59
943.71	1088.47
944.01	1087.20
944.31	1084.65
944.61	1084.16
944.90	1082.01
945.20	1080.20
945.50	1079.38
945.80	1078.36
946.10	1081.26
946.40	1082.19
946.70	1080.81
947.00	1084.67
947.30	1087.27
947.60	1087.39
947.89	1088.33
948.19	1089.45
948.49	1085.10
948.79	1083.32
949.09	1079.99
949.39	1078.03
949.69	1077.89
949.98	1079.60
950.28	1081.07
950.58	1083.25
950.88	1081.98
951.18	1081.91
951.48	1081.54
951.77	1079.83
952.07	1075.38
952.37	1075.78
952.67	1073.74
952.97	1075.62
953.26	1075.57
953.56	1081.30
953.86	1082.50
954.16	1083.81
954.45	1081.51
954.75	1079.71
955.05	1075.20
955.35	1076.23
955.64	1077.77
955.94	1078.24
956.24	1079.88
956.54	1077.56
956.83	1074.73
957.13	1074.47
957.43	1073.63
957.72	1073.86
958.02	1076.25
958.32	1078.17
958.61	1076.65
958.91	1078.07
959.21	1075.66
959.50	1079.99
959.80	1079.81
960.10	1078.03
960.39	1076.97
960.69	1077.63
960.99	1075.55
961.28	1074.80
961.58	1077.42
961.87	1078.92
962.17	1076.44
962.47	1072.71
962.76	1074.14
963.06	1073.58
963.36	1072.64
963.65	1073.07
963.95	1076.51
964.24	1076.97
964.54	1078.40
964.83	1079.67
965.13	1083.60
965.42	1081.49
965.72	1081.61
966.02	1080.04
966.31	1075.15
966.61	1076.06
966.90	1079.22
967.20	1078.36
967.49	1081.35
967.79	1084.04
968.08	1082.15
968.38	1077.04
968.67	1076.83
968.97	1075.55
969.26	1079.08
969.56	1080.86
969.85	1084.89
970.15	1087.25
970.44	1086.15
970.74	1082.31
971.03	1079.57
971.32	1077.14
971.62	1074.10
971.91	1076.15
972.21	1077.84
972.50	1080.02
972.80	1082.05
973.09	1084.30
973.38	1082.03
973.68	1081.21
973.97	1079.71
974.27	1078.71
974.56	1075.48
974.85	1077.11
975.15	1076.41
975.44	1077.47
975.73	1077.79
976.03	1079.34
976.32	1079.97
976.61	1081.21
976.91	1081.96
977.20	1081.30
977.49	1081.47
977.79	1078.47
978.08	1077.56
978.37	1076.74
978.67	1079.06
978.96	1077.37
979.25	1081.82
979.55	1079.74
979.84	1078.28
980.13	1076.08
980.42	1074.77
980.72	1072.88
981.01	1074.70
981.30	1074.40
981.59	1075.80
981.89	1078.00
982.18	1075.27
982.47	1077.33
982.76	1079.53
983.06	1077.79
983.35	1075.97
983.64	1079.43
983.93	1079.20
984.22	1077.72
984.52	1080.88
984.81	1080.30
985.10	1078.19
985.39	1080.20
985.68	1081.96
985.97	1080.32
986.27	1083.79
986.56	1083.71
986.85	1078.47
987.14	1079.06
987.43	1076.53
987.72	1076.06
988.01	1077.16
988.31	1077.11
988.60	1075.10
988.89	1075.90
989.18	1074.61
989.47	1071.52
989.76	1072.20
990.05	1071.33
990.34	1072.25
990.63	1073.88
990.92	1075.97
991.21	1077.00
991.51	1077.44
991.80	1079.76
992.09	1076.90
992.38	1078.24
992.67	1077.07
992.96	1074.98
993.25	1070.91
993.54	1071.59
993.83	1070.42
994.12	1073.37
994.41	1075.29
994.70	1076.97
994.99	1078.43
995.28	1077.70
995.57	1074.45
995.86	1074.96
996.15	1076.93
996.44	1075.90
996.73	1076.23
997.02	1079.62
997.31	1077.47
997.59	1076.74
997.88	1077.42
998.17	1078.26
998.46	1076.25
998.75	1079.31
999.04	1078.40
999.33	1078.05
999.62	1076.18
999.91	1076.69
1000.20	1076.18
1000.49	1077.00
1000.77	1079.08
1001.06	1080.60
1001.35	1079.48
1001.64	1078.94
1001.93	1080.58
1002.22	1079.95
1002.51	1078.38
1002.79	1077.61
1003.08	1078.12
1003.37	1075.50
1003.66	1075.27
1003.95	1078.05
1004.23	1076.41
1004.52	1072.32
1004.81	1073.14
1005.10	1070.87
1005.39	1066.54
1005.67	1070.75
1005.96	1075.41
1006.25	1075.80
1006.54	1075.52
1006.83	1080.58
1007.11	1081.37
1007.40	1081.33
1007.69	1077.07
1007.97	1079.76
1008.26	1081.14
1008.55	1078.64
1008.84	1079.85
1009.12	1082.71
1009.41	1082.22
1009.70	1080.86
1009.98	1079.55
1010.27	1076.41
1010.56	1077.14
1010.85	1079.74
1011.13	1078.36
1011.42	1081.09
1011.71	1082.31
1011.99	1082.33
1012.28	1078.64
1012.56	1078.19
1012.85	1076.13
1013.14	1075.10
1013.42	1075.78
1013.71	1077.68
1014.00	1078.21
1014.28	1079.43
1014.57	1081.82
1014.85	1084.37
1015.14	1084.09
1015.43	1083.27
1015.71	1082.26
1016.00	1078.50
1016.28	1077.82
1016.57	1077.14
1016.85	1074.98
1017.14	1076.62
1017.43	1079.95
1017.71	1077.07
1018.00	1077.07
1018.28	1079.15
1018.57	1076.97
1018.85	1078.78
1019.14	1076.86
1019.42	1079.24
1019.71	1078.19
1019.99	1079.55
1020.28	1074.47
1020.56	1075.97
1020.85	1075.08
1021.13	1074.12
1021.42	1074.89
1021.70	1076.58
1021.99	1076.69
1022.27	1074.59
1022.55	1075.13
1022.84	1074.19
>>>>>End Processed Spectral Data<<<<<
