SpectraSuite Data File
++++++++++++++++++++++++++++++++++++
Date: Mon Aug 26 10:25:45 PDT 2019
User: corrico
Dark Spectrum Present: No
Reference Spectrum Present: No
Number of Sampled Component Spectra: 1
Spectrometers: USB2+H06089
Integration Time (usec): 10000 (USB2+H06089)
Spectra Averaged: 2 (USB2+H06089)
Boxcar Smoothing: 2 (USB2+H06089)
Correct for Electrical Dark: No (USB2+H06089)
Strobe/Lamp Enabled: No (USB2+H06089)
Correct for Detector Non-linearity: No (USB2+H06089)
Correct for Stray Light: No (USB2+H06089)
Number of Pixels in Processed Spectrum: 2048
>>>>>Begin Processed Spectral Data<<<<<
339.70	1008.77
340.07	1008.77
340.45	985.83
340.82	968.51
341.19	947.21
341.57	921.23
341.94	913.04
342.31	906.96
342.69	904.62
343.06	903.91
343.43	906.96
343.81	906.26
344.18	904.62
344.55	901.81
344.93	909.77
345.30	922.17
345.67	930.60
346.04	930.60
346.42	933.17
346.79	939.02
347.16	945.58
347.54	951.90
347.91	971.79
348.28	986.77
348.65	991.22
349.03	994.49
349.40	1006.20
349.77	1001.75
350.14	1012.05
350.52	1025.86
350.89	1030.54
351.26	1032.41
351.63	1048.79
352.01	1057.92
352.38	1057.92
352.75	1069.39
353.12	1075.24
353.50	1086.94
353.87	1084.84
354.24	1088.58
354.61	1079.69
354.98	1084.14
355.36	1082.26
355.73	1086.01
356.10	1079.92
356.47	1090.22
356.84	1082.97
357.22	1080.86
357.59	1084.84
357.96	1089.52
358.33	1083.67
358.70	1084.14
359.08	1079.69
359.45	1070.80
359.82	1070.80
360.19	1076.18
360.56	1078.05
360.94	1073.60
361.31	1078.05
361.68	1071.73
362.05	1073.37
362.42	1069.62
362.79	1069.62
363.16	1070.80
363.54	1089.05
363.91	1080.16
364.28	1078.28
364.65	1084.14
365.02	1076.41
365.39	1057.69
365.76	1059.33
366.14	1067.05
366.51	1067.52
366.88	1060.96
367.25	1066.82
367.62	1068.22
367.99	1057.69
368.36	1049.73
368.73	1070.33
369.10	1075.24
369.48	1075.71
369.85	1085.77
370.22	1086.48
370.59	1069.16
370.96	1073.84
371.33	1071.26
371.70	1067.75
372.07	1066.11
372.44	1069.16
372.81	1049.26
373.18	1058.86
373.55	1057.69
373.93	1054.18
374.30	1065.65
374.67	1079.92
375.04	1070.09
375.41	1063.07
375.78	1076.18
376.15	1066.11
376.52	1077.11
376.89	1079.46
377.26	1086.94
377.63	1082.73
378.00	1093.03
378.37	1080.63
378.74	1083.67
379.11	1087.88
379.48	1078.99
379.85	1081.09
380.22	1084.60
380.59	1075.01
380.96	1083.20
381.33	1087.65
381.70	1078.75
382.07	1078.28
382.44	1090.69
382.81	1078.52
383.18	1074.07
383.55	1066.82
383.92	1058.16
384.29	1053.94
384.66	1055.82
385.03	1067.99
385.40	1071.97
385.77	1078.75
386.14	1091.63
386.51	1089.52
386.88	1080.16
387.25	1078.99
387.62	1073.60
387.99	1064.48
388.36	1064.48
388.73	1069.86
389.10	1072.67
389.46	1074.54
389.83	1068.92
390.20	1070.33
390.57	1069.62
390.94	1067.05
391.31	1063.54
391.68	1053.94
392.05	1057.92
392.42	1062.60
392.79	1062.14
393.16	1071.50
393.53	1084.37
393.89	1083.20
394.26	1086.24
394.63	1102.63
395.00	1096.78
395.37	1103.09
395.74	1097.95
396.11	1085.54
396.48	1065.65
396.84	1068.45
397.21	1069.86
397.58	1074.07
397.95	1075.71
398.32	1083.90
398.69	1085.77
399.06	1063.07
399.42	1071.03
399.79	1085.07
400.16	1091.39
400.53	1088.58
400.90	1098.88
401.27	1091.63
401.64	1075.24
402.00	1063.07
402.37	1066.35
402.74	1079.46
403.11	1079.46
403.48	1087.88
403.84	1097.24
404.21	1086.48
404.58	1075.24
404.95	1078.75
405.32	1077.11
405.68	1066.11
406.05	1070.09
406.42	1067.99
406.79	1062.37
407.16	1060.03
407.52	1056.99
407.89	1058.39
408.26	1063.54
408.63	1067.52
408.99	1056.99
409.36	1054.65
409.73	1058.39
410.10	1060.73
410.47	1055.58
410.83	1064.48
411.20	1078.99
411.57	1082.73
411.94	1076.18
412.30	1072.43
412.67	1065.18
413.04	1067.28
413.40	1061.90
413.77	1061.43
414.14	1070.33
414.51	1087.18
414.87	1075.94
415.24	1082.73
415.61	1077.58
415.97	1079.22
416.34	1074.07
416.71	1072.43
417.08	1065.88
417.44	1074.31
417.81	1065.65
418.18	1064.48
418.54	1077.35
418.91	1075.94
419.28	1073.14
419.64	1080.39
420.01	1078.28
420.38	1073.84
420.74	1080.39
421.11	1088.12
421.48	1084.60
421.84	1089.29
422.21	1089.75
422.58	1084.60
422.94	1079.92
423.31	1076.18
423.68	1068.69
424.04	1072.67
424.41	1067.99
424.77	1075.01
425.14	1086.24
425.51	1090.69
425.87	1081.80
426.24	1093.73
426.61	1088.82
426.97	1076.88
427.34	1075.24
427.70	1080.86
428.07	1072.67
428.44	1074.07
428.80	1071.97
429.17	1082.73
429.53	1080.39
429.90	1072.43
430.27	1071.26
430.63	1078.99
431.00	1074.77
431.36	1075.24
431.73	1083.90
432.09	1086.71
432.46	1091.39
432.83	1092.56
433.19	1096.07
433.56	1097.48
433.92	1091.63
434.29	1081.80
434.65	1088.12
435.02	1087.65
435.38	1084.60
435.75	1084.60
436.11	1091.63
436.48	1079.22
436.84	1070.09
437.21	1075.48
437.57	1075.01
437.94	1070.09
438.30	1075.71
438.67	1083.43
439.03	1076.65
439.40	1077.35
439.76	1077.11
440.13	1076.65
440.49	1075.01
440.86	1080.16
441.22	1082.73
441.59	1089.05
441.95	1083.67
442.32	1086.94
442.68	1077.58
443.05	1074.54
443.41	1073.84
443.78	1073.60
444.14	1077.11
444.51	1086.71
444.87	1082.26
445.24	1082.50
445.60	1080.16
445.96	1081.09
446.33	1070.80
446.69	1074.77
447.06	1073.37
447.42	1075.48
447.79	1063.07
448.15	1062.37
448.51	1059.79
448.88	1062.84
449.24	1062.14
449.61	1069.16
449.97	1081.56
450.33	1090.92
450.70	1090.92
451.06	1095.60
451.43	1095.14
451.79	1096.07
452.15	1099.12
452.52	1099.82
452.88	1098.65
453.24	1089.75
453.61	1095.14
453.97	1087.18
454.34	1082.73
454.70	1077.82
455.06	1084.37
455.43	1074.31
455.79	1065.88
456.15	1060.96
456.52	1073.14
456.88	1082.26
457.24	1091.63
457.61	1102.39
457.97	1119.95
458.33	1111.05
458.70	1098.41
459.06	1091.16
459.42	1086.24
459.79	1075.71
460.15	1076.65
460.51	1089.99
460.88	1090.46
461.24	1094.20
461.60	1093.26
461.96	1092.56
462.33	1082.97
462.69	1078.75
463.05	1083.67
463.42	1075.71
463.78	1079.46
464.14	1079.69
464.50	1088.58
464.87	1081.56
465.23	1086.24
465.59	1078.05
465.95	1082.26
466.32	1079.92
466.68	1075.24
467.04	1079.46
467.40	1083.67
467.77	1081.33
468.13	1078.05
468.49	1084.84
468.85	1074.31
469.22	1074.07
469.58	1081.80
469.94	1075.01
470.30	1079.22
470.66	1092.80
471.03	1094.90
471.39	1085.77
471.75	1099.82
472.11	1095.14
472.47	1088.58
472.84	1083.67
473.20	1089.52
473.56	1078.28
473.92	1069.86
474.28	1078.28
474.65	1086.01
475.01	1078.05
475.37	1082.03
475.73	1092.33
476.09	1082.50
476.45	1081.80
476.81	1086.94
477.18	1081.33
477.54	1071.50
477.90	1078.28
478.26	1070.80
478.62	1076.88
478.98	1077.58
479.34	1092.80
479.71	1088.82
480.07	1085.31
480.43	1083.43
480.79	1082.97
481.15	1067.75
481.51	1069.62
481.87	1079.69
482.23	1070.09
482.59	1077.82
482.96	1080.86
483.32	1070.56
483.68	1064.01
484.04	1058.39
484.40	1053.24
484.76	1063.54
485.12	1070.80
485.48	1076.65
485.84	1090.22
486.20	1097.01
486.56	1085.31
486.92	1085.77
487.28	1076.18
487.64	1070.33
488.00	1062.37
488.37	1069.39
488.73	1066.58
489.09	1074.07
489.45	1074.07
489.81	1077.82
490.17	1083.67
490.53	1080.63
490.89	1080.63
491.25	1083.90
491.61	1086.48
491.97	1081.80
492.33	1084.37
492.69	1082.50
493.05	1087.65
493.41	1080.63
493.77	1081.80
494.13	1079.69
494.49	1080.63
494.85	1067.75
495.21	1071.50
495.57	1070.80
495.93	1082.03
496.29	1089.05
496.64	1092.80
497.00	1096.54
497.36	1098.41
497.72	1099.58
498.08	1086.94
498.44	1092.56
498.80	1094.20
499.16	1088.12
499.52	1076.65
499.88	1071.03
500.24	1067.99
500.60	1060.50
500.96	1059.56
501.32	1057.22
501.68	1070.56
502.03	1067.75
502.39	1073.60
502.75	1069.39
503.11	1078.05
503.47	1080.63
503.83	1085.54
504.19	1075.48
504.55	1087.18
504.91	1082.73
505.26	1086.48
505.62	1079.22
505.98	1090.22
506.34	1088.58
506.70	1092.33
507.06	1077.11
507.42	1088.12
507.78	1081.33
508.13	1085.07
508.49	1083.90
508.85	1097.24
509.21	1088.12
509.57	1070.80
509.93	1065.88
510.28	1071.73
510.64	1061.90
511.00	1061.20
511.36	1075.48
511.72	1073.14
512.07	1066.35
512.43	1065.88
512.79	1068.69
513.15	1071.73
513.51	1076.18
513.86	1075.71
514.22	1079.69
514.58	1080.16
514.94	1088.12
515.30	1094.20
515.65	1088.12
516.01	1093.50
516.37	1092.80
516.73	1088.35
517.08	1067.05
517.44	1070.33
517.80	1068.92
518.16	1078.52
518.51	1067.05
518.87	1077.82
519.23	1075.01
519.59	1077.35
519.94	1066.35
520.30	1071.26
520.66	1065.88
521.01	1078.05
521.37	1075.48
521.73	1084.14
522.09	1088.58
522.44	1097.48
522.80	1080.86
523.16	1078.75
523.51	1079.92
523.87	1078.75
524.23	1073.37
524.58	1083.43
524.94	1081.80
525.30	1074.07
525.65	1078.99
526.01	1079.92
526.37	1084.14
526.72	1087.88
527.08	1092.09
527.44	1091.86
527.79	1101.46
528.15	1098.88
528.51	1098.65
528.86	1094.90
529.22	1097.48
529.58	1087.88
529.93	1083.67
530.29	1083.20
530.65	1073.84
531.00	1065.18
531.36	1072.20
531.71	1071.73
532.07	1071.50
532.43	1080.63
532.78	1093.73
533.14	1092.80
533.49	1105.20
533.85	1105.67
534.21	1101.92
534.56	1094.67
534.92	1091.86
535.27	1080.86
535.63	1089.75
535.98	1096.54
536.34	1091.86
536.69	1090.69
537.05	1094.43
537.41	1079.46
537.76	1080.39
538.12	1086.94
538.47	1090.92
538.83	1097.48
539.18	1107.54
539.54	1102.39
539.89	1098.88
540.25	1091.86
540.60	1084.14
540.96	1075.71
541.31	1075.94
541.67	1075.01
542.02	1075.71
542.38	1083.43
542.73	1087.41
543.09	1083.90
543.44	1083.67
543.80	1089.05
544.15	1083.90
544.51	1085.31
544.86	1095.84
545.22	1100.75
545.57	1094.20
545.93	1091.16
546.28	1084.60
546.64	1083.67
546.99	1088.35
547.35	1091.63
547.70	1088.82
548.05	1094.20
548.41	1082.73
548.76	1076.18
549.12	1066.82
549.47	1065.65
549.83	1064.24
550.18	1068.92
550.53	1068.92
550.89	1073.37
551.24	1071.03
551.60	1073.37
551.95	1069.62
552.30	1068.45
552.66	1069.62
553.01	1080.16
553.37	1076.88
553.72	1090.69
554.07	1081.56
554.43	1085.07
554.78	1085.31
555.13	1088.58
555.49	1077.58
555.84	1083.67
556.19	1082.50
556.55	1074.77
556.90	1072.43
557.26	1071.26
557.61	1075.94
557.96	1075.24
558.32	1077.35
558.67	1091.39
559.02	1090.69
559.37	1078.99
559.73	1088.58
560.08	1087.18
560.43	1076.65
560.79	1075.71
561.14	1082.50
561.49	1071.50
561.85	1073.60
562.20	1070.56
562.55	1077.82
562.90	1068.69
563.26	1073.60
563.61	1075.71
563.96	1080.63
564.32	1082.26
564.67	1101.22
565.02	1096.78
565.37	1089.29
565.73	1071.26
566.08	1071.03
566.43	1061.43
566.78	1062.14
567.14	1076.88
567.49	1084.37
567.84	1084.84
568.19	1083.67
568.54	1083.20
568.90	1075.71
569.25	1079.69
569.60	1078.75
569.95	1087.88
570.31	1088.58
570.66	1077.35
571.01	1082.03
571.36	1077.35
571.71	1076.18
572.06	1067.99
572.42	1073.37
572.77	1067.75
573.12	1065.41
573.47	1061.67
573.82	1073.14
574.18	1085.54
574.53	1094.67
574.88	1102.16
575.23	1103.33
575.58	1098.65
575.93	1092.09
576.28	1091.63
576.64	1081.56
576.99	1077.58
577.34	1083.67
577.69	1080.16
578.04	1075.71
578.39	1083.90
578.74	1086.71
579.09	1073.84
579.44	1078.28
579.80	1080.16
580.15	1084.84
580.50	1087.41
580.85	1098.41
581.20	1097.48
581.55	1094.20
581.90	1084.14
582.25	1081.09
582.60	1081.09
582.95	1081.56
583.30	1080.86
583.65	1094.67
584.00	1084.84
584.35	1079.22
584.71	1082.73
585.06	1088.12
585.41	1086.01
585.76	1101.22
586.11	1108.48
586.46	1105.67
586.81	1102.39
587.16	1089.05
587.51	1083.43
587.86	1081.56
588.21	1071.26
588.56	1067.05
588.91	1068.45
589.26	1056.05
589.61	1054.41
589.96	1069.16
590.31	1075.24
590.66	1084.84
591.01	1099.82
591.36	1106.84
591.71	1094.90
592.06	1095.14
592.41	1089.29
592.76	1084.14
593.10	1073.60
593.45	1082.73
593.80	1070.33
594.15	1061.43
594.50	1061.67
594.85	1075.71
595.20	1079.92
595.55	1082.97
595.90	1097.71
596.25	1100.29
596.60	1092.56
596.95	1083.67
597.30	1085.07
597.64	1137.50
597.99	1148.27
598.34	1139.84
598.69	1140.31
599.04	1146.86
599.39	1093.50
599.74	1087.65
600.09	1085.54
600.44	1087.65
600.78	1086.01
601.13	1080.86
601.48	1078.28
601.83	1087.41
602.18	1082.50
602.53	1083.90
602.88	1082.73
603.22	1068.92
603.57	1066.82
603.92	1068.45
604.27	1049.26
604.62	1042.01
604.97	1055.82
605.31	1054.65
605.66	1054.88
606.01	1073.84
606.36	1073.60
606.71	1064.48
607.05	1071.03
607.40	1081.09
607.75	1076.65
608.10	1093.73
608.44	1110.58
608.79	1113.63
609.14	1107.07
609.49	1101.46
609.84	1094.20
610.18	1084.84
610.53	1084.60
610.88	1094.43
611.23	1100.99
611.57	1100.05
611.92	1102.39
612.27	1100.99
612.62	1092.33
612.96	1097.48
613.31	1102.86
613.66	1099.35
614.00	1095.60
614.35	1093.73
614.70	1096.07
615.05	1087.65
615.39	1081.09
615.74	1067.28
616.09	1076.18
616.43	1077.35
616.78	1076.18
617.13	1086.01
617.47	1094.67
617.82	1076.88
618.17	1079.46
618.51	1082.26
618.86	1080.63
619.21	1081.09
619.55	1095.37
619.90	1084.60
620.25	1081.33
620.59	1075.24
620.94	1076.65
621.29	1076.41
621.63	1075.48
621.98	1083.43
622.32	1093.73
622.67	1103.33
623.02	1093.50
623.36	1098.18
623.71	1101.22
624.05	1090.22
624.40	1082.73
624.75	1099.35
625.09	1095.37
625.44	1086.71
625.78	1081.80
626.13	1079.46
626.48	1060.50
626.82	1060.50
627.17	1056.75
627.51	1075.24
627.86	1076.88
628.20	1085.54
628.55	1089.29
628.89	1101.69
629.24	1102.16
629.58	1099.12
629.93	1109.41
630.28	1109.18
630.62	1103.09
630.97	1100.29
631.31	1112.22
631.66	1098.18
632.00	1099.82
632.35	1098.41
632.69	1086.71
633.04	1068.45
633.38	1066.82
633.73	1055.82
634.07	1057.92
634.42	1060.96
634.76	1064.01
635.11	1079.22
635.45	1078.05
635.79	1075.48
636.14	1078.28
636.48	1082.97
636.83	1071.97
637.17	1077.35
637.52	1082.03
637.86	1087.41
638.21	1095.37
638.55	1093.03
638.89	1096.31
639.24	1090.69
639.58	1090.69
639.93	1092.33
640.27	1092.80
640.61	1089.75
640.96	1100.75
641.30	1094.20
641.65	1090.22
641.99	1086.71
642.33	1087.65
642.68	1083.20
643.02	1077.11
643.37	1074.77
643.71	1079.69
644.05	1082.50
644.40	1082.03
644.74	1098.18
645.08	1097.71
645.43	1104.03
645.77	1107.54
646.11	1102.39
646.46	1097.95
646.80	1088.35
647.14	1082.26
647.49	1079.46
647.83	1079.22
648.17	1072.67
648.52	1076.88
648.86	1076.18
649.20	1072.67
649.55	1085.77
649.89	1083.43
650.23	1097.95
650.57	1098.41
650.92	1097.71
651.26	1078.99
651.60	1091.86
651.95	1078.28
652.29	1081.09
652.63	1077.58
652.97	1089.29
653.32	1075.94
653.66	1075.24
654.00	1075.24
654.34	1073.14
654.69	1067.05
655.03	1073.14
655.37	1081.09
655.71	1072.20
656.05	1081.33
656.40	1085.77
656.74	1081.56
657.08	1070.80
657.42	1077.11
657.76	1082.97
658.11	1086.01
658.45	1092.56
658.79	1098.88
659.13	1096.31
659.47	1088.12
659.82	1074.77
660.16	1064.94
660.50	1061.43
660.84	1070.80
661.18	1070.09
661.52	1079.92
661.87	1084.84
662.21	1091.16
662.55	1078.28
662.89	1073.37
663.23	1074.07
663.57	1074.54
663.91	1072.67
664.25	1075.01
664.60	1074.07
664.94	1064.71
665.28	1059.33
665.62	1058.39
665.96	1054.41
666.30	1058.86
666.64	1061.43
666.98	1068.69
667.32	1063.31
667.66	1067.99
668.01	1069.86
668.35	1078.75
668.69	1078.28
669.03	1075.94
669.37	1078.05
669.71	1079.46
670.05	1070.80
670.39	1060.50
670.73	1070.09
671.07	1069.39
671.41	1064.48
671.75	1071.73
672.09	1078.99
672.43	1081.33
672.77	1080.39
673.11	1090.22
673.45	1080.63
673.79	1084.60
674.13	1091.39
674.47	1093.97
674.81	1099.82
675.15	1099.82
675.49	1094.90
675.83	1082.73
676.17	1087.41
676.51	1075.48
676.85	1080.86
677.19	1081.80
677.53	1084.84
677.87	1082.03
678.21	1084.84
678.55	1079.22
678.89	1078.52
679.23	1089.99
679.57	1083.90
679.90	1077.11
680.24	1089.05
680.58	1086.71
680.92	1056.99
681.26	1057.69
681.60	1061.90
681.94	1055.11
682.28	1056.75
682.62	1074.31
682.96	1080.16
683.29	1079.46
683.63	1077.35
683.97	1074.07
684.31	1072.43
684.65	1060.03
684.99	1055.58
685.33	1060.96
685.67	1065.18
686.00	1061.90
686.34	1074.77
686.68	1081.09
687.02	1082.26
687.36	1084.37
687.70	1086.94
688.03	1080.16
688.37	1079.46
688.71	1080.63
689.05	1075.71
689.39	1072.43
689.72	1082.50
690.06	1084.14
690.40	1079.69
690.74	1075.71
691.08	1087.18
691.41	1081.56
691.75	1073.14
692.09	1079.22
692.43	1086.71
692.76	1078.05
693.10	1071.26
693.44	1084.37
693.78	1078.75
694.11	1064.24
694.45	1062.60
694.79	1062.14
695.13	1051.37
695.46	1060.03
695.80	1084.84
696.14	1086.48
696.48	1093.03
696.81	1094.67
697.15	1084.60
697.49	1074.31
697.82	1078.05
698.16	1075.48
698.50	1079.69
698.83	1079.69
699.17	1080.63
699.51	1078.28
699.84	1082.97
700.18	1079.69
700.52	1084.14
700.85	1080.16
701.19	1087.18
701.53	1076.65
701.86	1080.86
702.20	1076.41
702.54	1082.03
702.87	1079.92
703.21	1089.52
703.55	1088.35
703.88	1095.60
704.22	1100.29
704.55	1100.75
704.89	1097.71
705.23	1096.54
705.56	1091.16
705.90	1089.29
706.23	1072.43
706.57	1068.45
706.91	1063.77
707.24	1062.84
707.58	1061.90
707.91	1069.16
708.25	1074.77
708.58	1073.37
708.92	1078.52
709.26	1068.45
709.59	1062.84
709.93	1065.18
710.26	1070.33
710.60	1070.56
710.93	1082.73
711.27	1089.99
711.60	1081.56
711.94	1093.50
712.27	1091.16
712.61	1087.18
712.94	1090.22
713.28	1097.48
713.61	1086.71
713.95	1084.60
714.28	1082.73
714.62	1078.05
714.95	1074.07
715.29	1078.99
715.62	1078.05
715.96	1083.43
716.29	1090.69
716.63	1099.82
716.96	1089.29
717.29	1093.26
717.63	1097.24
717.96	1097.71
718.30	1090.22
718.63	1096.07
718.97	1088.82
719.30	1082.97
719.63	1088.35
719.97	1089.52
720.30	1085.77
720.64	1092.33
720.97	1089.52
721.30	1070.56
721.64	1073.37
721.97	1082.97
722.31	1080.63
722.64	1078.99
722.97	1086.48
723.31	1084.37
723.64	1081.80
723.97	1078.28
724.31	1083.67
724.64	1087.88
724.98	1074.31
725.31	1067.05
725.64	1069.16
725.98	1064.71
726.31	1058.16
726.64	1065.41
726.97	1067.52
727.31	1064.24
727.64	1062.37
727.97	1067.52
728.31	1075.01
728.64	1066.82
728.97	1062.14
729.31	1061.20
729.64	1063.77
729.97	1069.62
730.30	1073.14
730.64	1083.20
730.97	1087.65
731.30	1084.60
731.63	1072.43
731.97	1082.50
732.30	1087.88
732.63	1080.63
732.96	1082.50
733.30	1086.48
733.63	1082.97
733.96	1079.46
734.29	1080.86
734.63	1077.11
734.96	1083.90
735.29	1086.48
735.62	1083.20
735.95	1083.90
736.29	1086.01
736.62	1071.03
736.95	1070.56
737.28	1077.11
737.61	1086.71
737.94	1084.14
738.28	1088.82
738.61	1086.48
738.94	1079.22
739.27	1067.75
739.60	1071.97
739.93	1078.99
740.27	1072.90
740.60	1080.63
740.93	1086.71
741.26	1082.50
741.59	1081.56
741.92	1090.92
742.25	1076.41
742.58	1073.37
742.91	1080.39
743.25	1071.73
743.58	1069.62
743.91	1082.03
744.24	1080.16
744.57	1079.22
744.90	1082.73
745.23	1073.60
745.56	1070.56
745.89	1072.43
746.22	1066.35
746.55	1068.69
746.88	1074.31
747.21	1076.65
747.54	1078.75
747.87	1081.33
748.20	1079.92
748.53	1078.75
748.87	1080.39
749.20	1077.82
749.53	1082.26
749.86	1084.14
750.19	1080.86
750.52	1088.58
750.85	1089.75
751.18	1075.01
751.51	1075.01
751.84	1085.77
752.16	1073.14
752.49	1071.26
752.82	1082.50
753.15	1075.01
753.48	1066.35
753.81	1070.09
754.14	1072.43
754.47	1070.09
754.80	1074.54
755.13	1078.52
755.46	1079.22
755.79	1076.88
756.12	1076.65
756.45	1084.84
756.78	1090.69
757.11	1080.86
757.43	1083.43
757.76	1076.65
758.09	1069.39
758.42	1062.84
758.75	1067.52
759.08	1070.56
759.41	1075.48
759.74	1085.31
760.07	1094.20
760.39	1090.69
760.72	1089.99
761.05	1091.63
761.38	1086.24
761.71	1081.56
762.04	1077.82
762.36	1071.50
762.69	1072.67
763.02	1076.65
763.35	1074.77
763.68	1079.46
764.01	1080.63
764.33	1082.50
764.66	1081.33
764.99	1087.65
765.32	1092.56
765.65	1092.56
765.97	1100.99
766.30	1095.14
766.63	1083.67
766.96	1075.48
767.28	1073.84
767.61	1066.11
767.94	1068.69
768.27	1062.14
768.59	1071.97
768.92	1079.69
769.25	1069.86
769.58	1066.58
769.90	1078.28
770.23	1066.82
770.56	1064.01
770.89	1072.90
771.21	1078.52
771.54	1080.86
771.87	1098.88
772.19	1101.92
772.52	1105.90
772.85	1102.16
773.17	1099.35
773.50	1089.52
773.83	1091.86
774.15	1098.41
774.48	1099.58
774.81	1099.58
775.13	1097.24
775.46	1084.60
775.79	1072.90
776.11	1070.33
776.44	1063.31
776.77	1066.58
777.09	1075.71
777.42	1072.20
777.74	1064.94
778.07	1070.56
778.40	1068.69
778.72	1071.26
779.05	1082.97
779.37	1085.77
779.70	1096.07
780.03	1088.12
780.35	1088.35
780.68	1085.31
781.00	1087.41
781.33	1073.60
781.65	1086.01
781.98	1086.71
782.31	1086.24
782.63	1088.58
782.96	1095.84
783.28	1085.07
783.61	1081.80
783.93	1075.48
784.26	1076.18
784.58	1069.86
784.91	1076.41
785.23	1074.77
785.56	1082.03
785.88	1078.99
786.21	1086.94
786.53	1080.16
786.86	1080.39
787.18	1072.67
787.51	1071.97
787.83	1066.58
788.16	1078.99
788.48	1074.54
788.81	1072.90
789.13	1079.92
789.46	1072.90
789.78	1066.58
790.10	1074.54
790.43	1076.88
790.75	1075.71
791.08	1081.33
791.40	1084.14
791.73	1088.82
792.05	1085.31
792.37	1077.35
792.70	1073.84
793.02	1071.97
793.35	1050.67
793.67	1060.03
793.99	1065.65
794.32	1073.14
794.64	1065.65
794.96	1072.67
795.29	1072.90
795.61	1068.45
795.93	1070.09
796.26	1081.33
796.58	1091.39
796.91	1083.43
797.23	1090.22
797.55	1082.26
797.87	1091.16
798.20	1089.52
798.52	1088.35
798.84	1084.37
799.17	1085.54
799.49	1074.77
799.81	1070.56
800.14	1067.99
800.46	1071.73
800.78	1068.22
801.10	1054.65
801.43	1052.54
801.75	1061.90
802.07	1059.56
802.40	1063.31
802.72	1079.92
803.04	1077.11
803.36	1070.56
803.69	1065.18
804.01	1074.07
804.33	1069.62
804.65	1081.80
804.97	1080.16
805.30	1080.39
805.62	1072.67
805.94	1071.73
806.26	1065.18
806.58	1067.75
806.91	1062.84
807.23	1065.65
807.55	1067.99
807.87	1067.99
808.19	1073.14
808.52	1079.22
808.84	1079.46
809.16	1074.31
809.48	1062.60
809.80	1061.20
810.12	1056.28
810.44	1044.35
810.77	1052.30
811.09	1073.60
811.41	1082.03
811.73	1089.52
812.05	1104.50
812.37	1108.95
812.69	1101.92
813.01	1093.97
813.33	1091.16
813.66	1091.16
813.98	1080.63
814.30	1073.37
814.62	1067.28
814.94	1068.22
815.26	1063.54
815.58	1075.48
815.90	1080.39
816.22	1088.58
816.54	1082.03
816.86	1080.39
817.18	1080.63
817.50	1080.39
817.82	1085.31
818.14	1098.41
818.46	1098.41
818.78	1078.52
819.10	1079.46
819.42	1067.52
819.74	1062.84
820.06	1065.88
820.38	1075.01
820.70	1074.07
821.02	1074.31
821.34	1077.58
821.66	1077.82
821.98	1079.46
822.30	1083.90
822.62	1077.82
822.94	1078.99
823.26	1080.16
823.58	1072.67
823.90	1064.24
824.22	1073.60
824.54	1064.01
824.86	1069.62
825.18	1069.16
825.50	1071.73
825.81	1068.69
826.13	1068.69
826.45	1060.73
826.77	1064.01
827.09	1063.07
827.41	1058.62
827.73	1061.67
828.05	1066.35
828.36	1074.31
828.68	1081.09
829.00	1088.58
829.32	1097.48
829.64	1088.58
829.96	1073.37
830.28	1067.75
830.59	1072.90
830.91	1075.24
831.23	1072.67
831.55	1078.05
831.87	1069.16
832.19	1063.07
832.50	1049.03
832.82	1060.03
833.14	1059.79
833.46	1069.62
833.78	1072.67
834.09	1077.35
834.41	1080.39
834.73	1085.07
835.05	1089.29
835.36	1078.99
835.68	1076.88
836.00	1070.33
836.32	1076.88
836.63	1073.60
836.95	1073.60
837.27	1071.50
837.59	1070.33
837.90	1064.24
838.22	1065.65
838.54	1077.11
838.85	1088.82
839.17	1091.63
839.49	1096.07
839.80	1099.82
840.12	1088.58
840.44	1083.43
840.76	1085.77
841.07	1076.88
841.39	1070.80
841.71	1086.71
842.02	1086.24
842.34	1076.65
842.65	1073.14
842.97	1074.54
843.29	1064.71
843.60	1056.05
843.92	1068.22
844.24	1080.63
844.55	1085.77
844.87	1078.99
845.18	1093.03
845.50	1087.65
845.82	1088.82
846.13	1087.88
846.45	1101.69
846.76	1099.58
847.08	1097.95
847.40	1095.14
847.71	1091.63
848.03	1083.67
848.34	1072.67
848.66	1065.18
848.97	1052.07
849.29	1046.69
849.60	1055.82
849.92	1058.16
850.24	1069.39
850.55	1089.05
850.87	1096.54
851.18	1088.12
851.50	1075.71
851.81	1068.45
852.13	1058.62
852.44	1050.20
852.76	1051.60
853.07	1064.94
853.39	1067.05
853.70	1069.62
854.01	1084.84
854.33	1089.52
854.64	1083.90
854.96	1089.99
855.27	1096.78
855.59	1088.58
855.90	1087.18
856.22	1090.69
856.53	1090.92
856.84	1081.80
857.16	1082.26
857.47	1077.35
857.79	1075.24
858.10	1064.71
858.41	1062.60
858.73	1055.35
859.04	1060.96
859.36	1073.84
859.67	1084.14
859.98	1086.01
860.30	1088.12
860.61	1089.75
860.92	1087.41
861.24	1075.94
861.55	1075.48
861.87	1078.52
862.18	1078.75
862.49	1077.35
862.81	1079.92
863.12	1083.67
863.43	1085.31
863.74	1077.35
864.06	1080.16
864.37	1080.39
864.68	1077.35
865.00	1075.48
865.31	1075.01
865.62	1071.03
865.94	1080.86
866.25	1076.65
866.56	1082.50
866.87	1085.31
867.19	1084.84
867.50	1083.67
867.81	1089.05
868.12	1076.65
868.44	1073.14
868.75	1075.24
869.06	1062.14
869.37	1057.22
869.68	1065.65
870.00	1079.46
870.31	1084.14
870.62	1093.97
870.93	1099.12
871.24	1096.07
871.56	1090.92
871.87	1083.67
872.18	1089.05
872.49	1084.37
872.80	1089.99
873.12	1085.54
873.43	1087.65
873.74	1077.58
874.05	1082.50
874.36	1079.22
874.67	1092.80
874.98	1099.12
875.29	1111.29
875.61	1110.35
875.92	1106.84
876.23	1093.50
876.54	1084.60
876.85	1079.92
877.16	1081.09
877.47	1079.69
877.78	1071.03
878.09	1069.16
878.40	1064.01
878.72	1062.37
879.03	1066.35
879.34	1071.50
879.65	1077.58
879.96	1080.16
880.27	1077.82
880.58	1076.88
880.89	1071.97
881.20	1064.71
881.51	1067.75
881.82	1064.71
882.13	1064.01
882.44	1069.86
882.75	1070.56
883.06	1066.35
883.37	1079.46
883.68	1083.43
883.99	1089.52
884.30	1094.67
884.61	1096.54
884.92	1088.82
885.23	1092.09
885.54	1098.65
885.85	1097.24
886.16	1100.52
886.47	1104.03
886.78	1108.24
887.08	1102.86
887.39	1100.52
887.70	1086.48
888.01	1089.29
888.32	1074.31
888.63	1066.58
888.94	1056.05
889.25	1064.01
889.56	1068.22
889.87	1075.48
890.17	1082.50
890.48	1094.67
890.79	1096.07
891.10	1091.39
891.41	1090.69
891.72	1084.14
892.03	1084.14
892.34	1077.11
892.64	1062.37
892.95	1061.90
893.26	1069.62
893.57	1072.43
893.88	1086.71
894.18	1095.37
894.49	1093.26
894.80	1084.84
895.11	1085.31
895.42	1074.07
895.72	1076.18
896.03	1082.73
896.34	1083.67
896.65	1086.01
896.96	1088.12
897.26	1083.90
897.57	1077.82
897.88	1082.73
898.19	1082.03
898.49	1082.03
898.80	1095.37
899.11	1097.95
899.41	1094.43
899.72	1087.41
900.03	1085.54
900.34	1083.20
900.64	1077.35
900.95	1078.05
901.26	1081.09
901.56	1086.01
901.87	1080.86
902.18	1082.50
902.48	1080.39
902.79	1068.45
903.10	1063.54
903.40	1059.56
903.71	1063.07
904.02	1060.96
904.32	1078.28
904.63	1085.77
904.94	1086.71
905.24	1087.18
905.55	1090.92
905.85	1091.39
906.16	1092.33
906.47	1086.71
906.77	1083.90
907.08	1082.26
907.38	1081.33
907.69	1073.14
908.00	1080.16
908.30	1079.92
908.61	1090.22
908.91	1085.54
909.22	1082.26
909.52	1080.63
909.83	1083.90
910.14	1080.16
910.44	1078.75
910.75	1079.46
911.05	1082.73
911.36	1086.24
911.66	1082.26
911.97	1086.01
912.27	1089.52
912.58	1087.88
912.88	1081.33
913.19	1082.26
913.49	1078.99
913.80	1075.71
914.10	1073.37
914.41	1078.05
914.71	1072.67
915.01	1075.94
915.32	1083.67
915.62	1083.90
915.93	1076.18
916.23	1080.63
916.54	1074.31
916.84	1071.73
917.15	1071.73
917.45	1075.94
917.75	1078.99
918.06	1089.29
918.36	1088.82
918.67	1087.18
918.97	1083.90
919.27	1082.97
919.58	1082.73
919.88	1085.31
920.18	1081.80
920.49	1097.71
920.79	1098.41
921.10	1087.18
921.40	1081.09
921.70	1077.82
922.01	1062.60
922.31	1063.31
922.61	1064.71
922.92	1064.71
923.22	1070.33
923.52	1072.20
923.82	1069.86
924.13	1071.50
924.43	1076.65
924.73	1074.77
925.04	1080.86
925.34	1074.54
925.64	1067.05
925.94	1071.50
926.25	1081.33
926.55	1072.90
926.85	1074.31
927.15	1080.63
927.46	1066.11
927.76	1057.69
928.06	1055.35
928.36	1067.05
928.67	1063.77
928.97	1071.03
929.27	1080.86
929.57	1085.77
929.87	1082.26
930.18	1084.60
930.48	1093.97
930.78	1083.20
931.08	1098.88
931.38	1096.54
931.69	1102.39
931.99	1091.86
932.29	1098.41
932.59	1092.33
932.89	1088.12
933.19	1093.26
933.49	1089.75
933.80	1081.33
934.10	1074.07
934.40	1070.33
934.70	1068.92
935.00	1073.84
935.30	1075.01
935.60	1066.82
935.90	1074.31
936.20	1073.60
936.50	1071.03
936.81	1082.03
937.11	1096.54
937.41	1093.73
937.71	1081.09
938.01	1088.12
938.31	1082.03
938.61	1075.24
938.91	1073.60
939.21	1080.86
939.51	1074.31
939.81	1067.28
940.11	1065.88
940.41	1068.69
940.71	1069.86
941.01	1071.97
941.31	1081.56
941.61	1088.35
941.91	1086.24
942.21	1082.97
942.51	1086.01
942.81	1085.77
943.11	1083.20
943.41	1082.03
943.71	1086.48
944.01	1078.99
944.31	1068.69
944.61	1060.73
944.90	1067.75
945.20	1060.03
945.50	1057.22
945.80	1056.75
946.10	1047.39
946.40	1035.45
946.70	1045.99
947.00	1058.16
947.30	1067.99
947.60	1086.94
947.89	1090.46
948.19	1080.39
948.49	1070.80
948.79	1070.80
949.09	1051.13
949.39	1059.09
949.69	1055.58
949.98	1056.75
950.28	1063.54
950.58	1077.11
950.88	1073.84
951.18	1073.84
951.48	1076.41
951.77	1071.97
952.07	1074.31
952.37	1072.67
952.67	1074.77
952.97	1078.28
953.26	1080.39
953.56	1082.26
953.86	1082.97
954.16	1085.77
954.45	1088.58
954.75	1084.84
955.05	1073.60
955.35	1069.16
955.64	1066.82
955.94	1066.35
956.24	1064.94
956.54	1074.54
956.83	1080.16
957.13	1082.03
957.43	1084.37
957.72	1089.99
958.02	1089.52
958.32	1098.18
958.61	1109.41
958.91	1099.35
959.21	1091.16
959.50	1088.58
959.80	1085.54
960.10	1078.52
960.39	1080.16
960.69	1078.52
960.99	1082.03
961.28	1066.58
961.58	1053.01
961.87	1044.11
962.17	1052.54
962.47	1050.90
962.76	1060.03
963.06	1072.67
963.36	1081.56
963.65	1073.14
963.95	1077.82
964.24	1079.22
964.54	1079.92
964.83	1077.58
965.13	1078.28
965.42	1077.82
965.72	1085.07
966.02	1089.05
966.31	1098.41
966.61	1100.05
966.90	1096.07
967.20	1092.56
967.49	1088.58
967.79	1087.65
968.08	1088.82
968.38	1093.03
968.67	1091.16
968.97	1091.63
969.26	1088.12
969.56	1092.09
969.85	1088.58
970.15	1085.77
970.44	1084.14
970.74	1085.31
971.03	1088.82
971.32	1089.05
971.62	1079.92
971.91	1086.48
972.21	1088.82
972.50	1082.03
972.80	1075.94
973.09	1080.16
973.38	1078.05
973.68	1077.11
973.97	1076.88
974.27	1081.09
974.56	1076.88
974.85	1071.03
975.15	1066.35
975.44	1066.11
975.73	1064.24
976.03	1068.69
976.32	1060.96
976.61	1072.90
976.91	1065.41
977.20	1063.07
977.49	1058.39
977.79	1067.99
978.08	1065.18
978.37	1073.60
978.67	1077.35
978.96	1080.86
979.25	1076.18
979.55	1072.90
979.84	1067.99
980.13	1064.71
980.42	1077.35
980.72	1094.90
981.01	1093.97
981.30	1107.31
981.59	1104.73
981.89	1097.24
982.18	1086.01
982.47	1078.75
982.76	1071.50
983.06	1070.80
983.35	1067.75
983.64	1074.54
983.93	1082.26
984.22	1079.92
984.52	1090.46
984.81	1094.20
985.10	1084.84
985.39	1079.92
985.68	1078.75
985.97	1071.97
986.27	1074.54
986.56	1069.86
986.85	1075.48
987.14	1078.75
987.43	1078.75
987.72	1081.33
988.01	1093.03
988.31	1079.46
988.60	1085.54
988.89	1089.99
989.18	1085.77
989.47	1079.46
989.76	1080.16
990.05	1081.09
990.34	1077.82
990.63	1080.63
990.92	1078.75
991.21	1084.37
991.51	1079.69
991.80	1080.16
992.09	1075.48
992.38	1075.24
992.67	1081.33
992.96	1086.71
993.25	1092.33
993.54	1098.18
993.83	1097.24
994.12	1087.65
994.41	1069.62
994.70	1068.22
994.99	1067.28
995.28	1063.54
995.57	1063.07
995.86	1065.41
996.15	1064.01
996.44	1056.75
996.73	1064.24
997.02	1068.92
997.31	1070.33
997.59	1061.43
997.88	1073.37
998.17	1075.24
998.46	1083.90
998.75	1087.41
999.04	1089.99
999.33	1089.29
999.62	1081.09
999.91	1078.28
1000.20	1080.39
1000.49	1085.31
1000.77	1081.80
1001.06	1091.86
1001.35	1094.43
1001.64	1094.43
1001.93	1093.03
1002.22	1086.01
1002.51	1085.77
1002.79	1092.33
1003.08	1088.82
1003.37	1080.86
1003.66	1085.31
1003.95	1077.82
1004.23	1069.16
1004.52	1081.80
1004.81	1092.09
1005.10	1086.71
1005.39	1098.18
1005.67	1092.09
1005.96	1075.94
1006.25	1074.54
1006.54	1074.77
1006.83	1062.14
1007.11	1065.18
1007.40	1081.56
1007.69	1076.88
1007.97	1082.03
1008.26	1092.09
1008.55	1090.22
1008.84	1081.33
1009.12	1083.20
1009.41	1078.52
1009.70	1063.07
1009.98	1064.48
1010.27	1067.75
1010.56	1077.11
1010.85	1078.05
1011.13	1088.58
1011.42	1083.20
1011.71	1079.92
1011.99	1076.88
1012.28	1077.82
1012.56	1077.58
1012.85	1077.35
1013.14	1074.54
1013.42	1063.54
1013.71	1069.86
1014.00	1069.86
1014.28	1075.48
1014.57	1072.67
1014.85	1081.33
1015.14	1074.54
1015.43	1080.16
1015.71	1084.37
1016.00	1082.26
1016.28	1077.35
1016.57	1086.71
1016.85	1082.73
1017.14	1064.48
1017.43	1074.07
1017.71	1083.20
1018.00	1079.69
1018.28	1085.31
1018.57	1103.56
1018.85	1099.58
1019.14	1097.01
1019.42	1090.92
1019.71	1084.14
1019.99	1078.52
1020.28	1082.97
1020.56	1082.03
1020.85	1077.35
1021.13	1077.35
1021.42	1090.46
1021.70	1083.90
1021.99	1085.31
1022.27	1079.22
1022.55	1091.86
1022.84	1019.30
>>>>>End Processed Spectral Data<<<<<
