SpectraSuite Data File
++++++++++++++++++++++++++++++++++++
Date: Mon Aug 26 10:25:49 PDT 2019
User: corrico
Dark Spectrum Present: No
Reference Spectrum Present: No
Number of Sampled Component Spectra: 1
Spectrometers: USB2+H06089
Integration Time (usec): 10000 (USB2+H06089)
Spectra Averaged: 2 (USB2+H06089)
Boxcar Smoothing: 2 (USB2+H06089)
Correct for Electrical Dark: No (USB2+H06089)
Strobe/Lamp Enabled: No (USB2+H06089)
Correct for Detector Non-linearity: No (USB2+H06089)
Correct for Stray Light: No (USB2+H06089)
Number of Pixels in Processed Spectrum: 2048
>>>>>Begin Processed Spectral Data<<<<<
339.70	1062.60
340.07	1062.60
340.45	1019.30
340.82	994.49
341.19	968.98
341.57	937.62
341.94	928.96
342.31	909.30
342.69	908.83
343.06	908.36
343.43	905.79
343.81	910.94
344.18	925.45
344.55	930.83
344.93	926.85
345.30	937.85
345.67	939.96
346.04	939.73
346.42	939.02
346.79	956.11
347.16	967.58
347.54	978.58
347.91	994.49
348.28	1003.62
348.65	1004.79
349.03	998.94
349.40	1002.69
349.77	1008.77
350.14	1019.30
350.52	1024.69
350.89	1032.64
351.26	1037.09
351.63	1042.94
352.01	1035.22
352.38	1044.58
352.75	1049.26
353.12	1058.62
353.50	1045.99
353.87	1059.09
354.24	1053.71
354.61	1059.79
354.98	1062.60
355.36	1070.80
355.73	1068.69
356.10	1071.03
356.47	1070.33
356.84	1066.82
357.22	1069.39
357.59	1059.09
357.96	1056.99
358.33	1054.18
358.70	1049.96
359.08	1051.60
359.45	1058.62
359.82	1065.88
360.19	1071.73
360.56	1074.77
360.94	1071.73
361.31	1062.84
361.68	1064.01
362.05	1070.33
362.42	1065.18
362.79	1062.14
363.16	1071.73
363.54	1071.26
363.91	1064.24
364.28	1078.99
364.65	1088.35
365.02	1089.52
365.39	1079.92
365.76	1082.26
366.14	1076.18
366.51	1066.11
366.88	1063.77
367.25	1065.88
367.62	1060.03
367.99	1062.37
368.36	1067.05
368.73	1075.24
369.10	1074.07
369.48	1068.92
369.85	1057.92
370.22	1055.11
370.59	1043.18
370.96	1050.67
371.33	1059.33
371.70	1067.05
372.07	1070.09
372.44	1071.03
372.81	1065.41
373.18	1067.75
373.55	1071.03
373.93	1056.05
374.30	1060.03
374.67	1062.84
375.04	1060.26
375.41	1052.54
375.78	1066.11
376.15	1069.62
376.52	1064.24
376.89	1056.52
377.26	1060.50
377.63	1066.58
378.00	1066.35
378.37	1072.90
378.74	1082.73
379.11	1082.03
379.48	1069.62
379.85	1066.35
380.22	1063.31
380.59	1062.60
380.96	1060.73
381.33	1066.82
381.70	1068.92
382.07	1079.69
382.44	1072.67
382.81	1082.97
383.18	1086.71
383.55	1086.48
383.92	1078.75
384.29	1083.20
384.66	1070.09
385.03	1078.99
385.40	1088.82
385.77	1088.35
386.14	1090.22
386.51	1099.35
386.88	1086.94
387.25	1068.45
387.62	1071.73
387.99	1069.39
388.36	1064.94
388.73	1073.37
389.10	1083.20
389.46	1081.09
389.83	1076.88
390.20	1073.37
390.57	1068.22
390.94	1061.20
391.31	1066.35
391.68	1073.37
392.05	1070.33
392.42	1064.94
392.79	1071.26
393.16	1069.62
393.53	1075.24
393.89	1083.67
394.26	1086.48
394.63	1079.46
395.00	1074.54
395.37	1070.80
395.74	1067.99
396.11	1066.58
396.48	1076.18
396.84	1080.39
397.21	1080.86
397.58	1075.71
397.95	1076.41
398.32	1070.80
398.69	1068.69
399.06	1067.75
399.42	1084.37
399.79	1079.22
400.16	1081.33
400.53	1080.39
400.90	1073.14
401.27	1059.09
401.64	1066.58
402.00	1065.41
402.37	1063.77
402.74	1067.75
403.11	1071.26
403.48	1071.50
403.84	1077.82
404.21	1077.11
404.58	1076.65
404.95	1069.16
405.32	1063.07
405.68	1053.71
406.05	1050.20
406.42	1041.07
406.79	1055.35
407.16	1059.09
407.52	1069.62
407.89	1072.20
408.26	1071.97
408.63	1069.62
408.99	1072.43
409.36	1070.09
409.73	1065.88
410.10	1074.77
410.47	1068.45
410.83	1068.22
411.20	1071.50
411.57	1080.63
411.94	1082.50
412.30	1081.56
412.67	1084.14
413.04	1081.33
413.40	1084.37
413.77	1080.16
414.14	1091.16
414.51	1091.16
414.87	1083.67
415.24	1075.24
415.61	1087.88
415.97	1083.20
416.34	1079.69
416.71	1082.97
417.08	1090.46
417.44	1086.48
417.81	1088.82
418.18	1096.07
418.54	1088.12
418.91	1084.84
419.28	1083.90
419.64	1083.90
420.01	1074.31
420.38	1083.43
420.74	1088.35
421.11	1091.16
421.48	1095.60
421.84	1090.92
422.21	1082.97
422.58	1079.92
422.94	1082.03
423.31	1072.90
423.68	1073.14
424.04	1079.46
424.41	1078.75
424.77	1071.26
425.14	1067.75
425.51	1069.16
425.87	1064.01
426.24	1058.39
426.61	1064.71
426.97	1077.82
427.34	1078.28
427.70	1089.29
428.07	1091.16
428.44	1086.24
428.80	1075.48
429.17	1079.69
429.53	1070.80
429.90	1071.03
430.27	1061.67
430.63	1059.79
431.00	1061.43
431.36	1069.39
431.73	1071.50
432.09	1079.46
432.46	1078.52
432.83	1082.26
433.19	1080.39
433.56	1082.26
433.92	1086.94
434.29	1097.48
434.65	1089.75
435.02	1086.48
435.38	1078.52
435.75	1068.69
436.11	1062.60
436.48	1068.92
436.84	1058.62
437.21	1066.58
437.57	1064.24
437.94	1056.99
438.30	1056.28
438.67	1068.45
439.03	1067.28
439.40	1075.71
439.76	1084.14
440.13	1075.94
440.49	1067.75
440.86	1060.73
441.22	1061.67
441.59	1061.43
441.95	1064.24
442.32	1061.67
442.68	1066.11
443.05	1055.11
443.41	1043.88
443.78	1049.73
444.14	1067.28
444.51	1073.14
444.87	1085.54
445.24	1089.75
445.60	1079.92
445.96	1080.16
446.33	1073.37
446.69	1061.90
447.06	1072.90
447.42	1089.29
447.79	1084.60
448.15	1080.63
448.51	1090.22
448.88	1084.60
449.24	1077.11
449.61	1076.41
449.97	1091.63
450.33	1087.88
450.70	1085.31
451.06	1087.18
451.43	1091.86
451.79	1085.77
452.15	1080.63
452.52	1079.46
452.88	1058.86
453.24	1052.30
453.61	1055.11
453.97	1056.75
454.34	1064.71
454.70	1081.09
455.06	1071.50
455.43	1061.20
455.79	1067.99
456.15	1069.86
456.52	1079.46
456.88	1098.18
457.24	1103.09
457.61	1100.99
457.97	1098.41
458.33	1079.92
458.70	1073.84
459.06	1074.77
459.42	1068.22
459.79	1069.62
460.15	1083.90
460.51	1087.18
460.88	1088.35
461.24	1100.29
461.60	1096.31
461.96	1094.90
462.33	1085.31
462.69	1089.75
463.05	1077.82
463.42	1078.99
463.78	1084.84
464.14	1090.22
464.50	1080.39
464.87	1088.82
465.23	1087.41
465.59	1083.20
465.95	1088.82
466.32	1090.92
466.68	1092.56
467.04	1092.33
467.40	1096.31
467.77	1088.58
468.13	1085.77
468.49	1085.54
468.85	1097.24
469.22	1089.99
469.58	1095.84
469.94	1097.01
470.30	1096.54
470.66	1090.22
471.03	1091.63
471.39	1081.80
471.75	1078.52
472.11	1079.46
472.47	1072.20
472.84	1067.28
473.20	1073.84
473.56	1077.35
473.92	1068.22
474.28	1068.22
474.65	1066.82
475.01	1066.11
475.37	1074.54
475.73	1082.97
476.09	1084.60
476.45	1092.80
476.81	1091.39
477.18	1083.67
477.54	1087.65
477.90	1080.63
478.26	1073.37
478.62	1064.24
478.98	1067.75
479.34	1069.86
479.71	1080.16
480.07	1086.71
480.43	1098.41
480.79	1097.01
481.15	1088.58
481.51	1082.03
481.87	1074.31
482.23	1072.90
482.59	1067.28
482.96	1065.65
483.32	1073.37
483.68	1075.01
484.04	1075.94
484.40	1082.97
484.76	1080.63
485.12	1076.65
485.48	1076.41
485.84	1073.84
486.20	1070.33
486.56	1076.41
486.92	1073.84
487.28	1072.67
487.64	1073.60
488.00	1088.35
488.37	1085.77
488.73	1080.63
489.09	1084.37
489.45	1083.67
489.81	1083.90
490.17	1077.82
490.53	1097.48
490.89	1092.33
491.25	1090.46
491.61	1078.99
491.97	1089.52
492.33	1071.03
492.69	1070.56
493.05	1065.88
493.41	1054.88
493.77	1057.92
494.13	1067.05
494.49	1071.97
494.85	1078.99
495.21	1087.88
495.57	1082.50
495.93	1078.52
496.29	1080.86
496.64	1085.07
497.00	1086.24
497.36	1082.03
497.72	1087.88
498.08	1093.50
498.44	1086.94
498.80	1085.07
499.16	1081.33
499.52	1080.16
499.88	1069.16
500.24	1069.16
500.60	1071.97
500.96	1080.39
501.32	1076.18
501.68	1075.24
502.03	1080.63
502.39	1070.33
502.75	1070.80
503.11	1079.46
503.47	1090.46
503.83	1078.99
504.19	1075.48
504.55	1067.05
504.91	1057.22
505.26	1049.73
505.62	1058.39
505.98	1067.28
506.34	1087.18
506.70	1092.56
507.06	1087.41
507.42	1084.14
507.78	1088.35
508.13	1075.71
508.49	1064.24
508.85	1067.28
509.21	1071.97
509.57	1062.37
509.93	1057.92
510.28	1067.05
510.64	1072.90
511.00	1076.65
511.36	1085.07
511.72	1093.97
512.07	1097.48
512.43	1092.33
512.79	1076.41
513.15	1071.97
513.51	1064.94
513.86	1053.24
514.22	1055.35
514.58	1064.48
514.94	1075.48
515.30	1075.24
515.65	1089.99
516.01	1104.50
516.37	1116.44
516.73	1103.09
517.08	1108.24
517.44	1104.26
517.80	1079.92
518.16	1071.50
518.51	1077.35
518.87	1081.56
519.23	1085.07
519.59	1097.01
519.94	1103.33
520.30	1106.84
520.66	1105.90
521.01	1107.31
521.37	1107.31
521.73	1101.46
522.09	1102.86
522.44	1094.90
522.80	1088.82
523.16	1082.50
523.51	1079.69
523.87	1076.18
524.23	1082.26
524.58	1079.22
524.94	1075.94
525.30	1076.18
525.65	1080.86
526.01	1077.58
526.37	1083.90
526.72	1094.67
527.08	1101.69
527.44	1096.07
527.79	1089.52
528.15	1082.03
528.51	1082.26
528.86	1069.86
529.22	1065.41
529.58	1074.77
529.93	1076.65
530.29	1075.01
530.65	1080.63
531.00	1086.71
531.36	1080.63
531.71	1075.24
532.07	1080.16
532.43	1084.84
532.78	1086.24
533.14	1093.97
533.49	1107.54
533.85	1097.01
534.21	1095.60
534.56	1088.35
534.92	1083.43
535.27	1078.05
535.63	1090.92
535.98	1090.46
536.34	1101.22
536.69	1107.78
537.05	1090.69
537.41	1079.69
537.76	1074.77
538.12	1064.24
538.47	1049.73
538.83	1063.54
539.18	1064.94
539.54	1068.45
539.89	1071.97
540.25	1082.97
540.60	1076.65
540.96	1086.01
541.31	1097.48
541.67	1104.26
542.02	1100.99
542.38	1111.99
542.73	1096.54
543.09	1086.24
543.44	1075.24
543.80	1065.18
544.15	1067.28
544.51	1075.01
544.86	1072.20
545.22	1074.07
545.57	1083.90
545.93	1074.31
546.28	1080.86
546.64	1089.05
546.99	1099.12
547.35	1098.65
547.70	1097.24
548.05	1091.39
548.41	1082.50
548.76	1075.01
549.12	1079.22
549.47	1093.26
549.83	1091.86
550.18	1104.73
550.53	1106.37
550.89	1112.69
551.24	1099.58
551.60	1096.78
551.95	1088.35
552.30	1086.24
552.66	1081.33
553.01	1094.43
553.37	1097.95
553.72	1093.50
554.07	1090.69
554.43	1089.29
554.78	1080.39
555.13	1075.48
555.49	1075.01
555.84	1074.07
556.19	1082.97
556.55	1080.16
556.90	1082.73
557.26	1092.33
557.61	1088.12
557.96	1063.07
558.32	1064.71
558.67	1068.45
559.02	1065.65
559.37	1078.75
559.73	1086.24
560.08	1098.41
560.43	1085.77
560.79	1083.43
561.14	1087.18
561.49	1080.63
561.85	1069.16
562.20	1082.03
562.55	1074.31
562.90	1058.62
563.26	1068.69
563.61	1067.05
563.96	1057.45
564.32	1061.90
564.67	1066.58
565.02	1064.48
565.37	1067.05
565.73	1070.80
566.08	1070.56
566.43	1058.62
566.78	1060.03
567.14	1065.41
567.49	1073.84
567.84	1072.90
568.19	1091.16
568.54	1099.35
568.90	1091.63
569.25	1086.94
569.60	1084.60
569.95	1082.03
570.31	1078.99
570.66	1080.16
571.01	1079.22
571.36	1082.97
571.71	1089.99
572.06	1078.05
572.42	1080.39
572.77	1081.33
573.12	1078.75
573.47	1065.65
573.82	1074.07
574.18	1073.60
574.53	1069.16
574.88	1075.24
575.23	1076.41
575.58	1075.24
575.93	1064.48
576.28	1071.97
576.64	1066.11
576.99	1062.14
577.34	1059.79
577.69	1061.90
578.04	1059.79
578.39	1058.86
578.74	1070.33
579.09	1067.99
579.44	1072.20
579.80	1066.35
580.15	1068.92
580.50	1067.75
580.85	1069.86
581.20	1074.31
581.55	1070.33
581.90	1069.62
582.25	1067.99
582.60	1074.07
582.95	1072.90
583.30	1076.65
583.65	1077.35
584.00	1078.05
584.35	1078.52
584.71	1078.75
585.06	1078.28
585.41	1066.58
585.76	1077.11
586.11	1073.14
586.46	1067.75
586.81	1075.48
587.16	1088.58
587.51	1079.92
587.86	1085.54
588.21	1087.88
588.56	1087.65
588.91	1088.35
589.26	1090.92
589.61	1085.07
589.96	1092.80
590.31	1095.37
590.66	1096.31
591.01	1094.67
591.36	1094.90
591.71	1084.37
592.06	1078.52
592.41	1069.39
592.76	1062.14
593.10	1066.58
593.45	1071.26
593.80	1078.05
594.15	1082.03
594.50	1086.48
594.85	1088.35
595.20	1093.26
595.55	1094.20
595.90	1096.78
596.25	1089.29
596.60	1087.18
596.95	1085.31
597.30	1070.56
597.64	1115.97
597.99	1125.56
598.34	1127.67
598.69	1124.16
599.04	1129.78
599.39	1081.56
599.74	1080.39
600.09	1076.41
600.44	1080.63
600.78	1083.20
601.13	1091.16
601.48	1095.60
601.83	1093.97
602.18	1091.16
602.53	1098.65
602.88	1096.54
603.22	1094.67
603.57	1095.84
603.92	1103.80
604.27	1094.90
604.62	1084.37
604.97	1084.14
605.31	1077.82
605.66	1071.73
606.01	1064.71
606.36	1079.92
606.71	1081.33
607.05	1094.20
607.40	1089.75
607.75	1092.56
608.10	1083.90
608.44	1080.63
608.79	1072.90
609.14	1079.46
609.49	1083.90
609.84	1087.65
610.18	1086.71
610.53	1089.29
610.88	1095.60
611.23	1094.67
611.57	1099.58
611.92	1095.37
612.27	1089.52
612.62	1080.86
612.96	1086.24
613.31	1075.71
613.66	1078.99
614.00	1091.86
614.35	1093.03
614.70	1095.37
615.05	1100.05
615.39	1098.18
615.74	1085.54
616.09	1078.99
616.43	1071.73
616.78	1073.37
617.13	1081.80
617.47	1081.09
617.82	1086.48
618.17	1096.31
618.51	1092.80
618.86	1091.63
619.21	1093.26
619.55	1086.48
619.90	1075.48
620.25	1075.24
620.59	1074.77
620.94	1069.62
621.29	1080.86
621.63	1080.86
621.98	1075.48
622.32	1086.71
622.67	1099.82
623.02	1109.65
623.36	1122.05
623.71	1129.07
624.05	1113.16
624.40	1115.03
624.75	1108.01
625.09	1102.39
625.44	1097.95
625.78	1097.71
626.13	1092.80
626.48	1087.88
626.82	1084.37
627.17	1083.90
627.51	1083.67
627.86	1082.97
628.20	1083.43
628.55	1078.99
628.89	1072.67
629.24	1068.22
629.58	1075.24
629.93	1077.82
630.28	1084.14
630.62	1085.07
630.97	1093.73
631.31	1085.54
631.66	1083.90
632.00	1073.60
632.35	1089.75
632.69	1091.86
633.04	1089.99
633.38	1082.50
633.73	1091.39
634.07	1085.07
634.42	1082.26
634.76	1081.80
635.11	1087.65
635.45	1086.01
635.79	1081.33
636.14	1081.56
636.48	1082.50
636.83	1080.39
637.17	1083.20
637.52	1085.31
637.86	1082.97
638.21	1087.65
638.55	1082.03
638.89	1075.48
639.24	1078.99
639.58	1072.67
639.93	1067.75
640.27	1064.24
640.61	1064.94
640.96	1055.58
641.30	1056.05
641.65	1050.43
641.99	1064.71
642.33	1068.69
642.68	1073.37
643.02	1087.88
643.37	1097.95
643.71	1081.56
644.05	1077.82
644.40	1082.50
644.74	1076.65
645.08	1077.82
645.43	1084.60
645.77	1079.22
646.11	1078.99
646.46	1075.24
646.80	1062.37
647.14	1061.90
647.49	1065.88
647.83	1055.11
648.17	1050.90
648.52	1059.33
648.86	1078.28
649.20	1084.84
649.55	1090.92
649.89	1101.92
650.23	1101.22
650.57	1080.16
650.92	1070.56
651.26	1072.20
651.60	1063.77
651.95	1060.96
652.29	1064.71
652.63	1070.33
652.97	1063.07
653.32	1062.37
653.66	1058.39
654.00	1056.05
654.34	1052.07
654.69	1066.11
655.03	1067.05
655.37	1065.65
655.71	1071.97
656.05	1066.82
656.40	1057.22
656.74	1054.65
657.08	1060.96
657.42	1060.26
657.76	1067.05
658.11	1077.82
658.45	1083.90
658.79	1086.48
659.13	1087.18
659.47	1099.82
659.82	1091.16
660.16	1087.18
660.50	1091.39
660.84	1087.41
661.18	1085.31
661.52	1095.37
661.87	1092.09
662.21	1088.35
662.55	1086.48
662.89	1079.22
663.23	1083.43
663.57	1088.12
663.91	1085.07
664.25	1091.86
664.60	1099.82
664.94	1088.58
665.28	1091.16
665.62	1084.84
665.96	1086.01
666.30	1075.71
666.64	1067.52
666.98	1071.03
667.32	1080.63
667.66	1077.35
668.01	1076.18
668.35	1084.37
668.69	1082.26
669.03	1078.99
669.37	1078.05
669.71	1080.86
670.05	1076.88
670.39	1077.58
670.73	1080.39
671.07	1075.94
671.41	1085.54
671.75	1090.22
672.09	1077.58
672.43	1077.82
672.77	1082.97
673.11	1072.67
673.45	1066.11
673.79	1066.82
674.13	1071.26
674.47	1075.48
674.81	1081.33
675.15	1080.86
675.49	1085.77
675.83	1083.20
676.17	1077.58
676.51	1067.99
676.85	1075.94
677.19	1076.41
677.53	1072.20
677.87	1066.58
678.21	1066.82
678.55	1061.90
678.89	1067.05
679.23	1068.69
679.57	1077.11
679.90	1088.58
680.24	1088.35
680.58	1088.82
680.92	1087.65
681.26	1084.60
681.60	1084.60
681.94	1089.05
682.28	1087.18
682.62	1086.94
682.96	1088.82
683.29	1089.29
683.63	1097.01
683.97	1097.48
684.31	1101.46
684.65	1102.86
684.99	1096.07
685.33	1089.52
685.67	1095.14
686.00	1095.84
686.34	1097.01
686.68	1093.73
687.02	1091.39
687.36	1082.73
687.70	1073.60
688.03	1063.54
688.37	1069.62
688.71	1068.45
689.05	1070.80
689.39	1079.69
689.72	1080.16
690.06	1082.73
690.40	1083.67
690.74	1079.69
691.08	1079.46
691.41	1087.41
691.75	1088.58
692.09	1084.37
692.43	1089.05
692.76	1075.24
693.10	1073.60
693.44	1060.26
693.78	1060.26
694.11	1065.18
694.45	1076.41
694.79	1080.63
695.13	1096.54
695.46	1108.71
695.80	1108.24
696.14	1105.44
696.48	1103.80
696.81	1086.48
697.15	1071.73
697.49	1058.86
697.82	1055.11
698.16	1056.05
698.50	1061.43
698.83	1064.94
699.17	1063.07
699.51	1065.88
699.84	1063.07
700.18	1066.11
700.52	1071.73
700.85	1082.26
701.19	1086.01
701.53	1080.39
701.86	1082.73
702.20	1072.90
702.54	1073.37
702.87	1062.84
703.21	1071.50
703.55	1067.05
703.88	1076.18
704.22	1076.41
704.55	1079.92
704.89	1077.35
705.23	1077.82
705.56	1073.14
705.90	1071.73
706.23	1075.24
706.57	1068.45
706.91	1064.01
707.24	1070.09
707.58	1066.35
707.91	1076.18
708.25	1082.73
708.58	1091.86
708.92	1088.12
709.26	1090.46
709.59	1090.22
709.93	1095.37
710.26	1095.14
710.60	1098.18
710.93	1102.86
711.27	1096.78
711.60	1092.09
711.94	1097.01
712.27	1092.56
712.61	1087.41
712.94	1082.03
713.28	1075.24
713.61	1069.62
713.95	1067.52
714.28	1066.82
714.62	1068.92
714.95	1069.39
715.29	1067.75
715.62	1074.31
715.96	1069.39
716.29	1069.39
716.63	1073.60
716.96	1081.56
717.29	1076.41
717.63	1076.41
717.96	1087.65
718.30	1085.31
718.63	1078.05
718.97	1080.39
719.30	1088.12
719.63	1074.31
719.97	1073.84
720.30	1061.90
720.64	1064.24
720.97	1065.65
721.30	1058.62
721.64	1061.67
721.97	1073.84
722.31	1076.65
722.64	1072.90
722.97	1093.97
723.31	1092.56
723.64	1084.37
723.97	1080.16
724.31	1082.50
724.64	1073.84
724.98	1078.28
725.31	1091.16
725.64	1085.54
725.98	1090.46
726.31	1090.69
726.64	1084.60
726.97	1082.26
727.31	1091.39
727.64	1080.16
727.97	1085.77
728.31	1095.60
728.64	1093.97
728.97	1086.94
729.31	1080.63
729.64	1077.11
729.97	1072.43
730.30	1069.62
730.64	1078.99
730.97	1091.63
731.30	1093.03
731.63	1090.69
731.97	1089.52
732.30	1082.73
732.63	1077.58
732.96	1071.97
733.30	1074.77
733.63	1079.92
733.96	1081.09
734.29	1081.56
734.63	1084.14
734.96	1077.58
735.29	1075.94
735.62	1082.97
735.95	1082.26
736.29	1082.03
736.62	1084.14
736.95	1077.35
737.28	1069.62
737.61	1085.77
737.94	1091.63
738.28	1098.41
738.61	1104.97
738.94	1099.82
739.27	1088.12
739.60	1084.37
739.93	1079.92
740.27	1075.94
740.60	1084.84
740.93	1080.16
741.26	1078.99
741.59	1082.03
741.92	1086.48
742.25	1084.37
742.58	1072.67
742.91	1077.11
743.25	1075.48
743.58	1067.99
743.91	1069.16
744.24	1077.58
744.57	1067.75
744.90	1056.05
745.23	1064.01
745.56	1060.73
745.89	1057.22
746.22	1063.31
746.55	1079.22
746.88	1073.37
747.21	1086.94
747.54	1088.82
747.87	1088.82
748.20	1079.92
748.53	1089.05
748.87	1074.07
749.20	1089.05
749.53	1093.97
749.86	1096.31
750.19	1095.84
750.52	1097.71
750.85	1086.71
751.18	1080.16
751.51	1084.84
751.84	1072.90
752.16	1076.88
752.49	1083.43
752.82	1080.63
753.15	1076.18
753.48	1086.94
753.81	1082.03
754.14	1082.50
754.47	1083.67
754.80	1081.80
755.13	1078.05
755.46	1078.28
755.79	1079.92
756.12	1087.88
756.45	1079.69
756.78	1077.58
757.11	1082.26
757.43	1076.18
757.76	1072.90
758.09	1086.24
758.42	1087.41
758.75	1075.94
759.08	1077.82
759.41	1085.07
759.74	1069.62
760.07	1072.90
760.39	1077.11
760.72	1078.05
761.05	1067.05
761.38	1085.31
761.71	1081.09
762.04	1090.92
762.36	1095.37
762.69	1092.56
763.02	1090.69
763.35	1101.22
763.68	1099.58
764.01	1091.16
764.33	1090.92
764.66	1086.01
764.99	1077.58
765.32	1063.54
765.65	1066.58
765.97	1068.45
766.30	1066.11
766.63	1068.45
766.96	1084.60
767.28	1085.54
767.61	1080.39
767.94	1086.48
768.27	1091.63
768.59	1083.90
768.92	1079.69
769.25	1084.37
769.58	1079.46
769.90	1061.90
770.23	1064.24
770.56	1058.39
770.89	1056.75
771.21	1062.60
771.54	1072.43
771.87	1057.92
772.19	1067.99
772.52	1070.56
772.85	1062.60
773.17	1060.96
773.50	1076.65
773.83	1069.16
774.15	1077.35
774.48	1087.41
774.81	1091.86
775.13	1090.92
775.46	1089.75
775.79	1075.94
776.11	1075.01
776.44	1069.86
776.77	1070.56
777.09	1075.24
777.42	1077.35
777.74	1072.20
778.07	1071.26
778.40	1065.88
778.72	1070.80
779.05	1076.18
779.37	1072.20
779.70	1079.69
780.03	1086.94
780.35	1080.63
780.68	1079.92
781.00	1086.01
781.33	1078.99
781.65	1075.24
781.98	1078.75
782.31	1074.07
782.63	1068.92
782.96	1071.97
783.28	1071.26
783.61	1078.28
783.93	1081.33
784.26	1085.31
784.58	1084.37
784.91	1089.52
785.23	1085.07
785.56	1080.16
785.88	1082.26
786.21	1085.77
786.53	1086.94
786.86	1088.35
787.18	1101.22
787.51	1099.82
787.83	1100.29
788.16	1093.97
788.48	1088.12
788.81	1081.80
789.13	1077.35
789.46	1069.86
789.78	1072.43
790.10	1080.39
790.43	1079.46
790.75	1092.09
791.08	1093.73
791.40	1084.60
791.73	1085.54
792.05	1089.52
792.37	1078.99
792.70	1077.11
793.02	1076.65
793.35	1075.48
793.67	1069.62
793.99	1072.20
794.32	1078.28
794.64	1086.01
794.96	1079.22
795.29	1086.48
795.61	1083.43
795.93	1081.80
796.26	1083.67
796.58	1076.18
796.91	1078.28
797.23	1086.01
797.55	1086.71
797.87	1083.67
798.20	1097.95
798.52	1084.84
798.84	1079.22
799.17	1083.67
799.49	1082.03
799.81	1077.58
800.14	1077.58
800.46	1073.84
800.78	1066.58
801.10	1068.45
801.43	1068.92
801.75	1079.69
802.07	1081.80
802.40	1082.97
802.72	1077.11
803.04	1070.56
803.36	1066.11
803.69	1070.09
804.01	1077.58
804.33	1079.69
804.65	1085.54
804.97	1092.56
805.30	1088.82
805.62	1085.31
805.94	1089.99
806.26	1098.65
806.58	1085.07
806.91	1081.56
807.23	1075.01
807.55	1073.60
807.87	1057.69
808.19	1068.45
808.52	1059.09
808.84	1069.62
809.16	1079.22
809.48	1087.65
809.80	1081.56
810.12	1099.82
810.44	1088.12
810.77	1073.84
811.09	1071.26
811.41	1075.71
811.73	1072.20
812.05	1081.33
812.37	1091.39
812.69	1094.43
813.01	1097.95
813.33	1094.43
813.66	1089.05
813.98	1082.03
814.30	1089.29
814.62	1084.37
814.94	1084.60
815.26	1092.56
815.58	1097.24
815.90	1095.60
816.22	1088.58
816.54	1090.46
816.86	1083.67
817.18	1090.22
817.50	1089.52
817.82	1097.95
818.14	1097.95
818.46	1094.90
818.78	1083.43
819.10	1081.56
819.42	1067.52
819.74	1076.65
820.06	1082.73
820.38	1094.90
820.70	1096.31
821.02	1103.56
821.34	1099.35
821.66	1100.99
821.98	1086.01
822.30	1079.46
822.62	1087.18
822.94	1088.12
823.26	1084.14
823.58	1078.75
823.90	1072.67
824.22	1074.31
824.54	1074.07
824.86	1079.22
825.18	1089.29
825.50	1100.29
825.81	1092.56
826.13	1095.37
826.45	1089.29
826.77	1090.22
827.09	1085.31
827.41	1087.41
827.73	1079.69
828.05	1079.92
828.36	1078.28
828.68	1078.75
829.00	1078.05
829.32	1082.03
829.64	1083.90
829.96	1094.43
830.28	1095.37
830.59	1085.77
830.91	1082.97
831.23	1078.05
831.55	1073.84
831.87	1070.56
832.19	1080.86
832.50	1081.09
832.82	1086.94
833.14	1078.75
833.46	1080.16
833.78	1073.60
834.09	1072.43
834.41	1081.09
834.73	1082.73
835.05	1082.97
835.36	1090.92
835.68	1085.31
836.00	1081.33
836.32	1082.97
836.63	1078.52
836.95	1083.90
837.27	1090.22
837.59	1080.16
837.90	1085.54
838.22	1082.03
838.54	1082.97
838.85	1086.71
839.17	1082.73
839.49	1079.69
839.80	1092.33
840.12	1081.09
840.44	1071.26
840.76	1081.33
841.07	1077.35
841.39	1069.39
841.71	1071.03
842.02	1088.58
842.34	1083.20
842.65	1093.03
842.97	1093.26
843.29	1100.52
843.60	1083.67
843.92	1091.39
844.24	1082.73
844.55	1081.33
844.87	1078.99
845.18	1080.63
845.50	1071.26
845.82	1070.56
846.13	1078.05
846.45	1080.39
846.76	1089.52
847.08	1098.18
847.40	1094.67
847.71	1089.75
848.03	1072.20
848.34	1062.84
848.66	1064.01
848.97	1071.03
849.29	1064.01
849.60	1082.73
849.92	1090.46
850.24	1085.77
850.55	1093.73
850.87	1106.84
851.18	1107.78
851.50	1105.20
851.81	1098.88
852.13	1090.92
852.44	1082.97
852.76	1080.16
853.07	1083.90
853.39	1092.09
853.70	1089.05
854.01	1095.14
854.33	1091.63
854.64	1084.60
854.96	1080.86
855.27	1080.86
855.59	1076.88
855.90	1078.75
856.22	1076.65
856.53	1079.46
856.84	1083.20
857.16	1085.31
857.47	1082.03
857.79	1083.67
858.10	1086.24
858.41	1070.56
858.73	1072.90
859.04	1070.33
859.36	1067.05
859.67	1063.07
859.98	1078.28
860.30	1076.88
860.61	1075.01
860.92	1081.56
861.24	1078.52
861.55	1076.41
861.87	1079.69
862.18	1075.94
862.49	1073.84
862.81	1079.46
863.12	1079.69
863.43	1071.03
863.74	1079.46
864.06	1084.37
864.37	1090.46
864.68	1075.71
865.00	1082.73
865.31	1088.35
865.62	1093.73
865.94	1083.43
866.25	1100.52
866.56	1104.26
866.87	1100.52
867.19	1090.46
867.50	1096.07
867.81	1091.39
868.12	1091.86
868.44	1091.39
868.75	1091.39
869.06	1089.75
869.37	1095.60
869.68	1083.20
870.00	1077.58
870.31	1076.18
870.62	1082.97
870.93	1087.65
871.24	1095.84
871.56	1105.20
871.87	1108.48
872.18	1106.37
872.49	1091.63
872.80	1082.26
873.12	1080.16
873.43	1078.99
873.74	1073.60
874.05	1074.54
874.36	1080.86
874.67	1082.73
874.98	1079.22
875.29	1074.31
875.61	1077.11
875.92	1077.58
876.23	1081.80
876.54	1087.88
876.85	1088.58
877.16	1091.86
877.47	1086.94
877.78	1071.97
878.09	1083.43
878.40	1079.22
878.72	1074.54
879.03	1078.52
879.34	1078.75
879.65	1064.48
879.96	1066.82
880.27	1070.33
880.58	1072.67
880.89	1079.69
881.20	1078.99
881.51	1089.99
881.82	1090.92
882.13	1092.33
882.44	1099.58
882.75	1103.33
883.06	1087.88
883.37	1082.73
883.68	1084.84
883.99	1084.60
884.30	1074.77
884.61	1081.56
884.92	1089.29
885.23	1084.37
885.54	1080.16
885.85	1077.58
886.16	1078.52
886.47	1080.86
886.78	1088.58
887.08	1078.05
887.39	1087.65
887.70	1081.56
888.01	1076.18
888.32	1064.48
888.63	1068.22
888.94	1079.92
889.25	1087.41
889.56	1079.22
889.87	1083.67
890.17	1079.92
890.48	1065.88
890.79	1056.99
891.10	1059.33
891.41	1060.96
891.72	1071.73
892.03	1075.24
892.34	1094.43
892.64	1097.95
892.95	1092.33
893.26	1080.63
893.57	1080.16
893.88	1080.16
894.18	1078.99
894.49	1081.33
894.80	1086.48
895.11	1090.92
895.42	1079.46
895.72	1085.31
896.03	1075.94
896.34	1075.94
896.65	1069.86
896.96	1071.26
897.26	1064.24
897.57	1073.37
897.88	1073.37
898.19	1070.09
898.49	1063.31
898.80	1072.20
899.11	1063.31
899.41	1071.03
899.72	1075.71
900.03	1076.18
900.34	1071.26
900.64	1082.50
900.95	1077.58
901.26	1073.60
901.56	1083.67
901.87	1079.92
902.18	1077.82
902.48	1081.56
902.79	1075.94
903.10	1067.05
903.40	1075.94
903.71	1068.92
904.02	1070.56
904.32	1073.37
904.63	1073.14
904.94	1069.62
905.24	1080.16
905.55	1081.09
905.85	1082.03
906.16	1085.07
906.47	1081.56
906.77	1072.67
907.08	1063.07
907.38	1068.69
907.69	1056.52
908.00	1058.86
908.30	1071.73
908.61	1072.67
908.91	1075.48
909.22	1088.12
909.52	1089.05
909.83	1082.03
910.14	1078.52
910.44	1072.90
910.75	1074.54
911.05	1063.77
911.36	1056.05
911.66	1066.58
911.97	1063.07
912.27	1068.92
912.58	1075.48
912.88	1086.01
913.19	1089.05
913.49	1086.01
913.80	1087.18
914.10	1087.65
914.41	1084.84
914.71	1076.88
915.01	1086.94
915.32	1084.14
915.62	1086.71
915.93	1086.48
916.23	1095.14
916.54	1095.60
916.84	1092.80
917.15	1092.80
917.45	1086.94
917.75	1081.56
918.06	1077.82
918.36	1078.52
918.67	1070.33
918.97	1083.43
919.27	1076.88
919.58	1076.18
919.88	1071.26
920.18	1076.88
920.49	1076.41
920.79	1076.18
921.10	1076.18
921.40	1081.33
921.70	1082.26
922.01	1071.50
922.31	1076.88
922.61	1084.84
922.92	1080.86
923.22	1082.97
923.52	1084.84
923.82	1082.03
924.13	1080.16
924.43	1078.05
924.73	1073.37
925.04	1080.63
925.34	1077.35
925.64	1077.58
925.94	1079.69
926.25	1093.50
926.55	1086.71
926.85	1088.82
927.15	1081.56
927.46	1079.46
927.76	1070.80
928.06	1067.99
928.36	1077.35
928.67	1073.60
928.97	1075.48
929.27	1069.16
929.57	1075.48
929.87	1063.07
930.18	1068.92
930.48	1072.90
930.78	1080.39
931.08	1072.43
931.38	1086.71
931.69	1095.37
931.99	1095.84
932.29	1104.97
932.59	1110.35
932.89	1100.05
933.19	1098.65
933.49	1090.69
933.80	1081.80
934.10	1088.12
934.40	1085.07
934.70	1076.41
935.00	1073.60
935.30	1062.37
935.60	1057.92
935.90	1063.07
936.20	1066.11
936.50	1068.92
936.81	1070.56
937.11	1070.56
937.41	1065.18
937.71	1052.07
938.01	1051.37
938.31	1063.54
938.61	1065.18
938.91	1073.14
939.21	1082.73
939.51	1083.90
939.81	1076.65
940.11	1068.45
940.41	1063.77
940.71	1070.80
941.01	1080.39
941.31	1082.97
941.61	1094.43
941.91	1095.14
942.21	1093.73
942.51	1079.22
942.81	1082.50
943.11	1079.22
943.41	1086.24
943.71	1078.99
944.01	1086.71
944.31	1082.50
944.61	1077.58
944.90	1076.41
945.20	1091.86
945.50	1091.63
945.80	1096.54
946.10	1094.20
946.40	1097.95
946.70	1102.16
947.00	1097.95
947.30	1088.12
947.60	1091.63
947.89	1076.65
948.19	1062.60
948.49	1070.09
948.79	1071.03
949.09	1070.09
949.39	1078.28
949.69	1079.46
949.98	1076.41
950.28	1075.94
950.58	1076.41
950.88	1070.09
951.18	1070.09
951.48	1066.11
951.77	1066.58
952.07	1061.43
952.37	1063.54
952.67	1055.82
952.97	1066.35
953.26	1066.58
953.56	1072.90
953.86	1083.20
954.16	1085.54
954.45	1074.77
954.75	1080.63
955.05	1079.92
955.35	1067.99
955.64	1070.09
955.94	1077.82
956.24	1071.03
956.54	1071.97
956.83	1071.50
957.13	1069.86
957.43	1067.52
957.72	1083.20
958.02	1087.88
958.32	1094.43
958.61	1094.20
958.91	1096.31
959.21	1080.16
959.50	1071.03
959.80	1063.31
960.10	1070.56
960.39	1074.77
960.69	1082.73
960.99	1087.18
961.28	1090.46
961.58	1089.29
961.87	1079.46
962.17	1074.54
962.47	1075.94
962.76	1077.11
963.06	1067.75
963.36	1073.60
963.65	1073.84
963.95	1069.62
964.24	1070.09
964.54	1083.90
964.83	1077.82
965.13	1077.11
965.42	1079.92
965.72	1075.01
966.02	1068.45
966.31	1072.43
966.61	1077.82
966.90	1085.31
967.20	1090.92
967.49	1094.43
967.79	1093.03
968.08	1083.43
968.38	1076.18
968.67	1070.80
968.97	1073.37
969.26	1067.75
969.56	1071.50
969.85	1070.56
970.15	1077.82
970.44	1066.82
970.74	1077.11
971.03	1087.65
971.32	1086.48
971.62	1081.56
971.91	1083.67
972.21	1079.22
972.50	1071.50
972.80	1079.92
973.09	1084.60
973.38	1086.94
973.68	1092.33
973.97	1097.24
974.27	1097.48
974.56	1096.54
974.85	1094.90
975.15	1083.67
975.44	1082.73
975.73	1080.16
976.03	1079.46
976.32	1083.43
976.61	1089.29
976.91	1080.86
977.20	1083.43
977.49	1078.05
977.79	1073.14
978.08	1073.84
978.37	1076.88
978.67	1074.31
978.96	1086.01
979.25	1096.07
979.55	1093.50
979.84	1097.95
980.13	1092.33
980.42	1078.52
980.72	1071.50
981.01	1066.82
981.30	1065.65
981.59	1074.07
981.89	1080.86
982.18	1073.84
982.47	1079.69
982.76	1073.60
983.06	1067.52
983.35	1075.48
983.64	1084.14
983.93	1092.56
984.22	1103.09
984.52	1101.46
984.81	1092.56
985.10	1093.73
985.39	1086.48
985.68	1073.84
985.97	1082.03
986.27	1084.84
986.56	1079.69
986.85	1081.33
987.14	1092.33
987.43	1089.05
987.72	1096.07
988.01	1100.29
988.31	1097.48
988.60	1089.29
988.89	1084.84
989.18	1073.84
989.47	1075.94
989.76	1071.73
990.05	1074.07
990.34	1077.35
990.63	1068.92
990.92	1062.60
991.21	1061.67
991.51	1064.24
991.80	1061.20
992.09	1076.41
992.38	1082.26
992.67	1083.43
992.96	1087.65
993.25	1086.71
993.54	1083.20
993.83	1080.39
994.12	1080.86
994.41	1083.20
994.70	1084.60
994.99	1079.46
995.28	1075.94
995.57	1084.37
995.86	1076.88
996.15	1069.39
996.44	1078.05
996.73	1075.94
997.02	1075.94
997.31	1078.05
997.59	1084.37
997.88	1090.46
998.17	1095.37
998.46	1094.90
998.75	1098.65
999.04	1095.84
999.33	1084.37
999.62	1074.07
999.91	1067.28
1000.20	1064.24
1000.49	1065.18
1000.77	1061.90
1001.06	1077.35
1001.35	1084.37
1001.64	1075.94
1001.93	1085.54
1002.22	1091.16
1002.51	1089.75
1002.79	1087.88
1003.08	1088.35
1003.37	1085.07
1003.66	1078.75
1003.95	1075.01
1004.23	1075.24
1004.52	1068.22
1004.81	1075.01
1005.10	1076.41
1005.39	1077.11
1005.67	1075.01
1005.96	1083.67
1006.25	1082.73
1006.54	1084.60
1006.83	1083.20
1007.11	1087.65
1007.40	1095.60
1007.69	1086.71
1007.97	1084.84
1008.26	1081.56
1008.55	1073.14
1008.84	1069.62
1009.12	1060.26
1009.41	1059.09
1009.70	1062.14
1009.98	1068.92
1010.27	1072.43
1010.56	1082.73
1010.85	1085.31
1011.13	1089.52
1011.42	1090.69
1011.71	1086.24
1011.99	1087.18
1012.28	1087.18
1012.56	1084.60
1012.85	1084.60
1013.14	1081.80
1013.42	1076.88
1013.71	1075.24
1014.00	1074.54
1014.28	1060.96
1014.57	1059.79
1014.85	1062.37
1015.14	1066.11
1015.43	1064.71
1015.71	1075.01
1016.00	1072.67
1016.28	1071.73
1016.57	1071.26
1016.85	1074.31
1017.14	1070.80
1017.43	1076.18
1017.71	1075.01
1018.00	1072.20
1018.28	1069.39
1018.57	1069.39
1018.85	1058.86
1019.14	1060.96
1019.42	1066.82
1019.71	1067.52
1019.99	1080.16
1020.28	1082.73
1020.56	1083.43
1020.85	1081.80
1021.13	1079.92
1021.42	1069.62
1021.70	1083.90
1021.99	1077.35
1022.27	1071.73
1022.55	1047.39
1022.84	1056.75
>>>>>End Processed Spectral Data<<<<<
