SpectraSuite Data File
++++++++++++++++++++++++++++++++++++
Date: Mon Aug 26 10:25:48 PDT 2019
User: corrico
Dark Spectrum Present: No
Reference Spectrum Present: No
Number of Sampled Component Spectra: 1
Spectrometers: USB2+H06089
Integration Time (usec): 10000 (USB2+H06089)
Spectra Averaged: 2 (USB2+H06089)
Boxcar Smoothing: 2 (USB2+H06089)
Correct for Electrical Dark: No (USB2+H06089)
Strobe/Lamp Enabled: No (USB2+H06089)
Correct for Detector Non-linearity: No (USB2+H06089)
Correct for Stray Light: No (USB2+H06089)
Number of Pixels in Processed Spectrum: 2048
>>>>>Begin Processed Spectral Data<<<<<
339.70	1031.01
340.07	1031.01
340.45	1012.52
340.82	995.43
341.19	968.05
341.57	938.79
341.94	923.58
342.31	909.30
342.69	899.94
343.06	902.51
343.43	895.96
343.81	887.77
344.18	898.53
344.55	899.70
344.93	902.04
345.30	925.21
345.67	935.04
346.04	940.66
346.42	956.34
346.79	966.64
347.16	967.11
347.54	974.37
347.91	980.92
348.28	987.94
348.65	989.58
349.03	992.15
349.40	1013.45
349.77	1021.18
350.14	1032.18
350.52	1056.28
350.89	1065.41
351.26	1053.94
351.63	1057.92
352.01	1048.09
352.38	1037.56
352.75	1052.07
353.12	1071.97
353.50	1071.97
353.87	1078.99
354.24	1085.77
354.61	1081.56
354.98	1068.22
355.36	1066.35
355.73	1068.45
356.10	1064.71
356.47	1065.18
356.84	1075.01
357.22	1087.65
357.59	1098.41
357.96	1109.41
358.33	1108.95
358.70	1106.61
359.08	1103.33
359.45	1102.39
359.82	1090.46
360.19	1088.58
360.56	1084.60
360.94	1081.33
361.31	1072.67
361.68	1075.94
362.05	1075.94
362.42	1073.84
362.79	1066.58
363.16	1064.71
363.54	1064.24
363.91	1060.50
364.28	1057.22
364.65	1063.54
365.02	1067.52
365.39	1073.60
365.76	1079.69
366.14	1089.29
366.51	1090.92
366.88	1085.77
367.25	1080.63
367.62	1082.73
367.99	1084.60
368.36	1087.41
368.73	1081.56
369.10	1071.73
369.48	1064.01
369.85	1059.79
370.22	1058.16
370.59	1067.52
370.96	1071.26
371.33	1077.11
371.70	1075.48
372.07	1071.26
372.44	1075.01
372.81	1078.28
373.18	1070.80
373.55	1066.58
373.93	1070.33
374.30	1052.77
374.67	1052.07
375.04	1061.20
375.41	1060.26
375.78	1050.43
376.15	1064.24
376.52	1060.03
376.89	1056.28
377.26	1058.62
377.63	1067.28
378.00	1065.41
378.37	1065.18
378.74	1062.60
379.11	1066.82
379.48	1064.24
379.85	1061.67
380.22	1075.01
380.59	1081.56
380.96	1089.05
381.33	1089.05
381.70	1092.33
382.07	1084.37
382.44	1081.09
382.81	1069.39
383.18	1079.92
383.55	1087.18
383.92	1090.92
384.29	1090.92
384.66	1092.33
385.03	1077.35
385.40	1077.11
385.77	1068.92
386.14	1068.45
386.51	1078.52
386.88	1083.43
387.25	1084.60
387.62	1088.82
387.99	1086.71
388.36	1069.86
388.73	1069.86
389.10	1064.48
389.46	1060.26
389.83	1059.09
390.20	1062.84
390.57	1063.54
390.94	1056.05
391.31	1051.84
391.68	1053.94
392.05	1060.50
392.42	1044.82
392.79	1054.65
393.16	1071.50
393.53	1066.58
393.89	1069.16
394.26	1079.69
394.63	1069.86
395.00	1061.20
395.37	1060.03
395.74	1053.24
396.11	1042.47
396.48	1040.60
396.84	1041.30
397.21	1054.65
397.58	1054.41
397.95	1070.09
398.32	1085.54
398.69	1093.26
399.06	1094.90
399.42	1100.29
399.79	1093.50
400.16	1079.22
400.53	1073.84
400.90	1062.37
401.27	1051.84
401.64	1060.96
402.00	1069.16
402.37	1064.24
402.74	1065.65
403.11	1071.03
403.48	1063.77
403.84	1072.43
404.21	1077.35
404.58	1076.88
404.95	1072.67
405.32	1073.60
405.68	1064.24
406.05	1070.80
406.42	1075.24
406.79	1084.84
407.16	1088.12
407.52	1087.65
407.89	1079.92
408.26	1080.63
408.63	1079.46
408.99	1085.31
409.36	1091.86
409.73	1097.01
410.10	1094.20
410.47	1088.82
410.83	1075.94
411.20	1075.24
411.57	1071.03
411.94	1071.03
412.30	1075.94
412.67	1085.07
413.04	1076.41
413.40	1073.14
413.77	1070.09
414.14	1069.39
414.51	1070.56
414.87	1076.65
415.24	1081.09
415.61	1086.24
415.97	1076.18
416.34	1066.82
416.71	1057.92
417.08	1055.35
417.44	1050.20
417.81	1053.94
418.18	1056.28
418.54	1066.82
418.91	1066.82
419.28	1064.94
419.64	1067.99
420.01	1075.01
420.38	1068.22
420.74	1067.75
421.11	1073.84
421.48	1067.75
421.84	1066.11
422.21	1069.86
422.58	1067.75
422.94	1072.90
423.31	1083.20
423.68	1083.90
424.04	1080.16
424.41	1087.88
424.77	1082.50
425.14	1087.41
425.51	1091.86
425.87	1089.29
426.24	1091.86
426.61	1088.12
426.97	1073.37
427.34	1070.09
427.70	1077.35
428.07	1075.24
428.44	1079.46
428.80	1082.50
429.17	1077.35
429.53	1075.71
429.90	1071.73
430.27	1073.60
430.63	1072.20
431.00	1065.41
431.36	1068.22
431.73	1060.73
432.09	1061.20
432.46	1068.22
432.83	1082.73
433.19	1086.01
433.56	1092.80
433.92	1093.97
434.29	1097.71
434.65	1100.52
435.02	1093.97
435.38	1096.78
435.75	1096.78
436.11	1093.97
436.48	1088.12
436.84	1086.94
437.21	1082.97
437.57	1084.14
437.94	1084.14
438.30	1077.11
438.67	1070.09
439.03	1070.09
439.40	1063.31
439.76	1059.33
440.13	1067.05
440.49	1073.84
440.86	1079.22
441.22	1074.07
441.59	1076.88
441.95	1070.80
442.32	1062.60
442.68	1059.56
443.05	1061.20
443.41	1059.79
443.78	1052.77
444.14	1060.73
444.51	1065.41
444.87	1067.52
445.24	1063.07
445.60	1076.18
445.96	1076.18
446.33	1065.88
446.69	1075.24
447.06	1081.33
447.42	1082.03
447.79	1079.22
448.15	1082.03
448.51	1074.31
448.88	1070.09
449.24	1062.84
449.61	1066.82
449.97	1069.62
450.33	1071.26
450.70	1076.41
451.06	1075.01
451.43	1067.99
451.79	1062.37
452.15	1062.14
452.52	1064.01
452.88	1071.03
453.24	1073.37
453.61	1075.48
453.97	1079.69
454.34	1074.54
454.70	1068.45
455.06	1066.82
455.43	1064.71
455.79	1063.77
456.15	1062.60
456.52	1064.48
456.88	1081.09
457.24	1082.26
457.61	1077.35
457.97	1080.39
458.33	1086.94
458.70	1077.58
459.06	1079.92
459.42	1074.77
459.79	1080.39
460.15	1074.54
460.51	1077.35
460.88	1077.35
461.24	1078.05
461.60	1072.20
461.96	1073.60
462.33	1074.54
462.69	1067.52
463.05	1080.16
463.42	1086.71
463.78	1082.73
464.14	1072.20
464.50	1087.88
464.87	1078.52
465.23	1074.31
465.59	1071.26
465.95	1080.63
466.32	1081.33
466.68	1079.92
467.04	1085.77
467.40	1085.07
467.77	1076.41
468.13	1060.73
468.49	1068.92
468.85	1051.13
469.22	1057.92
469.58	1060.50
469.94	1053.24
470.30	1044.82
470.66	1049.96
471.03	1050.43
471.39	1049.26
471.75	1064.94
472.11	1062.84
472.47	1070.33
472.84	1067.28
473.20	1070.56
473.56	1063.77
473.92	1074.31
474.28	1072.90
474.65	1068.69
475.01	1065.18
475.37	1068.92
475.73	1069.39
476.09	1075.94
476.45	1081.56
476.81	1081.33
477.18	1089.75
477.54	1079.46
477.90	1078.28
478.26	1073.14
478.62	1075.48
478.98	1072.20
479.34	1072.90
479.71	1062.14
480.07	1059.33
480.43	1061.43
480.79	1058.16
481.15	1057.92
481.51	1061.90
481.87	1075.94
482.23	1071.26
482.59	1079.46
482.96	1089.75
483.32	1086.01
483.68	1082.26
484.04	1085.77
484.40	1082.03
484.76	1079.69
485.12	1088.35
485.48	1086.01
485.84	1083.67
486.20	1077.11
486.56	1066.11
486.92	1055.82
487.28	1054.65
487.64	1049.73
488.00	1058.39
488.37	1066.82
488.73	1068.22
489.09	1066.11
489.45	1071.97
489.81	1069.39
490.17	1077.11
490.53	1080.16
490.89	1087.41
491.25	1089.75
491.61	1086.01
491.97	1078.28
492.33	1090.92
492.69	1092.80
493.05	1092.80
493.41	1092.33
493.77	1097.71
494.13	1094.20
494.49	1089.99
494.85	1089.99
495.21	1092.56
495.57	1091.39
495.93	1080.63
496.29	1070.09
496.64	1071.50
497.00	1079.22
497.36	1082.73
497.72	1081.33
498.08	1090.92
498.44	1082.50
498.80	1071.50
499.16	1061.67
499.52	1061.20
499.88	1058.62
500.24	1064.24
500.60	1057.69
500.96	1062.84
501.32	1074.77
501.68	1078.28
502.03	1078.75
502.39	1084.37
502.75	1077.35
503.11	1067.99
503.47	1060.50
503.83	1068.22
504.19	1079.69
504.55	1082.50
504.91	1078.28
505.26	1080.86
505.62	1082.97
505.98	1075.24
506.34	1065.41
506.70	1081.33
507.06	1082.73
507.42	1068.69
507.78	1073.14
508.13	1078.28
508.49	1073.84
508.85	1080.39
509.21	1091.63
509.57	1089.29
509.93	1096.31
510.28	1091.39
510.64	1096.54
511.00	1089.52
511.36	1082.97
511.72	1096.78
512.07	1101.69
512.43	1088.12
512.79	1084.14
513.15	1083.20
513.51	1067.75
513.86	1064.48
514.22	1071.73
514.58	1075.48
514.94	1083.43
515.30	1086.94
515.65	1085.07
516.01	1072.67
516.37	1075.48
516.73	1070.09
517.08	1071.73
517.44	1080.39
517.80	1093.73
518.16	1080.63
518.51	1084.37
518.87	1078.75
519.23	1081.56
519.59	1075.24
519.94	1091.39
520.30	1093.50
520.66	1097.48
521.01	1084.60
521.37	1095.60
521.73	1095.37
522.09	1086.01
522.44	1089.75
522.80	1093.26
523.16	1086.24
523.51	1072.67
523.87	1079.46
524.23	1072.20
524.58	1069.62
524.94	1072.90
525.30	1086.01
525.65	1092.56
526.01	1095.60
526.37	1105.44
526.72	1103.80
527.08	1098.65
527.44	1091.16
527.79	1089.75
528.15	1086.24
528.51	1086.71
528.86	1091.86
529.22	1093.26
529.58	1100.99
529.93	1101.69
530.29	1094.43
530.65	1082.97
531.00	1085.31
531.36	1080.39
531.71	1083.90
532.07	1094.67
532.43	1102.16
532.78	1097.24
533.14	1089.29
533.49	1078.28
533.85	1078.52
534.21	1083.90
534.56	1082.26
534.92	1095.60
535.27	1093.97
535.63	1087.65
535.98	1081.56
536.34	1085.07
536.69	1077.82
537.05	1085.07
537.41	1081.56
537.76	1087.18
538.12	1090.69
538.47	1088.82
538.83	1087.18
539.18	1086.24
539.54	1084.84
539.89	1086.01
540.25	1092.56
540.60	1095.14
540.96	1104.97
541.31	1101.92
541.67	1092.09
542.02	1085.07
542.38	1073.60
542.73	1068.45
543.09	1067.28
543.44	1076.41
543.80	1078.28
544.15	1078.28
544.51	1085.07
544.86	1092.09
545.22	1089.75
545.57	1093.50
545.93	1104.26
546.28	1093.26
546.64	1086.01
546.99	1088.35
547.35	1089.29
547.70	1086.24
548.05	1078.75
548.41	1076.88
548.76	1074.31
549.12	1062.37
549.47	1063.07
549.83	1068.22
550.18	1070.56
550.53	1064.24
550.89	1075.24
551.24	1073.60
551.60	1081.33
551.95	1073.14
552.30	1077.58
552.66	1078.05
553.01	1080.16
553.37	1079.92
553.72	1082.73
554.07	1076.88
554.43	1069.86
554.78	1069.62
555.13	1066.11
555.49	1078.52
555.84	1078.05
556.19	1078.99
556.55	1083.90
556.90	1100.52
557.26	1093.50
557.61	1093.73
557.96	1098.65
558.32	1100.05
558.67	1081.56
559.02	1079.46
559.37	1087.18
559.73	1078.28
560.08	1064.94
560.43	1066.82
560.79	1071.50
561.14	1061.90
561.49	1059.33
561.85	1071.50
562.20	1079.22
562.55	1070.33
562.90	1078.28
563.26	1084.37
563.61	1083.67
563.96	1081.33
564.32	1088.12
564.67	1092.09
565.02	1100.05
565.37	1104.97
565.73	1107.07
566.08	1110.35
566.43	1107.54
566.78	1094.90
567.14	1085.31
567.49	1080.86
567.84	1077.35
568.19	1074.77
568.54	1078.05
568.90	1073.37
569.25	1074.77
569.60	1074.31
569.95	1073.60
570.31	1082.26
570.66	1091.16
571.01	1083.67
571.36	1085.31
571.71	1101.69
572.06	1104.50
572.42	1100.29
572.77	1105.90
573.12	1097.01
573.47	1070.80
573.82	1068.45
574.18	1065.18
574.53	1064.71
574.88	1072.20
575.23	1084.37
575.58	1082.73
575.93	1090.22
576.28	1091.63
576.64	1087.18
576.99	1088.82
577.34	1087.65
577.69	1078.75
578.04	1077.82
578.39	1077.58
578.74	1074.31
579.09	1072.20
579.44	1070.09
579.80	1070.09
580.15	1073.84
580.50	1081.33
580.85	1084.84
581.20	1089.99
581.55	1084.60
581.90	1085.77
582.25	1080.86
582.60	1081.56
582.95	1091.39
583.30	1098.41
583.65	1106.84
584.00	1101.92
584.35	1091.63
584.71	1080.63
585.06	1071.26
585.41	1060.50
585.76	1071.97
586.11	1082.73
586.46	1086.48
586.81	1094.43
587.16	1104.26
587.51	1103.09
587.86	1095.14
588.21	1099.82
588.56	1090.92
588.91	1084.37
589.26	1076.65
589.61	1081.09
589.96	1074.77
590.31	1082.97
590.66	1083.43
591.01	1085.07
591.36	1080.86
591.71	1079.92
592.06	1076.41
592.41	1075.01
592.76	1074.07
593.10	1072.20
593.45	1076.88
593.80	1072.43
594.15	1071.26
594.50	1070.09
594.85	1075.01
595.20	1070.80
595.55	1092.33
595.90	1093.50
596.25	1098.18
596.60	1102.63
596.95	1097.01
597.30	1078.28
597.64	1144.52
597.99	1150.61
598.34	1139.14
598.69	1144.99
599.04	1143.12
599.39	1082.03
599.74	1078.52
600.09	1090.69
600.44	1090.22
600.78	1097.95
601.13	1093.73
601.48	1086.94
601.83	1078.75
602.18	1083.43
602.53	1085.31
602.88	1084.84
603.22	1096.07
603.57	1105.67
603.92	1097.01
604.27	1096.31
604.62	1102.86
604.97	1093.03
605.31	1073.84
605.66	1071.97
606.01	1076.65
606.36	1064.24
606.71	1060.50
607.05	1070.09
607.40	1076.18
607.75	1059.79
608.10	1078.28
608.44	1085.31
608.79	1088.35
609.14	1087.88
609.49	1097.71
609.84	1076.88
610.18	1076.41
610.53	1071.26
610.88	1086.24
611.23	1094.90
611.57	1112.22
611.92	1117.84
612.27	1127.90
612.62	1118.07
612.96	1106.37
613.31	1097.24
613.66	1089.99
614.00	1091.63
614.35	1093.73
614.70	1096.31
615.05	1099.12
615.39	1108.71
615.74	1097.48
616.09	1080.16
616.43	1092.33
616.78	1082.03
617.13	1075.24
617.47	1074.31
617.82	1085.77
618.17	1072.67
618.51	1077.82
618.86	1070.09
619.21	1075.01
619.55	1079.22
619.90	1070.09
620.25	1077.82
620.59	1089.29
620.94	1088.35
621.29	1088.82
621.63	1103.56
621.98	1096.78
622.32	1093.73
622.67	1094.90
623.02	1087.88
623.36	1091.63
623.71	1093.73
624.05	1085.07
624.40	1090.92
624.75	1092.09
625.09	1084.14
625.44	1079.22
625.78	1087.41
626.13	1093.03
626.48	1094.20
626.82	1103.56
627.17	1111.75
627.51	1117.84
627.86	1101.69
628.20	1100.05
628.55	1091.86
628.89	1095.37
629.24	1083.90
629.58	1090.22
629.93	1090.46
630.28	1086.01
630.62	1086.01
630.97	1084.37
631.31	1082.97
631.66	1078.05
632.00	1078.28
632.35	1071.03
632.69	1075.01
633.04	1077.35
633.38	1085.31
633.73	1090.46
634.07	1080.39
634.42	1086.01
634.76	1078.28
635.11	1080.86
635.45	1080.63
635.79	1087.65
636.14	1077.11
636.48	1080.16
636.83	1067.52
637.17	1068.69
637.52	1064.01
637.86	1063.77
638.21	1064.94
638.55	1073.37
638.89	1063.77
639.24	1066.82
639.58	1068.45
639.93	1071.26
640.27	1062.84
640.61	1063.07
640.96	1069.62
641.30	1071.03
641.65	1072.90
641.99	1073.60
642.33	1074.07
642.68	1077.11
643.02	1074.31
643.37	1063.54
643.71	1068.22
644.05	1070.09
644.40	1057.22
644.74	1063.07
645.08	1069.16
645.43	1066.11
645.77	1074.07
646.11	1074.31
646.46	1063.07
646.80	1056.52
647.14	1057.45
647.49	1043.88
647.83	1050.90
648.17	1063.54
648.52	1072.20
648.86	1079.69
649.20	1088.12
649.55	1080.16
649.89	1071.73
650.23	1076.41
650.57	1069.62
650.92	1070.09
651.26	1074.54
651.60	1076.41
651.95	1081.33
652.29	1084.84
652.63	1086.94
652.97	1092.33
653.32	1093.73
653.66	1086.71
654.00	1088.12
654.34	1090.22
654.69	1094.20
655.03	1097.95
655.37	1085.31
655.71	1081.56
656.05	1085.54
656.40	1078.52
656.74	1073.84
657.08	1090.92
657.42	1091.86
657.76	1090.46
658.11	1085.31
658.45	1082.73
658.79	1077.58
659.13	1079.69
659.47	1082.97
659.82	1095.14
660.16	1103.80
660.50	1100.29
660.84	1092.56
661.18	1083.43
661.52	1083.90
661.87	1075.24
662.21	1072.43
662.55	1076.18
662.89	1077.11
663.23	1073.14
663.57	1079.46
663.91	1080.39
664.25	1075.24
664.60	1089.52
664.94	1079.69
665.28	1078.28
665.62	1081.09
665.96	1090.69
666.30	1073.37
666.64	1083.43
666.98	1092.09
667.32	1098.41
667.66	1095.37
668.01	1093.03
668.35	1096.54
668.69	1078.75
669.03	1071.50
669.37	1066.82
669.71	1066.82
670.05	1056.05
670.39	1066.35
670.73	1057.92
671.07	1073.60
671.41	1076.88
671.75	1087.18
672.09	1079.22
672.43	1092.33
672.77	1085.31
673.11	1093.97
673.45	1086.71
673.79	1100.52
674.13	1092.09
674.47	1083.20
674.81	1069.62
675.15	1073.37
675.49	1065.65
675.83	1072.67
676.17	1079.92
676.51	1091.86
676.85	1082.26
677.19	1082.26
677.53	1079.22
677.87	1088.35
678.21	1086.94
678.55	1089.29
678.89	1083.43
679.23	1086.24
679.57	1078.52
679.90	1073.84
680.24	1069.62
680.58	1084.37
680.92	1084.14
681.26	1076.41
681.60	1079.22
681.94	1086.71
682.28	1070.56
682.62	1071.50
682.96	1069.86
683.29	1072.90
683.63	1073.60
683.97	1081.80
684.31	1075.94
684.65	1083.90
684.99	1071.50
685.33	1074.31
685.67	1072.67
686.00	1076.65
686.34	1076.88
686.68	1086.24
687.02	1092.33
687.36	1097.48
687.70	1086.71
688.03	1088.58
688.37	1085.07
688.71	1086.24
689.05	1082.03
689.39	1087.18
689.72	1082.26
690.06	1085.54
690.40	1078.52
690.74	1080.63
691.08	1085.77
691.41	1086.94
691.75	1085.07
692.09	1082.26
692.43	1084.60
692.76	1079.22
693.10	1075.24
693.44	1086.01
693.78	1094.90
694.11	1097.71
694.45	1100.05
694.79	1109.65
695.13	1097.01
695.46	1102.39
695.80	1092.09
696.14	1085.54
696.48	1077.11
696.81	1088.12
697.15	1067.99
697.49	1056.99
697.82	1067.52
698.16	1077.11
698.50	1060.73
698.83	1063.77
699.17	1082.26
699.51	1084.84
699.84	1076.88
700.18	1081.09
700.52	1081.56
700.85	1076.65
701.19	1080.39
701.53	1081.56
701.86	1091.63
702.20	1092.09
702.54	1088.58
702.87	1081.56
703.21	1083.43
703.55	1069.16
703.88	1074.07
704.22	1080.16
704.55	1076.18
704.89	1069.86
705.23	1080.63
705.56	1081.09
705.90	1082.26
706.23	1078.75
706.57	1080.63
706.91	1074.54
707.24	1075.94
707.58	1071.26
707.91	1078.75
708.25	1071.50
708.58	1080.63
708.92	1082.26
709.26	1087.18
709.59	1093.03
709.93	1109.41
710.26	1101.46
710.60	1095.14
710.93	1097.48
711.27	1090.46
711.60	1084.14
711.94	1084.14
712.27	1085.77
712.61	1081.33
712.94	1073.84
713.28	1075.48
713.61	1080.39
713.95	1076.41
714.28	1077.11
714.62	1090.46
714.95	1084.14
715.29	1076.41
715.62	1081.09
715.96	1082.73
716.29	1072.90
716.63	1078.28
716.96	1086.01
717.29	1082.97
717.63	1080.86
717.96	1080.16
718.30	1076.18
718.63	1067.75
718.97	1071.26
719.30	1080.63
719.63	1078.28
719.97	1085.07
720.30	1092.56
720.64	1093.03
720.97	1081.09
721.30	1092.09
721.64	1087.65
721.97	1073.37
722.31	1065.88
722.64	1070.33
722.97	1063.77
723.31	1071.26
723.64	1083.67
723.97	1087.88
724.31	1088.12
724.64	1089.75
724.98	1085.54
725.31	1083.67
725.64	1083.43
725.98	1079.92
726.31	1076.18
726.64	1076.88
726.97	1074.77
727.31	1063.31
727.64	1060.50
727.97	1063.77
728.31	1057.92
728.64	1052.30
728.97	1060.73
729.31	1065.18
729.64	1055.82
729.97	1054.18
730.30	1050.43
730.64	1059.33
730.97	1063.31
731.30	1078.52
731.63	1070.09
731.97	1079.92
732.30	1081.09
732.63	1072.90
732.96	1072.43
733.30	1075.71
733.63	1091.39
733.96	1086.94
734.29	1088.35
734.63	1085.77
734.96	1091.39
735.29	1072.43
735.62	1080.39
735.95	1084.14
736.29	1088.82
736.62	1097.01
736.95	1102.39
737.28	1090.22
737.61	1087.65
737.94	1079.22
738.28	1071.73
738.61	1076.41
738.94	1080.39
739.27	1077.58
739.60	1075.01
739.93	1082.26
740.27	1080.63
740.60	1075.24
740.93	1079.46
741.26	1076.65
741.59	1068.69
741.92	1070.56
742.25	1070.80
742.58	1067.75
742.91	1071.73
743.25	1074.31
743.58	1068.45
743.91	1076.41
744.24	1090.46
744.57	1090.92
744.90	1089.05
745.23	1082.50
745.56	1076.88
745.89	1066.58
746.22	1074.54
746.55	1066.82
746.88	1069.16
747.21	1075.01
747.54	1064.24
747.87	1059.33
748.20	1075.94
748.53	1080.16
748.87	1078.28
749.20	1088.82
749.53	1083.90
749.86	1078.52
750.19	1083.90
750.52	1079.22
750.85	1077.35
751.18	1082.73
751.51	1074.07
751.84	1067.99
752.16	1064.71
752.49	1059.09
752.82	1053.94
753.15	1062.60
753.48	1067.52
753.81	1070.09
754.14	1072.67
754.47	1081.80
754.80	1081.56
755.13	1075.01
755.46	1079.69
755.79	1079.69
756.12	1075.24
756.45	1071.50
756.78	1080.16
757.11	1075.48
757.43	1082.50
757.76	1077.35
758.09	1081.33
758.42	1076.65
758.75	1084.37
759.08	1082.97
759.41	1082.03
759.74	1081.56
760.07	1075.24
760.39	1070.09
760.72	1068.69
761.05	1071.97
761.38	1071.73
761.71	1079.46
762.04	1085.31
762.36	1081.33
762.69	1090.46
763.02	1089.99
763.35	1093.97
763.68	1083.90
764.01	1079.22
764.33	1068.69
764.66	1075.94
764.99	1075.71
765.32	1084.60
765.65	1100.99
765.97	1107.78
766.30	1097.24
766.63	1089.99
766.96	1082.50
767.28	1072.90
767.61	1067.75
767.94	1069.16
768.27	1066.82
768.59	1064.94
768.92	1071.50
769.25	1077.82
769.58	1081.33
769.90	1092.56
770.23	1093.50
770.56	1089.05
770.89	1087.88
771.21	1091.39
771.54	1085.54
771.87	1092.56
772.19	1089.75
772.52	1090.92
772.85	1080.39
773.17	1081.09
773.50	1080.16
773.83	1081.33
774.15	1074.77
774.48	1068.92
774.81	1064.71
775.13	1071.26
775.46	1067.28
775.79	1069.16
776.11	1085.07
776.44	1085.54
776.77	1080.16
777.09	1086.71
777.42	1089.75
777.74	1088.35
778.07	1092.09
778.40	1093.03
778.72	1094.43
779.05	1093.73
779.37	1092.09
779.70	1102.86
780.03	1096.31
780.35	1091.63
780.68	1097.24
781.00	1099.35
781.33	1082.03
781.65	1082.26
781.98	1078.75
782.31	1071.97
782.63	1057.45
782.96	1061.90
783.28	1066.11
783.61	1077.58
783.93	1075.24
784.26	1091.16
784.58	1087.88
784.91	1081.09
785.23	1071.26
785.56	1070.33
785.88	1066.58
786.21	1076.18
786.53	1075.94
786.86	1084.60
787.18	1085.31
787.51	1086.94
787.83	1078.99
788.16	1086.94
788.48	1082.73
788.81	1072.90
789.13	1071.97
789.46	1074.07
789.78	1066.11
790.10	1068.45
790.43	1071.50
790.75	1061.20
791.08	1059.79
791.40	1057.45
791.73	1065.65
792.05	1085.54
792.37	1087.41
792.70	1082.73
793.02	1089.05
793.35	1084.37
793.67	1069.62
793.99	1080.16
794.32	1087.18
794.64	1089.99
794.96	1088.12
795.29	1092.80
795.61	1085.07
795.93	1085.77
796.26	1093.26
796.58	1093.97
796.91	1096.54
797.23	1104.03
797.55	1100.52
797.87	1094.20
798.20	1092.33
798.52	1092.80
798.84	1083.90
799.17	1091.16
799.49	1084.84
799.81	1083.90
800.14	1079.69
800.46	1092.33
800.78	1084.14
801.10	1089.99
801.43	1086.01
801.75	1074.31
802.07	1077.11
802.40	1086.94
802.72	1082.50
803.04	1090.69
803.36	1104.97
803.69	1089.52
804.01	1081.33
804.33	1080.63
804.65	1067.52
804.97	1067.05
805.30	1075.48
805.62	1079.22
805.94	1087.18
806.26	1096.54
806.58	1086.94
806.91	1079.46
807.23	1080.16
807.55	1075.71
807.87	1069.62
808.19	1083.20
808.52	1081.09
808.84	1080.39
809.16	1083.67
809.48	1086.48
809.80	1080.86
810.12	1090.92
810.44	1094.43
810.77	1087.88
811.09	1086.94
811.41	1090.92
811.73	1094.20
812.05	1090.22
812.37	1091.39
812.69	1084.37
813.01	1069.86
813.33	1065.41
813.66	1062.84
813.98	1067.05
814.30	1081.33
814.62	1085.07
814.94	1078.05
815.26	1075.24
815.58	1071.26
815.90	1065.18
816.22	1075.24
816.54	1081.33
816.86	1088.58
817.18	1085.07
817.50	1087.65
817.82	1080.16
818.14	1073.14
818.46	1067.99
818.78	1068.45
819.10	1055.58
819.42	1058.62
819.74	1061.67
820.06	1060.73
820.38	1060.26
820.70	1070.56
821.02	1067.28
821.34	1085.77
821.66	1087.18
821.98	1083.90
822.30	1087.88
822.62	1089.75
822.94	1080.86
823.26	1078.52
823.58	1090.92
823.90	1084.60
824.22	1089.05
824.54	1076.88
824.86	1086.94
825.18	1086.48
825.50	1088.82
825.81	1091.86
826.13	1100.75
826.45	1092.33
826.77	1097.01
827.09	1099.12
827.41	1091.16
827.73	1080.16
828.05	1089.52
828.36	1084.37
828.68	1079.46
829.00	1085.54
829.32	1089.29
829.64	1082.73
829.96	1072.90
830.28	1076.88
830.59	1077.35
830.91	1086.24
831.23	1086.24
831.55	1088.35
831.87	1088.58
832.19	1077.11
832.50	1069.62
832.82	1060.96
833.14	1065.41
833.46	1058.16
833.78	1065.65
834.09	1069.16
834.41	1075.24
834.73	1078.28
835.05	1083.67
835.36	1084.60
835.68	1089.29
836.00	1080.86
836.32	1074.31
836.63	1067.75
836.95	1070.80
837.27	1068.69
837.59	1068.69
837.90	1075.71
838.22	1081.56
838.54	1082.26
838.85	1079.92
839.17	1086.94
839.49	1075.94
839.80	1079.69
840.12	1076.41
840.44	1073.60
840.76	1066.58
841.07	1078.05
841.39	1079.22
841.71	1075.24
842.02	1078.75
842.34	1086.71
842.65	1090.92
842.97	1084.14
843.29	1081.09
843.60	1081.09
843.92	1084.37
844.24	1080.86
844.55	1075.24
844.87	1082.97
845.18	1080.63
845.50	1081.56
845.82	1074.31
846.13	1088.82
846.45	1083.67
846.76	1081.56
847.08	1078.05
847.40	1073.37
847.71	1071.50
848.03	1077.82
848.34	1075.48
848.66	1075.24
848.97	1075.94
849.29	1072.43
849.60	1066.11
849.92	1067.75
850.24	1069.16
850.55	1073.60
850.87	1074.07
851.18	1083.20
851.50	1089.75
851.81	1085.31
852.13	1081.33
852.44	1077.82
852.76	1077.11
853.07	1072.20
853.39	1075.94
853.70	1088.35
854.01	1089.29
854.33	1084.14
854.64	1089.99
854.96	1088.12
855.27	1075.94
855.59	1076.88
855.90	1083.20
856.22	1079.46
856.53	1083.20
856.84	1089.52
857.16	1085.07
857.47	1074.77
857.79	1076.65
858.10	1074.77
858.41	1070.56
858.73	1074.07
859.04	1071.50
859.36	1067.52
859.67	1066.11
859.98	1069.62
860.30	1068.69
860.61	1076.88
860.92	1078.99
861.24	1079.69
861.55	1076.41
861.87	1076.65
862.18	1071.73
862.49	1071.97
862.81	1082.97
863.12	1085.77
863.43	1092.33
863.74	1089.52
864.06	1086.94
864.37	1080.63
864.68	1072.67
865.00	1069.39
865.31	1070.09
865.62	1072.20
865.94	1062.37
866.25	1068.69
866.56	1065.88
866.87	1076.65
867.19	1077.82
867.50	1089.29
867.81	1092.56
868.12	1089.99
868.44	1076.88
868.75	1072.90
869.06	1068.45
869.37	1063.31
869.68	1059.79
870.00	1060.03
870.31	1056.75
870.62	1055.35
870.93	1060.96
871.24	1069.16
871.56	1068.92
871.87	1082.50
872.18	1084.14
872.49	1081.09
872.80	1084.84
873.12	1097.71
873.43	1087.65
873.74	1088.82
874.05	1094.43
874.36	1088.35
874.67	1093.50
874.98	1094.90
875.29	1090.92
875.61	1083.67
875.92	1091.39
876.23	1084.14
876.54	1082.26
876.85	1089.29
877.16	1086.94
877.47	1086.48
877.78	1083.43
878.09	1090.92
878.40	1084.14
878.72	1096.07
879.03	1093.73
879.34	1098.65
879.65	1094.67
879.96	1103.33
880.27	1098.18
880.58	1102.16
880.89	1095.84
881.20	1090.92
881.51	1090.22
881.82	1083.43
882.13	1084.84
882.44	1082.26
882.75	1086.24
883.06	1071.50
883.37	1080.16
883.68	1073.84
883.99	1075.24
884.30	1075.01
884.61	1089.52
884.92	1084.14
885.23	1082.26
885.54	1083.43
885.85	1089.52
886.16	1074.77
886.47	1081.56
886.78	1088.12
887.08	1091.39
887.39	1094.20
887.70	1109.88
888.01	1106.84
888.32	1108.01
888.63	1101.69
888.94	1099.58
889.25	1092.33
889.56	1094.43
889.87	1084.14
890.17	1092.33
890.48	1087.41
890.79	1080.16
891.10	1071.26
891.41	1065.41
891.72	1066.35
892.03	1068.69
892.34	1080.39
892.64	1082.03
892.95	1091.86
893.26	1082.03
893.57	1076.88
893.88	1075.94
894.18	1080.86
894.49	1078.28
894.80	1086.24
895.11	1090.22
895.42	1088.58
895.72	1088.12
896.03	1083.90
896.34	1081.56
896.65	1070.80
896.96	1067.75
897.26	1067.75
897.57	1075.01
897.88	1078.05
898.19	1086.48
898.49	1089.52
898.80	1092.80
899.11	1084.37
899.41	1082.03
899.72	1080.86
900.03	1080.86
900.34	1078.52
900.64	1084.14
900.95	1086.24
901.26	1087.65
901.56	1084.37
901.87	1070.33
902.18	1071.03
902.48	1071.50
902.79	1061.90
903.10	1063.31
903.40	1081.33
903.71	1075.94
904.02	1063.77
904.32	1075.24
904.63	1071.50
904.94	1060.96
905.24	1063.77
905.55	1077.35
905.85	1082.26
906.16	1090.92
906.47	1101.69
906.77	1101.46
907.08	1092.56
907.38	1098.65
907.69	1093.50
908.00	1089.52
908.30	1086.71
908.61	1086.24
908.91	1073.84
909.22	1074.54
909.52	1077.82
909.83	1083.90
910.14	1082.50
910.44	1082.97
910.75	1081.09
911.05	1071.26
911.36	1072.67
911.66	1082.26
911.97	1088.35
912.27	1087.41
912.58	1096.54
912.88	1095.37
913.19	1092.80
913.49	1079.69
913.80	1091.63
914.10	1082.97
914.41	1083.20
914.71	1086.24
915.01	1086.01
915.32	1071.03
915.62	1073.37
915.93	1055.35
916.23	1050.67
916.54	1064.71
916.84	1073.14
917.15	1075.24
917.45	1093.03
917.75	1093.73
918.06	1084.60
918.36	1085.31
918.67	1089.52
918.97	1082.26
919.27	1078.28
919.58	1089.75
919.88	1087.88
920.18	1078.99
920.49	1087.65
920.79	1097.24
921.10	1087.41
921.40	1081.09
921.70	1079.46
922.01	1081.80
922.31	1079.46
922.61	1096.31
922.92	1105.44
923.22	1105.67
923.52	1104.03
923.82	1097.24
924.13	1079.92
924.43	1071.73
924.73	1080.63
925.04	1074.77
925.34	1078.75
925.64	1078.99
925.94	1083.90
926.25	1080.63
926.55	1086.01
926.85	1080.86
927.15	1081.56
927.46	1077.58
927.76	1077.11
928.06	1063.07
928.36	1063.54
928.67	1068.92
928.97	1054.18
929.27	1068.22
929.57	1079.22
929.87	1086.94
930.18	1081.33
930.48	1103.09
930.78	1089.75
931.08	1091.16
931.38	1080.86
931.69	1084.60
931.99	1082.26
932.29	1085.31
932.59	1083.67
932.89	1098.88
933.19	1090.92
933.49	1084.14
933.80	1081.56
934.10	1083.43
934.40	1077.58
934.70	1083.67
935.00	1094.90
935.30	1099.35
935.60	1095.37
935.90	1100.05
936.20	1093.97
936.50	1090.22
936.81	1082.97
937.11	1078.75
937.41	1073.37
937.71	1080.16
938.01	1079.92
938.31	1080.63
938.61	1089.29
938.91	1089.29
939.21	1091.86
939.51	1093.97
939.81	1089.52
940.11	1093.03
940.41	1096.07
940.71	1085.77
941.01	1080.63
941.31	1084.60
941.61	1082.50
941.91	1082.97
942.21	1082.73
942.51	1078.52
942.81	1080.63
943.11	1083.43
943.41	1081.09
943.71	1078.05
944.01	1082.26
944.31	1072.90
944.61	1065.18
944.90	1050.20
945.20	1060.26
945.50	1060.50
945.80	1068.69
946.10	1068.92
946.40	1078.05
946.70	1078.05
947.00	1079.92
947.30	1082.03
947.60	1078.05
947.89	1078.75
948.19	1080.63
948.49	1079.69
948.79	1079.92
949.09	1082.26
949.39	1075.94
949.69	1062.84
949.98	1059.09
950.28	1068.45
950.58	1066.35
950.88	1069.86
951.18	1078.05
951.48	1078.05
951.77	1058.62
952.07	1057.92
952.37	1069.62
952.67	1073.14
952.97	1068.45
953.26	1074.07
953.56	1079.46
953.86	1072.67
954.16	1075.71
954.45	1090.22
954.75	1089.99
955.05	1086.24
955.35	1090.46
955.64	1093.50
955.94	1080.39
956.24	1083.67
956.54	1091.39
956.83	1075.94
957.13	1069.86
957.43	1075.01
957.72	1084.60
958.02	1084.37
958.32	1098.41
958.61	1096.07
958.91	1098.41
959.21	1096.78
959.50	1088.12
959.80	1081.56
960.10	1077.82
960.39	1081.80
960.69	1077.35
960.99	1083.20
961.28	1091.63
961.58	1098.65
961.87	1090.92
962.17	1092.09
962.47	1089.05
962.76	1081.56
963.06	1076.18
963.36	1073.84
963.65	1074.54
963.95	1081.80
964.24	1091.63
964.54	1092.56
964.83	1101.69
965.13	1091.16
965.42	1085.77
965.72	1079.92
966.02	1078.99
966.31	1075.24
966.61	1076.65
966.90	1079.69
967.20	1075.24
967.49	1078.28
967.79	1082.73
968.08	1082.97
968.38	1073.60
968.67	1078.52
968.97	1073.84
969.26	1071.03
969.56	1083.43
969.85	1085.77
970.15	1082.73
970.44	1086.71
970.74	1088.12
971.03	1081.56
971.32	1096.54
971.62	1100.29
971.91	1100.29
972.21	1094.20
972.50	1086.01
972.80	1080.63
973.09	1081.56
973.38	1079.46
973.68	1090.22
973.97	1098.65
974.27	1091.16
974.56	1083.43
974.85	1074.07
975.15	1065.18
975.44	1067.28
975.73	1078.52
976.03	1079.22
976.32	1093.03
976.61	1098.65
976.91	1095.14
977.20	1093.50
977.49	1095.60
977.79	1097.24
978.08	1092.80
978.37	1091.39
978.67	1086.94
978.96	1083.90
979.25	1078.28
979.55	1086.01
979.84	1086.01
980.13	1090.92
980.42	1100.99
980.72	1101.46
981.01	1091.39
981.30	1087.18
981.59	1080.39
981.89	1075.01
982.18	1068.69
982.47	1072.20
982.76	1073.37
983.06	1071.73
983.35	1061.67
983.64	1069.16
983.93	1071.26
984.22	1066.58
984.52	1064.94
984.81	1071.26
985.10	1070.80
985.39	1065.88
985.68	1079.46
985.97	1080.16
986.27	1079.92
986.56	1072.20
986.85	1069.39
987.14	1064.71
987.43	1071.73
987.72	1079.46
988.01	1075.24
988.31	1082.03
988.60	1079.22
988.89	1072.67
989.18	1084.14
989.47	1097.24
989.76	1089.52
990.05	1087.88
990.34	1081.56
990.63	1064.48
990.92	1063.07
991.21	1063.07
991.51	1060.73
991.80	1063.54
992.09	1067.52
992.38	1065.65
992.67	1072.67
992.96	1082.03
993.25	1082.26
993.54	1078.75
993.83	1078.75
994.12	1075.01
994.41	1059.33
994.70	1066.11
994.99	1063.31
995.28	1068.92
995.57	1070.56
995.86	1079.69
996.15	1079.22
996.44	1085.77
996.73	1084.37
997.02	1082.97
997.31	1082.50
997.59	1084.84
997.88	1078.99
998.17	1082.97
998.46	1090.69
998.75	1102.39
999.04	1106.14
999.33	1111.52
999.62	1098.88
999.91	1085.07
1000.20	1086.94
1000.49	1073.60
1000.77	1058.86
1001.06	1066.82
1001.35	1075.94
1001.64	1069.62
1001.93	1075.94
1002.22	1085.31
1002.51	1072.20
1002.79	1072.20
1003.08	1070.56
1003.37	1066.11
1003.66	1067.28
1003.95	1093.03
1004.23	1086.94
1004.52	1087.65
1004.81	1096.54
1005.10	1101.69
1005.39	1094.20
1005.67	1100.99
1005.96	1102.63
1006.25	1097.95
1006.54	1090.92
1006.83	1080.39
1007.11	1074.07
1007.40	1065.88
1007.69	1065.88
1007.97	1063.31
1008.26	1062.60
1008.55	1060.50
1008.84	1056.52
1009.12	1049.96
1009.41	1059.33
1009.70	1064.94
1009.98	1073.60
1010.27	1086.24
1010.56	1099.82
1010.85	1100.52
1011.13	1102.63
1011.42	1096.54
1011.71	1091.63
1011.99	1085.77
1012.28	1082.03
1012.56	1079.22
1012.85	1085.54
1013.14	1094.90
1013.42	1100.99
1013.71	1100.05
1014.00	1102.16
1014.28	1098.88
1014.57	1098.18
1014.85	1096.07
1015.14	1095.84
1015.43	1089.75
1015.71	1093.97
1016.00	1085.77
1016.28	1078.28
1016.57	1074.07
1016.85	1077.82
1017.14	1078.05
1017.43	1082.03
1017.71	1083.67
1018.00	1094.20
1018.28	1094.20
1018.57	1096.07
1018.85	1090.69
1019.14	1093.26
1019.42	1094.90
1019.71	1101.46
1019.99	1093.97
1020.28	1090.46
1020.56	1088.35
1020.85	1072.43
1021.13	1067.28
1021.42	1068.69
1021.70	1074.77
1021.99	1069.16
1022.27	1079.69
1022.55	1053.24
1022.84	1089.52
>>>>>End Processed Spectral Data<<<<<
