SpectraSuite Data File
++++++++++++++++++++++++++++++++++++
Date: Mon Aug 26 10:25:46 PDT 2019
User: corrico
Dark Spectrum Present: No
Reference Spectrum Present: No
Number of Sampled Component Spectra: 1
Spectrometers: USB2+H06089
Integration Time (usec): 10000 (USB2+H06089)
Spectra Averaged: 2 (USB2+H06089)
Boxcar Smoothing: 2 (USB2+H06089)
Correct for Electrical Dark: No (USB2+H06089)
Strobe/Lamp Enabled: No (USB2+H06089)
Correct for Detector Non-linearity: No (USB2+H06089)
Correct for Stray Light: No (USB2+H06089)
Number of Pixels in Processed Spectrum: 2048
>>>>>Begin Processed Spectral Data<<<<<
339.70	1073.14
340.07	1073.14
340.45	1024.92
340.82	992.62
341.19	960.09
341.57	924.28
341.94	906.02
342.31	899.00
342.69	892.91
343.06	888.70
343.43	886.83
343.81	897.60
344.18	896.89
344.55	902.28
344.93	906.96
345.30	914.68
345.67	920.53
346.04	935.28
346.42	947.45
346.79	950.02
347.16	967.58
347.54	972.26
347.91	970.15
348.28	979.75
348.65	994.03
349.03	1002.92
349.40	1012.05
349.77	1021.41
350.14	1020.71
350.52	1023.05
350.89	1022.11
351.26	1030.30
351.63	1041.77
352.01	1058.86
352.38	1066.82
352.75	1068.45
353.12	1067.05
353.50	1070.33
353.87	1056.99
354.24	1057.92
354.61	1057.45
354.98	1059.79
355.36	1061.20
355.73	1075.24
356.10	1084.60
356.47	1092.09
356.84	1090.22
357.22	1086.71
357.59	1079.46
357.96	1065.65
358.33	1062.14
358.70	1070.56
359.08	1074.77
359.45	1079.92
359.82	1087.88
360.19	1087.18
360.56	1071.73
360.94	1063.77
361.31	1054.65
361.68	1053.71
362.05	1060.73
362.42	1072.20
362.79	1075.71
363.16	1075.48
363.54	1074.31
363.91	1065.41
364.28	1059.56
364.65	1059.09
365.02	1063.54
365.39	1064.48
365.76	1071.26
366.14	1075.01
366.51	1073.84
366.88	1077.35
367.25	1081.33
367.62	1067.75
367.99	1056.75
368.36	1060.26
368.73	1051.13
369.10	1049.50
369.48	1056.75
369.85	1054.88
370.22	1049.26
370.59	1059.09
370.96	1055.35
371.33	1058.39
371.70	1068.69
372.07	1064.48
372.44	1063.07
372.81	1056.05
373.18	1057.92
373.55	1058.86
373.93	1062.14
374.30	1049.50
374.67	1051.84
375.04	1047.39
375.41	1049.96
375.78	1056.99
376.15	1058.62
376.52	1064.01
376.89	1071.73
377.26	1065.88
377.63	1060.50
378.00	1067.99
378.37	1072.67
378.74	1066.58
379.11	1070.56
379.48	1078.05
379.85	1078.99
380.22	1080.39
380.59	1076.18
380.96	1075.71
381.33	1064.94
381.70	1060.50
382.07	1057.22
382.44	1059.33
382.81	1059.33
383.18	1068.92
383.55	1073.14
383.92	1070.09
384.29	1075.71
384.66	1082.50
385.03	1089.75
385.40	1088.58
385.77	1084.60
386.14	1077.58
386.51	1067.75
386.88	1056.99
387.25	1059.56
387.62	1068.45
387.99	1074.07
388.36	1081.33
388.73	1078.28
389.10	1085.07
389.46	1081.09
389.83	1082.73
390.20	1082.97
390.57	1083.43
390.94	1077.11
391.31	1082.03
391.68	1075.01
392.05	1075.48
392.42	1079.92
392.79	1084.14
393.16	1076.88
393.53	1081.80
393.89	1074.31
394.26	1070.80
394.63	1053.01
395.00	1055.35
395.37	1050.90
395.74	1062.37
396.11	1068.69
396.48	1082.03
396.84	1088.35
397.21	1092.33
397.58	1076.18
397.95	1065.18
398.32	1064.01
398.69	1048.79
399.06	1043.18
399.42	1046.45
399.79	1059.56
400.16	1065.18
400.53	1070.80
400.90	1070.80
401.27	1083.43
401.64	1085.77
402.00	1083.43
402.37	1089.05
402.74	1096.07
403.11	1092.56
403.48	1088.12
403.84	1083.67
404.21	1084.60
404.58	1082.73
404.95	1082.97
405.32	1074.77
405.68	1071.73
406.05	1068.92
406.42	1066.58
406.79	1065.18
407.16	1065.18
407.52	1074.54
407.89	1074.07
408.26	1070.09
408.63	1060.03
408.99	1069.39
409.36	1054.88
409.73	1054.18
410.10	1062.84
410.47	1069.39
410.83	1069.16
411.20	1079.22
411.57	1081.33
411.94	1079.22
412.30	1078.05
412.67	1076.41
413.04	1080.39
413.40	1083.67
413.77	1081.80
414.14	1082.97
414.51	1076.41
414.87	1076.41
415.24	1078.28
415.61	1074.77
415.97	1089.29
416.34	1092.09
416.71	1085.07
417.08	1081.33
417.44	1084.84
417.81	1074.54
418.18	1073.37
418.54	1070.09
418.91	1064.71
419.28	1065.41
419.64	1053.94
420.01	1058.39
420.38	1056.52
420.74	1057.22
421.11	1064.94
421.48	1075.48
421.84	1070.09
422.21	1077.11
422.58	1071.73
422.94	1062.60
423.31	1053.71
423.68	1057.92
424.04	1052.54
424.41	1062.37
424.77	1063.77
425.14	1075.94
425.51	1068.22
425.87	1066.35
426.24	1068.45
426.61	1061.67
426.97	1049.73
427.34	1057.45
427.70	1061.67
428.07	1059.09
428.44	1066.82
428.80	1059.33
429.17	1060.96
429.53	1068.45
429.90	1066.11
430.27	1057.22
430.63	1080.39
431.00	1078.52
431.36	1082.03
431.73	1082.26
432.09	1083.43
432.46	1077.11
432.83	1086.24
433.19	1089.99
433.56	1091.16
433.92	1092.56
434.29	1098.65
434.65	1082.73
435.02	1074.54
435.38	1077.82
435.75	1086.94
436.11	1074.77
436.48	1087.18
436.84	1088.35
437.21	1078.05
437.57	1069.16
437.94	1078.52
438.30	1076.18
438.67	1082.73
439.03	1085.07
439.40	1094.67
439.76	1079.46
440.13	1072.90
440.49	1064.24
440.86	1065.88
441.22	1064.71
441.59	1074.77
441.95	1081.09
442.32	1073.84
442.68	1068.92
443.05	1068.45
443.41	1079.46
443.78	1067.52
444.14	1082.03
444.51	1102.39
444.87	1096.78
445.24	1082.26
445.60	1081.09
445.96	1063.77
446.33	1059.79
446.69	1064.01
447.06	1070.80
447.42	1081.33
447.79	1080.39
448.15	1075.01
448.51	1070.09
448.88	1071.50
449.24	1068.22
449.61	1079.46
449.97	1074.07
450.33	1075.71
450.70	1068.22
451.06	1063.77
451.43	1063.54
451.79	1058.86
452.15	1055.11
452.52	1064.01
452.88	1079.69
453.24	1083.90
453.61	1090.46
453.97	1093.50
454.34	1090.92
454.70	1081.56
455.06	1086.01
455.43	1089.29
455.79	1096.54
456.15	1094.67
456.52	1097.01
456.88	1087.88
457.24	1084.84
457.61	1080.16
457.97	1074.77
458.33	1075.94
458.70	1078.99
459.06	1086.71
459.42	1084.37
459.79	1089.52
460.15	1077.35
460.51	1078.75
460.88	1075.01
461.24	1073.60
461.60	1082.03
461.96	1091.39
462.33	1091.86
462.69	1090.92
463.05	1092.56
463.42	1082.03
463.78	1084.60
464.14	1071.97
464.50	1073.14
464.87	1074.77
465.23	1075.71
465.59	1071.03
465.95	1078.52
466.32	1078.99
466.68	1075.71
467.04	1070.33
467.40	1074.54
467.77	1077.82
468.13	1078.99
468.49	1079.22
468.85	1086.24
469.22	1091.86
469.58	1093.97
469.94	1089.75
470.30	1094.90
470.66	1094.90
471.03	1096.07
471.39	1091.86
471.75	1085.54
472.11	1092.80
472.47	1090.22
472.84	1079.22
473.20	1077.35
473.56	1085.54
473.92	1080.63
474.28	1080.39
474.65	1085.31
475.01	1089.75
475.37	1093.26
475.73	1086.24
476.09	1080.39
476.45	1075.71
476.81	1072.67
477.18	1074.07
477.54	1080.16
477.90	1089.05
478.26	1091.39
478.62	1089.75
478.98	1085.54
479.34	1078.99
479.71	1065.41
480.07	1061.43
480.43	1058.39
480.79	1060.26
481.15	1063.77
481.51	1064.94
481.87	1075.48
482.23	1075.01
482.59	1077.58
482.96	1085.07
483.32	1093.97
483.68	1090.92
484.04	1093.26
484.40	1097.95
484.76	1101.22
485.12	1106.61
485.48	1089.75
485.84	1090.22
486.20	1076.88
486.56	1060.26
486.92	1062.14
487.28	1080.16
487.64	1086.48
488.00	1092.56
488.37	1104.50
488.73	1096.54
489.09	1095.14
489.45	1090.92
489.81	1084.60
490.17	1077.35
490.53	1078.28
490.89	1071.26
491.25	1074.54
491.61	1081.09
491.97	1091.39
492.33	1093.73
492.69	1099.12
493.05	1098.41
493.41	1095.37
493.77	1086.71
494.13	1082.50
494.49	1075.01
494.85	1081.56
495.21	1081.80
495.57	1088.35
495.93	1087.65
496.29	1091.63
496.64	1077.82
497.00	1073.60
497.36	1065.18
497.72	1075.24
498.08	1084.60
498.44	1088.58
498.80	1089.05
499.16	1090.69
499.52	1082.73
499.88	1064.71
500.24	1070.33
500.60	1077.11
500.96	1073.84
501.32	1078.28
501.68	1087.18
502.03	1076.41
502.39	1074.07
502.75	1067.99
503.11	1065.18
503.47	1072.43
503.83	1082.97
504.19	1082.50
504.55	1092.56
504.91	1089.52
505.26	1085.54
505.62	1083.90
505.98	1085.54
506.34	1097.48
506.70	1097.24
507.06	1097.01
507.42	1094.20
507.78	1089.52
508.13	1081.09
508.49	1093.50
508.85	1082.50
509.21	1084.84
509.57	1090.92
509.93	1080.39
510.28	1078.05
510.64	1089.99
511.00	1078.75
511.36	1075.94
511.72	1081.33
512.07	1080.86
512.43	1079.22
512.79	1092.80
513.15	1097.24
513.51	1101.69
513.86	1097.95
514.22	1097.01
514.58	1095.37
514.94	1081.09
515.30	1074.54
515.65	1068.92
516.01	1056.99
516.37	1058.39
516.73	1070.09
517.08	1075.48
517.44	1085.07
517.80	1099.82
518.16	1096.78
518.51	1083.43
518.87	1084.37
519.23	1079.69
519.59	1083.43
519.94	1083.90
520.30	1095.84
520.66	1098.41
521.01	1090.46
521.37	1081.80
521.73	1086.48
522.09	1084.14
522.44	1078.28
522.80	1087.18
523.16	1094.43
523.51	1089.52
523.87	1091.86
524.23	1092.09
524.58	1096.07
524.94	1084.37
525.30	1092.33
525.65	1088.82
526.01	1090.22
526.37	1087.41
526.72	1099.35
527.08	1086.71
527.44	1088.35
527.79	1089.99
528.15	1092.33
528.51	1087.41
528.86	1091.16
529.22	1089.52
529.58	1087.65
529.93	1085.77
530.29	1075.71
530.65	1081.09
531.00	1086.94
531.36	1080.86
531.71	1075.71
532.07	1087.18
532.43	1087.65
532.78	1081.80
533.14	1092.33
533.49	1093.97
533.85	1091.39
534.21	1083.90
534.56	1078.28
534.92	1075.71
535.27	1074.54
535.63	1073.84
535.98	1081.09
536.34	1095.37
536.69	1091.63
537.05	1085.07
537.41	1086.94
537.76	1071.50
538.12	1074.31
538.47	1079.46
538.83	1087.88
539.18	1081.56
539.54	1089.99
539.89	1080.16
540.25	1067.05
540.60	1068.92
540.96	1075.71
541.31	1078.52
541.67	1086.01
542.02	1100.05
542.38	1098.65
542.73	1105.67
543.09	1108.24
543.44	1096.78
543.80	1090.46
544.15	1091.39
544.51	1087.65
544.86	1089.75
545.22	1093.26
545.57	1089.99
545.93	1095.84
546.28	1090.46
546.64	1087.18
546.99	1087.18
547.35	1097.71
547.70	1092.09
548.05	1093.26
548.41	1086.24
548.76	1087.88
549.12	1077.82
549.47	1072.90
549.83	1072.20
550.18	1075.48
550.53	1072.90
550.89	1078.05
551.24	1083.43
551.60	1086.94
551.95	1084.14
552.30	1085.77
552.66	1080.16
553.01	1074.54
553.37	1066.82
553.72	1071.26
554.07	1067.99
554.43	1075.01
554.78	1082.73
555.13	1084.14
555.49	1083.67
555.84	1085.54
556.19	1081.09
556.55	1067.52
556.90	1083.90
557.26	1079.92
557.61	1078.28
557.96	1083.67
558.32	1091.39
558.67	1074.07
559.02	1070.09
559.37	1074.54
559.73	1076.41
560.08	1074.31
560.43	1077.35
560.79	1079.22
561.14	1079.92
561.49	1078.28
561.85	1073.37
562.20	1070.80
562.55	1070.33
562.90	1064.71
563.26	1064.71
563.61	1071.73
563.96	1081.33
564.32	1086.94
564.67	1093.97
565.02	1102.63
565.37	1097.01
565.73	1091.63
566.08	1101.46
566.43	1096.31
566.78	1072.90
567.14	1076.65
567.49	1077.58
567.84	1066.82
568.19	1067.05
568.54	1082.97
568.90	1088.12
569.25	1090.69
569.60	1096.07
569.95	1088.58
570.31	1086.94
570.66	1087.65
571.01	1082.73
571.36	1080.16
571.71	1084.60
572.06	1082.97
572.42	1076.41
572.77	1073.60
573.12	1074.77
573.47	1078.28
573.82	1069.16
574.18	1073.84
574.53	1077.11
574.88	1079.92
575.23	1078.28
575.58	1084.14
575.93	1096.78
576.28	1098.65
576.64	1100.75
576.99	1107.54
577.34	1111.75
577.69	1101.22
578.04	1096.78
578.39	1084.84
578.74	1088.58
579.09	1078.52
579.44	1079.22
579.80	1079.46
580.15	1088.12
580.50	1076.41
580.85	1087.41
581.20	1082.03
581.55	1086.48
581.90	1088.12
582.25	1091.86
582.60	1094.43
582.95	1095.14
583.30	1091.39
583.65	1084.37
584.00	1083.43
584.35	1072.43
584.71	1082.26
585.06	1084.37
585.41	1089.52
585.76	1089.29
586.11	1099.12
586.46	1089.05
586.81	1090.22
587.16	1092.56
587.51	1092.09
587.86	1090.92
588.21	1093.03
588.56	1097.71
588.91	1092.33
589.26	1086.71
589.61	1076.88
589.96	1074.31
590.31	1074.07
590.66	1071.97
591.01	1079.69
591.36	1087.88
591.71	1094.20
592.06	1091.16
592.41	1097.24
592.76	1088.12
593.10	1072.90
593.45	1072.90
593.80	1070.33
594.15	1061.43
594.50	1064.71
594.85	1078.99
595.20	1075.71
595.55	1069.39
595.90	1083.20
596.25	1091.86
596.60	1091.39
596.95	1087.88
597.30	1093.97
597.64	1134.69
597.99	1130.01
598.34	1134.46
598.69	1141.01
599.04	1141.95
599.39	1086.94
599.74	1080.63
600.09	1069.86
600.44	1069.39
600.78	1069.62
601.13	1075.01
601.48	1074.77
601.83	1076.41
602.18	1077.35
602.53	1078.99
602.88	1075.71
603.22	1086.94
603.57	1096.54
603.92	1093.26
604.27	1083.67
604.62	1077.82
604.97	1077.82
605.31	1074.31
605.66	1066.58
606.01	1075.94
606.36	1082.73
606.71	1083.20
607.05	1083.90
607.40	1094.90
607.75	1095.60
608.10	1101.46
608.44	1095.60
608.79	1098.18
609.14	1096.31
609.49	1091.39
609.84	1083.20
610.18	1092.33
610.53	1091.63
610.88	1089.29
611.23	1097.95
611.57	1098.88
611.92	1089.29
612.27	1092.09
612.62	1093.50
612.96	1088.58
613.31	1100.29
613.66	1094.90
614.00	1090.92
614.35	1093.73
614.70	1092.33
615.05	1078.28
615.39	1085.54
615.74	1077.82
616.09	1060.03
616.43	1058.62
616.78	1064.71
617.13	1071.97
617.47	1079.69
617.82	1093.73
618.17	1095.37
618.51	1095.37
618.86	1092.33
619.21	1092.09
619.55	1086.24
619.90	1094.90
620.25	1095.37
620.59	1090.69
620.94	1084.84
621.29	1091.16
621.63	1086.94
621.98	1083.20
622.32	1085.54
622.67	1089.99
623.02	1091.39
623.36	1092.09
623.71	1093.73
624.05	1092.56
624.40	1082.03
624.75	1067.52
625.09	1063.77
625.44	1061.90
625.78	1062.60
626.13	1070.09
626.48	1073.37
626.82	1064.71
627.17	1069.62
627.51	1071.73
627.86	1071.73
628.20	1077.35
628.55	1083.43
628.89	1079.22
629.24	1076.88
629.58	1082.97
629.93	1081.80
630.28	1089.75
630.62	1092.33
630.97	1090.22
631.31	1092.56
631.66	1091.39
632.00	1090.22
632.35	1083.43
632.69	1082.26
633.04	1088.58
633.38	1094.67
633.73	1075.24
634.07	1083.90
634.42	1088.35
634.76	1072.67
635.11	1073.84
635.45	1086.48
635.79	1075.71
636.14	1075.94
636.48	1070.56
636.83	1067.05
637.17	1060.73
637.52	1070.56
637.86	1067.52
638.21	1072.90
638.55	1072.67
638.89	1080.63
639.24	1082.97
639.58	1086.48
639.93	1089.29
640.27	1084.60
640.61	1084.60
640.96	1079.46
641.30	1068.92
641.65	1066.58
641.99	1073.60
642.33	1068.45
642.68	1069.39
643.02	1072.20
643.37	1062.60
643.71	1058.39
644.05	1062.14
644.40	1059.09
644.74	1063.07
645.08	1078.05
645.43	1074.54
645.77	1068.92
646.11	1073.60
646.46	1069.16
646.80	1060.03
647.14	1069.16
647.49	1066.35
647.83	1064.71
648.17	1067.75
648.52	1076.18
648.86	1078.75
649.20	1089.75
649.55	1089.29
649.89	1100.05
650.23	1101.46
650.57	1093.26
650.92	1092.56
651.26	1089.75
651.60	1077.11
651.95	1071.03
652.29	1076.65
652.63	1074.07
652.97	1075.48
653.32	1071.97
653.66	1082.03
654.00	1086.94
654.34	1085.54
654.69	1086.71
655.03	1105.67
655.37	1096.07
655.71	1086.24
656.05	1095.37
656.40	1090.69
656.74	1072.67
657.08	1065.41
657.42	1061.43
657.76	1056.28
658.11	1063.07
658.45	1069.86
658.79	1074.77
659.13	1083.67
659.47	1081.80
659.82	1068.92
660.16	1075.94
660.50	1083.67
660.84	1073.60
661.18	1074.77
661.52	1089.05
661.87	1076.18
662.21	1071.50
662.55	1081.80
662.89	1081.56
663.23	1081.80
663.57	1080.86
663.91	1083.20
664.25	1092.33
664.60	1102.86
664.94	1102.39
665.28	1109.41
665.62	1105.20
665.96	1088.82
666.30	1077.82
666.64	1079.92
666.98	1075.24
667.32	1082.97
667.66	1086.01
668.01	1085.07
668.35	1079.69
668.69	1089.52
669.03	1088.12
669.37	1093.97
669.71	1093.97
670.05	1097.48
670.39	1097.95
670.73	1101.46
671.07	1087.41
671.41	1085.31
671.75	1083.90
672.09	1081.56
672.43	1075.01
672.77	1086.24
673.11	1078.99
673.45	1067.52
673.79	1065.65
674.13	1062.60
674.47	1058.16
674.81	1062.37
675.15	1065.88
675.49	1062.84
675.83	1067.75
676.17	1076.65
676.51	1078.99
676.85	1093.73
677.19	1095.14
677.53	1092.56
677.87	1090.69
678.21	1090.92
678.55	1085.77
678.89	1092.56
679.23	1093.50
679.57	1083.90
679.90	1089.75
680.24	1083.67
680.58	1072.90
680.92	1080.63
681.26	1090.69
681.60	1085.07
681.94	1085.77
682.28	1093.50
682.62	1089.99
682.96	1077.58
683.29	1076.18
683.63	1075.01
683.97	1062.60
684.31	1057.69
684.65	1064.71
684.99	1073.84
685.33	1079.22
685.67	1081.33
686.00	1079.92
686.34	1083.90
686.68	1077.11
687.02	1061.43
687.36	1070.33
687.70	1070.56
688.03	1071.03
688.37	1073.60
688.71	1075.71
689.05	1073.37
689.39	1071.50
689.72	1074.31
690.06	1070.56
690.40	1087.65
690.74	1092.80
691.08	1099.58
691.41	1089.29
691.75	1097.24
692.09	1094.20
692.43	1088.58
692.76	1086.24
693.10	1083.67
693.44	1070.33
693.78	1067.99
694.11	1069.39
694.45	1056.99
694.79	1053.01
695.13	1072.67
695.46	1067.28
695.80	1068.69
696.14	1073.60
696.48	1086.01
696.81	1073.37
697.15	1082.50
697.49	1076.65
697.82	1078.99
698.16	1076.41
698.50	1074.07
698.83	1068.69
699.17	1070.09
699.51	1073.14
699.84	1082.50
700.18	1090.69
700.52	1086.94
700.85	1089.52
701.19	1090.92
701.53	1073.60
701.86	1072.67
702.20	1075.48
702.54	1073.60
702.87	1071.50
703.21	1081.09
703.55	1079.69
703.88	1084.60
704.22	1086.48
704.55	1094.43
704.89	1094.67
705.23	1100.05
705.56	1093.50
705.90	1096.54
706.23	1089.52
706.57	1081.56
706.91	1065.88
707.24	1080.86
707.58	1088.58
707.91	1089.75
708.25	1096.31
708.58	1105.20
708.92	1088.82
709.26	1084.60
709.59	1085.31
709.93	1079.46
710.26	1083.43
710.60	1091.39
710.93	1088.58
711.27	1092.80
711.60	1097.24
711.94	1089.05
712.27	1080.86
712.61	1077.11
712.94	1071.97
713.28	1071.73
713.61	1069.16
713.95	1078.52
714.28	1078.28
714.62	1074.07
714.95	1070.80
715.29	1082.50
715.62	1080.16
715.96	1086.01
716.29	1092.33
716.63	1101.69
716.96	1096.78
717.29	1096.78
717.63	1097.71
717.96	1100.99
718.30	1111.52
718.63	1109.65
718.97	1110.58
719.30	1111.52
719.63	1111.05
719.97	1097.71
720.30	1108.01
720.64	1100.99
720.97	1090.92
721.30	1072.90
721.64	1059.56
721.97	1050.90
722.31	1056.99
722.64	1061.67
722.97	1074.07
723.31	1088.35
723.64	1085.77
723.97	1083.67
724.31	1075.71
724.64	1080.16
724.98	1087.88
725.31	1097.01
725.64	1098.18
725.98	1105.90
726.31	1102.39
726.64	1086.94
726.97	1083.43
727.31	1084.84
727.64	1081.33
727.97	1081.09
728.31	1081.33
728.64	1074.54
728.97	1076.18
729.31	1076.41
729.64	1068.69
729.97	1074.31
730.30	1077.58
730.64	1073.37
730.97	1081.09
731.30	1087.65
731.63	1083.20
731.97	1076.41
732.30	1071.03
732.63	1069.16
732.96	1072.43
733.30	1069.62
733.63	1075.71
733.96	1086.94
734.29	1079.46
734.63	1076.18
734.96	1088.35
735.29	1085.54
735.62	1087.41
735.95	1084.37
736.29	1084.14
736.62	1068.22
736.95	1065.41
737.28	1061.67
737.61	1062.14
737.94	1060.50
738.28	1060.03
738.61	1071.73
738.94	1062.84
739.27	1079.69
739.60	1085.77
739.93	1090.46
740.27	1083.90
740.60	1094.67
740.93	1086.48
741.26	1082.97
741.59	1081.33
741.92	1086.48
742.25	1078.28
742.58	1074.54
742.91	1083.43
743.25	1083.90
743.58	1077.58
743.91	1087.88
744.24	1093.50
744.57	1092.09
744.90	1100.05
745.23	1099.12
745.56	1096.07
745.89	1088.12
746.22	1079.22
746.55	1078.52
746.88	1078.52
747.21	1072.90
747.54	1079.69
747.87	1085.77
748.20	1082.97
748.53	1089.29
748.87	1081.56
749.20	1072.67
749.53	1067.05
749.86	1068.69
750.19	1065.88
750.52	1066.35
750.85	1067.99
751.18	1069.62
751.51	1062.37
751.84	1054.41
752.16	1068.92
752.49	1072.20
752.82	1074.54
753.15	1085.31
753.48	1092.80
753.81	1097.95
754.14	1091.86
754.47	1083.43
754.80	1071.26
755.13	1066.35
755.46	1053.94
755.79	1053.71
756.12	1054.18
756.45	1054.88
756.78	1057.22
757.11	1060.03
757.43	1061.67
757.76	1073.60
758.09	1076.65
758.42	1078.05
758.75	1075.01
759.08	1076.18
759.41	1063.31
759.74	1064.01
760.07	1063.07
760.39	1060.96
760.72	1063.31
761.05	1060.50
761.38	1066.82
761.71	1070.09
762.04	1076.88
762.36	1084.14
762.69	1098.18
763.02	1093.50
763.35	1092.56
763.68	1085.77
764.01	1076.18
764.33	1073.14
764.66	1075.71
764.99	1077.82
765.32	1082.73
765.65	1085.07
765.97	1086.94
766.30	1084.37
766.63	1074.31
766.96	1080.63
767.28	1074.77
767.61	1070.56
767.94	1070.80
768.27	1086.71
768.59	1081.33
768.92	1082.50
769.25	1086.24
769.58	1085.31
769.90	1075.01
770.23	1070.09
770.56	1071.97
770.89	1067.52
771.21	1066.58
771.54	1069.39
771.87	1063.31
772.19	1068.45
772.52	1067.75
772.85	1066.11
773.17	1066.11
773.50	1082.73
773.83	1082.73
774.15	1077.82
774.48	1085.77
774.81	1087.65
775.13	1081.09
775.46	1079.92
775.79	1082.97
776.11	1077.35
776.44	1076.18
776.77	1077.11
777.09	1073.84
777.42	1077.58
777.74	1086.24
778.07	1090.92
778.40	1092.09
778.72	1099.12
779.05	1102.39
779.37	1100.29
779.70	1102.39
780.03	1098.18
780.35	1098.65
780.68	1094.90
781.00	1091.16
781.33	1083.90
781.65	1084.14
781.98	1075.24
782.31	1085.07
782.63	1083.67
782.96	1084.14
783.28	1089.52
783.61	1091.39
783.93	1085.07
784.26	1098.65
784.58	1106.14
784.91	1100.29
785.23	1098.88
785.56	1096.07
785.88	1081.33
786.21	1075.71
786.53	1075.01
786.86	1082.03
787.18	1084.60
787.51	1082.73
787.83	1084.84
788.16	1079.22
788.48	1072.43
788.81	1062.14
789.13	1060.73
789.46	1056.05
789.78	1061.43
790.10	1060.73
790.43	1073.60
790.75	1085.77
791.08	1082.50
791.40	1091.16
791.73	1097.24
792.05	1091.63
792.37	1087.65
792.70	1095.60
793.02	1089.05
793.35	1086.94
793.67	1088.82
793.99	1075.94
794.32	1078.75
794.64	1079.92
794.96	1075.71
795.29	1074.31
795.61	1086.71
795.93	1073.14
796.26	1076.65
796.58	1094.90
796.91	1087.18
797.23	1085.54
797.55	1093.26
797.87	1088.12
798.20	1070.09
798.52	1080.86
798.84	1078.05
799.17	1078.05
799.49	1086.01
799.81	1091.39
800.14	1084.84
800.46	1088.82
800.78	1089.52
801.10	1088.58
801.43	1093.50
801.75	1086.01
802.07	1074.77
802.40	1080.39
802.72	1071.73
803.04	1064.71
803.36	1084.14
803.69	1093.50
804.01	1083.67
804.33	1077.58
804.65	1070.33
804.97	1065.18
805.30	1066.35
805.62	1064.01
805.94	1073.14
806.26	1080.16
806.58	1084.84
806.91	1086.48
807.23	1093.97
807.55	1097.48
807.87	1103.33
808.19	1099.58
808.52	1103.56
808.84	1102.39
809.16	1102.63
809.48	1108.01
809.80	1112.92
810.12	1112.92
810.44	1109.88
810.77	1101.46
811.09	1092.09
811.41	1081.56
811.73	1074.07
812.05	1064.01
812.37	1073.37
812.69	1070.09
813.01	1071.97
813.33	1073.60
813.66	1082.26
813.98	1067.28
814.30	1075.48
814.62	1079.69
814.94	1075.24
815.26	1071.97
815.58	1080.39
815.90	1067.52
816.22	1053.01
816.54	1050.43
816.86	1051.13
817.18	1044.58
817.50	1054.41
817.82	1066.58
818.14	1074.07
818.46	1078.75
818.78	1088.82
819.10	1088.35
819.42	1077.11
819.74	1078.99
820.06	1077.35
820.38	1070.56
820.70	1062.14
821.02	1071.97
821.34	1067.52
821.66	1068.45
821.98	1079.69
822.30	1087.65
822.62	1086.01
822.94	1100.75
823.26	1098.18
823.58	1084.60
823.90	1078.52
824.22	1075.48
824.54	1065.88
824.86	1061.90
825.18	1074.54
825.50	1080.86
825.81	1072.90
826.13	1069.62
826.45	1079.22
826.77	1070.09
827.09	1069.86
827.41	1082.97
827.73	1081.09
828.05	1084.37
828.36	1085.54
828.68	1085.54
829.00	1095.14
829.32	1101.92
829.64	1096.54
829.96	1104.50
830.28	1093.26
830.59	1080.39
830.91	1079.22
831.23	1077.11
831.55	1064.48
831.87	1078.05
832.19	1078.05
832.50	1079.46
832.82	1078.75
833.14	1075.71
833.46	1067.99
833.78	1068.22
834.09	1068.69
834.41	1071.26
834.73	1082.97
835.05	1084.60
835.36	1086.48
835.68	1079.92
836.00	1079.92
836.32	1077.58
836.63	1084.14
836.95	1081.09
837.27	1077.82
837.59	1079.46
837.90	1075.24
838.22	1076.18
838.54	1080.63
838.85	1085.07
839.17	1090.46
839.49	1094.20
839.80	1083.67
840.12	1079.92
840.44	1077.35
840.76	1069.62
841.07	1074.77
841.39	1085.31
841.71	1091.16
842.02	1087.41
842.34	1086.24
842.65	1078.52
842.97	1075.24
843.29	1070.56
843.60	1081.56
843.92	1082.26
844.24	1078.99
844.55	1088.35
844.87	1086.01
845.18	1075.24
845.50	1076.18
845.82	1077.82
846.13	1070.33
846.45	1073.14
846.76	1082.26
847.08	1081.09
847.40	1088.12
847.71	1088.12
848.03	1092.80
848.34	1098.18
848.66	1098.41
848.97	1090.22
849.29	1081.09
849.60	1078.05
849.92	1067.75
850.24	1060.73
850.55	1058.86
850.87	1064.94
851.18	1055.11
851.50	1043.88
851.81	1057.22
852.13	1066.82
852.44	1062.60
852.76	1064.71
853.07	1080.86
853.39	1073.37
853.70	1082.97
854.01	1082.26
854.33	1091.63
854.64	1086.24
854.96	1085.54
855.27	1074.54
855.59	1077.35
855.90	1077.58
856.22	1084.37
856.53	1089.75
856.84	1089.99
857.16	1086.24
857.47	1078.52
857.79	1070.80
858.10	1067.52
858.41	1069.39
858.73	1082.26
859.04	1089.75
859.36	1095.37
859.67	1096.31
859.98	1093.50
860.30	1091.16
860.61	1082.73
860.92	1081.80
861.24	1078.99
861.55	1079.69
861.87	1070.80
862.18	1083.20
862.49	1090.92
862.81	1096.78
863.12	1087.41
863.43	1090.69
863.74	1078.28
864.06	1075.01
864.37	1071.26
864.68	1079.92
865.00	1073.60
865.31	1080.16
865.62	1069.16
865.94	1066.58
866.25	1062.84
866.56	1062.14
866.87	1045.28
867.19	1051.84
867.50	1056.75
867.81	1056.28
868.12	1067.75
868.44	1084.60
868.75	1071.03
869.06	1069.39
869.37	1075.71
869.68	1057.22
870.00	1055.58
870.31	1059.79
870.62	1059.79
870.93	1064.48
871.24	1073.84
871.56	1074.77
871.87	1087.88
872.18	1089.05
872.49	1086.71
872.80	1089.29
873.12	1088.35
873.43	1088.58
873.74	1082.50
874.05	1073.37
874.36	1077.82
874.67	1071.97
874.98	1062.84
875.29	1070.09
875.61	1077.11
875.92	1068.92
876.23	1072.43
876.54	1078.75
876.85	1072.90
877.16	1068.22
877.47	1086.48
877.78	1090.46
878.09	1089.05
878.40	1095.14
878.72	1101.69
879.03	1083.90
879.34	1075.71
879.65	1086.24
879.96	1085.54
880.27	1089.05
880.58	1099.35
880.89	1096.54
881.20	1080.39
881.51	1083.20
881.82	1076.88
882.13	1077.11
882.44	1078.28
882.75	1089.05
883.06	1080.86
883.37	1079.46
883.68	1066.82
883.99	1075.48
884.30	1067.75
884.61	1069.86
884.92	1067.28
885.23	1077.58
885.54	1093.26
885.85	1088.82
886.16	1086.94
886.47	1084.60
886.78	1081.09
887.08	1062.60
887.39	1065.88
887.70	1068.92
888.01	1072.20
888.32	1078.28
888.63	1086.94
888.94	1092.80
889.25	1097.48
889.56	1099.82
889.87	1087.88
890.17	1083.90
890.48	1086.94
890.79	1073.84
891.10	1067.99
891.41	1069.86
891.72	1066.58
892.03	1058.86
892.34	1071.97
892.64	1080.16
892.95	1085.31
893.26	1082.03
893.57	1070.56
893.88	1067.28
894.18	1058.86
894.49	1055.58
894.80	1060.96
895.11	1073.37
895.42	1077.35
895.72	1083.20
896.03	1094.90
896.34	1099.12
896.65	1093.03
896.96	1084.60
897.26	1086.24
897.57	1074.54
897.88	1070.09
898.19	1075.24
898.49	1089.29
898.80	1085.07
899.11	1090.22
899.41	1092.33
899.72	1100.29
900.03	1095.84
900.34	1099.82
900.64	1099.58
900.95	1093.26
901.26	1087.65
901.56	1075.01
901.87	1074.31
902.18	1066.35
902.48	1059.79
902.79	1056.52
903.10	1067.05
903.40	1073.60
903.71	1086.71
904.02	1094.20
904.32	1101.22
904.63	1097.71
904.94	1092.56
905.24	1079.92
905.55	1081.80
905.85	1077.58
906.16	1090.92
906.47	1094.43
906.77	1100.29
907.08	1100.75
907.38	1096.07
907.69	1078.28
908.00	1079.69
908.30	1084.14
908.61	1086.01
908.91	1090.46
909.22	1097.24
909.52	1087.18
909.83	1082.73
910.14	1089.29
910.44	1088.12
910.75	1086.71
911.05	1093.50
911.36	1090.46
911.66	1075.94
911.97	1077.11
912.27	1079.46
912.58	1084.84
912.88	1093.03
913.19	1097.95
913.49	1100.52
913.80	1102.39
914.10	1095.60
914.41	1084.14
914.71	1092.80
915.01	1099.35
915.32	1093.26
915.62	1095.60
915.93	1100.99
916.23	1089.75
916.54	1083.67
916.84	1082.50
917.15	1078.75
917.45	1079.69
917.75	1088.12
918.06	1088.35
918.36	1085.31
918.67	1079.46
918.97	1088.82
919.27	1087.18
919.58	1078.52
919.88	1076.65
920.18	1074.07
920.49	1065.18
920.79	1061.90
921.10	1070.09
921.40	1073.14
921.70	1077.82
922.01	1072.90
922.31	1074.54
922.61	1074.77
922.92	1075.48
923.22	1074.07
923.52	1086.24
923.82	1091.39
924.13	1085.31
924.43	1083.43
924.73	1081.33
925.04	1071.50
925.34	1064.01
925.64	1063.77
925.94	1079.22
926.25	1084.37
926.55	1087.65
926.85	1086.48
927.15	1084.84
927.46	1071.73
927.76	1070.80
928.06	1070.09
928.36	1062.60
928.67	1070.09
928.97	1067.52
929.27	1071.26
929.57	1074.77
929.87	1087.88
930.18	1085.54
930.48	1085.07
930.78	1089.99
931.08	1089.75
931.38	1076.18
931.69	1075.01
931.99	1079.46
932.29	1069.39
932.59	1067.99
932.89	1081.09
933.19	1084.14
933.49	1084.60
933.80	1080.39
934.10	1072.43
934.40	1062.60
934.70	1063.54
935.00	1057.22
935.30	1065.18
935.60	1071.26
935.90	1082.73
936.20	1078.05
936.50	1079.92
936.81	1077.11
937.11	1072.20
937.41	1069.16
937.71	1070.56
938.01	1073.14
938.31	1081.33
938.61	1072.20
938.91	1074.77
939.21	1083.43
939.51	1079.46
939.81	1072.90
940.11	1093.73
940.41	1089.05
940.71	1089.99
941.01	1100.29
941.31	1102.16
941.61	1098.88
941.91	1108.24
942.21	1102.86
942.51	1097.71
942.81	1083.67
943.11	1078.05
943.41	1070.33
943.71	1058.16
944.01	1057.45
944.31	1067.28
944.61	1069.16
944.90	1064.94
945.20	1072.20
945.50	1075.01
945.80	1088.12
946.10	1081.80
946.40	1081.80
946.70	1084.14
947.00	1092.56
947.30	1087.41
947.60	1095.84
947.89	1112.22
948.19	1116.44
948.49	1107.78
948.79	1097.24
949.09	1088.82
949.39	1071.26
949.69	1068.69
949.98	1070.09
950.28	1077.82
950.58	1081.80
950.88	1092.09
951.18	1093.26
951.48	1089.05
951.77	1086.24
952.07	1087.88
952.37	1081.56
952.67	1084.14
952.97	1075.71
953.26	1074.07
953.56	1079.46
953.86	1080.16
954.16	1074.54
954.45	1080.39
954.75	1084.60
955.05	1077.58
955.35	1083.90
955.64	1084.84
955.94	1089.52
956.24	1086.01
956.54	1082.03
956.83	1069.62
957.13	1074.77
957.43	1089.75
957.72	1093.73
958.02	1097.01
958.32	1105.67
958.61	1091.39
958.91	1073.60
959.21	1080.16
959.50	1091.63
959.80	1089.05
960.10	1084.60
960.39	1081.33
960.69	1071.26
960.99	1067.52
961.28	1057.69
961.58	1073.84
961.87	1075.94
962.17	1072.67
962.47	1064.48
962.76	1077.35
963.06	1078.05
963.36	1082.03
963.65	1087.41
963.95	1077.11
964.24	1072.67
964.54	1065.88
964.83	1064.24
965.13	1066.82
965.42	1072.43
965.72	1075.01
966.02	1075.24
966.31	1074.07
966.61	1075.01
966.90	1082.03
967.20	1082.03
967.49	1088.58
967.79	1090.46
968.08	1088.12
968.38	1087.18
968.67	1090.46
968.97	1091.39
969.26	1097.95
969.56	1103.80
969.85	1097.95
970.15	1093.26
970.44	1086.24
970.74	1081.09
971.03	1072.67
971.32	1082.03
971.62	1079.22
971.91	1075.24
972.21	1072.20
972.50	1081.80
972.80	1081.56
973.09	1080.63
973.38	1078.75
973.68	1082.03
973.97	1074.07
974.27	1073.60
974.56	1073.14
974.85	1083.43
975.15	1084.84
975.44	1078.52
975.73	1082.03
976.03	1083.67
976.32	1080.16
976.61	1083.20
976.91	1093.73
977.20	1086.71
977.49	1084.14
977.79	1081.56
978.08	1087.88
978.37	1082.97
978.67	1079.46
978.96	1083.90
979.25	1078.05
979.55	1064.94
979.84	1061.90
980.13	1076.88
980.42	1086.01
980.72	1096.78
981.01	1105.90
981.30	1104.03
981.59	1085.07
981.89	1075.24
982.18	1073.60
982.47	1057.69
982.76	1075.48
983.06	1085.07
983.35	1088.35
983.64	1082.73
983.93	1095.14
984.22	1088.82
984.52	1089.29
984.81	1085.54
985.10	1101.46
985.39	1093.26
985.68	1087.41
985.97	1088.12
986.27	1089.52
986.56	1071.97
986.85	1072.90
987.14	1065.88
987.43	1056.05
987.72	1060.50
988.01	1060.50
988.31	1060.26
988.60	1068.92
988.89	1078.52
989.18	1079.22
989.47	1076.88
989.76	1072.90
990.05	1072.20
990.34	1071.97
990.63	1070.33
990.92	1084.37
991.21	1088.82
991.51	1090.22
991.80	1092.80
992.09	1083.90
992.38	1073.37
992.67	1077.82
992.96	1073.14
993.25	1075.01
993.54	1073.60
993.83	1082.97
994.12	1074.77
994.41	1075.01
994.70	1074.07
994.99	1085.77
995.28	1082.97
995.57	1085.07
995.86	1087.18
996.15	1079.46
996.44	1068.22
996.73	1061.90
997.02	1069.86
997.31	1070.09
997.59	1071.50
997.88	1066.58
998.17	1064.48
998.46	1062.14
998.75	1060.50
999.04	1062.37
999.33	1068.22
999.62	1069.86
999.91	1066.35
1000.20	1067.99
1000.49	1066.82
1000.77	1070.33
1001.06	1075.71
1001.35	1082.73
1001.64	1084.14
1001.93	1086.94
1002.22	1086.48
1002.51	1084.84
1002.79	1080.39
1003.08	1073.60
1003.37	1064.94
1003.66	1066.82
1003.95	1064.71
1004.23	1069.62
1004.52	1083.90
1004.81	1077.11
1005.10	1080.86
1005.39	1084.84
1005.67	1072.20
1005.96	1064.94
1006.25	1089.75
1006.54	1088.35
1006.83	1086.94
1007.11	1090.69
1007.40	1082.03
1007.69	1071.97
1007.97	1060.73
1008.26	1063.07
1008.55	1053.24
1008.84	1060.26
1009.12	1066.58
1009.41	1078.05
1009.70	1075.71
1009.98	1093.73
1010.27	1097.24
1010.56	1093.26
1010.85	1088.35
1011.13	1087.88
1011.42	1086.24
1011.71	1079.22
1011.99	1083.43
1012.28	1083.20
1012.56	1086.94
1012.85	1082.97
1013.14	1089.52
1013.42	1084.37
1013.71	1087.65
1014.00	1086.48
1014.28	1081.33
1014.57	1074.54
1014.85	1075.24
1015.14	1076.65
1015.43	1077.82
1015.71	1082.97
1016.00	1080.16
1016.28	1078.28
1016.57	1082.97
1016.85	1093.97
1017.14	1103.33
1017.43	1105.90
1017.71	1111.99
1018.00	1094.67
1018.28	1085.31
1018.57	1092.33
1018.85	1092.33
1019.14	1089.52
1019.42	1104.97
1019.71	1101.46
1019.99	1084.84
1020.28	1091.86
1020.56	1088.82
1020.85	1078.75
1021.13	1079.69
1021.42	1087.41
1021.70	1088.12
1021.99	1087.65
1022.27	1092.56
1022.55	1083.67
1022.84	1076.65
>>>>>End Processed Spectral Data<<<<<
