SpectraSuite Data File
++++++++++++++++++++++++++++++++++++
Date: Mon Aug 26 10:25:48 PDT 2019
User: corrico
Dark Spectrum Present: No
Reference Spectrum Present: No
Number of Sampled Component Spectra: 1
Spectrometers: USB2+H06089
Integration Time (usec): 10000 (USB2+H06089)
Spectra Averaged: 2 (USB2+H06089)
Boxcar Smoothing: 2 (USB2+H06089)
Correct for Electrical Dark: No (USB2+H06089)
Strobe/Lamp Enabled: No (USB2+H06089)
Correct for Detector Non-linearity: No (USB2+H06089)
Correct for Stray Light: No (USB2+H06089)
Number of Pixels in Processed Spectrum: 2048
>>>>>Begin Processed Spectral Data<<<<<
339.70	1045.05
340.07	1045.05
340.45	994.96
340.82	966.88
341.19	944.17
341.57	919.36
341.94	912.57
342.31	908.13
342.69	909.06
343.06	901.11
343.43	895.72
343.81	897.36
344.18	892.21
344.55	893.15
344.93	895.25
345.30	905.55
345.67	919.36
346.04	926.62
346.42	924.98
346.79	927.79
347.16	935.04
347.54	939.73
347.91	952.60
348.28	979.28
348.65	997.77
349.03	1001.28
349.40	1010.18
349.77	1009.71
350.14	1005.26
350.52	1022.35
350.89	1031.71
351.26	1036.16
351.63	1052.77
352.01	1060.73
352.38	1045.52
352.75	1053.94
353.12	1060.26
353.50	1064.48
353.87	1070.09
354.24	1076.65
354.61	1069.16
354.98	1076.65
355.36	1083.43
355.73	1089.29
356.10	1088.12
356.47	1100.99
356.84	1099.82
357.22	1095.84
357.59	1082.03
357.96	1084.60
358.33	1073.37
358.70	1062.60
359.08	1065.65
359.45	1070.56
359.82	1072.20
360.19	1075.01
360.56	1068.45
360.94	1062.37
361.31	1057.69
361.68	1063.07
362.05	1056.05
362.42	1076.18
362.79	1072.67
363.16	1083.90
363.54	1078.05
363.91	1086.24
364.28	1078.52
364.65	1081.56
365.02	1083.43
365.39	1077.58
365.76	1072.90
366.14	1070.09
366.51	1063.31
366.88	1052.77
367.25	1064.24
367.62	1068.45
367.99	1067.05
368.36	1069.62
368.73	1066.82
369.10	1061.43
369.48	1061.90
369.85	1059.09
370.22	1060.26
370.59	1058.39
370.96	1054.18
371.33	1051.84
371.70	1050.90
372.07	1059.79
372.44	1064.24
372.81	1067.28
373.18	1066.58
373.55	1063.31
373.93	1056.75
374.30	1053.48
374.67	1055.35
375.04	1061.20
375.41	1068.92
375.78	1067.05
376.15	1066.35
376.52	1058.86
376.89	1060.73
377.26	1058.86
377.63	1064.24
378.00	1068.92
378.37	1074.31
378.74	1069.16
379.11	1069.86
379.48	1063.07
379.85	1070.09
380.22	1065.18
380.59	1060.96
380.96	1063.07
381.33	1068.45
381.70	1065.41
382.07	1073.84
382.44	1076.18
382.81	1075.94
383.18	1078.28
383.55	1083.43
383.92	1076.41
384.29	1076.41
384.66	1077.11
385.03	1070.56
385.40	1057.45
385.77	1063.07
386.14	1064.71
386.51	1065.65
386.88	1063.31
387.25	1061.90
387.62	1068.92
387.99	1069.62
388.36	1065.41
388.73	1070.56
389.10	1086.94
389.46	1080.39
389.83	1079.69
390.20	1076.65
390.57	1071.73
390.94	1056.75
391.31	1055.58
391.68	1053.71
392.05	1058.16
392.42	1062.60
392.79	1069.62
393.16	1077.11
393.53	1081.33
393.89	1091.39
394.26	1092.33
394.63	1089.52
395.00	1087.88
395.37	1081.80
395.74	1076.18
396.11	1075.48
396.48	1079.92
396.84	1074.54
397.21	1072.90
397.58	1066.82
397.95	1063.31
398.32	1057.22
398.69	1056.28
399.06	1060.26
399.42	1067.99
399.79	1073.37
400.16	1072.43
400.53	1070.09
400.90	1071.50
401.27	1079.92
401.64	1083.67
402.00	1088.82
402.37	1091.16
402.74	1093.26
403.11	1079.22
403.48	1072.90
403.84	1067.52
404.21	1075.01
404.58	1087.18
404.95	1089.75
405.32	1094.20
405.68	1090.22
406.05	1082.26
406.42	1070.33
406.79	1071.26
407.16	1078.05
407.52	1084.37
407.89	1092.09
408.26	1082.73
408.63	1084.37
408.99	1072.43
409.36	1074.77
409.73	1081.56
410.10	1089.99
410.47	1083.20
410.83	1087.18
411.20	1082.03
411.57	1072.43
411.94	1071.26
412.30	1068.92
412.67	1067.99
413.04	1082.26
413.40	1082.26
413.77	1088.58
414.14	1093.97
414.51	1096.31
414.87	1083.20
415.24	1081.56
415.61	1073.84
415.97	1078.52
416.34	1076.41
416.71	1078.05
417.08	1080.63
417.44	1082.03
417.81	1079.92
418.18	1075.71
418.54	1082.73
418.91	1078.28
419.28	1074.31
419.64	1057.22
420.01	1063.54
420.38	1051.37
420.74	1060.96
421.11	1068.45
421.48	1089.05
421.84	1083.67
422.21	1096.07
422.58	1082.50
422.94	1080.39
423.31	1075.01
423.68	1074.31
424.04	1077.82
424.41	1088.35
424.77	1084.37
425.14	1082.26
425.51	1089.29
425.87	1085.07
426.24	1086.24
426.61	1093.26
426.97	1097.95
427.34	1093.73
427.70	1092.09
428.07	1093.50
428.44	1093.03
428.80	1089.29
429.17	1082.50
429.53	1071.26
429.90	1061.67
430.27	1060.96
430.63	1068.45
431.00	1069.62
431.36	1082.97
431.73	1089.52
432.09	1087.41
432.46	1071.73
432.83	1075.71
433.19	1068.69
433.56	1068.45
433.92	1063.31
434.29	1067.75
434.65	1078.99
435.02	1070.33
435.38	1059.33
435.75	1059.09
436.11	1056.99
436.48	1060.96
436.84	1077.11
437.21	1081.80
437.57	1088.82
437.94	1102.63
438.30	1096.54
438.67	1095.60
439.03	1096.78
439.40	1088.82
439.76	1073.84
440.13	1071.50
440.49	1063.54
440.86	1060.50
441.22	1070.09
441.59	1083.90
441.95	1082.73
442.32	1086.71
442.68	1084.14
443.05	1075.24
443.41	1064.48
443.78	1065.65
444.14	1064.24
444.51	1068.45
444.87	1074.31
445.24	1078.05
445.60	1073.60
445.96	1077.11
446.33	1074.54
446.69	1080.86
447.06	1090.46
447.42	1087.88
447.79	1093.73
448.15	1094.90
448.51	1087.41
448.88	1074.07
449.24	1075.48
449.61	1068.92
449.97	1075.01
450.33	1076.65
450.70	1082.50
451.06	1078.75
451.43	1085.77
451.79	1084.37
452.15	1088.35
452.52	1086.48
452.88	1089.29
453.24	1087.65
453.61	1091.16
453.97	1081.80
454.34	1078.99
454.70	1083.20
455.06	1077.82
455.43	1078.75
455.79	1075.94
456.15	1080.39
456.52	1069.62
456.88	1069.16
457.24	1053.48
457.61	1054.18
457.97	1057.22
458.33	1069.39
458.70	1062.14
459.06	1075.24
459.42	1079.92
459.79	1077.82
460.15	1068.45
460.51	1079.22
460.88	1072.43
461.24	1073.14
461.60	1065.88
461.96	1074.54
462.33	1070.80
462.69	1067.99
463.05	1066.58
463.42	1069.86
463.78	1066.82
464.14	1056.52
464.50	1066.35
464.87	1071.26
465.23	1075.24
465.59	1072.90
465.95	1088.82
466.32	1082.73
466.68	1079.46
467.04	1082.26
467.40	1082.03
467.77	1073.60
468.13	1074.31
468.49	1071.50
468.85	1060.96
469.22	1053.48
469.58	1055.35
469.94	1062.84
470.30	1056.05
470.66	1054.88
471.03	1057.92
471.39	1059.09
471.75	1055.82
472.11	1056.05
472.47	1067.28
472.84	1074.31
473.20	1063.07
473.56	1055.35
473.92	1061.20
474.28	1056.52
474.65	1056.52
475.01	1071.73
475.37	1072.90
475.73	1080.39
476.09	1081.33
476.45	1086.24
476.81	1079.92
477.18	1078.75
477.54	1068.69
477.90	1070.56
478.26	1061.43
478.62	1070.09
478.98	1081.80
479.34	1087.88
479.71	1086.94
480.07	1088.12
480.43	1090.69
480.79	1096.07
481.15	1098.65
481.51	1095.37
481.87	1095.37
482.23	1093.26
482.59	1093.97
482.96	1092.09
483.32	1088.12
483.68	1094.20
484.04	1086.48
484.40	1072.67
484.76	1079.92
485.12	1087.41
485.48	1087.18
485.84	1091.16
486.20	1082.50
486.56	1074.31
486.92	1075.94
487.28	1080.16
487.64	1076.65
488.00	1089.05
488.37	1091.39
488.73	1084.60
489.09	1069.39
489.45	1069.86
489.81	1059.79
490.17	1055.82
490.53	1060.96
490.89	1074.54
491.25	1083.90
491.61	1103.80
491.97	1107.07
492.33	1108.24
492.69	1095.37
493.05	1087.65
493.41	1078.75
493.77	1083.43
494.13	1084.84
494.49	1087.65
494.85	1085.07
495.21	1079.69
495.57	1075.71
495.93	1076.18
496.29	1081.33
496.64	1080.16
497.00	1080.63
497.36	1076.65
497.72	1075.48
498.08	1075.24
498.44	1080.16
498.80	1087.65
499.16	1091.63
499.52	1091.86
499.88	1098.18
500.24	1099.58
500.60	1094.43
500.96	1092.56
501.32	1089.99
501.68	1091.16
502.03	1083.67
502.39	1085.07
502.75	1086.94
503.11	1089.99
503.47	1075.24
503.83	1078.99
504.19	1075.24
504.55	1071.03
504.91	1071.50
505.26	1083.67
505.62	1083.20
505.98	1088.58
506.34	1103.80
506.70	1107.78
507.06	1098.65
507.42	1108.24
507.78	1105.20
508.13	1095.14
508.49	1088.58
508.85	1086.24
509.21	1071.73
509.57	1082.03
509.93	1083.90
510.28	1090.92
510.64	1100.75
511.00	1105.44
511.36	1097.48
511.72	1091.63
512.07	1085.07
512.43	1078.75
512.79	1082.97
513.15	1079.22
513.51	1072.43
513.86	1071.73
514.22	1077.58
514.58	1069.62
514.94	1067.99
515.30	1079.46
515.65	1084.14
516.01	1080.39
516.37	1099.82
516.73	1104.73
517.08	1107.78
517.44	1103.56
517.80	1107.78
518.16	1097.95
518.51	1092.80
518.87	1091.63
519.23	1096.54
519.59	1093.26
519.94	1084.84
520.30	1093.50
520.66	1086.24
521.01	1079.22
521.37	1080.39
521.73	1087.65
522.09	1083.20
522.44	1083.67
522.80	1085.77
523.16	1089.99
523.51	1091.16
523.87	1098.65
524.23	1100.29
524.58	1103.33
524.94	1097.01
525.30	1089.75
525.65	1082.26
526.01	1081.56
526.37	1080.39
526.72	1080.63
527.08	1082.26
527.44	1087.65
527.79	1102.63
528.15	1097.95
528.51	1093.26
528.86	1097.24
529.22	1096.54
529.58	1084.14
529.93	1086.01
530.29	1087.65
530.65	1083.67
531.00	1080.86
531.36	1075.24
531.71	1074.77
532.07	1088.12
532.43	1090.22
532.78	1095.84
533.14	1096.78
533.49	1101.46
533.85	1088.82
534.21	1092.33
534.56	1089.99
534.92	1089.29
535.27	1084.84
535.63	1087.88
535.98	1089.75
536.34	1083.90
536.69	1081.80
537.05	1082.26
537.41	1076.18
537.76	1062.14
538.12	1051.84
538.47	1060.73
538.83	1060.03
539.18	1067.75
539.54	1083.67
539.89	1093.73
540.25	1089.75
540.60	1089.99
540.96	1089.29
541.31	1080.86
541.67	1078.99
542.02	1083.67
542.38	1072.90
542.73	1059.09
543.09	1057.92
543.44	1055.35
543.80	1050.67
544.15	1067.05
544.51	1080.63
544.86	1080.86
545.22	1085.31
545.57	1089.29
545.93	1082.50
546.28	1083.67
546.64	1082.26
546.99	1086.24
547.35	1085.77
547.70	1081.56
548.05	1079.46
548.41	1081.56
548.76	1083.67
549.12	1088.12
549.47	1096.54
549.83	1093.03
550.18	1093.03
550.53	1093.73
550.89	1088.35
551.24	1083.90
551.60	1097.48
551.95	1091.16
552.30	1089.29
552.66	1082.03
553.01	1083.90
553.37	1074.54
553.72	1079.22
554.07	1073.14
554.43	1078.52
554.78	1081.33
555.13	1086.24
555.49	1091.39
555.84	1099.82
556.19	1090.92
556.55	1086.48
556.90	1083.67
557.26	1082.03
557.61	1075.71
557.96	1080.63
558.32	1082.03
558.67	1080.39
559.02	1072.90
559.37	1068.45
559.73	1072.90
560.08	1070.56
560.43	1063.77
560.79	1072.90
561.14	1087.18
561.49	1088.82
561.85	1102.39
562.20	1116.20
562.55	1120.65
562.90	1116.44
563.26	1112.92
563.61	1102.86
563.96	1085.77
564.32	1082.50
564.67	1075.71
565.02	1071.03
565.37	1068.92
565.73	1071.26
566.08	1066.11
566.43	1070.09
566.78	1076.88
567.14	1083.43
567.49	1089.05
567.84	1087.18
568.19	1088.35
568.54	1090.22
568.90	1083.20
569.25	1089.99
569.60	1100.75
569.95	1102.39
570.31	1098.18
570.66	1097.71
571.01	1089.29
571.36	1085.07
571.71	1086.48
572.06	1087.88
572.42	1088.12
572.77	1090.92
573.12	1086.71
573.47	1081.80
573.82	1072.67
574.18	1081.80
574.53	1080.63
574.88	1075.94
575.23	1075.71
575.58	1093.26
575.93	1089.29
576.28	1086.94
576.64	1081.09
576.99	1081.33
577.34	1068.45
577.69	1059.33
578.04	1071.03
578.39	1074.07
578.74	1058.62
579.09	1065.65
579.44	1071.73
579.80	1063.77
580.15	1067.28
580.50	1082.50
580.85	1078.28
581.20	1076.88
581.55	1068.22
581.90	1065.18
582.25	1060.50
582.60	1060.03
582.95	1055.11
583.30	1065.88
583.65	1077.11
584.00	1076.88
584.35	1077.11
584.71	1078.52
585.06	1072.67
585.41	1072.67
585.76	1074.54
586.11	1083.67
586.46	1086.01
586.81	1079.46
587.16	1076.18
587.51	1082.50
587.86	1073.60
588.21	1088.82
588.56	1097.01
588.91	1102.16
589.26	1089.75
589.61	1090.92
589.96	1084.14
590.31	1088.82
590.66	1082.03
591.01	1099.82
591.36	1102.39
591.71	1096.54
592.06	1094.90
592.41	1089.29
592.76	1074.77
593.10	1076.41
593.45	1069.16
593.80	1069.62
594.15	1075.48
594.50	1080.86
594.85	1081.33
595.20	1087.18
595.55	1077.35
595.90	1077.58
596.25	1078.52
596.60	1068.92
596.95	1069.39
597.30	1076.41
597.64	1131.65
597.99	1127.90
598.34	1135.63
598.69	1138.44
599.04	1136.80
599.39	1084.84
599.74	1086.01
600.09	1073.84
600.44	1076.88
600.78	1075.48
601.13	1071.97
601.48	1072.20
601.83	1075.94
602.18	1075.94
602.53	1082.26
602.88	1072.20
603.22	1064.01
603.57	1065.18
603.92	1054.88
604.27	1042.01
604.62	1048.79
604.97	1055.58
605.31	1066.11
605.66	1070.33
606.01	1077.58
606.36	1081.09
606.71	1082.26
607.05	1078.28
607.40	1074.77
607.75	1071.73
608.10	1070.33
608.44	1069.62
608.79	1069.39
609.14	1072.90
609.49	1080.16
609.84	1088.82
610.18	1087.88
610.53	1091.16
610.88	1104.50
611.23	1096.78
611.57	1098.65
611.92	1100.05
612.27	1097.95
612.62	1083.67
612.96	1094.43
613.31	1087.65
613.66	1081.56
614.00	1074.07
614.35	1071.73
614.70	1066.11
615.05	1056.52
615.39	1063.07
615.74	1067.05
616.09	1070.09
616.43	1084.14
616.78	1091.16
617.13	1089.99
617.47	1089.99
617.82	1092.33
618.17	1079.69
618.51	1084.84
618.86	1086.71
619.21	1096.78
619.55	1101.46
619.90	1104.26
620.25	1095.60
620.59	1091.39
620.94	1080.16
621.29	1081.80
621.63	1080.86
621.98	1079.69
622.32	1077.35
622.67	1082.26
623.02	1080.39
623.36	1083.43
623.71	1088.35
624.05	1094.20
624.40	1087.41
624.75	1079.22
625.09	1077.35
625.44	1072.90
625.78	1071.97
626.13	1076.65
626.48	1078.99
626.82	1072.90
627.17	1081.56
627.51	1085.07
627.86	1085.54
628.20	1086.71
628.55	1095.37
628.89	1100.52
629.24	1099.82
629.58	1095.37
629.93	1092.80
630.28	1092.80
630.62	1088.35
630.97	1090.22
631.31	1089.52
631.66	1089.75
632.00	1076.41
632.35	1075.24
632.69	1073.37
633.04	1077.82
633.38	1077.58
633.73	1087.88
634.07	1092.56
634.42	1087.88
634.76	1086.48
635.11	1086.71
635.45	1086.24
635.79	1075.71
636.14	1076.88
636.48	1085.31
636.83	1090.22
637.17	1087.41
637.52	1087.18
637.86	1081.09
638.21	1070.56
638.55	1060.03
638.89	1058.86
639.24	1065.88
639.58	1079.69
639.93	1075.94
640.27	1083.20
640.61	1089.75
640.96	1087.88
641.30	1081.80
641.65	1085.07
641.99	1086.71
642.33	1076.41
642.68	1072.20
643.02	1078.52
643.37	1080.86
643.71	1080.86
644.05	1084.84
644.40	1086.01
644.74	1079.92
645.08	1076.65
645.43	1070.33
645.77	1070.33
646.11	1059.33
646.46	1065.41
646.80	1075.71
647.14	1080.86
647.49	1082.97
647.83	1104.50
648.17	1098.18
648.52	1090.69
648.86	1091.39
649.20	1092.80
649.55	1074.77
649.89	1080.39
650.23	1080.39
650.57	1085.07
650.92	1086.48
651.26	1091.86
651.60	1091.39
651.95	1093.50
652.29	1083.90
652.63	1079.92
652.97	1084.84
653.32	1081.09
653.66	1084.84
654.00	1092.56
654.34	1092.33
654.69	1088.82
655.03	1089.75
655.37	1083.67
655.71	1073.84
656.05	1068.69
656.40	1076.65
656.74	1082.50
657.08	1084.84
657.42	1091.39
657.76	1097.48
658.11	1093.03
658.45	1084.60
658.79	1092.09
659.13	1086.01
659.47	1090.46
659.82	1091.63
660.16	1089.29
660.50	1077.35
660.84	1077.82
661.18	1068.22
661.52	1060.50
661.87	1061.20
662.21	1061.43
662.55	1063.07
662.89	1067.75
663.23	1060.03
663.57	1065.88
663.91	1075.71
664.25	1079.22
664.60	1082.97
664.94	1092.56
665.28	1094.43
665.62	1085.07
665.96	1080.86
666.30	1080.39
666.64	1081.09
666.98	1074.07
667.32	1079.92
667.66	1087.65
668.01	1086.94
668.35	1090.69
668.69	1084.60
669.03	1086.48
669.37	1077.58
669.71	1081.09
670.05	1073.14
670.39	1087.65
670.73	1077.35
671.07	1081.80
671.41	1078.05
671.75	1082.03
672.09	1079.46
672.43	1085.07
672.77	1078.05
673.11	1071.26
673.45	1073.37
673.79	1070.09
674.13	1063.07
674.47	1073.37
674.81	1089.29
675.15	1090.22
675.49	1097.24
675.83	1107.07
676.17	1104.97
676.51	1093.26
676.85	1097.48
677.19	1091.16
677.53	1089.29
677.87	1085.07
678.21	1087.88
678.55	1083.90
678.89	1084.14
679.23	1085.31
679.57	1089.99
679.90	1090.46
680.24	1094.20
680.58	1094.43
680.92	1091.63
681.26	1090.92
681.60	1089.29
681.94	1087.65
682.28	1082.26
682.62	1078.99
682.96	1070.09
683.29	1068.69
683.63	1065.88
683.97	1071.50
684.31	1075.71
684.65	1082.73
684.99	1082.50
685.33	1079.46
685.67	1074.77
686.00	1076.65
686.34	1068.92
686.68	1066.11
687.02	1067.99
687.36	1073.14
687.70	1072.43
688.03	1078.28
688.37	1082.73
688.71	1085.54
689.05	1078.75
689.39	1082.03
689.72	1078.75
690.06	1069.16
690.40	1072.90
690.74	1082.73
691.08	1081.09
691.41	1092.80
691.75	1108.24
692.09	1104.73
692.43	1099.58
692.76	1089.29
693.10	1086.01
693.44	1069.86
693.78	1070.33
694.11	1073.60
694.45	1082.73
694.79	1075.24
695.13	1075.24
695.46	1071.97
695.80	1071.50
696.14	1065.65
696.48	1066.82
696.81	1073.37
697.15	1074.54
697.49	1077.11
697.82	1085.07
698.16	1087.88
698.50	1092.09
698.83	1093.26
699.17	1081.33
699.51	1080.86
699.84	1077.11
700.18	1082.03
700.52	1084.37
700.85	1091.63
701.19	1086.71
701.53	1089.99
701.86	1079.92
702.20	1079.69
702.54	1067.28
702.87	1064.48
703.21	1067.05
703.55	1070.56
703.88	1064.94
704.22	1079.46
704.55	1088.12
704.89	1087.88
705.23	1091.86
705.56	1099.58
705.90	1097.71
706.23	1096.31
706.57	1086.71
706.91	1077.35
707.24	1082.50
707.58	1078.52
707.91	1081.33
708.25	1084.60
708.58	1076.88
708.92	1056.05
709.26	1060.50
709.59	1053.71
709.93	1058.39
710.26	1073.84
710.60	1087.65
710.93	1084.84
711.27	1084.84
711.60	1088.35
711.94	1092.56
712.27	1091.39
712.61	1088.35
712.94	1091.86
713.28	1095.60
713.61	1090.46
713.95	1084.84
714.28	1087.88
714.62	1090.22
714.95	1081.33
715.29	1078.28
715.62	1083.20
715.96	1085.54
716.29	1087.41
716.63	1087.41
716.96	1089.75
717.29	1091.39
717.63	1091.86
717.96	1081.56
718.30	1082.50
718.63	1086.48
718.97	1080.86
719.30	1076.88
719.63	1082.73
719.97	1082.73
720.30	1076.18
720.64	1082.97
720.97	1084.14
721.30	1077.35
721.64	1080.86
721.97	1085.77
722.31	1076.88
722.64	1077.11
722.97	1081.09
723.31	1075.71
723.64	1074.77
723.97	1070.80
724.31	1067.28
724.64	1071.73
724.98	1075.24
725.31	1069.39
725.64	1075.71
725.98	1080.63
726.31	1080.16
726.64	1080.86
726.97	1076.88
727.31	1083.20
727.64	1084.14
727.97	1076.18
728.31	1072.90
728.64	1081.33
728.97	1074.31
729.31	1072.20
729.64	1082.03
729.97	1092.33
730.30	1093.03
730.64	1103.09
730.97	1104.97
731.30	1101.22
731.63	1095.14
731.97	1098.41
732.30	1101.92
732.63	1093.03
732.96	1082.26
733.30	1081.33
733.63	1080.63
733.96	1069.16
734.29	1074.77
734.63	1082.26
734.96	1085.54
735.29	1071.26
735.62	1073.37
735.95	1070.09
736.29	1067.28
736.62	1055.58
736.95	1065.65
737.28	1057.69
737.61	1052.77
737.94	1056.52
738.28	1063.07
738.61	1066.58
738.94	1063.77
739.27	1070.56
739.60	1066.58
739.93	1065.41
740.27	1063.07
740.60	1078.28
740.93	1079.92
741.26	1082.50
741.59	1086.71
741.92	1087.41
742.25	1082.03
742.58	1079.46
742.91	1078.05
743.25	1074.07
743.58	1064.01
743.91	1059.56
744.24	1063.77
744.57	1073.37
744.90	1075.48
745.23	1080.86
745.56	1084.37
745.89	1080.39
746.22	1068.45
746.55	1060.96
746.88	1064.24
747.21	1054.65
747.54	1059.56
747.87	1073.37
748.20	1082.97
748.53	1080.39
748.87	1087.88
749.20	1092.56
749.53	1084.37
749.86	1080.39
750.19	1083.43
750.52	1082.50
750.85	1072.67
751.18	1070.56
751.51	1071.26
751.84	1068.22
752.16	1070.09
752.49	1073.37
752.82	1080.16
753.15	1086.01
753.48	1095.37
753.81	1103.33
754.14	1110.82
754.47	1110.35
754.80	1103.09
755.13	1093.26
755.46	1085.31
755.79	1082.73
756.12	1068.22
756.45	1074.77
756.78	1076.88
757.11	1077.11
757.43	1066.11
757.76	1071.97
758.09	1070.56
758.42	1071.97
758.75	1065.18
759.08	1069.86
759.41	1080.39
759.74	1069.86
760.07	1068.22
760.39	1077.58
760.72	1075.01
761.05	1069.86
761.38	1082.50
761.71	1090.69
762.04	1090.69
762.36	1093.50
762.69	1093.03
763.02	1093.97
763.35	1085.07
763.68	1078.28
764.01	1090.92
764.33	1093.03
764.66	1075.94
764.99	1076.41
765.32	1090.46
765.65	1081.33
765.97	1072.43
766.30	1070.09
766.63	1061.90
766.96	1047.86
767.28	1043.64
767.61	1059.33
767.94	1069.39
768.27	1081.33
768.59	1088.58
768.92	1086.48
769.25	1086.48
769.58	1090.92
769.90	1089.52
770.23	1087.88
770.56	1086.24
770.89	1077.58
771.21	1074.31
771.54	1086.01
771.87	1091.63
772.19	1091.63
772.52	1097.01
772.85	1113.16
773.17	1101.92
773.50	1097.01
773.83	1111.29
774.15	1101.92
774.48	1085.07
774.81	1078.75
775.13	1077.58
775.46	1068.45
775.79	1083.43
776.11	1093.50
776.44	1103.33
776.77	1094.43
777.09	1094.43
777.42	1075.48
777.74	1067.05
778.07	1060.26
778.40	1068.22
778.72	1063.07
779.05	1072.90
779.37	1066.35
779.70	1073.37
780.03	1076.88
780.35	1087.65
780.68	1085.77
781.00	1095.37
781.33	1089.52
781.65	1079.69
781.98	1075.24
782.31	1079.22
782.63	1080.39
782.96	1075.71
783.28	1084.14
783.61	1082.26
783.93	1073.84
784.26	1067.05
784.58	1073.14
784.91	1058.39
785.23	1058.39
785.56	1066.11
785.88	1065.18
786.21	1065.65
786.53	1081.56
786.86	1087.41
787.18	1089.75
787.51	1093.03
787.83	1086.01
788.16	1077.11
788.48	1071.26
788.81	1064.94
789.13	1068.22
789.46	1077.35
789.78	1095.37
790.10	1097.95
790.43	1097.24
790.75	1088.12
791.08	1078.99
791.40	1061.67
791.73	1057.45
792.05	1062.14
792.37	1072.43
792.70	1076.18
793.02	1078.99
793.35	1077.58
793.67	1067.75
793.99	1069.86
794.32	1068.92
794.64	1072.43
794.96	1072.43
795.29	1078.28
795.61	1069.86
795.93	1067.28
796.26	1063.77
796.58	1058.16
796.91	1066.11
797.23	1069.16
797.55	1070.80
797.87	1077.82
798.20	1088.12
798.52	1078.05
798.84	1076.18
799.17	1079.69
799.49	1076.18
799.81	1078.28
800.14	1084.14
800.46	1094.90
800.78	1089.05
801.10	1096.54
801.43	1102.39
801.75	1109.65
802.07	1097.95
802.40	1102.63
802.72	1089.99
803.04	1084.37
803.36	1076.88
803.69	1073.14
804.01	1078.05
804.33	1078.99
804.65	1074.77
804.97	1069.62
805.30	1081.56
805.62	1080.16
805.94	1082.73
806.26	1082.26
806.58	1081.09
806.91	1075.01
807.23	1074.54
807.55	1072.90
807.87	1080.86
808.19	1086.01
808.52	1086.24
808.84	1085.07
809.16	1084.60
809.48	1082.73
809.80	1083.90
810.12	1085.77
810.44	1087.65
810.77	1085.07
811.09	1081.33
811.41	1079.92
811.73	1073.60
812.05	1074.77
812.37	1087.65
812.69	1086.94
813.01	1089.52
813.33	1090.46
813.66	1080.63
813.98	1082.26
814.30	1079.46
814.62	1066.35
814.94	1067.52
815.26	1069.86
815.58	1065.88
815.90	1070.80
816.22	1083.43
816.54	1085.77
816.86	1097.48
817.18	1096.78
817.50	1096.54
817.82	1102.63
818.14	1107.78
818.46	1100.99
818.78	1101.22
819.10	1102.63
819.42	1097.48
819.74	1097.01
820.06	1094.20
820.38	1081.80
820.70	1078.05
821.02	1072.67
821.34	1064.01
821.66	1068.45
821.98	1074.31
822.30	1079.22
822.62	1078.75
822.94	1084.60
823.26	1089.75
823.58	1079.69
823.90	1073.37
824.22	1074.31
824.54	1072.20
824.86	1068.45
825.18	1079.92
825.50	1073.84
825.81	1084.14
826.13	1086.48
826.45	1085.54
826.77	1086.01
827.09	1093.26
827.41	1089.05
827.73	1099.35
828.05	1091.86
828.36	1078.05
828.68	1081.33
829.00	1075.94
829.32	1060.50
829.64	1066.11
829.96	1082.73
830.28	1083.20
830.59	1086.48
830.91	1091.86
831.23	1084.60
831.55	1075.94
831.87	1071.73
832.19	1064.71
832.50	1065.18
832.82	1072.67
833.14	1081.80
833.46	1087.65
833.78	1087.65
834.09	1089.52
834.41	1082.50
834.73	1079.46
835.05	1074.54
835.36	1074.07
835.68	1073.14
836.00	1080.63
836.32	1074.31
836.63	1066.35
836.95	1071.97
837.27	1072.67
837.59	1071.26
837.90	1087.88
838.22	1107.31
838.54	1107.31
838.85	1105.44
839.17	1100.05
839.49	1087.65
839.80	1068.92
840.12	1065.88
840.44	1066.35
840.76	1066.11
841.07	1068.45
841.39	1068.45
841.71	1081.80
842.02	1084.14
842.34	1078.75
842.65	1072.67
842.97	1076.65
843.29	1066.35
843.60	1060.96
843.92	1067.28
844.24	1078.75
844.55	1084.60
844.87	1081.09
845.18	1082.50
845.50	1084.60
845.82	1079.22
846.13	1081.56
846.45	1082.26
846.76	1076.65
847.08	1083.90
847.40	1082.03
847.71	1083.67
848.03	1084.14
848.34	1093.03
848.66	1090.22
848.97	1091.63
849.29	1082.97
849.60	1074.77
849.92	1063.54
850.24	1060.50
850.55	1059.79
850.87	1063.54
851.18	1070.09
851.50	1074.07
851.81	1076.41
852.13	1074.07
852.44	1069.86
852.76	1076.18
853.07	1075.24
853.39	1073.14
853.70	1070.33
854.01	1070.56
854.33	1069.16
854.64	1078.99
854.96	1082.50
855.27	1097.01
855.59	1105.90
855.90	1108.95
856.22	1102.39
856.53	1099.12
856.84	1094.20
857.16	1091.39
857.47	1091.39
857.79	1089.99
858.10	1091.86
858.41	1087.41
858.73	1084.37
859.04	1074.07
859.36	1076.88
859.67	1078.99
859.98	1080.16
860.30	1073.37
860.61	1077.35
860.92	1078.05
861.24	1075.48
861.55	1078.75
861.87	1087.88
862.18	1085.31
862.49	1086.48
862.81	1084.84
863.12	1078.05
863.43	1074.07
863.74	1085.77
864.06	1089.29
864.37	1085.77
864.68	1093.50
865.00	1100.05
865.31	1075.71
865.62	1072.20
865.94	1078.28
866.25	1078.28
866.56	1070.80
866.87	1087.88
867.19	1088.12
867.50	1093.97
867.81	1087.18
868.12	1079.69
868.44	1075.71
868.75	1067.99
869.06	1066.82
869.37	1076.88
869.68	1091.86
870.00	1105.67
870.31	1126.03
870.62	1118.54
870.93	1112.46
871.24	1108.01
871.56	1088.35
871.87	1080.63
872.18	1080.86
872.49	1076.65
872.80	1078.75
873.12	1090.69
873.43	1087.18
873.74	1093.50
874.05	1093.73
874.36	1093.97
874.67	1093.50
874.98	1092.80
875.29	1085.07
875.61	1089.99
875.92	1091.16
876.23	1089.05
876.54	1089.05
876.85	1089.75
877.16	1083.90
877.47	1087.88
877.78	1087.41
878.09	1089.99
878.40	1097.71
878.72	1105.90
879.03	1100.52
879.34	1098.88
879.65	1089.05
879.96	1083.90
880.27	1078.05
880.58	1083.43
880.89	1085.07
881.20	1097.71
881.51	1092.33
881.82	1088.12
882.13	1085.77
882.44	1089.29
882.75	1079.22
883.06	1079.22
883.37	1083.43
883.68	1072.43
883.99	1064.48
884.30	1068.45
884.61	1071.50
884.92	1069.39
885.23	1075.94
885.54	1079.46
885.85	1079.92
886.16	1079.92
886.47	1082.97
886.78	1079.92
887.08	1075.48
887.39	1070.80
887.70	1074.77
888.01	1073.14
888.32	1077.82
888.63	1093.03
888.94	1087.65
889.25	1092.09
889.56	1100.99
889.87	1107.07
890.17	1097.95
890.48	1113.63
890.79	1105.44
891.10	1101.46
891.41	1098.88
891.72	1097.24
892.03	1088.82
892.34	1091.16
892.64	1078.05
892.95	1061.67
893.26	1071.03
893.57	1069.86
893.88	1065.18
894.18	1084.14
894.49	1096.07
894.80	1089.99
895.11	1089.29
895.42	1078.52
895.72	1069.39
896.03	1068.22
896.34	1063.07
896.65	1063.31
896.96	1078.75
897.26	1073.14
897.57	1078.99
897.88	1078.75
898.19	1075.01
898.49	1070.33
898.80	1074.77
899.11	1071.73
899.41	1087.41
899.72	1094.20
900.03	1093.03
900.34	1096.78
900.64	1102.63
900.95	1096.78
901.26	1097.24
901.56	1108.48
901.87	1107.07
902.18	1103.33
902.48	1097.71
902.79	1094.67
903.10	1086.71
903.40	1092.80
903.71	1077.82
904.02	1084.14
904.32	1078.99
904.63	1071.50
904.94	1073.84
905.24	1079.92
905.55	1076.41
905.85	1085.77
906.16	1095.14
906.47	1090.46
906.77	1103.09
907.08	1099.35
907.38	1091.39
907.69	1089.52
908.00	1084.84
908.30	1077.11
908.61	1080.86
908.91	1086.24
909.22	1083.43
909.52	1089.05
909.83	1093.03
910.14	1086.94
910.44	1088.35
910.75	1091.39
911.05	1089.29
911.36	1082.97
911.66	1084.14
911.97	1082.03
912.27	1082.03
912.58	1082.03
912.88	1083.90
913.19	1080.63
913.49	1082.73
913.80	1080.86
914.10	1078.28
914.41	1077.11
914.71	1085.07
915.01	1089.99
915.32	1092.80
915.62	1088.82
915.93	1085.07
916.23	1081.56
916.54	1084.60
916.84	1084.84
917.15	1078.28
917.45	1086.94
917.75	1089.99
918.06	1080.16
918.36	1084.14
918.67	1091.86
918.97	1083.90
919.27	1082.73
919.58	1080.63
919.88	1073.84
920.18	1072.43
920.49	1075.71
920.79	1084.60
921.10	1088.35
921.40	1098.65
921.70	1092.80
922.01	1094.67
922.31	1084.37
922.61	1087.18
922.92	1081.09
923.22	1086.24
923.52	1088.58
923.82	1085.07
924.13	1088.35
924.43	1088.58
924.73	1092.80
925.04	1079.69
925.34	1085.31
925.64	1083.90
925.94	1083.67
926.25	1086.94
926.55	1095.60
926.85	1093.50
927.15	1082.97
927.46	1077.58
927.76	1064.48
928.06	1059.56
928.36	1057.69
928.67	1068.22
928.97	1068.22
929.27	1072.90
929.57	1078.05
929.87	1073.60
930.18	1063.77
930.48	1063.31
930.78	1064.48
931.08	1060.96
931.38	1071.26
931.69	1075.24
931.99	1079.46
932.29	1090.69
932.59	1103.33
932.89	1105.44
933.19	1108.48
933.49	1104.97
933.80	1089.05
934.10	1072.20
934.40	1071.26
934.70	1074.07
935.00	1077.11
935.30	1087.65
935.60	1101.92
935.90	1100.75
936.20	1099.82
936.50	1105.44
936.81	1105.20
937.11	1098.18
937.41	1096.78
937.71	1095.60
938.01	1092.33
938.31	1090.46
938.61	1084.37
938.91	1085.31
939.21	1078.99
939.51	1078.52
939.81	1082.03
940.11	1086.24
940.41	1079.46
940.71	1083.43
941.01	1076.88
941.31	1068.92
941.61	1080.86
941.91	1079.69
942.21	1074.77
942.51	1070.33
942.81	1077.82
943.11	1072.43
943.41	1071.26
943.71	1075.94
944.01	1083.43
944.31	1085.31
944.61	1087.65
944.90	1090.46
945.20	1087.88
945.50	1092.09
945.80	1086.71
946.10	1077.35
946.40	1075.48
946.70	1082.26
947.00	1082.50
947.30	1081.33
947.60	1084.37
947.89	1097.01
948.19	1089.75
948.49	1084.37
948.79	1085.31
949.09	1090.92
949.39	1080.63
949.69	1088.12
949.98	1086.71
950.28	1094.20
950.58	1088.35
950.88	1091.39
951.18	1090.69
951.48	1084.37
951.77	1075.01
952.07	1079.22
952.37	1073.14
952.67	1066.82
952.97	1075.71
953.26	1077.82
953.56	1079.92
953.86	1088.12
954.16	1093.26
954.45	1090.69
954.75	1084.84
955.05	1078.52
955.35	1072.90
955.64	1062.84
955.94	1061.67
956.24	1062.37
956.54	1054.65
956.83	1051.84
957.13	1064.94
957.43	1068.45
957.72	1065.41
958.02	1070.33
958.32	1077.82
958.61	1071.26
958.91	1066.35
959.21	1081.80
959.50	1092.33
959.80	1095.14
960.10	1089.99
960.39	1102.16
960.69	1091.39
960.99	1082.26
961.28	1073.84
961.58	1076.18
961.87	1063.07
962.17	1072.20
962.47	1074.31
962.76	1075.94
963.06	1068.22
963.36	1079.92
963.65	1072.43
963.95	1069.16
964.24	1067.75
964.54	1076.41
964.83	1073.37
965.13	1070.33
965.42	1065.41
965.72	1068.45
966.02	1067.05
966.31	1064.24
966.61	1067.99
966.90	1076.65
967.20	1077.58
967.49	1087.88
967.79	1093.50
968.08	1094.90
968.38	1098.65
968.67	1095.60
968.97	1085.07
969.26	1093.97
969.56	1083.20
969.85	1093.03
970.15	1088.82
970.44	1099.82
970.74	1085.31
971.03	1101.69
971.32	1086.71
971.62	1091.86
971.91	1080.86
972.21	1075.48
972.50	1071.26
972.80	1076.88
973.09	1078.52
973.38	1076.41
973.68	1081.09
973.97	1075.71
974.27	1069.86
974.56	1061.67
974.85	1071.97
975.15	1070.56
975.44	1074.77
975.73	1080.16
976.03	1086.48
976.32	1079.46
976.61	1087.18
976.91	1094.67
977.20	1093.26
977.49	1093.97
977.79	1096.31
978.08	1094.90
978.37	1086.01
978.67	1073.14
978.96	1084.14
979.25	1085.07
979.55	1091.86
979.84	1098.41
980.13	1105.20
980.42	1086.48
980.72	1082.50
981.01	1075.71
981.30	1072.43
981.59	1079.22
981.89	1088.12
982.18	1086.01
982.47	1085.77
982.76	1085.31
983.06	1087.41
983.35	1088.82
983.64	1095.14
983.93	1093.97
984.22	1097.71
984.52	1097.95
984.81	1089.52
985.10	1081.09
985.39	1084.37
985.68	1075.24
985.97	1066.82
986.27	1072.20
986.56	1068.92
986.85	1055.58
987.14	1058.86
987.43	1062.60
987.72	1057.45
988.01	1059.56
988.31	1062.84
988.60	1061.90
988.89	1057.92
989.18	1067.99
989.47	1084.14
989.76	1086.94
990.05	1092.80
990.34	1092.80
990.63	1094.67
990.92	1088.35
991.21	1088.82
991.51	1077.11
991.80	1078.05
992.09	1074.77
992.38	1069.86
992.67	1078.52
992.96	1074.77
993.25	1072.20
993.54	1067.99
993.83	1074.31
994.12	1064.71
994.41	1071.26
994.70	1075.94
994.99	1073.37
995.28	1067.28
995.57	1065.41
995.86	1068.92
996.15	1075.01
996.44	1080.16
996.73	1090.69
997.02	1093.97
997.31	1092.09
997.59	1080.86
997.88	1072.43
998.17	1063.77
998.46	1069.86
998.75	1066.35
999.04	1068.92
999.33	1075.24
999.62	1078.28
999.91	1066.35
1000.20	1073.60
1000.49	1074.54
1000.77	1070.80
1001.06	1066.11
1001.35	1074.54
1001.64	1073.60
1001.93	1077.58
1002.22	1087.18
1002.51	1094.90
1002.79	1100.75
1003.08	1094.20
1003.37	1094.43
1003.66	1090.69
1003.95	1077.11
1004.23	1072.90
1004.52	1088.58
1004.81	1084.37
1005.10	1087.18
1005.39	1097.01
1005.67	1089.29
1005.96	1080.39
1006.25	1082.26
1006.54	1072.67
1006.83	1066.82
1007.11	1065.18
1007.40	1061.20
1007.69	1061.90
1007.97	1068.45
1008.26	1072.90
1008.55	1077.35
1008.84	1086.01
1009.12	1076.18
1009.41	1078.05
1009.70	1086.94
1009.98	1086.01
1010.27	1079.92
1010.56	1086.71
1010.85	1078.05
1011.13	1071.97
1011.42	1080.63
1011.71	1082.03
1011.99	1076.88
1012.28	1090.22
1012.56	1094.20
1012.85	1094.43
1013.14	1097.24
1013.42	1096.54
1013.71	1085.77
1014.00	1081.80
1014.28	1084.60
1014.57	1079.22
1014.85	1085.77
1015.14	1082.97
1015.43	1079.92
1015.71	1064.71
1016.00	1068.69
1016.28	1067.99
1016.57	1075.01
1016.85	1072.20
1017.14	1071.03
1017.43	1067.99
1017.71	1068.22
1018.00	1070.33
1018.28	1066.35
1018.57	1066.35
1018.85	1064.24
1019.14	1067.52
1019.42	1064.94
1019.71	1075.24
1019.99	1082.97
1020.28	1089.52
1020.56	1082.26
1020.85	1079.69
1021.13	1075.01
1021.42	1074.54
1021.70	1067.99
1021.99	1069.16
1022.27	1066.11
1022.55	1063.77
1022.84	1053.24
>>>>>End Processed Spectral Data<<<<<
