SpectraSuite Data File
++++++++++++++++++++++++++++++++++++
Date: Mon Aug 26 10:25:48 PDT 2019
User: corrico
Dark Spectrum Present: No
Reference Spectrum Present: No
Number of Sampled Component Spectra: 1
Spectrometers: USB2+H06089
Integration Time (usec): 10000 (USB2+H06089)
Spectra Averaged: 2 (USB2+H06089)
Boxcar Smoothing: 2 (USB2+H06089)
Correct for Electrical Dark: No (USB2+H06089)
Strobe/Lamp Enabled: No (USB2+H06089)
Correct for Detector Non-linearity: No (USB2+H06089)
Correct for Stray Light: No (USB2+H06089)
Number of Pixels in Processed Spectrum: 2048
>>>>>Begin Processed Spectral Data<<<<<
339.70	1031.01
340.07	1031.01
340.45	993.09
340.82	967.81
341.19	944.64
341.57	910.70
341.94	900.17
342.31	889.40
342.69	889.17
343.06	887.06
343.43	898.06
343.81	906.49
344.18	909.30
344.55	906.02
344.93	910.70
345.30	908.13
345.67	907.89
346.04	925.92
346.42	942.07
346.79	951.19
347.16	960.09
347.54	982.56
347.91	985.37
348.28	995.66
348.65	999.88
349.03	1011.11
349.40	1007.37
349.77	1015.79
350.14	1024.22
350.52	1030.07
350.89	1035.92
351.26	1039.90
351.63	1047.16
352.01	1043.88
352.38	1050.43
352.75	1058.16
353.12	1059.09
353.50	1055.82
353.87	1064.94
354.24	1066.58
354.61	1075.24
354.98	1085.07
355.36	1097.95
355.73	1095.14
356.10	1100.99
356.47	1094.43
356.84	1085.31
357.22	1079.22
357.59	1082.97
357.96	1081.56
358.33	1077.11
358.70	1076.65
359.08	1081.33
359.45	1075.01
359.82	1077.82
360.19	1078.99
360.56	1083.67
360.94	1069.39
361.31	1067.75
361.68	1068.69
362.05	1070.80
362.42	1079.46
362.79	1081.56
363.16	1086.48
363.54	1073.84
363.91	1073.37
364.28	1065.41
364.65	1065.65
365.02	1063.31
365.39	1073.37
365.76	1068.69
366.14	1067.52
366.51	1063.54
366.88	1067.52
367.25	1066.11
367.62	1078.52
367.99	1079.92
368.36	1090.92
368.73	1092.56
369.10	1089.52
369.48	1078.99
369.85	1082.97
370.22	1076.88
370.59	1069.86
370.96	1073.84
371.33	1076.65
371.70	1072.90
372.07	1065.41
372.44	1068.92
372.81	1061.67
373.18	1061.20
373.55	1058.86
373.93	1066.82
374.30	1064.71
374.67	1069.86
375.04	1070.80
375.41	1072.20
375.78	1063.54
376.15	1066.58
376.52	1062.60
376.89	1064.71
377.26	1065.88
377.63	1072.20
378.00	1066.82
378.37	1059.56
378.74	1053.94
379.11	1049.50
379.48	1058.39
379.85	1064.71
380.22	1072.20
380.59	1063.07
380.96	1063.31
381.33	1050.90
381.70	1049.03
382.07	1049.73
382.44	1059.33
382.81	1061.20
383.18	1067.05
383.55	1068.69
383.92	1075.48
384.29	1080.39
384.66	1082.26
385.03	1081.33
385.40	1081.80
385.77	1072.20
386.14	1081.80
386.51	1086.24
386.88	1097.48
387.25	1088.35
387.62	1086.01
387.99	1081.56
388.36	1076.18
388.73	1060.73
389.10	1059.56
389.46	1069.86
389.83	1053.48
390.20	1047.39
390.57	1055.82
390.94	1056.99
391.31	1050.43
391.68	1063.07
392.05	1070.33
392.42	1068.69
392.79	1071.73
393.16	1078.28
393.53	1074.54
393.89	1072.20
394.26	1072.43
394.63	1075.48
395.00	1073.14
395.37	1077.35
395.74	1070.09
396.11	1066.82
396.48	1063.31
396.84	1056.05
397.21	1058.62
397.58	1070.80
397.95	1073.84
398.32	1078.28
398.69	1087.65
399.06	1090.46
399.42	1086.24
399.79	1094.43
400.16	1091.16
400.53	1097.24
400.90	1085.77
401.27	1085.77
401.64	1078.28
402.00	1076.65
402.37	1072.43
402.74	1080.63
403.11	1084.14
403.48	1084.14
403.84	1084.60
404.21	1071.73
404.58	1074.07
404.95	1082.26
405.32	1077.82
405.68	1076.88
406.05	1085.31
406.42	1082.50
406.79	1071.50
407.16	1073.37
407.52	1072.90
407.89	1063.54
408.26	1062.37
408.63	1060.26
408.99	1057.45
409.36	1059.79
409.73	1079.69
410.10	1079.46
410.47	1091.16
410.83	1094.20
411.20	1096.78
411.57	1080.86
411.94	1077.82
412.30	1059.33
412.67	1073.60
413.04	1067.28
413.40	1077.11
413.77	1082.26
414.14	1083.67
414.51	1068.92
414.87	1072.20
415.24	1065.88
415.61	1055.58
415.97	1066.82
416.34	1074.54
416.71	1074.77
417.08	1074.07
417.44	1074.07
417.81	1072.90
418.18	1070.33
418.54	1075.24
418.91	1080.63
419.28	1095.37
419.64	1094.90
420.01	1094.20
420.38	1097.24
420.74	1093.73
421.11	1087.65
421.48	1094.90
421.84	1095.37
422.21	1087.18
422.58	1096.07
422.94	1091.63
423.31	1080.86
423.68	1081.80
424.04	1095.60
424.41	1090.69
424.77	1092.56
425.14	1097.01
425.51	1098.41
425.87	1100.75
426.24	1108.71
426.61	1106.84
426.97	1104.73
427.34	1106.37
427.70	1090.69
428.07	1078.52
428.44	1083.43
428.80	1078.28
429.17	1072.67
429.53	1075.24
429.90	1085.31
430.27	1079.46
430.63	1087.18
431.00	1082.26
431.36	1081.56
431.73	1070.56
432.09	1071.03
432.46	1064.24
432.83	1070.09
433.19	1075.94
433.56	1086.01
433.92	1091.63
434.29	1094.20
434.65	1098.41
435.02	1093.97
435.38	1080.86
435.75	1072.67
436.11	1074.31
436.48	1069.16
436.84	1067.52
437.21	1075.01
437.57	1081.80
437.94	1077.58
438.30	1077.35
438.67	1076.65
439.03	1077.82
439.40	1083.20
439.76	1098.18
440.13	1099.12
440.49	1104.97
440.86	1098.88
441.22	1094.20
441.59	1079.46
441.95	1077.35
442.32	1074.77
442.68	1077.58
443.05	1074.07
443.41	1079.69
443.78	1084.84
444.14	1083.90
444.51	1083.67
444.87	1092.09
445.24	1094.67
445.60	1092.09
445.96	1085.54
446.33	1085.77
446.69	1083.43
447.06	1080.63
447.42	1073.84
447.79	1078.05
448.15	1076.18
448.51	1077.35
448.88	1078.75
449.24	1084.14
449.61	1087.41
449.97	1078.52
450.33	1072.20
450.70	1066.82
451.06	1066.35
451.43	1057.22
451.79	1071.26
452.15	1065.18
452.52	1068.45
452.88	1071.73
453.24	1072.20
453.61	1067.28
453.97	1075.48
454.34	1076.65
454.70	1072.43
455.06	1087.88
455.43	1093.73
455.79	1091.39
456.15	1079.92
456.52	1072.43
456.88	1056.28
457.24	1048.79
457.61	1053.94
457.97	1069.16
458.33	1072.43
458.70	1077.58
459.06	1084.84
459.42	1077.82
459.79	1081.09
460.15	1090.22
460.51	1090.69
460.88	1087.18
461.24	1091.39
461.60	1075.01
461.96	1078.28
462.33	1082.26
462.69	1089.99
463.05	1081.56
463.42	1085.07
463.78	1087.65
464.14	1086.24
464.50	1079.92
464.87	1090.92
465.23	1093.50
465.59	1077.35
465.95	1076.41
466.32	1077.58
466.68	1070.80
467.04	1075.71
467.40	1078.52
467.77	1072.67
468.13	1077.82
468.49	1073.60
468.85	1064.01
469.22	1072.20
469.58	1086.48
469.94	1085.07
470.30	1096.78
470.66	1102.86
471.03	1101.46
471.39	1104.50
471.75	1089.99
472.11	1083.67
472.47	1080.86
472.84	1082.03
473.20	1083.20
473.56	1090.69
473.92	1097.71
474.28	1095.14
474.65	1084.60
475.01	1071.26
475.37	1073.37
475.73	1071.03
476.09	1072.20
476.45	1089.75
476.81	1087.65
477.18	1088.12
477.54	1090.92
477.90	1094.90
478.26	1086.24
478.62	1092.33
478.98	1090.69
479.34	1084.37
479.71	1084.60
480.07	1081.80
480.43	1085.31
480.79	1080.63
481.15	1078.52
481.51	1081.33
481.87	1089.05
482.23	1089.29
482.59	1097.71
482.96	1088.58
483.32	1084.60
483.68	1065.88
484.04	1064.71
484.40	1068.22
484.76	1077.58
485.12	1082.26
485.48	1097.48
485.84	1100.29
486.20	1096.31
486.56	1092.09
486.92	1085.31
487.28	1084.14
487.64	1081.33
488.00	1080.86
488.37	1085.54
488.73	1086.24
489.09	1087.41
489.45	1087.41
489.81	1082.50
490.17	1086.71
490.53	1093.03
490.89	1095.37
491.25	1092.09
491.61	1093.26
491.97	1082.26
492.33	1077.35
492.69	1075.94
493.05	1076.65
493.41	1077.82
493.77	1076.41
494.13	1070.56
494.49	1059.56
494.85	1057.22
495.21	1059.56
495.57	1070.33
495.93	1084.84
496.29	1095.60
496.64	1098.18
497.00	1100.05
497.36	1104.50
497.72	1095.84
498.08	1089.75
498.44	1090.46
498.80	1086.24
499.16	1077.82
499.52	1086.01
499.88	1083.43
500.24	1082.03
500.60	1076.18
500.96	1080.86
501.32	1067.28
501.68	1078.75
502.03	1083.67
502.39	1087.88
502.75	1077.82
503.11	1079.92
503.47	1074.54
503.83	1072.43
504.19	1069.62
504.55	1085.54
504.91	1087.18
505.26	1085.77
505.62	1079.46
505.98	1078.75
506.34	1065.41
506.70	1071.97
507.06	1070.09
507.42	1073.37
507.78	1075.94
508.13	1077.58
508.49	1077.35
508.85	1086.48
509.21	1082.73
509.57	1083.20
509.93	1086.71
510.28	1076.88
510.64	1065.18
511.00	1064.71
511.36	1064.48
511.72	1063.54
512.07	1071.73
512.43	1075.01
512.79	1083.90
513.15	1078.52
513.51	1078.52
513.86	1084.14
514.22	1088.58
514.58	1086.24
514.94	1093.26
515.30	1097.71
515.65	1097.01
516.01	1097.95
516.37	1104.97
516.73	1101.46
517.08	1096.54
517.44	1096.07
517.80	1101.46
518.16	1094.43
518.51	1094.20
518.87	1092.33
519.23	1086.01
519.59	1073.37
519.94	1068.69
520.30	1068.92
520.66	1070.80
521.01	1071.03
521.37	1071.73
521.73	1076.65
522.09	1076.41
522.44	1070.09
522.80	1066.82
523.16	1071.50
523.51	1073.37
523.87	1075.48
524.23	1079.22
524.58	1085.07
524.94	1085.77
525.30	1084.60
525.65	1087.65
526.01	1089.52
526.37	1085.31
526.72	1084.14
527.08	1084.14
527.44	1084.84
527.79	1081.33
528.15	1074.31
528.51	1076.18
528.86	1070.33
529.22	1074.54
529.58	1085.31
529.93	1090.69
530.29	1086.94
530.65	1087.18
531.00	1091.63
531.36	1082.73
531.71	1086.01
532.07	1083.43
532.43	1082.03
532.78	1069.16
533.14	1077.82
533.49	1082.73
533.85	1086.01
534.21	1094.90
534.56	1097.48
534.92	1094.43
535.27	1091.39
535.63	1089.05
535.98	1084.84
536.34	1090.46
536.69	1085.07
537.05	1081.33
537.41	1089.29
537.76	1085.54
538.12	1083.90
538.47	1089.05
538.83	1082.97
539.18	1078.05
539.54	1076.65
539.89	1080.16
540.25	1065.41
540.60	1075.01
540.96	1070.80
541.31	1075.71
541.67	1069.86
542.02	1079.69
542.38	1066.35
542.73	1065.18
543.09	1059.79
543.44	1065.18
543.80	1075.01
544.15	1085.07
544.51	1087.65
544.86	1094.90
545.22	1086.01
545.57	1083.43
545.93	1089.75
546.28	1099.58
546.64	1095.84
546.99	1106.14
547.35	1100.05
547.70	1099.12
548.05	1104.73
548.41	1102.63
548.76	1093.03
549.12	1096.78
549.47	1101.22
549.83	1082.03
550.18	1085.07
550.53	1076.41
550.89	1074.77
551.24	1068.22
551.60	1066.58
551.95	1065.18
552.30	1068.45
552.66	1067.28
553.01	1064.94
553.37	1072.67
553.72	1078.75
554.07	1081.80
554.43	1078.75
554.78	1084.84
555.13	1085.07
555.49	1081.56
555.84	1088.12
556.19	1089.75
556.55	1076.88
556.90	1069.86
557.26	1074.07
557.61	1073.37
557.96	1075.01
558.32	1085.77
558.67	1088.58
559.02	1075.48
559.37	1063.54
559.73	1056.75
560.08	1050.90
560.43	1062.60
560.79	1069.39
561.14	1082.97
561.49	1084.84
561.85	1086.24
562.20	1083.43
562.55	1086.24
562.90	1078.52
563.26	1089.29
563.61	1100.05
563.96	1102.16
564.32	1104.73
564.67	1112.92
565.02	1114.10
565.37	1102.86
565.73	1092.56
566.08	1089.05
566.43	1078.28
566.78	1074.31
567.14	1064.48
567.49	1068.69
567.84	1064.48
568.19	1074.54
568.54	1065.88
568.90	1081.09
569.25	1083.20
569.60	1086.71
569.95	1078.52
570.31	1085.54
570.66	1080.63
571.01	1080.16
571.36	1086.24
571.71	1091.86
572.06	1086.01
572.42	1084.14
572.77	1085.31
573.12	1083.90
573.47	1086.71
573.82	1097.24
574.18	1094.67
574.53	1092.09
574.88	1091.86
575.23	1082.50
575.58	1073.60
575.93	1082.26
576.28	1080.86
576.64	1074.31
576.99	1078.52
577.34	1075.48
577.69	1075.01
578.04	1080.39
578.39	1085.31
578.74	1087.18
579.09	1093.73
579.44	1095.14
579.80	1086.94
580.15	1076.18
580.50	1068.92
580.85	1061.20
581.20	1061.67
581.55	1063.07
581.90	1079.69
582.25	1088.82
582.60	1092.56
582.95	1086.24
583.30	1089.29
583.65	1077.58
584.00	1077.35
584.35	1082.03
584.71	1093.73
585.06	1082.26
585.41	1088.12
585.76	1087.18
586.11	1084.60
586.46	1079.22
586.81	1089.05
587.16	1075.71
587.51	1072.67
587.86	1074.07
588.21	1074.54
588.56	1075.94
588.91	1081.09
589.26	1089.05
589.61	1090.92
589.96	1086.71
590.31	1083.43
590.66	1085.54
591.01	1089.52
591.36	1080.39
591.71	1074.07
592.06	1080.63
592.41	1083.67
592.76	1076.18
593.10	1082.73
593.45	1095.14
593.80	1083.43
594.15	1080.63
594.50	1071.26
594.85	1079.22
595.20	1072.20
595.55	1082.03
595.90	1081.80
596.25	1082.50
596.60	1080.86
596.95	1082.50
597.30	1082.73
597.64	1129.54
597.99	1131.41
598.34	1125.80
598.69	1130.71
599.04	1133.29
599.39	1093.03
599.74	1106.37
600.09	1104.03
600.44	1090.92
600.78	1085.77
601.13	1071.03
601.48	1066.82
601.83	1068.45
602.18	1075.71
602.53	1076.65
602.88	1090.46
603.22	1082.73
603.57	1084.14
603.92	1083.20
604.27	1082.03
604.62	1075.71
604.97	1079.46
605.31	1086.24
605.66	1083.43
606.01	1082.26
606.36	1090.22
606.71	1083.43
607.05	1077.35
607.40	1081.80
607.75	1090.69
608.10	1087.65
608.44	1097.71
608.79	1094.20
609.14	1091.63
609.49	1091.63
609.84	1096.78
610.18	1094.43
610.53	1102.39
610.88	1107.54
611.23	1109.18
611.57	1104.73
611.92	1103.33
612.27	1099.35
612.62	1112.46
612.96	1108.48
613.31	1103.56
613.66	1100.99
614.00	1090.46
614.35	1076.65
614.70	1077.11
615.05	1083.43
615.39	1089.75
615.74	1097.71
616.09	1095.84
616.43	1088.12
616.78	1082.73
617.13	1080.39
617.47	1082.50
617.82	1082.26
618.17	1080.39
618.51	1081.56
618.86	1078.99
619.21	1078.75
619.55	1070.56
619.90	1076.18
620.25	1081.56
620.59	1079.92
620.94	1078.52
621.29	1094.43
621.63	1103.56
621.98	1095.84
622.32	1095.37
622.67	1089.52
623.02	1082.26
623.36	1071.03
623.71	1080.16
624.05	1076.65
624.40	1087.88
624.75	1090.69
625.09	1093.73
625.44	1086.94
625.78	1089.99
626.13	1084.60
626.48	1078.05
626.82	1079.92
627.17	1076.88
627.51	1084.14
627.86	1093.26
628.20	1093.97
628.55	1089.05
628.89	1087.88
629.24	1081.56
629.58	1067.05
629.93	1067.28
630.28	1077.11
630.62	1080.63
630.97	1077.58
631.31	1086.71
631.66	1076.18
632.00	1057.92
632.35	1049.03
632.69	1056.52
633.04	1052.30
633.38	1061.20
633.73	1071.73
634.07	1089.52
634.42	1093.50
634.76	1085.31
635.11	1086.71
635.45	1084.84
635.79	1075.71
636.14	1074.77
636.48	1084.60
636.83	1096.54
637.17	1093.50
637.52	1099.12
637.86	1092.09
638.21	1093.03
638.55	1083.90
638.89	1093.03
639.24	1087.41
639.58	1096.07
639.93	1086.48
640.27	1074.54
640.61	1072.20
640.96	1077.11
641.30	1071.26
641.65	1079.69
641.99	1095.84
642.33	1084.60
642.68	1062.14
643.02	1060.26
643.37	1066.11
643.71	1064.24
644.05	1071.03
644.40	1092.33
644.74	1087.41
645.08	1076.41
645.43	1071.73
645.77	1071.73
646.11	1068.69
646.46	1069.16
646.80	1083.43
647.14	1073.60
647.49	1067.99
647.83	1077.82
648.17	1089.99
648.52	1074.54
648.86	1082.73
649.20	1097.71
649.55	1088.12
649.89	1081.09
650.23	1085.77
650.57	1096.54
650.92	1084.14
651.26	1089.05
651.60	1088.12
651.95	1089.52
652.29	1086.71
652.63	1090.46
652.97	1075.24
653.32	1074.54
653.66	1071.97
654.00	1071.03
654.34	1071.50
654.69	1081.80
655.03	1078.99
655.37	1079.92
655.71	1078.99
656.05	1077.35
656.40	1085.31
656.74	1093.97
657.08	1091.39
657.42	1088.82
657.76	1093.26
658.11	1082.26
658.45	1081.56
658.79	1082.73
659.13	1091.39
659.47	1086.71
659.82	1091.63
660.16	1086.01
660.50	1091.39
660.84	1097.48
661.18	1105.44
661.52	1112.22
661.87	1113.39
662.21	1109.41
662.55	1089.75
662.89	1076.18
663.23	1067.05
663.57	1067.05
663.91	1078.05
664.25	1087.65
664.60	1095.37
664.94	1102.63
665.28	1109.18
665.62	1099.82
665.96	1090.92
666.30	1094.20
666.64	1089.75
666.98	1079.22
667.32	1068.45
667.66	1071.73
668.01	1064.48
668.35	1067.99
668.69	1072.90
669.03	1084.60
669.37	1084.14
669.71	1087.18
670.05	1085.54
670.39	1086.24
670.73	1093.03
671.07	1096.54
671.41	1098.18
671.75	1100.29
672.09	1098.88
672.43	1089.52
672.77	1082.03
673.11	1075.71
673.45	1066.35
673.79	1061.20
674.13	1066.11
674.47	1071.73
674.81	1068.69
675.15	1065.88
675.49	1061.90
675.83	1060.03
676.17	1062.60
676.51	1066.58
676.85	1077.58
677.19	1076.41
677.53	1075.48
677.87	1071.26
678.21	1079.46
678.55	1080.39
678.89	1097.01
679.23	1086.24
679.57	1081.80
679.90	1066.82
680.24	1060.96
680.58	1057.69
680.92	1073.14
681.26	1074.54
681.60	1087.18
681.94	1087.41
682.28	1088.58
682.62	1080.39
682.96	1087.65
683.29	1085.07
683.63	1079.46
683.97	1066.35
684.31	1063.07
684.65	1059.79
684.99	1059.09
685.33	1066.11
685.67	1075.24
686.00	1083.90
686.34	1085.31
686.68	1083.20
687.02	1085.54
687.36	1082.50
687.70	1076.41
688.03	1064.48
688.37	1075.71
688.71	1075.71
689.05	1081.80
689.39	1084.60
689.72	1093.03
690.06	1086.01
690.40	1082.97
690.74	1074.54
691.08	1064.01
691.41	1055.58
691.75	1056.05
692.09	1059.33
692.43	1062.60
692.76	1068.92
693.10	1074.54
693.44	1075.01
693.78	1064.24
694.11	1075.24
694.45	1076.18
694.79	1078.05
695.13	1079.46
695.46	1083.90
695.80	1072.67
696.14	1076.41
696.48	1083.43
696.81	1072.90
697.15	1079.46
697.49	1087.88
697.82	1084.84
698.16	1074.54
698.50	1083.90
698.83	1078.28
699.17	1070.56
699.51	1069.86
699.84	1085.07
700.18	1078.28
700.52	1083.20
700.85	1088.58
701.19	1089.75
701.53	1078.52
701.86	1085.07
702.20	1080.16
702.54	1083.43
702.87	1082.73
703.21	1084.60
703.55	1070.56
703.88	1066.82
704.22	1056.05
704.55	1055.35
704.89	1060.96
705.23	1077.11
705.56	1078.05
705.90	1084.60
706.23	1092.56
706.57	1084.37
706.91	1083.90
707.24	1079.69
707.58	1079.22
707.91	1075.24
708.25	1083.20
708.58	1082.26
708.92	1093.97
709.26	1095.14
709.59	1091.86
709.93	1087.88
710.26	1083.43
710.60	1079.46
710.93	1077.82
711.27	1075.01
711.60	1070.56
711.94	1072.90
712.27	1067.28
712.61	1065.18
712.94	1074.77
713.28	1078.52
713.61	1077.11
713.95	1086.24
714.28	1089.05
714.62	1090.69
714.95	1093.03
715.29	1095.37
715.62	1100.05
715.96	1099.12
716.29	1099.35
716.63	1098.41
716.96	1096.54
717.29	1094.20
717.63	1089.75
717.96	1091.16
718.30	1093.97
718.63	1094.90
718.97	1086.01
719.30	1089.75
719.63	1082.26
719.97	1077.58
720.30	1072.20
720.64	1079.46
720.97	1080.86
721.30	1075.48
721.64	1068.45
721.97	1067.28
722.31	1052.54
722.64	1050.20
722.97	1052.77
723.31	1056.99
723.64	1060.73
723.97	1070.33
724.31	1062.37
724.64	1062.37
724.98	1063.07
725.31	1065.88
725.64	1056.05
725.98	1066.58
726.31	1071.03
726.64	1078.05
726.97	1085.54
727.31	1092.80
727.64	1096.78
727.97	1096.31
728.31	1091.86
728.64	1088.58
728.97	1089.29
729.31	1076.41
729.64	1084.84
729.97	1100.52
730.30	1091.63
730.64	1095.60
730.97	1099.12
731.30	1086.71
731.63	1070.09
731.97	1078.05
732.30	1086.01
732.63	1081.56
732.96	1092.56
733.30	1080.86
733.63	1079.22
733.96	1067.52
734.29	1074.77
734.63	1058.62
734.96	1068.69
735.29	1072.20
735.62	1068.69
735.95	1067.99
736.29	1069.39
736.62	1070.56
736.95	1063.77
737.28	1076.41
737.61	1079.92
737.94	1089.52
738.28	1086.94
738.61	1092.80
738.94	1091.39
739.27	1080.39
739.60	1072.43
739.93	1081.09
740.27	1069.39
740.60	1067.52
740.93	1072.20
741.26	1079.22
741.59	1080.63
741.92	1093.97
742.25	1088.58
742.58	1089.75
742.91	1090.92
743.25	1086.01
743.58	1078.05
743.91	1085.07
744.24	1090.92
744.57	1083.90
744.90	1085.31
745.23	1090.22
745.56	1089.05
745.89	1090.22
746.22	1103.09
746.55	1097.71
746.88	1091.63
747.21	1085.54
747.54	1083.43
747.87	1066.82
748.20	1068.22
748.53	1065.18
748.87	1066.11
749.20	1066.82
749.53	1070.56
749.86	1070.09
750.19	1073.14
750.52	1059.09
750.85	1064.24
751.18	1077.35
751.51	1084.37
751.84	1092.56
752.16	1112.46
752.49	1104.26
752.82	1092.56
753.15	1087.18
753.48	1084.14
753.81	1087.41
754.14	1091.16
754.47	1086.01
754.80	1086.48
755.13	1082.73
755.46	1069.16
755.79	1069.86
756.12	1086.48
756.45	1083.90
756.78	1087.88
757.11	1087.88
757.43	1082.03
757.76	1072.90
758.09	1070.56
758.42	1073.37
758.75	1078.75
759.08	1074.31
759.41	1075.01
759.74	1076.88
760.07	1070.09
760.39	1070.33
760.72	1087.88
761.05	1089.05
761.38	1089.75
761.71	1083.90
762.04	1085.54
762.36	1070.09
762.69	1066.58
763.02	1064.71
763.35	1067.75
763.68	1063.54
764.01	1063.54
764.33	1067.52
764.66	1079.22
764.99	1082.73
765.32	1077.58
765.65	1081.56
765.97	1082.50
766.30	1078.05
766.63	1088.58
766.96	1099.35
767.28	1111.29
767.61	1107.78
767.94	1103.33
768.27	1094.67
768.59	1093.73
768.92	1084.84
769.25	1093.97
769.58	1095.60
769.90	1094.43
770.23	1089.99
770.56	1089.99
770.89	1076.88
771.21	1069.16
771.54	1068.22
771.87	1073.14
772.19	1071.26
772.52	1064.71
772.85	1078.05
773.17	1081.80
773.50	1073.84
773.83	1077.58
774.15	1088.82
774.48	1076.41
774.81	1072.90
775.13	1083.90
775.46	1085.77
775.79	1079.22
776.11	1080.16
776.44	1071.97
776.77	1073.37
777.09	1064.24
777.42	1066.11
777.74	1067.05
778.07	1080.16
778.40	1075.94
778.72	1078.75
779.05	1079.92
779.37	1084.37
779.70	1084.14
780.03	1082.73
780.35	1085.07
780.68	1087.88
781.00	1079.92
781.33	1079.69
781.65	1079.69
781.98	1081.56
782.31	1082.03
782.63	1090.22
782.96	1079.69
783.28	1083.43
783.61	1080.16
783.93	1074.07
784.26	1069.86
784.58	1078.99
784.91	1083.67
785.23	1084.14
785.56	1093.97
785.88	1099.35
786.21	1098.41
786.53	1089.52
786.86	1087.41
787.18	1089.75
787.51	1095.14
787.83	1100.99
788.16	1098.65
788.48	1092.09
788.81	1091.16
789.13	1089.52
789.46	1080.86
789.78	1080.39
790.10	1085.07
790.43	1077.58
790.75	1073.37
791.08	1068.92
791.40	1069.16
791.73	1078.75
792.05	1077.11
792.37	1074.77
792.70	1077.58
793.02	1078.99
793.35	1076.65
793.67	1082.26
793.99	1089.75
794.32	1093.73
794.64	1102.16
794.96	1089.99
795.29	1089.99
795.61	1090.92
795.93	1090.92
796.26	1090.46
796.58	1086.71
796.91	1081.33
797.23	1074.31
797.55	1080.86
797.87	1075.94
798.20	1087.88
798.52	1093.97
798.84	1094.20
799.17	1084.60
799.49	1077.35
799.81	1073.60
800.14	1079.92
800.46	1079.69
800.78	1077.58
801.10	1082.50
801.43	1096.54
801.75	1085.77
802.07	1093.97
802.40	1091.16
802.72	1081.56
803.04	1069.62
803.36	1072.90
803.69	1061.90
804.01	1068.45
804.33	1073.14
804.65	1068.92
804.97	1064.01
805.30	1067.52
805.62	1065.88
805.94	1064.71
806.26	1066.82
806.58	1070.80
806.91	1068.92
807.23	1072.90
807.55	1082.03
807.87	1084.84
808.19	1093.03
808.52	1089.52
808.84	1089.99
809.16	1089.52
809.48	1091.39
809.80	1084.60
810.12	1086.94
810.44	1076.18
810.77	1073.14
811.09	1072.90
811.41	1067.52
811.73	1065.88
812.05	1072.20
812.37	1076.65
812.69	1068.45
813.01	1078.75
813.33	1076.41
813.66	1085.54
813.98	1082.50
814.30	1079.69
814.62	1081.80
814.94	1085.31
815.26	1084.14
815.58	1084.14
815.90	1094.67
816.22	1090.69
816.54	1097.71
816.86	1087.88
817.18	1089.52
817.50	1093.50
817.82	1086.71
818.14	1081.56
818.46	1084.37
818.78	1082.26
819.10	1075.48
819.42	1085.77
819.74	1081.56
820.06	1094.67
820.38	1093.97
820.70	1094.90
821.02	1089.75
821.34	1084.37
821.66	1074.77
821.98	1079.46
822.30	1094.67
822.62	1086.24
822.94	1098.18
823.26	1095.14
823.58	1089.75
823.90	1082.50
824.22	1081.56
824.54	1080.16
824.86	1087.18
825.18	1085.31
825.50	1072.90
825.81	1081.56
826.13	1084.84
826.45	1083.67
826.77	1087.18
827.09	1087.41
827.41	1082.97
827.73	1083.67
828.05	1078.05
828.36	1076.65
828.68	1080.16
829.00	1086.01
829.32	1086.48
829.64	1085.54
829.96	1095.14
830.28	1099.58
830.59	1089.75
830.91	1093.50
831.23	1099.12
831.55	1092.09
831.87	1091.16
832.19	1104.26
832.50	1089.75
832.82	1080.39
833.14	1077.11
833.46	1067.99
833.78	1062.37
834.09	1068.45
834.41	1074.54
834.73	1074.54
835.05	1076.18
835.36	1079.92
835.68	1075.48
836.00	1064.71
836.32	1071.03
836.63	1078.99
836.95	1072.20
837.27	1072.43
837.59	1075.24
837.90	1071.03
838.22	1058.86
838.54	1062.37
838.85	1068.92
839.17	1069.62
839.49	1067.52
839.80	1081.33
840.12	1075.48
840.44	1071.50
840.76	1077.11
841.07	1071.26
841.39	1063.07
841.71	1066.82
842.02	1071.03
842.34	1073.60
842.65	1082.73
842.97	1085.07
843.29	1081.80
843.60	1076.65
843.92	1073.84
844.24	1082.26
844.55	1085.54
844.87	1084.14
845.18	1087.41
845.50	1102.63
845.82	1101.22
846.13	1099.35
846.45	1100.52
846.76	1097.95
847.08	1079.46
847.40	1068.69
847.71	1061.67
848.03	1060.73
848.34	1067.28
848.66	1071.03
848.97	1079.69
849.29	1094.67
849.60	1096.07
849.92	1100.05
850.24	1099.82
850.55	1091.16
850.87	1083.20
851.18	1094.20
851.50	1085.31
851.81	1100.75
852.13	1092.80
852.44	1089.75
852.76	1083.67
853.07	1087.18
853.39	1070.09
853.70	1088.82
854.01	1087.65
854.33	1086.24
854.64	1082.26
854.96	1092.80
855.27	1085.54
855.59	1096.78
855.90	1099.82
856.22	1102.63
856.53	1106.37
856.84	1111.05
857.16	1103.09
857.47	1100.75
857.79	1098.41
858.10	1079.92
858.41	1074.31
858.73	1074.54
859.04	1069.16
859.36	1066.35
859.67	1076.65
859.98	1081.09
860.30	1086.01
860.61	1091.39
860.92	1092.09
861.24	1089.99
861.55	1089.75
861.87	1086.94
862.18	1096.31
862.49	1094.20
862.81	1094.43
863.12	1090.22
863.43	1086.94
863.74	1081.56
864.06	1084.14
864.37	1084.14
864.68	1089.29
865.00	1088.82
865.31	1087.65
865.62	1082.50
865.94	1082.73
866.25	1071.73
866.56	1065.65
866.87	1060.96
867.19	1059.56
867.50	1053.48
867.81	1061.90
868.12	1069.39
868.44	1069.16
868.75	1080.16
869.06	1079.92
869.37	1076.65
869.68	1075.48
870.00	1079.22
870.31	1086.48
870.62	1105.67
870.93	1107.07
871.24	1104.03
871.56	1107.54
871.87	1105.90
872.18	1083.20
872.49	1075.94
872.80	1078.28
873.12	1078.99
873.43	1075.01
873.74	1090.22
874.05	1100.52
874.36	1104.26
874.67	1097.01
874.98	1094.90
875.29	1086.71
875.61	1083.43
875.92	1073.84
876.23	1068.92
876.54	1069.86
876.85	1069.16
877.16	1067.05
877.47	1085.07
877.78	1090.22
878.09	1090.46
878.40	1087.18
878.72	1087.88
879.03	1075.24
879.34	1075.48
879.65	1072.67
879.96	1077.58
880.27	1082.97
880.58	1090.46
880.89	1095.84
881.20	1101.69
881.51	1102.39
881.82	1098.88
882.13	1099.12
882.44	1095.14
882.75	1086.48
883.06	1083.67
883.37	1085.07
883.68	1091.63
883.99	1090.22
884.30	1088.58
884.61	1084.60
884.92	1085.31
885.23	1069.86
885.54	1057.22
885.85	1059.09
886.16	1060.73
886.47	1047.62
886.78	1048.09
887.08	1064.01
887.39	1064.01
887.70	1074.31
888.01	1082.97
888.32	1088.35
888.63	1084.84
888.94	1081.33
889.25	1066.11
889.56	1062.37
889.87	1059.56
890.17	1061.90
890.48	1075.01
890.79	1088.12
891.10	1096.07
891.41	1102.86
891.72	1098.18
892.03	1095.37
892.34	1089.52
892.64	1087.41
892.95	1079.92
893.26	1074.77
893.57	1065.41
893.88	1066.58
894.18	1064.94
894.49	1071.03
894.80	1071.50
895.11	1077.82
895.42	1066.82
895.72	1068.45
896.03	1062.60
896.34	1069.62
896.65	1079.69
896.96	1089.99
897.26	1086.71
897.57	1095.14
897.88	1095.84
898.19	1081.33
898.49	1075.94
898.80	1073.37
899.11	1067.75
899.41	1071.97
899.72	1073.60
900.03	1086.48
900.34	1091.39
900.64	1088.12
900.95	1077.35
901.26	1072.67
901.56	1060.26
901.87	1059.79
902.18	1054.18
902.48	1058.62
902.79	1064.24
903.10	1065.88
903.40	1068.92
903.71	1076.41
904.02	1075.48
904.32	1069.16
904.63	1073.84
904.94	1076.41
905.24	1084.60
905.55	1080.39
905.85	1083.43
906.16	1079.69
906.47	1085.07
906.77	1082.26
907.08	1094.43
907.38	1099.82
907.69	1106.84
908.00	1094.20
908.30	1091.16
908.61	1090.92
908.91	1088.35
909.22	1092.09
909.52	1099.12
909.83	1098.88
910.14	1095.14
910.44	1101.46
910.75	1083.90
911.05	1076.65
911.36	1080.39
911.66	1082.26
911.97	1073.60
912.27	1076.88
912.58	1075.48
912.88	1070.09
913.19	1074.77
913.49	1072.43
913.80	1083.67
914.10	1092.80
914.41	1092.33
914.71	1082.73
915.01	1092.80
915.32	1092.80
915.62	1086.48
915.93	1084.60
916.23	1092.80
916.54	1095.14
916.84	1102.63
917.15	1100.05
917.45	1094.20
917.75	1086.24
918.06	1081.33
918.36	1062.60
918.67	1075.01
918.97	1091.86
919.27	1091.86
919.58	1083.20
919.88	1093.26
920.18	1081.80
920.49	1069.86
920.79	1076.88
921.10	1074.77
921.40	1063.54
921.70	1066.58
922.01	1075.48
922.31	1070.33
922.61	1084.37
922.92	1092.80
923.22	1087.41
923.52	1087.88
923.82	1088.12
924.13	1087.41
924.43	1091.16
924.73	1107.07
925.04	1100.29
925.34	1100.05
925.64	1101.46
925.94	1098.41
926.25	1093.97
926.55	1091.86
926.85	1090.69
927.15	1087.41
927.46	1087.88
927.76	1074.54
928.06	1074.77
928.36	1072.20
928.67	1069.39
928.97	1067.52
929.27	1079.92
929.57	1085.54
929.87	1080.63
930.18	1076.65
930.48	1078.75
930.78	1073.37
931.08	1068.92
931.38	1068.92
931.69	1070.33
931.99	1062.84
932.29	1067.28
932.59	1063.77
932.89	1076.18
933.19	1085.77
933.49	1096.54
933.80	1088.35
934.10	1097.01
934.40	1094.67
934.70	1085.07
935.00	1083.20
935.30	1084.60
935.60	1072.67
935.90	1066.11
936.20	1075.24
936.50	1076.41
936.81	1084.84
937.11	1089.75
937.41	1089.75
937.71	1082.26
938.01	1071.03
938.31	1064.01
938.61	1072.43
938.91	1079.22
939.21	1085.54
939.51	1089.75
939.81	1097.01
940.11	1092.56
940.41	1087.41
940.71	1079.69
941.01	1079.69
941.31	1067.99
941.61	1065.41
941.91	1068.22
942.21	1069.86
942.51	1063.31
942.81	1072.43
943.11	1076.18
943.41	1071.03
943.71	1074.31
944.01	1089.29
944.31	1075.01
944.61	1077.82
944.90	1083.90
945.20	1079.92
945.50	1070.09
945.80	1085.07
946.10	1076.41
946.40	1077.58
946.70	1069.62
947.00	1082.50
947.30	1076.65
947.60	1077.11
947.89	1073.14
948.19	1086.94
948.49	1070.09
948.79	1067.05
949.09	1072.67
949.39	1084.14
949.69	1079.46
949.98	1095.37
950.28	1093.97
950.58	1081.33
950.88	1066.11
951.18	1059.56
951.48	1049.96
951.77	1053.94
952.07	1060.03
952.37	1065.41
952.67	1075.24
952.97	1079.22
953.26	1080.16
953.56	1086.48
953.86	1075.94
954.16	1071.73
954.45	1072.20
954.75	1076.65
955.05	1073.84
955.35	1083.90
955.64	1083.90
955.94	1078.28
956.24	1075.48
956.54	1074.54
956.83	1070.09
957.13	1063.07
957.43	1053.01
957.72	1051.60
958.02	1058.16
958.32	1064.24
958.61	1076.88
958.91	1092.09
959.21	1096.78
959.50	1085.31
959.80	1082.50
960.10	1081.09
960.39	1076.41
960.69	1072.43
960.99	1079.46
961.28	1083.90
961.58	1074.07
961.87	1073.37
962.17	1084.84
962.47	1081.09
962.76	1076.18
963.06	1076.18
963.36	1090.22
963.65	1073.37
963.95	1081.80
964.24	1082.03
964.54	1087.18
964.83	1086.71
965.13	1095.60
965.42	1090.22
965.72	1091.39
966.02	1098.41
966.31	1076.18
966.61	1071.73
966.90	1070.09
967.20	1067.05
967.49	1058.86
967.79	1071.03
968.08	1083.20
968.38	1083.43
968.67	1082.97
968.97	1086.01
969.26	1084.14
969.56	1072.67
969.85	1075.71
970.15	1081.56
970.44	1086.94
970.74	1092.33
971.03	1087.88
971.32	1091.39
971.62	1089.99
971.91	1081.56
972.21	1072.90
972.50	1076.88
972.80	1070.56
973.09	1068.22
973.38	1071.97
973.68	1078.28
973.97	1076.18
974.27	1077.82
974.56	1073.84
974.85	1077.11
975.15	1071.26
975.44	1071.73
975.73	1071.97
976.03	1087.41
976.32	1093.26
976.61	1097.24
976.91	1104.03
977.20	1106.37
977.49	1095.60
977.79	1092.09
978.08	1091.16
978.37	1079.22
978.67	1079.46
978.96	1075.24
979.25	1071.26
979.55	1065.65
979.84	1065.88
980.13	1063.54
980.42	1073.60
980.72	1071.50
981.01	1086.71
981.30	1094.67
981.59	1100.75
981.89	1097.48
982.18	1094.43
982.47	1089.29
982.76	1087.41
983.06	1083.43
983.35	1071.97
983.64	1084.14
983.93	1069.62
984.22	1075.48
984.52	1075.01
984.81	1082.03
985.10	1071.97
985.39	1080.86
985.68	1069.62
985.97	1061.67
986.27	1060.50
986.56	1058.86
986.85	1067.28
987.14	1075.01
987.43	1071.73
987.72	1080.16
988.01	1088.35
988.31	1086.24
988.60	1080.63
988.89	1089.75
989.18	1086.94
989.47	1074.77
989.76	1072.43
990.05	1077.35
990.34	1070.09
990.63	1067.05
990.92	1071.26
991.21	1077.11
991.51	1066.58
991.80	1085.77
992.09	1088.82
992.38	1096.54
992.67	1089.99
992.96	1100.05
993.25	1090.22
993.54	1084.37
993.83	1081.33
994.12	1073.37
994.41	1072.43
994.70	1065.65
994.99	1071.50
995.28	1067.28
995.57	1068.92
995.86	1070.33
996.15	1067.05
996.44	1061.67
996.73	1058.86
997.02	1056.52
997.31	1053.24
997.59	1051.60
997.88	1056.75
998.17	1051.84
998.46	1067.52
998.75	1069.16
999.04	1083.20
999.33	1096.54
999.62	1098.41
999.91	1092.80
1000.20	1101.46
1000.49	1096.54
1000.77	1087.41
1001.06	1095.37
1001.35	1091.16
1001.64	1089.75
1001.93	1083.20
1002.22	1088.35
1002.51	1087.88
1002.79	1083.67
1003.08	1076.65
1003.37	1090.92
1003.66	1079.46
1003.95	1074.54
1004.23	1075.24
1004.52	1069.62
1004.81	1067.05
1005.10	1072.20
1005.39	1079.22
1005.67	1091.63
1005.96	1099.82
1006.25	1097.24
1006.54	1086.94
1006.83	1087.65
1007.11	1091.86
1007.40	1092.09
1007.69	1092.56
1007.97	1098.41
1008.26	1094.90
1008.55	1079.46
1008.84	1076.41
1009.12	1074.07
1009.41	1075.94
1009.70	1081.80
1009.98	1091.16
1010.27	1099.58
1010.56	1100.29
1010.85	1095.60
1011.13	1099.12
1011.42	1089.75
1011.71	1083.20
1011.99	1081.80
1012.28	1081.56
1012.56	1075.24
1012.85	1076.65
1013.14	1072.43
1013.42	1081.33
1013.71	1074.77
1014.00	1065.41
1014.28	1076.18
1014.57	1074.07
1014.85	1055.82
1015.14	1071.73
1015.43	1066.35
1015.71	1056.05
1016.00	1072.90
1016.28	1077.11
1016.57	1083.43
1016.85	1093.26
1017.14	1105.67
1017.43	1097.95
1017.71	1097.24
1018.00	1087.65
1018.28	1088.58
1018.57	1086.48
1018.85	1084.60
1019.14	1095.37
1019.42	1090.46
1019.71	1094.43
1019.99	1098.41
1020.28	1097.95
1020.56	1091.39
1020.85	1092.33
1021.13	1086.48
1021.42	1068.92
1021.70	1061.90
1021.99	1069.16
1022.27	1075.71
1022.55	1108.24
1022.84	1102.39
>>>>>End Processed Spectral Data<<<<<
