SpectraSuite Data File
++++++++++++++++++++++++++++++++++++
Date: Mon Aug 26 10:25:47 PDT 2019
User: corrico
Dark Spectrum Present: No
Reference Spectrum Present: No
Number of Sampled Component Spectra: 1
Spectrometers: USB2+H06089
Integration Time (usec): 10000 (USB2+H06089)
Spectra Averaged: 2 (USB2+H06089)
Boxcar Smoothing: 2 (USB2+H06089)
Correct for Electrical Dark: No (USB2+H06089)
Strobe/Lamp Enabled: No (USB2+H06089)
Correct for Detector Non-linearity: No (USB2+H06089)
Correct for Stray Light: No (USB2+H06089)
Number of Pixels in Processed Spectrum: 2048
>>>>>Begin Processed Spectral Data<<<<<
339.70	971.32
340.07	971.32
340.45	967.81
340.82	967.58
341.19	951.90
341.57	942.30
341.94	935.75
342.31	916.55
342.69	916.09
343.06	916.55
343.43	909.30
343.81	915.38
344.18	928.02
344.55	917.02
344.93	927.32
345.30	937.85
345.67	939.96
346.04	938.09
346.42	949.56
346.79	955.87
347.16	962.43
347.54	975.54
347.91	985.37
348.28	993.56
348.65	1000.58
349.03	1012.75
349.40	1025.39
349.77	1026.79
350.14	1031.71
350.52	1035.69
350.89	1041.54
351.26	1039.43
351.63	1053.01
352.01	1057.22
352.38	1065.65
352.75	1069.16
353.12	1067.52
353.50	1066.11
353.87	1072.20
354.24	1067.28
354.61	1069.16
354.98	1077.11
355.36	1080.86
355.73	1075.71
356.10	1084.14
356.47	1078.28
356.84	1080.39
357.22	1073.84
357.59	1077.35
357.96	1069.39
358.33	1062.37
358.70	1053.48
359.08	1058.16
359.45	1056.99
359.82	1060.26
360.19	1065.18
360.56	1069.39
360.94	1058.62
361.31	1051.84
361.68	1057.45
362.05	1063.54
362.42	1057.45
362.79	1068.69
363.16	1071.03
363.54	1065.65
363.91	1064.01
364.28	1070.09
364.65	1065.65
365.02	1073.37
365.39	1072.67
365.76	1064.24
366.14	1061.20
366.51	1068.69
366.88	1071.03
367.25	1065.88
367.62	1076.18
367.99	1079.22
368.36	1075.71
368.73	1067.28
369.10	1071.50
369.48	1077.58
369.85	1074.77
370.22	1069.62
370.59	1067.05
370.96	1064.24
371.33	1056.52
371.70	1063.54
372.07	1061.67
372.44	1071.97
372.81	1084.37
373.18	1089.05
373.55	1084.37
373.93	1097.24
374.30	1099.12
374.67	1095.37
375.04	1084.14
375.41	1084.14
375.78	1064.94
376.15	1055.58
376.52	1046.92
376.89	1048.09
377.26	1052.07
377.63	1069.62
378.00	1075.48
378.37	1074.77
378.74	1087.41
379.11	1087.18
379.48	1078.52
379.85	1072.67
380.22	1088.35
380.59	1070.33
380.96	1071.97
381.33	1072.43
381.70	1071.97
382.07	1057.22
382.44	1079.22
382.81	1077.35
383.18	1079.22
383.55	1086.24
383.92	1090.22
384.29	1067.75
384.66	1065.18
385.03	1072.67
385.40	1066.82
385.77	1074.77
386.14	1085.31
386.51	1087.18
386.88	1070.33
387.25	1079.22
387.62	1071.97
387.99	1074.54
388.36	1061.90
388.73	1072.43
389.10	1066.35
389.46	1075.01
389.83	1078.05
390.20	1101.22
390.57	1100.29
390.94	1098.41
391.31	1088.82
391.68	1089.29
392.05	1075.24
392.42	1072.90
392.79	1075.24
393.16	1072.43
393.53	1056.75
393.89	1056.52
394.26	1044.35
394.63	1052.30
395.00	1059.09
395.37	1071.26
395.74	1071.03
396.11	1083.20
396.48	1073.60
396.84	1069.86
397.21	1066.82
397.58	1070.80
397.95	1071.50
398.32	1070.56
398.69	1077.58
399.06	1083.67
399.42	1077.35
399.79	1080.86
400.16	1083.43
400.53	1077.11
400.90	1075.24
401.27	1085.77
401.64	1089.52
402.00	1089.29
402.37	1088.12
402.74	1091.39
403.11	1093.97
403.48	1081.56
403.84	1086.01
404.21	1090.92
404.58	1084.37
404.95	1077.11
405.32	1086.94
405.68	1081.80
406.05	1079.46
406.42	1086.71
406.79	1095.14
407.16	1087.88
407.52	1084.60
407.89	1081.09
408.26	1078.52
408.63	1078.52
408.99	1088.12
409.36	1094.90
409.73	1097.48
410.10	1098.65
410.47	1081.33
410.83	1073.84
411.20	1073.37
411.57	1069.86
411.94	1066.35
412.30	1071.26
412.67	1077.58
413.04	1074.31
413.40	1075.48
413.77	1077.58
414.14	1081.09
414.51	1077.82
414.87	1079.69
415.24	1093.50
415.61	1078.99
415.97	1070.56
416.34	1069.62
416.71	1069.86
417.08	1055.11
417.44	1059.33
417.81	1072.20
418.18	1069.39
418.54	1066.58
418.91	1068.69
419.28	1073.60
419.64	1064.01
420.01	1065.18
420.38	1066.35
420.74	1062.14
421.11	1062.14
421.48	1072.67
421.84	1074.54
422.21	1075.48
422.58	1079.22
422.94	1082.50
423.31	1078.99
423.68	1078.75
424.04	1072.67
424.41	1069.62
424.77	1068.22
425.14	1064.71
425.51	1067.05
425.87	1068.92
426.24	1067.99
426.61	1069.16
426.97	1064.48
427.34	1061.67
427.70	1072.90
428.07	1084.14
428.44	1081.80
428.80	1084.14
429.17	1078.52
429.53	1075.01
429.90	1068.22
430.27	1067.52
430.63	1070.33
431.00	1076.65
431.36	1077.35
431.73	1086.71
432.09	1094.43
432.46	1099.82
432.83	1100.29
433.19	1094.20
433.56	1083.67
433.92	1077.58
434.29	1070.09
434.65	1062.84
435.02	1060.03
435.38	1064.01
435.75	1066.58
436.11	1071.97
436.48	1073.37
436.84	1075.94
437.21	1074.07
437.57	1075.24
437.94	1070.09
438.30	1077.35
438.67	1078.75
439.03	1070.80
439.40	1074.07
439.76	1084.60
440.13	1083.43
440.49	1079.46
440.86	1083.90
441.22	1074.54
441.59	1070.09
441.95	1065.18
442.32	1070.80
442.68	1075.01
443.05	1086.24
443.41	1083.43
443.78	1091.63
444.14	1082.50
444.51	1085.31
444.87	1078.75
445.24	1076.18
445.60	1068.69
445.96	1071.26
446.33	1069.62
446.69	1067.28
447.06	1072.43
447.42	1076.41
447.79	1077.82
448.15	1077.58
448.51	1077.35
448.88	1075.71
449.24	1072.90
449.61	1074.31
449.97	1075.71
450.33	1077.82
450.70	1091.16
451.06	1089.05
451.43	1090.22
451.79	1094.20
452.15	1091.39
452.52	1085.31
452.88	1087.65
453.24	1083.90
453.61	1075.94
453.97	1086.48
454.34	1077.58
454.70	1082.50
455.06	1087.88
455.43	1090.92
455.79	1088.82
456.15	1088.58
456.52	1086.01
456.88	1089.52
457.24	1088.58
457.61	1085.77
457.97	1096.54
458.33	1098.88
458.70	1100.99
459.06	1099.12
459.42	1097.01
459.79	1090.92
460.15	1095.60
460.51	1099.12
460.88	1103.80
461.24	1094.43
461.60	1089.99
461.96	1086.01
462.33	1084.84
462.69	1079.46
463.05	1093.03
463.42	1095.84
463.78	1093.73
464.14	1088.12
464.50	1083.67
464.87	1069.39
465.23	1074.77
465.59	1073.84
465.95	1069.16
466.32	1079.22
466.68	1090.92
467.04	1081.33
467.40	1085.31
467.77	1083.67
468.13	1086.01
468.49	1078.28
468.85	1081.56
469.22	1080.86
469.58	1081.56
469.94	1078.28
470.30	1087.65
470.66	1083.43
471.03	1080.86
471.39	1077.11
471.75	1076.88
472.11	1075.94
472.47	1075.94
472.84	1075.24
473.20	1079.46
473.56	1087.65
473.92	1079.69
474.28	1088.35
474.65	1084.60
475.01	1089.75
475.37	1077.11
475.73	1080.86
476.09	1082.97
476.45	1090.92
476.81	1095.14
477.18	1096.78
477.54	1106.37
477.90	1104.50
478.26	1099.35
478.62	1089.99
478.98	1084.84
479.34	1072.90
479.71	1064.01
480.07	1068.69
480.43	1070.56
480.79	1071.03
481.15	1069.16
481.51	1071.26
481.87	1070.33
482.23	1072.43
482.59	1078.52
482.96	1085.77
483.32	1083.67
483.68	1076.88
484.04	1078.05
484.40	1087.65
484.76	1085.54
485.12	1086.24
485.48	1092.80
485.84	1086.24
486.20	1067.75
486.56	1069.16
486.92	1073.37
487.28	1062.37
487.64	1061.43
488.00	1066.35
488.37	1069.62
488.73	1067.28
489.09	1071.97
489.45	1076.88
489.81	1074.54
490.17	1069.62
490.53	1065.65
490.89	1068.92
491.25	1065.41
491.61	1075.01
491.97	1078.75
492.33	1083.67
492.69	1087.41
493.05	1088.12
493.41	1085.77
493.77	1087.65
494.13	1087.41
494.49	1086.48
494.85	1100.29
495.21	1097.48
495.57	1091.16
495.93	1089.05
496.29	1082.73
496.64	1083.67
497.00	1090.69
497.36	1093.03
497.72	1098.41
498.08	1111.99
498.44	1086.94
498.80	1083.20
499.16	1079.46
499.52	1076.18
499.88	1068.22
500.24	1082.03
500.60	1079.69
500.96	1080.86
501.32	1088.35
501.68	1083.90
502.03	1094.20
502.39	1092.09
502.75	1099.12
503.11	1095.84
503.47	1095.37
503.83	1088.35
504.19	1095.84
504.55	1091.63
504.91	1090.92
505.26	1097.95
505.62	1095.60
505.98	1092.80
506.34	1086.24
506.70	1084.14
507.06	1080.39
507.42	1075.01
507.78	1069.62
508.13	1075.01
508.49	1077.11
508.85	1073.37
509.21	1077.11
509.57	1085.54
509.93	1083.90
510.28	1084.14
510.64	1089.75
511.00	1090.69
511.36	1091.86
511.72	1096.54
512.07	1097.71
512.43	1100.52
512.79	1104.50
513.15	1109.41
513.51	1106.14
513.86	1103.09
514.22	1109.18
514.58	1111.52
514.94	1105.67
515.30	1092.33
515.65	1092.33
516.01	1072.90
516.37	1067.75
516.73	1067.28
517.08	1082.03
517.44	1078.28
517.80	1091.63
518.16	1089.05
518.51	1076.65
518.87	1074.07
519.23	1074.54
519.59	1069.16
519.94	1063.54
520.30	1073.14
520.66	1076.65
521.01	1077.82
521.37	1082.26
521.73	1090.92
522.09	1090.92
522.44	1088.58
522.80	1086.24
523.16	1086.94
523.51	1079.69
523.87	1078.28
524.23	1077.58
524.58	1081.80
524.94	1085.77
525.30	1090.22
525.65	1087.18
526.01	1075.71
526.37	1077.11
526.72	1078.99
527.08	1086.01
527.44	1093.03
527.79	1104.03
528.15	1101.46
528.51	1097.95
528.86	1091.86
529.22	1090.22
529.58	1092.09
529.93	1087.18
530.29	1088.82
530.65	1078.75
531.00	1078.28
531.36	1079.46
531.71	1083.67
532.07	1081.80
532.43	1096.78
532.78	1095.14
533.14	1087.88
533.49	1094.20
533.85	1094.90
534.21	1100.05
534.56	1097.95
534.92	1096.31
535.27	1084.14
535.63	1074.07
535.98	1067.99
536.34	1076.41
536.69	1079.69
537.05	1079.22
537.41	1087.18
537.76	1076.41
538.12	1064.71
538.47	1067.75
538.83	1070.33
539.18	1064.71
539.54	1069.86
539.89	1074.54
540.25	1078.99
540.60	1086.71
540.96	1081.33
541.31	1081.09
541.67	1075.24
542.02	1073.14
542.38	1075.24
542.73	1086.01
543.09	1084.14
543.44	1088.35
543.80	1083.43
544.15	1089.52
544.51	1092.80
544.86	1093.73
545.22	1092.33
545.57	1088.58
545.93	1078.52
546.28	1072.43
546.64	1080.16
546.99	1090.22
547.35	1093.50
547.70	1093.03
548.05	1093.26
548.41	1091.39
548.76	1081.33
549.12	1093.26
549.47	1088.58
549.83	1076.41
550.18	1076.18
550.53	1080.39
550.89	1073.37
551.24	1089.29
551.60	1097.01
551.95	1102.16
552.30	1108.71
552.66	1100.05
553.01	1091.16
553.37	1091.63
553.72	1084.37
554.07	1062.37
554.43	1067.52
554.78	1062.14
555.13	1057.45
555.49	1051.13
555.84	1056.52
556.19	1054.65
556.55	1055.11
556.90	1059.33
557.26	1068.92
557.61	1071.26
557.96	1085.07
558.32	1080.16
558.67	1084.37
559.02	1080.16
559.37	1089.29
559.73	1077.82
560.08	1086.24
560.43	1093.03
560.79	1092.09
561.14	1093.26
561.49	1091.16
561.85	1090.46
562.20	1081.80
562.55	1085.07
562.90	1082.73
563.26	1090.46
563.61	1092.09
563.96	1087.65
564.32	1082.50
564.67	1089.75
565.02	1083.43
565.37	1079.69
565.73	1090.46
566.08	1094.20
566.43	1098.18
566.78	1090.22
567.14	1090.69
567.49	1085.77
567.84	1084.37
568.19	1079.46
568.54	1089.99
568.90	1089.99
569.25	1085.77
569.60	1088.35
569.95	1075.71
570.31	1075.71
570.66	1071.03
571.01	1074.07
571.36	1073.84
571.71	1083.20
572.06	1077.82
572.42	1082.03
572.77	1079.92
573.12	1074.31
573.47	1067.75
573.82	1071.26
574.18	1067.99
574.53	1062.37
574.88	1067.75
575.23	1073.37
575.58	1078.05
575.93	1082.50
576.28	1093.73
576.64	1095.14
576.99	1090.92
577.34	1088.12
577.69	1081.33
578.04	1081.33
578.39	1078.28
578.74	1080.16
579.09	1087.41
579.44	1094.67
579.80	1096.07
580.15	1085.31
580.50	1090.69
580.85	1085.54
581.20	1088.12
581.55	1079.92
581.90	1093.50
582.25	1091.86
582.60	1089.99
582.95	1089.99
583.30	1088.35
583.65	1073.37
584.00	1066.58
584.35	1063.77
584.71	1056.99
585.06	1062.37
585.41	1080.86
585.76	1088.82
586.11	1097.01
586.46	1107.07
586.81	1112.92
587.16	1098.41
587.51	1100.05
587.86	1091.39
588.21	1086.48
588.56	1080.39
588.91	1094.67
589.26	1082.97
589.61	1087.18
589.96	1086.71
590.31	1088.82
590.66	1087.65
591.01	1096.78
591.36	1092.80
591.71	1090.92
592.06	1089.52
592.41	1081.56
592.76	1072.43
593.10	1078.52
593.45	1078.52
593.80	1074.31
594.15	1077.58
594.50	1078.99
594.85	1074.07
595.20	1086.48
595.55	1088.82
595.90	1083.67
596.25	1081.09
596.60	1080.63
596.95	1069.16
597.30	1063.54
597.64	1121.82
597.99	1134.69
598.34	1139.84
598.69	1135.86
599.04	1146.63
599.39	1092.33
599.74	1089.99
600.09	1092.09
600.44	1095.84
600.78	1087.18
601.13	1080.16
601.48	1076.65
601.83	1062.60
602.18	1066.35
602.53	1069.39
602.88	1076.65
603.22	1071.97
603.57	1091.16
603.92	1079.22
604.27	1077.58
604.62	1087.41
604.97	1090.92
605.31	1071.50
605.66	1073.14
606.01	1075.24
606.36	1067.75
606.71	1067.28
607.05	1079.92
607.40	1089.99
607.75	1093.26
608.10	1090.92
608.44	1086.24
608.79	1072.20
609.14	1068.45
609.49	1066.35
609.84	1064.48
610.18	1071.50
610.53	1072.20
610.88	1072.67
611.23	1067.28
611.57	1060.26
611.92	1059.56
612.27	1071.26
612.62	1069.86
612.96	1080.86
613.31	1099.12
613.66	1102.86
614.00	1107.31
614.35	1102.16
614.70	1086.71
615.05	1075.48
615.39	1071.97
615.74	1064.94
616.09	1086.24
616.43	1097.24
616.78	1098.88
617.13	1104.50
617.47	1108.48
617.82	1089.52
618.17	1084.14
618.51	1086.48
618.86	1078.99
619.21	1076.41
619.55	1086.71
619.90	1092.33
620.25	1089.05
620.59	1093.50
620.94	1088.58
621.29	1082.26
621.63	1087.18
621.98	1087.41
622.32	1085.54
622.67	1091.16
623.02	1086.94
623.36	1076.65
623.71	1074.31
624.05	1075.48
624.40	1073.84
624.75	1081.33
625.09	1089.52
625.44	1096.54
625.78	1089.75
626.13	1086.94
626.48	1086.71
626.82	1085.07
627.17	1090.46
627.51	1091.39
627.86	1091.86
628.20	1093.73
628.55	1088.58
628.89	1082.50
629.24	1085.54
629.58	1086.01
629.93	1085.31
630.28	1097.01
630.62	1086.01
630.97	1084.14
631.31	1089.52
631.66	1081.80
632.00	1073.14
632.35	1080.16
632.69	1085.77
633.04	1076.18
633.38	1086.48
633.73	1084.60
634.07	1080.16
634.42	1077.82
634.76	1074.31
635.11	1068.92
635.45	1078.28
635.79	1089.05
636.14	1075.48
636.48	1079.46
636.83	1078.05
637.17	1067.05
637.52	1051.84
637.86	1053.48
638.21	1052.30
638.55	1048.33
638.89	1049.03
639.24	1063.54
639.58	1077.82
639.93	1084.84
640.27	1093.97
640.61	1093.97
640.96	1097.71
641.30	1091.63
641.65	1096.78
641.99	1096.78
642.33	1099.35
642.68	1092.56
643.02	1098.65
643.37	1094.43
643.71	1076.18
644.05	1078.52
644.40	1078.05
644.74	1078.99
645.08	1075.01
645.43	1081.56
645.77	1078.75
646.11	1077.11
646.46	1075.94
646.80	1071.26
647.14	1078.52
647.49	1082.97
647.83	1079.92
648.17	1081.56
648.52	1090.69
648.86	1089.29
649.20	1087.41
649.55	1094.20
649.89	1094.43
650.23	1089.52
650.57	1094.67
650.92	1099.12
651.26	1101.69
651.60	1097.95
651.95	1093.03
652.29	1086.01
652.63	1074.54
652.97	1069.16
653.32	1071.26
653.66	1075.94
654.00	1081.56
654.34	1086.94
654.69	1092.09
655.03	1094.43
655.37	1098.41
655.71	1098.88
656.05	1101.46
656.40	1090.69
656.74	1085.54
657.08	1080.63
657.42	1082.50
657.76	1085.07
658.11	1094.67
658.45	1099.12
658.79	1105.67
659.13	1090.92
659.47	1085.77
659.82	1080.86
660.16	1064.24
660.50	1062.84
660.84	1078.05
661.18	1072.43
661.52	1069.16
661.87	1074.77
662.21	1071.97
662.55	1063.07
662.89	1072.43
663.23	1077.82
663.57	1078.75
663.91	1078.28
664.25	1075.24
664.60	1071.73
664.94	1060.73
665.28	1062.14
665.62	1067.52
665.96	1077.11
666.30	1076.41
666.64	1079.92
666.98	1078.52
667.32	1076.88
667.66	1078.05
668.01	1072.43
668.35	1071.50
668.69	1070.80
669.03	1072.20
669.37	1065.88
669.71	1072.43
670.05	1080.39
670.39	1082.50
670.73	1073.84
671.07	1071.97
671.41	1068.22
671.75	1067.28
672.09	1064.24
672.43	1059.56
672.77	1062.84
673.11	1064.94
673.45	1058.16
673.79	1065.65
674.13	1075.71
674.47	1080.86
674.81	1089.52
675.15	1106.14
675.49	1097.95
675.83	1092.09
676.17	1082.50
676.51	1066.11
676.85	1064.48
677.19	1073.60
677.53	1082.97
677.87	1088.12
678.21	1099.58
678.55	1089.75
678.89	1090.92
679.23	1093.03
679.57	1092.80
679.90	1091.63
680.24	1092.56
680.58	1085.77
680.92	1082.73
681.26	1084.37
681.60	1074.77
681.94	1081.09
682.28	1092.33
682.62	1093.03
682.96	1090.92
683.29	1097.48
683.63	1089.52
683.97	1088.35
684.31	1091.63
684.65	1087.41
684.99	1087.88
685.33	1087.18
685.67	1085.54
686.00	1077.58
686.34	1079.92
686.68	1077.35
687.02	1077.11
687.36	1072.90
687.70	1074.31
688.03	1077.58
688.37	1074.77
688.71	1092.09
689.05	1102.39
689.39	1111.05
689.72	1105.90
690.06	1110.35
690.40	1103.09
690.74	1083.43
691.08	1074.07
691.41	1078.28
691.75	1077.35
692.09	1069.16
692.43	1079.46
692.76	1084.60
693.10	1076.88
693.44	1081.80
693.78	1080.86
694.11	1082.97
694.45	1083.90
694.79	1100.99
695.13	1098.18
695.46	1090.46
695.80	1075.71
696.14	1069.16
696.48	1065.18
696.81	1066.58
697.15	1089.99
697.49	1099.82
697.82	1104.26
698.16	1100.05
698.50	1097.24
698.83	1084.60
699.17	1086.71
699.51	1078.05
699.84	1082.97
700.18	1083.43
700.52	1082.73
700.85	1065.65
701.19	1071.26
701.53	1061.43
701.86	1056.75
702.20	1056.75
702.54	1082.73
702.87	1086.01
703.21	1095.14
703.55	1094.90
703.88	1090.22
704.22	1083.20
704.55	1083.67
704.89	1068.69
705.23	1074.54
705.56	1082.50
705.90	1074.07
706.23	1078.05
706.57	1096.78
706.91	1101.22
707.24	1102.39
707.58	1110.82
707.91	1101.22
708.25	1085.07
708.58	1082.26
708.92	1082.73
709.26	1081.09
709.59	1084.14
709.93	1087.41
710.26	1088.82
710.60	1088.12
710.93	1089.75
711.27	1089.99
711.60	1096.78
711.94	1091.16
712.27	1086.24
712.61	1072.43
712.94	1075.48
713.28	1080.39
713.61	1082.73
713.95	1088.12
714.28	1099.35
714.62	1093.26
714.95	1091.63
715.29	1090.69
715.62	1090.46
715.96	1086.24
716.29	1089.29
716.63	1072.20
716.96	1071.26
717.29	1064.24
717.63	1065.41
717.96	1065.65
718.30	1080.63
718.63	1083.90
718.97	1084.14
719.30	1089.05
719.63	1088.35
719.97	1087.18
720.30	1079.22
720.64	1084.37
720.97	1086.71
721.30	1086.71
721.64	1074.54
721.97	1080.86
722.31	1077.58
722.64	1069.86
722.97	1076.18
723.31	1078.75
723.64	1080.16
723.97	1075.94
724.31	1082.97
724.64	1072.90
724.98	1086.24
725.31	1097.01
725.64	1106.84
725.98	1101.69
726.31	1108.24
726.64	1104.50
726.97	1096.07
727.31	1092.09
727.64	1092.80
727.97	1085.07
728.31	1083.43
728.64	1078.99
728.97	1077.35
729.31	1078.75
729.64	1078.28
729.97	1075.71
730.30	1076.18
730.64	1071.97
730.97	1065.65
731.30	1064.94
731.63	1067.05
731.97	1073.14
732.30	1083.43
732.63	1081.33
732.96	1090.92
733.30	1092.80
733.63	1084.60
733.96	1082.73
734.29	1089.52
734.63	1082.50
734.96	1088.58
735.29	1093.03
735.62	1095.14
735.95	1101.46
736.29	1109.18
736.62	1095.84
736.95	1099.82
737.28	1095.84
737.61	1087.18
737.94	1076.88
738.28	1089.05
738.61	1089.99
738.94	1087.65
739.27	1092.09
739.60	1108.95
739.93	1099.12
740.27	1092.56
740.60	1096.78
740.93	1100.05
741.26	1089.75
741.59	1093.73
741.92	1103.33
742.25	1101.22
742.58	1103.80
742.91	1104.03
743.25	1100.29
743.58	1082.97
743.91	1085.77
744.24	1081.56
744.57	1078.75
744.90	1083.67
745.23	1086.94
745.56	1081.09
745.89	1076.18
746.22	1078.75
746.55	1078.75
746.88	1079.69
747.21	1078.99
747.54	1088.35
747.87	1085.31
748.20	1073.84
748.53	1075.24
748.87	1073.37
749.20	1060.50
749.53	1069.62
749.86	1073.14
750.19	1079.69
750.52	1085.54
750.85	1090.69
751.18	1077.11
751.51	1076.41
751.84	1074.54
752.16	1078.28
752.49	1085.07
752.82	1094.67
753.15	1101.92
753.48	1110.58
753.81	1105.90
754.14	1102.86
754.47	1100.29
754.80	1096.31
755.13	1080.63
755.46	1083.67
755.79	1079.69
756.12	1081.56
756.45	1083.43
756.78	1085.07
757.11	1084.14
757.43	1086.71
757.76	1079.46
758.09	1084.84
758.42	1090.22
758.75	1087.88
759.08	1084.37
759.41	1090.46
759.74	1078.52
760.07	1071.50
760.39	1076.41
760.72	1077.11
761.05	1080.16
761.38	1087.65
761.71	1092.56
762.04	1086.71
762.36	1086.01
762.69	1081.80
763.02	1075.94
763.35	1067.52
763.68	1074.07
764.01	1073.84
764.33	1069.39
764.66	1079.69
764.99	1096.31
765.32	1094.43
765.65	1099.12
765.97	1103.33
766.30	1096.07
766.63	1093.50
766.96	1089.29
767.28	1088.58
767.61	1082.03
767.94	1088.35
768.27	1078.28
768.59	1075.01
768.92	1067.05
769.25	1077.82
769.58	1077.82
769.90	1084.60
770.23	1088.58
770.56	1089.99
770.89	1084.37
771.21	1089.05
771.54	1092.80
771.87	1078.05
772.19	1091.63
772.52	1100.05
772.85	1091.63
773.17	1082.03
773.50	1096.07
773.83	1079.92
774.15	1078.05
774.48	1086.71
774.81	1091.86
775.13	1096.54
775.46	1103.33
775.79	1093.50
776.11	1090.69
776.44	1095.60
776.77	1096.54
777.09	1106.61
777.42	1109.88
777.74	1108.01
778.07	1098.88
778.40	1095.60
778.72	1079.22
779.05	1071.73
779.37	1068.22
779.70	1065.88
780.03	1062.37
780.35	1068.69
780.68	1077.58
781.00	1071.97
781.33	1076.65
781.65	1073.60
781.98	1067.52
782.31	1069.62
782.63	1071.26
782.96	1075.71
783.28	1077.82
783.61	1080.39
783.93	1077.35
784.26	1085.07
784.58	1087.41
784.91	1094.67
785.23	1105.67
785.56	1117.37
785.88	1110.12
786.21	1096.78
786.53	1090.69
786.86	1082.03
787.18	1068.92
787.51	1072.43
787.83	1072.43
788.16	1084.84
788.48	1086.71
788.81	1099.82
789.13	1107.31
789.46	1115.50
789.78	1104.97
790.10	1099.82
790.43	1085.77
790.75	1071.26
791.08	1072.67
791.40	1075.24
791.73	1089.99
792.05	1095.84
792.37	1100.75
792.70	1100.52
793.02	1095.14
793.35	1085.77
793.67	1087.88
793.99	1089.99
794.32	1088.35
794.64	1080.63
794.96	1078.99
795.29	1076.18
795.61	1068.45
795.93	1070.33
796.26	1071.50
796.58	1074.07
796.91	1072.67
797.23	1086.48
797.55	1089.52
797.87	1094.67
798.20	1093.26
798.52	1086.71
798.84	1078.99
799.17	1068.45
799.49	1076.41
799.81	1080.63
800.14	1086.24
800.46	1077.58
800.78	1075.94
801.10	1070.09
801.43	1059.79
801.75	1068.69
802.07	1077.35
802.40	1078.52
802.72	1085.07
803.04	1091.39
803.36	1071.97
803.69	1073.84
804.01	1081.33
804.33	1085.31
804.65	1088.35
804.97	1101.22
805.30	1109.41
805.62	1110.82
805.94	1099.35
806.26	1101.46
806.58	1098.88
806.91	1085.77
807.23	1080.39
807.55	1089.52
807.87	1069.16
808.19	1062.60
808.52	1064.48
808.84	1067.99
809.16	1058.62
809.48	1079.46
809.80	1080.39
810.12	1079.22
810.44	1073.60
810.77	1073.84
811.09	1067.28
811.41	1076.88
811.73	1088.58
812.05	1098.18
812.37	1100.52
812.69	1106.37
813.01	1105.20
813.33	1100.99
813.66	1093.97
813.98	1086.94
814.30	1077.11
814.62	1071.26
814.94	1069.16
815.26	1063.54
815.58	1059.33
815.90	1056.05
816.22	1056.05
816.54	1049.73
816.86	1051.84
817.18	1058.62
817.50	1066.35
817.82	1065.88
818.14	1069.16
818.46	1074.07
818.78	1078.75
819.10	1078.52
819.42	1076.88
819.74	1069.39
820.06	1076.88
820.38	1078.52
820.70	1084.14
821.02	1083.20
821.34	1083.43
821.66	1078.28
821.98	1075.24
822.30	1074.77
822.62	1084.60
822.94	1093.97
823.26	1088.12
823.58	1088.82
823.90	1077.82
824.22	1069.86
824.54	1072.90
824.86	1078.05
825.18	1078.99
825.50	1085.31
825.81	1093.73
826.13	1091.86
826.45	1091.86
826.77	1093.73
827.09	1081.80
827.41	1081.56
827.73	1078.52
828.05	1079.22
828.36	1072.90
828.68	1082.03
829.00	1070.80
829.32	1075.24
829.64	1074.77
829.96	1071.97
830.28	1064.71
830.59	1074.77
830.91	1075.01
831.23	1067.99
831.55	1080.16
831.87	1082.50
832.19	1081.33
832.50	1071.97
832.82	1076.65
833.14	1069.39
833.46	1083.43
833.78	1070.80
834.09	1075.71
834.41	1081.80
834.73	1086.94
835.05	1074.07
835.36	1083.43
835.68	1090.92
836.00	1084.84
836.32	1077.35
836.63	1091.86
836.95	1088.35
837.27	1077.82
837.59	1077.11
837.90	1077.35
838.22	1070.33
838.54	1073.14
838.85	1075.48
839.17	1066.11
839.49	1071.73
839.80	1064.24
840.12	1056.28
840.44	1060.73
840.76	1067.75
841.07	1063.07
841.39	1066.11
841.71	1077.35
842.02	1072.90
842.34	1075.71
842.65	1076.88
842.97	1076.88
843.29	1081.33
843.60	1093.73
843.92	1093.50
844.24	1094.20
844.55	1101.92
844.87	1097.71
845.18	1081.80
845.50	1081.09
845.82	1086.01
846.13	1075.48
846.45	1078.28
846.76	1082.03
847.08	1087.41
847.40	1082.26
847.71	1089.99
848.03	1087.18
848.34	1087.41
848.66	1084.37
848.97	1089.29
849.29	1081.09
849.60	1078.28
849.92	1074.31
850.24	1067.99
850.55	1063.07
850.87	1061.67
851.18	1062.84
851.50	1069.86
851.81	1082.73
852.13	1076.18
852.44	1078.05
852.76	1075.71
853.07	1082.50
853.39	1068.45
853.70	1077.11
854.01	1078.75
854.33	1087.88
854.64	1073.37
854.96	1081.80
855.27	1081.56
855.59	1093.50
855.90	1091.16
856.22	1096.54
856.53	1093.26
856.84	1093.26
857.16	1085.07
857.47	1074.31
857.79	1067.52
858.10	1066.58
858.41	1071.97
858.73	1078.28
859.04	1089.29
859.36	1103.09
859.67	1102.39
859.98	1098.65
860.30	1085.77
860.61	1089.75
860.92	1079.92
861.24	1078.05
861.55	1071.50
861.87	1068.45
862.18	1062.60
862.49	1063.07
862.81	1072.67
863.12	1081.33
863.43	1086.94
863.74	1084.14
864.06	1086.94
864.37	1080.63
864.68	1083.67
865.00	1084.84
865.31	1083.43
865.62	1079.46
865.94	1084.14
866.25	1073.84
866.56	1075.48
866.87	1067.52
867.19	1065.65
867.50	1057.45
867.81	1069.39
868.12	1065.41
868.44	1072.43
868.75	1084.37
869.06	1087.65
869.37	1080.63
869.68	1074.77
870.00	1073.84
870.31	1070.80
870.62	1076.41
870.93	1076.41
871.24	1093.03
871.56	1100.75
871.87	1097.24
872.18	1093.50
872.49	1095.60
872.80	1096.07
873.12	1094.43
873.43	1092.09
873.74	1085.54
874.05	1079.46
874.36	1076.88
874.67	1077.58
874.98	1079.92
875.29	1078.75
875.61	1076.65
875.92	1086.48
876.23	1086.01
876.54	1083.43
876.85	1100.75
877.16	1115.27
877.47	1107.31
877.78	1099.58
878.09	1097.95
878.40	1084.84
878.72	1073.60
879.03	1071.26
879.34	1084.37
879.65	1088.35
879.96	1097.95
880.27	1100.52
880.58	1092.33
880.89	1088.35
881.20	1090.46
881.51	1082.50
881.82	1074.77
882.13	1073.37
882.44	1057.69
882.75	1060.03
883.06	1064.24
883.37	1072.67
883.68	1087.18
883.99	1102.39
884.30	1101.22
884.61	1097.48
884.92	1090.92
885.23	1086.94
885.54	1083.90
885.85	1075.71
886.16	1076.18
886.47	1080.63
886.78	1080.86
887.08	1079.92
887.39	1087.88
887.70	1083.67
888.01	1075.94
888.32	1072.90
888.63	1071.50
888.94	1067.52
889.25	1071.26
889.56	1082.97
889.87	1084.60
890.17	1086.71
890.48	1089.52
890.79	1092.09
891.10	1086.48
891.41	1083.43
891.72	1080.16
892.03	1085.77
892.34	1082.97
892.64	1088.58
892.95	1085.07
893.26	1095.37
893.57	1090.92
893.88	1089.05
894.18	1093.97
894.49	1102.39
894.80	1099.35
895.11	1098.88
895.42	1108.48
895.72	1098.41
896.03	1098.88
896.34	1097.95
896.65	1102.63
896.96	1092.80
897.26	1087.41
897.57	1076.41
897.88	1073.60
898.19	1070.80
898.49	1072.20
898.80	1075.94
899.11	1082.73
899.41	1073.84
899.72	1069.62
900.03	1069.16
900.34	1060.50
900.64	1065.18
900.95	1074.31
901.26	1080.86
901.56	1083.67
901.87	1093.03
902.18	1090.69
902.48	1082.97
902.79	1078.99
903.10	1085.31
903.40	1085.54
903.71	1080.86
904.02	1086.48
904.32	1082.03
904.63	1077.11
904.94	1077.11
905.24	1077.82
905.55	1079.46
905.85	1081.33
906.16	1091.39
906.47	1098.18
906.77	1091.16
907.08	1090.22
907.38	1080.16
907.69	1072.67
908.00	1066.58
908.30	1072.20
908.61	1068.45
908.91	1080.63
909.22	1075.48
909.52	1081.33
909.83	1080.86
910.14	1089.05
910.44	1089.75
910.75	1087.65
911.05	1078.75
911.36	1084.14
911.66	1073.60
911.97	1062.84
912.27	1063.31
912.58	1079.69
912.88	1080.86
913.19	1088.58
913.49	1089.52
913.80	1093.73
914.10	1083.67
914.41	1086.24
914.71	1088.35
915.01	1081.09
915.32	1087.41
915.62	1085.77
915.93	1073.60
916.23	1070.56
916.54	1092.56
916.84	1078.52
917.15	1066.11
917.45	1072.20
917.75	1079.92
918.06	1071.50
918.36	1077.82
918.67	1093.03
918.97	1077.58
919.27	1077.58
919.58	1078.75
919.88	1083.90
920.18	1068.92
920.49	1085.31
920.79	1078.52
921.10	1080.16
921.40	1079.46
921.70	1083.90
922.01	1082.50
922.31	1097.48
922.61	1099.12
922.92	1090.22
923.22	1104.26
923.52	1104.26
923.82	1084.14
924.13	1082.50
924.43	1087.41
924.73	1082.26
925.04	1087.18
925.34	1086.94
925.64	1089.52
925.94	1093.26
926.25	1089.75
926.55	1083.20
926.85	1089.75
927.15	1083.67
927.46	1077.11
927.76	1075.71
928.06	1075.48
928.36	1086.94
928.67	1083.43
928.97	1076.88
929.27	1082.03
929.57	1086.71
929.87	1080.39
930.18	1091.39
930.48	1108.24
930.78	1106.61
931.08	1097.71
931.38	1090.92
931.69	1081.80
931.99	1068.92
932.29	1069.39
932.59	1080.63
932.89	1071.26
933.19	1070.56
933.49	1063.54
933.80	1058.16
934.10	1054.88
934.40	1060.96
934.70	1059.33
935.00	1068.69
935.30	1070.09
935.60	1069.62
935.90	1080.86
936.20	1083.20
936.50	1090.69
936.81	1095.84
937.11	1097.95
937.41	1083.90
937.71	1086.71
938.01	1083.43
938.31	1085.07
938.61	1081.33
938.91	1082.03
939.21	1074.77
939.51	1074.31
939.81	1071.73
940.11	1062.37
940.41	1067.28
940.71	1065.41
941.01	1063.31
941.31	1063.54
941.61	1074.54
941.91	1081.56
942.21	1098.88
942.51	1096.07
942.81	1100.05
943.11	1102.63
943.41	1093.73
943.71	1085.54
944.01	1089.05
944.31	1088.12
944.61	1084.60
944.90	1080.39
945.20	1082.73
945.50	1086.24
945.80	1091.16
946.10	1091.63
946.40	1089.99
946.70	1086.24
947.00	1079.69
947.30	1067.05
947.60	1066.35
947.89	1068.22
948.19	1061.90
948.49	1055.82
948.79	1055.82
949.09	1054.18
949.39	1057.92
949.69	1064.24
949.98	1076.41
950.28	1081.09
950.58	1080.16
950.88	1079.69
951.18	1080.39
951.48	1073.84
951.77	1076.41
952.07	1078.75
952.37	1082.26
952.67	1082.26
952.97	1082.73
953.26	1086.71
953.56	1091.16
953.86	1086.71
954.16	1093.03
954.45	1083.43
954.75	1069.86
955.05	1061.43
955.35	1077.11
955.64	1071.73
955.94	1081.33
956.24	1080.86
956.54	1078.75
956.83	1073.37
957.13	1079.92
957.43	1082.50
957.72	1090.69
958.02	1101.69
958.32	1092.80
958.61	1093.97
958.91	1082.03
959.21	1074.54
959.50	1068.69
959.80	1069.62
960.10	1059.56
960.39	1067.99
960.69	1071.03
960.99	1067.05
961.28	1067.75
961.58	1082.73
961.87	1086.48
962.17	1087.65
962.47	1094.67
962.76	1097.95
963.06	1092.80
963.36	1099.58
963.65	1103.80
963.95	1105.44
964.24	1092.33
964.54	1085.31
964.83	1080.39
965.13	1072.43
965.42	1069.62
965.72	1090.92
966.02	1087.41
966.31	1087.18
966.61	1092.56
966.90	1097.24
967.20	1094.67
967.49	1093.97
967.79	1086.94
968.08	1080.16
968.38	1066.35
968.67	1060.03
968.97	1068.45
969.26	1078.05
969.56	1089.52
969.85	1100.99
970.15	1101.22
970.44	1091.86
970.74	1093.03
971.03	1089.99
971.32	1085.54
971.62	1085.54
971.91	1088.35
972.21	1089.05
972.50	1084.84
972.80	1086.24
973.09	1090.46
973.38	1090.69
973.68	1093.03
973.97	1093.03
974.27	1092.09
974.56	1078.28
974.85	1083.43
975.15	1068.92
975.44	1078.05
975.73	1080.63
976.03	1093.03
976.32	1089.99
976.61	1097.01
976.91	1099.12
977.20	1090.92
977.49	1099.82
977.79	1106.84
978.08	1111.29
978.37	1101.92
978.67	1102.63
978.96	1086.48
979.25	1079.92
979.55	1070.33
979.84	1075.94
980.13	1084.14
980.42	1087.18
980.72	1084.37
981.01	1087.65
981.30	1086.24
981.59	1086.94
981.89	1089.29
982.18	1098.88
982.47	1094.67
982.76	1101.46
983.06	1098.18
983.35	1092.09
983.64	1082.03
983.93	1095.14
984.22	1083.43
984.52	1089.29
984.81	1095.84
985.10	1096.54
985.39	1091.86
985.68	1077.58
985.97	1074.31
986.27	1066.11
986.56	1070.33
986.85	1062.60
987.14	1077.11
987.43	1067.99
987.72	1063.31
988.01	1060.73
988.31	1064.71
988.60	1073.37
988.89	1087.18
989.18	1108.48
989.47	1116.44
989.76	1115.73
990.05	1108.24
990.34	1097.95
990.63	1091.39
990.92	1082.50
991.21	1085.77
991.51	1081.80
991.80	1082.97
992.09	1076.65
992.38	1081.33
992.67	1080.86
992.96	1076.65
993.25	1086.94
993.54	1090.22
993.83	1086.48
994.12	1090.46
994.41	1093.26
994.70	1088.35
994.99	1086.24
995.28	1085.31
995.57	1081.80
995.86	1086.48
996.15	1082.97
996.44	1082.73
996.73	1085.31
997.02	1081.33
997.31	1083.20
997.59	1086.01
997.88	1093.50
998.17	1088.12
998.46	1089.05
998.75	1085.77
999.04	1086.01
999.33	1080.63
999.62	1089.52
999.91	1087.18
1000.20	1090.22
1000.49	1091.63
1000.77	1081.56
1001.06	1077.11
1001.35	1092.56
1001.64	1088.82
1001.93	1083.20
1002.22	1080.63
1002.51	1083.43
1002.79	1071.97
1003.08	1064.24
1003.37	1062.14
1003.66	1063.54
1003.95	1056.75
1004.23	1054.65
1004.52	1066.11
1004.81	1059.33
1005.10	1069.86
1005.39	1080.39
1005.67	1080.39
1005.96	1077.35
1006.25	1086.94
1006.54	1087.88
1006.83	1074.77
1007.11	1076.65
1007.40	1079.22
1007.69	1079.46
1007.97	1079.46
1008.26	1086.01
1008.55	1083.20
1008.84	1094.43
1009.12	1097.01
1009.41	1089.99
1009.70	1080.16
1009.98	1082.26
1010.27	1073.84
1010.56	1081.09
1010.85	1088.82
1011.13	1094.90
1011.42	1100.29
1011.71	1103.80
1011.99	1095.14
1012.28	1091.16
1012.56	1095.14
1012.85	1091.39
1013.14	1083.90
1013.42	1079.22
1013.71	1075.71
1014.00	1075.24
1014.28	1066.35
1014.57	1065.65
1014.85	1057.45
1015.14	1067.28
1015.43	1066.58
1015.71	1071.97
1016.00	1071.03
1016.28	1086.94
1016.57	1091.86
1016.85	1095.14
1017.14	1094.90
1017.43	1092.56
1017.71	1084.37
1018.00	1066.35
1018.28	1057.45
1018.57	1061.90
1018.85	1057.22
1019.14	1062.60
1019.42	1068.22
1019.71	1072.43
1019.99	1063.31
1020.28	1071.97
1020.56	1073.14
1020.85	1079.92
1021.13	1080.39
1021.42	1094.67
1021.70	1102.63
1021.99	1106.37
1022.27	1096.78
1022.55	1114.10
1022.84	1055.58
>>>>>End Processed Spectral Data<<<<<
