SpectraSuite Data File
++++++++++++++++++++++++++++++++++++
Date: Mon Aug 26 10:25:47 PDT 2019
User: corrico
Dark Spectrum Present: No
Reference Spectrum Present: No
Number of Sampled Component Spectra: 1
Spectrometers: USB2+H06089
Integration Time (usec): 10000 (USB2+H06089)
Spectra Averaged: 2 (USB2+H06089)
Boxcar Smoothing: 2 (USB2+H06089)
Correct for Electrical Dark: No (USB2+H06089)
Strobe/Lamp Enabled: No (USB2+H06089)
Correct for Detector Non-linearity: No (USB2+H06089)
Correct for Stray Light: No (USB2+H06089)
Number of Pixels in Processed Spectrum: 2048
>>>>>Begin Processed Spectral Data<<<<<
339.70	1028.67
340.07	1028.67
340.45	989.81
340.82	978.11
341.19	966.17
341.57	944.64
341.94	940.90
342.31	933.17
342.69	916.79
343.06	903.91
343.43	903.45
343.81	906.72
344.18	906.49
344.55	921.23
344.93	919.60
345.30	919.83
345.67	917.49
346.04	936.68
346.42	926.62
346.79	936.45
347.16	938.32
347.54	953.07
347.91	951.66
348.28	966.41
348.65	974.37
349.03	987.24
349.40	983.02
349.77	986.30
350.14	995.90
350.52	1005.49
350.89	1005.26
351.26	1028.20
351.63	1036.16
352.01	1039.67
352.38	1055.11
352.75	1068.22
353.12	1064.24
353.50	1074.77
353.87	1089.05
354.24	1075.01
354.61	1072.43
354.98	1075.48
355.36	1075.01
355.73	1059.79
356.10	1064.48
356.47	1073.37
356.84	1080.86
357.22	1070.09
357.59	1080.16
357.96	1088.82
358.33	1070.33
358.70	1056.52
359.08	1067.28
359.45	1068.92
359.82	1055.82
360.19	1074.07
360.56	1078.05
360.94	1075.71
361.31	1065.88
361.68	1070.56
362.05	1065.41
362.42	1068.45
362.79	1073.60
363.16	1078.28
363.54	1080.86
363.91	1075.01
364.28	1070.56
364.65	1065.88
365.02	1061.67
365.39	1066.35
365.76	1067.28
366.14	1078.52
366.51	1080.16
366.88	1085.77
367.25	1081.80
367.62	1081.56
367.99	1071.50
368.36	1067.99
368.73	1061.43
369.10	1055.58
369.48	1063.54
369.85	1065.18
370.22	1069.62
370.59	1067.05
370.96	1069.62
371.33	1071.97
371.70	1077.58
372.07	1078.99
372.44	1080.16
372.81	1090.46
373.18	1091.63
373.55	1083.43
373.93	1074.77
374.30	1076.41
374.67	1066.11
375.04	1063.54
375.41	1061.20
375.78	1065.88
376.15	1074.07
376.52	1069.86
376.89	1071.03
377.26	1078.28
377.63	1080.86
378.00	1082.26
378.37	1091.86
378.74	1089.29
379.11	1093.26
379.48	1086.01
379.85	1076.41
380.22	1068.45
380.59	1056.75
380.96	1053.24
381.33	1051.13
381.70	1056.28
382.07	1055.82
382.44	1062.37
382.81	1057.22
383.18	1062.37
383.55	1062.84
383.92	1063.77
384.29	1067.52
384.66	1078.75
385.03	1071.97
385.40	1072.20
385.77	1078.99
386.14	1075.71
386.51	1066.58
386.88	1078.05
387.25	1083.90
387.62	1083.67
387.99	1089.99
388.36	1089.75
388.73	1086.01
389.10	1072.20
389.46	1071.26
389.83	1070.80
390.20	1077.82
390.57	1075.01
390.94	1080.16
391.31	1078.52
391.68	1076.18
392.05	1067.99
392.42	1072.67
392.79	1066.35
393.16	1060.96
393.53	1065.65
393.89	1063.77
394.26	1057.45
394.63	1065.41
395.00	1064.24
395.37	1066.82
395.74	1074.77
396.11	1080.16
396.48	1077.58
396.84	1084.37
397.21	1075.71
397.58	1072.90
397.95	1073.60
398.32	1080.16
398.69	1074.77
399.06	1086.48
399.42	1087.88
399.79	1088.12
400.16	1088.82
400.53	1091.16
400.90	1078.52
401.27	1073.60
401.64	1074.54
402.00	1070.80
402.37	1071.03
402.74	1073.60
403.11	1074.54
403.48	1065.88
403.84	1066.58
404.21	1075.01
404.58	1082.03
404.95	1089.52
405.32	1093.50
405.68	1094.90
406.05	1087.65
406.42	1077.82
406.79	1078.52
407.16	1079.46
407.52	1076.88
407.89	1077.58
408.26	1087.65
408.63	1078.28
408.99	1076.65
409.36	1076.88
409.73	1083.90
410.10	1076.65
410.47	1072.20
410.83	1069.62
411.20	1065.41
411.57	1059.56
411.94	1057.92
412.30	1055.58
412.67	1068.92
413.04	1065.41
413.40	1065.41
413.77	1072.90
414.14	1086.01
414.51	1081.09
414.87	1091.86
415.24	1100.05
415.61	1104.03
415.97	1110.12
416.34	1105.90
416.71	1102.86
417.08	1093.97
417.44	1088.35
417.81	1078.28
418.18	1071.26
418.54	1066.11
418.91	1069.39
419.28	1070.33
419.64	1074.07
420.01	1083.67
420.38	1086.71
420.74	1088.82
421.11	1088.82
421.48	1083.67
421.84	1074.77
422.21	1082.73
422.58	1079.69
422.94	1071.26
423.31	1074.77
423.68	1085.77
424.04	1082.50
424.41	1072.90
424.77	1079.22
425.14	1080.63
425.51	1075.71
425.87	1065.18
426.24	1083.20
426.61	1077.35
426.97	1078.75
427.34	1082.97
427.70	1090.69
428.07	1077.35
428.44	1084.14
428.80	1084.60
429.17	1083.67
429.53	1086.48
429.90	1081.09
430.27	1089.52
430.63	1084.60
431.00	1090.92
431.36	1091.63
431.73	1102.86
432.09	1094.20
432.46	1099.12
432.83	1090.92
433.19	1083.90
433.56	1082.26
433.92	1085.31
434.29	1079.22
434.65	1085.31
435.02	1089.52
435.38	1088.82
435.75	1084.60
436.11	1089.52
436.48	1083.90
436.84	1080.16
437.21	1082.03
437.57	1079.22
437.94	1077.11
438.30	1070.80
438.67	1070.09
439.03	1061.20
439.40	1056.52
439.76	1059.56
440.13	1071.26
440.49	1068.69
440.86	1067.75
441.22	1076.88
441.59	1068.92
441.95	1064.71
442.32	1060.26
442.68	1062.84
443.05	1054.65
443.41	1056.05
443.78	1057.92
444.14	1068.45
444.51	1072.20
444.87	1076.65
445.24	1075.24
445.60	1077.11
445.96	1077.35
446.33	1081.09
446.69	1086.94
447.06	1095.37
447.42	1092.56
447.79	1099.35
448.15	1094.90
448.51	1084.84
448.88	1080.39
449.24	1083.90
449.61	1079.69
449.97	1087.41
450.33	1101.69
450.70	1103.80
451.06	1097.01
451.43	1087.41
451.79	1081.09
452.15	1076.88
452.52	1071.97
452.88	1074.77
453.24	1078.05
453.61	1073.14
453.97	1067.75
454.34	1085.77
454.70	1088.58
455.06	1094.67
455.43	1100.75
455.79	1103.56
456.15	1084.84
456.52	1086.71
456.88	1084.14
457.24	1082.50
457.61	1072.20
457.97	1081.80
458.33	1079.46
458.70	1074.07
459.06	1067.28
459.42	1071.73
459.79	1064.48
460.15	1057.45
460.51	1065.65
460.88	1066.35
461.24	1069.39
461.60	1068.45
461.96	1068.92
462.33	1064.94
462.69	1054.88
463.05	1052.54
463.42	1050.90
463.78	1045.99
464.14	1044.35
464.50	1060.26
464.87	1055.35
465.23	1055.58
465.59	1062.14
465.95	1063.54
466.32	1063.07
466.68	1077.11
467.04	1083.90
467.40	1081.80
467.77	1077.11
468.13	1081.56
468.49	1071.97
468.85	1072.90
469.22	1082.97
469.58	1091.39
469.94	1091.63
470.30	1091.86
470.66	1087.18
471.03	1070.09
471.39	1058.86
471.75	1058.39
472.11	1066.11
472.47	1064.94
472.84	1073.37
473.20	1082.97
473.56	1085.77
473.92	1075.48
474.28	1079.22
474.65	1082.73
475.01	1073.37
475.37	1064.01
475.73	1061.20
476.09	1058.39
476.45	1063.07
476.81	1069.62
477.18	1072.43
477.54	1086.01
477.90	1076.41
478.26	1067.05
478.62	1075.01
478.98	1077.11
479.34	1070.56
479.71	1077.11
480.07	1079.46
480.43	1076.18
480.79	1075.71
481.15	1072.43
481.51	1074.31
481.87	1080.63
482.23	1082.26
482.59	1091.63
482.96	1088.58
483.32	1092.56
483.68	1089.05
484.04	1082.26
484.40	1070.80
484.76	1073.84
485.12	1068.22
485.48	1051.13
485.84	1053.48
486.20	1052.54
486.56	1052.54
486.92	1050.90
487.28	1068.22
487.64	1060.73
488.00	1062.84
488.37	1067.99
488.73	1078.28
489.09	1068.92
489.45	1081.09
489.81	1083.43
490.17	1086.94
490.53	1082.97
490.89	1093.50
491.25	1085.31
491.61	1082.97
491.97	1075.48
492.33	1080.86
492.69	1078.52
493.05	1077.35
493.41	1074.07
493.77	1081.09
494.13	1068.92
494.49	1066.35
494.85	1073.84
495.21	1073.37
495.57	1078.05
495.93	1085.54
496.29	1101.46
496.64	1105.67
497.00	1101.92
497.36	1100.52
497.72	1098.18
498.08	1083.20
498.44	1081.33
498.80	1088.12
499.16	1080.39
499.52	1073.14
499.88	1072.43
500.24	1070.09
500.60	1080.63
500.96	1078.52
501.32	1096.31
501.68	1096.31
502.03	1087.18
502.39	1078.75
502.75	1069.39
503.11	1061.90
503.47	1069.16
503.83	1080.86
504.19	1080.63
504.55	1093.26
504.91	1101.46
505.26	1086.48
505.62	1085.54
505.98	1094.43
506.34	1092.56
506.70	1081.56
507.06	1098.18
507.42	1100.99
507.78	1097.01
508.13	1097.71
508.49	1106.37
508.85	1093.26
509.21	1085.31
509.57	1076.65
509.93	1078.05
510.28	1071.97
510.64	1076.41
511.00	1076.65
511.36	1082.26
511.72	1088.35
512.07	1084.14
512.43	1084.60
512.79	1087.88
513.15	1090.22
513.51	1087.88
513.86	1099.58
514.22	1102.39
514.58	1094.20
514.94	1092.80
515.30	1096.31
515.65	1088.82
516.01	1089.99
516.37	1098.88
516.73	1090.22
517.08	1091.39
517.44	1093.73
517.80	1095.60
518.16	1092.80
518.51	1102.16
518.87	1097.71
519.23	1099.35
519.59	1092.80
519.94	1090.92
520.30	1081.33
520.66	1078.28
521.01	1067.99
521.37	1067.99
521.73	1071.73
522.09	1073.84
522.44	1072.43
522.80	1072.20
523.16	1069.86
523.51	1068.92
523.87	1078.99
524.23	1083.67
524.58	1079.46
524.94	1091.39
525.30	1086.48
525.65	1086.94
526.01	1085.54
526.37	1094.67
526.72	1081.56
527.08	1088.58
527.44	1082.73
527.79	1083.20
528.15	1084.37
528.51	1079.69
528.86	1075.48
529.22	1078.05
529.58	1074.07
529.93	1070.56
530.29	1074.31
530.65	1076.41
531.00	1082.97
531.36	1086.24
531.71	1090.69
532.07	1102.63
532.43	1103.09
532.78	1094.20
533.14	1088.82
533.49	1086.94
533.85	1086.24
534.21	1083.43
534.56	1080.86
534.92	1078.28
535.27	1073.14
535.63	1069.62
535.98	1069.39
536.34	1071.50
536.69	1073.60
537.05	1067.52
537.41	1060.73
537.76	1065.65
538.12	1069.39
538.47	1069.62
538.83	1080.86
539.18	1086.24
539.54	1077.35
539.89	1068.69
540.25	1074.54
540.60	1070.33
540.96	1068.69
541.31	1074.07
541.67	1084.84
542.02	1082.73
542.38	1084.84
542.73	1082.50
543.09	1093.50
543.44	1094.20
543.80	1091.16
544.15	1096.78
544.51	1099.58
544.86	1089.52
545.22	1082.50
545.57	1085.31
545.93	1087.18
546.28	1091.63
546.64	1087.88
546.99	1085.54
547.35	1086.01
547.70	1080.16
548.05	1075.24
548.41	1090.22
548.76	1103.80
549.12	1102.63
549.47	1103.09
549.83	1102.39
550.18	1094.90
550.53	1087.18
550.89	1086.01
551.24	1089.75
551.60	1088.12
551.95	1080.39
552.30	1074.54
552.66	1078.75
553.01	1080.86
553.37	1082.50
553.72	1087.18
554.07	1088.35
554.43	1080.63
554.78	1069.16
555.13	1067.75
555.49	1061.20
555.84	1058.86
556.19	1065.65
556.55	1075.71
556.90	1075.71
557.26	1083.20
557.61	1084.60
557.96	1078.05
558.32	1072.67
558.67	1070.09
559.02	1079.22
559.37	1079.92
559.73	1085.54
560.08	1078.99
560.43	1086.71
560.79	1075.01
561.14	1073.14
561.49	1076.65
561.85	1089.05
562.20	1090.46
562.55	1087.41
562.90	1086.24
563.26	1081.09
563.61	1075.94
563.96	1063.54
564.32	1068.69
564.67	1078.05
565.02	1081.33
565.37	1080.86
565.73	1087.88
566.08	1092.56
566.43	1086.94
566.78	1082.03
567.14	1079.69
567.49	1085.54
567.84	1080.86
568.19	1073.84
568.54	1065.18
568.90	1066.82
569.25	1061.67
569.60	1065.18
569.95	1068.45
570.31	1086.71
570.66	1087.41
571.01	1085.54
571.36	1075.01
571.71	1087.41
572.06	1086.24
572.42	1087.41
572.77	1092.80
573.12	1095.14
573.47	1093.50
573.82	1087.41
574.18	1083.20
574.53	1080.63
574.88	1079.69
575.23	1070.80
575.58	1073.60
575.93	1076.41
576.28	1081.56
576.64	1082.97
576.99	1079.69
577.34	1087.18
577.69	1077.82
578.04	1068.45
578.39	1063.31
578.74	1073.60
579.09	1059.33
579.44	1070.56
579.80	1073.37
580.15	1081.56
580.50	1077.11
580.85	1082.03
581.20	1077.11
581.55	1079.22
581.90	1075.48
582.25	1077.58
582.60	1080.16
582.95	1089.29
583.30	1088.35
583.65	1092.09
584.00	1081.80
584.35	1077.35
584.71	1073.14
585.06	1065.65
585.41	1071.50
585.76	1075.24
586.11	1087.65
586.46	1090.92
586.81	1101.46
587.16	1100.99
587.51	1099.35
587.86	1092.56
588.21	1101.69
588.56	1095.14
588.91	1084.37
589.26	1083.20
589.61	1079.46
589.96	1070.56
590.31	1073.84
590.66	1072.67
591.01	1078.05
591.36	1073.37
591.71	1071.50
592.06	1080.39
592.41	1091.86
592.76	1089.05
593.10	1095.60
593.45	1089.52
593.80	1080.16
594.15	1066.82
594.50	1065.18
594.85	1063.54
595.20	1065.41
595.55	1064.71
595.90	1071.26
596.25	1080.63
596.60	1085.07
596.95	1086.01
597.30	1089.29
597.64	1137.27
597.99	1149.20
598.34	1149.20
598.69	1155.99
599.04	1152.48
599.39	1096.54
599.74	1080.39
600.09	1073.37
600.44	1061.43
600.78	1065.41
601.13	1067.99
601.48	1077.35
601.83	1082.97
602.18	1084.84
602.53	1079.92
602.88	1092.56
603.22	1092.33
603.57	1090.92
603.92	1096.07
604.27	1105.67
604.62	1094.67
604.97	1080.39
605.31	1068.92
605.66	1060.96
606.01	1053.94
606.36	1062.84
606.71	1064.48
607.05	1068.92
607.40	1066.11
607.75	1062.14
608.10	1060.50
608.44	1069.16
608.79	1065.65
609.14	1075.01
609.49	1082.26
609.84	1084.37
610.18	1077.82
610.53	1078.52
610.88	1086.71
611.23	1084.60
611.57	1080.16
611.92	1084.37
612.27	1092.56
612.62	1088.82
612.96	1090.92
613.31	1083.90
613.66	1077.58
614.00	1078.05
614.35	1073.37
614.70	1060.96
615.05	1073.14
615.39	1074.54
615.74	1074.31
616.09	1069.86
616.43	1087.41
616.78	1091.16
617.13	1093.73
617.47	1082.97
617.82	1094.20
618.17	1090.46
618.51	1080.63
618.86	1086.24
619.21	1096.78
619.55	1091.63
619.90	1090.22
620.25	1097.24
620.59	1084.37
620.94	1081.33
621.29	1087.88
621.63	1086.48
621.98	1086.24
622.32	1103.80
622.67	1105.20
623.02	1096.78
623.36	1086.94
623.71	1078.99
624.05	1063.54
624.40	1058.39
624.75	1056.99
625.09	1067.75
625.44	1073.60
625.78	1081.56
626.13	1085.77
626.48	1082.50
626.82	1072.20
627.17	1064.24
627.51	1064.94
627.86	1067.75
628.20	1078.75
628.55	1085.31
628.89	1089.29
629.24	1093.26
629.58	1092.80
629.93	1094.20
630.28	1094.67
630.62	1094.67
630.97	1084.84
631.31	1081.56
631.66	1076.18
632.00	1066.35
632.35	1067.99
632.69	1064.24
633.04	1065.65
633.38	1067.99
633.73	1075.24
634.07	1076.65
634.42	1086.94
634.76	1084.60
635.11	1088.35
635.45	1089.29
635.79	1083.90
636.14	1084.60
636.48	1091.39
636.83	1071.50
637.17	1067.99
637.52	1064.24
637.86	1055.82
638.21	1056.28
638.55	1069.86
638.89	1077.58
639.24	1083.67
639.58	1094.67
639.93	1093.03
640.27	1090.22
640.61	1087.65
640.96	1083.67
641.30	1071.03
641.65	1060.26
641.99	1064.48
642.33	1065.65
642.68	1061.67
643.02	1069.62
643.37	1070.56
643.71	1061.67
644.05	1049.50
644.40	1060.26
644.74	1058.86
645.08	1064.48
645.43	1066.35
645.77	1073.84
646.11	1067.52
646.46	1067.99
646.80	1068.22
647.14	1065.65
647.49	1062.84
647.83	1078.28
648.17	1076.65
648.52	1078.52
648.86	1088.35
649.20	1097.48
649.55	1084.14
649.89	1082.26
650.23	1085.07
650.57	1078.99
650.92	1076.88
651.26	1080.16
651.60	1081.09
651.95	1081.33
652.29	1092.56
652.63	1086.01
652.97	1079.92
653.32	1079.22
653.66	1078.28
654.00	1079.69
654.34	1086.71
654.69	1098.41
655.03	1092.56
655.37	1100.05
655.71	1101.92
656.05	1101.69
656.40	1093.03
656.74	1103.33
657.08	1098.18
657.42	1085.54
657.76	1080.39
658.11	1081.33
658.45	1079.92
658.79	1072.43
659.13	1070.09
659.47	1079.22
659.82	1075.71
660.16	1071.73
660.50	1068.92
660.84	1064.48
661.18	1056.99
661.52	1059.33
661.87	1066.35
662.21	1066.11
662.55	1081.33
662.89	1088.12
663.23	1085.31
663.57	1086.71
663.91	1087.41
664.25	1084.84
664.60	1085.07
664.94	1087.88
665.28	1079.69
665.62	1087.65
665.96	1082.73
666.30	1081.33
666.64	1081.09
666.98	1075.94
667.32	1078.75
667.66	1076.65
668.01	1077.11
668.35	1072.67
668.69	1087.88
669.03	1086.94
669.37	1087.18
669.71	1083.20
670.05	1087.65
670.39	1078.28
670.73	1073.37
671.07	1074.07
671.41	1071.03
671.75	1071.97
672.09	1075.94
672.43	1082.97
672.77	1086.71
673.11	1093.26
673.45	1092.80
673.79	1086.48
674.13	1076.18
674.47	1074.77
674.81	1074.77
675.15	1071.50
675.49	1073.60
675.83	1076.41
676.17	1079.46
676.51	1072.90
676.85	1078.28
677.19	1076.65
677.53	1072.20
677.87	1064.24
678.21	1064.94
678.55	1066.58
678.89	1073.14
679.23	1077.11
679.57	1081.56
679.90	1085.31
680.24	1077.11
680.58	1065.88
680.92	1070.33
681.26	1068.92
681.60	1068.45
681.94	1067.75
682.28	1072.67
682.62	1074.07
682.96	1078.99
683.29	1078.28
683.63	1088.58
683.97	1096.54
684.31	1084.37
684.65	1089.99
684.99	1100.52
685.33	1099.82
685.67	1099.35
686.00	1110.58
686.34	1101.69
686.68	1084.84
687.02	1080.39
687.36	1075.94
687.70	1072.20
688.03	1062.84
688.37	1069.39
688.71	1070.56
689.05	1067.28
689.39	1069.16
689.72	1069.39
690.06	1065.65
690.40	1072.90
690.74	1078.05
691.08	1085.07
691.41	1084.37
691.75	1086.48
692.09	1078.99
692.43	1077.11
692.76	1059.09
693.10	1065.41
693.44	1069.62
693.78	1070.56
694.11	1064.71
694.45	1073.14
694.79	1075.24
695.13	1064.94
695.46	1060.03
695.80	1067.05
696.14	1061.20
696.48	1056.52
696.81	1064.71
697.15	1061.67
697.49	1065.65
697.82	1069.16
698.16	1072.67
698.50	1071.50
698.83	1075.94
699.17	1075.24
699.51	1077.58
699.84	1084.14
700.18	1088.82
700.52	1094.90
700.85	1083.20
701.19	1090.22
701.53	1086.94
701.86	1082.26
702.20	1078.28
702.54	1089.75
702.87	1085.31
703.21	1086.24
703.55	1091.39
703.88	1092.56
704.22	1077.35
704.55	1073.14
704.89	1076.41
705.23	1067.52
705.56	1069.39
705.90	1080.86
706.23	1091.63
706.57	1090.22
706.91	1100.05
707.24	1096.31
707.58	1091.86
707.91	1075.48
708.25	1072.67
708.58	1074.07
708.92	1084.60
709.26	1100.52
709.59	1115.03
709.93	1110.12
710.26	1109.41
710.60	1098.88
710.93	1089.05
711.27	1085.07
711.60	1085.54
711.94	1090.69
712.27	1098.18
712.61	1098.88
712.94	1099.82
713.28	1110.82
713.61	1099.58
713.95	1092.80
714.28	1091.86
714.62	1088.58
714.95	1080.63
715.29	1082.50
715.62	1074.54
715.96	1073.60
716.29	1078.99
716.63	1078.28
716.96	1077.58
717.29	1076.88
717.63	1078.05
717.96	1078.28
718.30	1077.35
718.63	1073.14
718.97	1082.97
719.30	1077.58
719.63	1063.31
719.97	1065.18
720.30	1075.71
720.64	1076.88
720.97	1084.37
721.30	1093.73
721.64	1086.01
721.97	1073.84
722.31	1071.03
722.64	1063.07
722.97	1065.18
723.31	1064.94
723.64	1067.99
723.97	1077.11
724.31	1081.33
724.64	1079.46
724.98	1087.65
725.31	1089.05
725.64	1095.84
725.98	1097.01
726.31	1107.54
726.64	1106.61
726.97	1099.35
727.31	1079.69
727.64	1082.73
727.97	1077.35
728.31	1076.18
728.64	1086.71
728.97	1083.20
729.31	1077.11
729.64	1072.67
729.97	1072.20
730.30	1063.31
730.64	1064.48
730.97	1064.24
731.30	1060.73
731.63	1065.41
731.97	1071.73
732.30	1089.75
732.63	1094.20
732.96	1083.90
733.30	1079.46
733.63	1070.56
733.96	1058.16
734.29	1068.69
734.63	1089.29
734.96	1082.26
735.29	1092.56
735.62	1083.20
735.95	1073.60
736.29	1066.11
736.62	1072.20
736.95	1071.26
737.28	1081.33
737.61	1077.82
737.94	1067.52
738.28	1078.28
738.61	1076.41
738.94	1078.99
739.27	1071.03
739.60	1086.01
739.93	1068.69
740.27	1068.69
740.60	1075.94
740.93	1086.94
741.26	1082.03
741.59	1097.48
741.92	1098.65
742.25	1084.37
742.58	1082.97
742.91	1083.43
743.25	1066.35
743.58	1065.88
743.91	1065.65
744.24	1067.75
744.57	1069.39
744.90	1071.73
745.23	1065.88
745.56	1078.75
745.89	1080.39
746.22	1081.33
746.55	1089.29
746.88	1093.50
747.21	1093.26
747.54	1095.60
747.87	1094.90
748.20	1090.22
748.53	1101.92
748.87	1102.39
749.20	1083.20
749.53	1083.43
749.86	1087.88
750.19	1079.46
750.52	1072.90
750.85	1092.56
751.18	1089.52
751.51	1097.48
751.84	1095.60
752.16	1089.52
752.49	1074.07
752.82	1082.50
753.15	1082.73
753.48	1074.07
753.81	1071.03
754.14	1076.88
754.47	1063.77
754.80	1055.82
755.13	1062.84
755.46	1078.05
755.79	1071.97
756.12	1080.39
756.45	1085.54
756.78	1091.63
757.11	1093.97
757.43	1104.50
757.76	1093.97
758.09	1087.88
758.42	1079.22
758.75	1069.16
759.08	1066.35
759.41	1076.88
759.74	1079.92
760.07	1082.03
760.39	1082.97
760.72	1082.03
761.05	1069.16
761.38	1068.92
761.71	1072.67
762.04	1065.41
762.36	1071.03
762.69	1082.73
763.02	1073.84
763.35	1071.97
763.68	1079.92
764.01	1076.65
764.33	1073.37
764.66	1080.39
764.99	1092.09
765.32	1097.48
765.65	1104.26
765.97	1103.09
766.30	1104.73
766.63	1091.63
766.96	1085.77
767.28	1077.82
767.61	1083.20
767.94	1075.01
768.27	1077.58
768.59	1078.75
768.92	1088.35
769.25	1079.46
769.58	1078.52
769.90	1082.73
770.23	1078.99
770.56	1071.97
770.89	1089.52
771.21	1097.24
771.54	1086.24
771.87	1083.43
772.19	1080.39
772.52	1073.37
772.85	1078.75
773.17	1084.14
773.50	1087.18
773.83	1082.73
774.15	1080.63
774.48	1072.43
774.81	1068.22
775.13	1060.03
775.46	1064.01
775.79	1057.22
776.11	1056.99
776.44	1066.35
776.77	1074.07
777.09	1077.82
777.42	1080.16
777.74	1091.16
778.07	1089.99
778.40	1086.71
778.72	1086.48
779.05	1099.35
779.37	1083.67
779.70	1076.88
780.03	1079.46
780.35	1077.35
780.68	1069.86
781.00	1082.97
781.33	1089.99
781.65	1109.18
781.98	1109.41
782.31	1111.75
782.63	1107.78
782.96	1104.26
783.28	1091.39
783.61	1091.16
783.93	1074.07
784.26	1071.73
784.58	1071.73
784.91	1072.67
785.23	1073.84
785.56	1081.80
785.88	1083.43
786.21	1081.80
786.53	1077.58
786.86	1079.46
787.18	1080.39
787.51	1069.39
787.83	1073.14
788.16	1072.20
788.48	1064.71
788.81	1057.69
789.13	1068.69
789.46	1063.54
789.78	1068.22
790.10	1066.11
790.43	1075.71
790.75	1072.67
791.08	1078.52
791.40	1076.88
791.73	1093.03
792.05	1096.07
792.37	1097.95
792.70	1094.43
793.02	1092.09
793.35	1078.99
793.67	1075.71
793.99	1076.65
794.32	1074.07
794.64	1079.22
794.96	1080.63
795.29	1079.92
795.61	1081.33
795.93	1086.94
796.26	1083.43
796.58	1086.24
796.91	1086.48
797.23	1091.16
797.55	1074.54
797.87	1073.14
798.20	1077.82
798.52	1073.37
798.84	1064.24
799.17	1077.58
799.49	1070.56
799.81	1064.94
800.14	1070.33
800.46	1071.03
800.78	1081.56
801.10	1092.56
801.43	1092.09
801.75	1092.80
802.07	1101.46
802.40	1097.24
802.72	1096.31
803.04	1094.90
803.36	1097.01
803.69	1088.12
804.01	1083.20
804.33	1078.75
804.65	1083.43
804.97	1070.09
805.30	1072.43
805.62	1076.65
805.94	1077.35
806.26	1074.77
806.58	1087.88
806.91	1090.22
807.23	1080.86
807.55	1072.43
807.87	1074.31
808.19	1061.67
808.52	1059.09
808.84	1065.41
809.16	1077.11
809.48	1079.92
809.80	1081.80
810.12	1089.29
810.44	1084.84
810.77	1080.39
811.09	1080.16
811.41	1079.92
811.73	1072.43
812.05	1082.26
812.37	1094.20
812.69	1086.24
813.01	1095.37
813.33	1093.03
813.66	1096.31
813.98	1092.09
814.30	1093.26
814.62	1093.03
814.94	1091.86
815.26	1082.97
815.58	1079.22
815.90	1073.84
816.22	1079.69
816.54	1082.50
816.86	1086.01
817.18	1081.09
817.50	1091.16
817.82	1083.90
818.14	1082.97
818.46	1089.99
818.78	1096.31
819.10	1096.31
819.42	1098.65
819.74	1103.09
820.06	1091.16
820.38	1097.01
820.70	1091.63
821.02	1083.43
821.34	1087.88
821.66	1096.31
821.98	1090.46
822.30	1101.46
822.62	1102.39
822.94	1087.18
823.26	1078.99
823.58	1068.45
823.90	1067.99
824.22	1072.67
824.54	1077.58
824.86	1083.43
825.18	1087.41
825.50	1079.46
825.81	1084.37
826.13	1086.71
826.45	1083.90
826.77	1084.14
827.09	1090.22
827.41	1080.39
827.73	1082.73
828.05	1078.05
828.36	1075.48
828.68	1062.60
829.00	1067.28
829.32	1067.05
829.64	1072.20
829.96	1081.33
830.28	1084.37
830.59	1082.26
830.91	1083.20
831.23	1078.75
831.55	1074.31
831.87	1077.82
832.19	1078.75
832.50	1070.09
832.82	1066.11
833.14	1069.39
833.46	1067.52
833.78	1062.14
834.09	1071.97
834.41	1078.52
834.73	1076.65
835.05	1077.58
835.36	1080.39
835.68	1075.48
836.00	1076.88
836.32	1075.48
836.63	1070.09
836.95	1069.86
837.27	1073.37
837.59	1072.20
837.90	1068.22
838.22	1067.52
838.54	1064.01
838.85	1064.71
839.17	1056.28
839.49	1059.79
839.80	1061.43
840.12	1078.99
840.44	1078.28
840.76	1088.58
841.07	1088.58
841.39	1099.58
841.71	1092.33
842.02	1091.86
842.34	1082.26
842.65	1087.41
842.97	1086.94
843.29	1086.48
843.60	1086.48
843.92	1088.35
844.24	1082.26
844.55	1078.28
844.87	1075.94
845.18	1069.62
845.50	1072.43
845.82	1079.46
846.13	1083.67
846.45	1093.50
846.76	1099.82
847.08	1101.46
847.40	1095.14
847.71	1093.03
848.03	1079.69
848.34	1076.65
848.66	1078.99
848.97	1080.63
849.29	1082.26
849.60	1091.16
849.92	1100.75
850.24	1104.73
850.55	1106.37
850.87	1100.05
851.18	1090.46
851.50	1083.20
851.81	1077.11
852.13	1081.56
852.44	1080.63
852.76	1087.65
853.07	1090.69
853.39	1094.90
853.70	1087.18
854.01	1085.54
854.33	1084.37
854.64	1083.67
854.96	1071.73
855.27	1074.54
855.59	1078.28
855.90	1079.22
856.22	1079.22
856.53	1087.65
856.84	1086.94
857.16	1091.39
857.47	1087.65
857.79	1086.01
858.10	1085.54
858.41	1087.41
858.73	1073.37
859.04	1076.88
859.36	1084.84
859.67	1075.24
859.98	1062.14
860.30	1079.22
860.61	1078.52
860.92	1076.18
861.24	1087.65
861.55	1100.99
861.87	1092.09
862.18	1102.39
862.49	1098.88
862.81	1100.75
863.12	1099.12
863.43	1100.05
863.74	1082.50
864.06	1078.28
864.37	1069.62
864.68	1072.90
865.00	1083.20
865.31	1092.33
865.62	1087.18
865.94	1083.20
866.25	1081.56
866.56	1074.77
866.87	1068.45
867.19	1078.28
867.50	1086.01
867.81	1081.33
868.12	1080.39
868.44	1071.26
868.75	1062.60
869.06	1064.71
869.37	1062.60
869.68	1068.22
870.00	1072.90
870.31	1077.58
870.62	1080.16
870.93	1091.16
871.24	1078.05
871.56	1085.77
871.87	1079.22
872.18	1079.69
872.49	1064.71
872.80	1074.77
873.12	1067.99
873.43	1072.90
873.74	1074.07
874.05	1086.48
874.36	1092.80
874.67	1099.58
874.98	1106.84
875.29	1103.80
875.61	1097.48
875.92	1087.41
876.23	1082.73
876.54	1081.80
876.85	1086.71
877.16	1089.52
877.47	1086.01
877.78	1092.33
878.09	1077.82
878.40	1075.24
878.72	1079.46
879.03	1080.86
879.34	1083.20
879.65	1095.84
879.96	1089.29
880.27	1078.99
880.58	1091.63
880.89	1089.29
881.20	1092.80
881.51	1095.60
881.82	1101.92
882.13	1093.26
882.44	1087.88
882.75	1086.94
883.06	1086.24
883.37	1087.41
883.68	1097.48
883.99	1101.69
884.30	1103.09
884.61	1096.78
884.92	1093.03
885.23	1078.05
885.54	1083.67
885.85	1082.03
886.16	1082.03
886.47	1077.35
886.78	1082.03
887.08	1069.39
887.39	1062.37
887.70	1067.52
888.01	1067.99
888.32	1071.73
888.63	1077.58
888.94	1081.33
889.25	1085.07
889.56	1088.58
889.87	1078.28
890.17	1079.22
890.48	1074.77
890.79	1069.86
891.10	1081.33
891.41	1086.24
891.72	1080.16
892.03	1082.50
892.34	1082.26
892.64	1067.75
892.95	1063.31
893.26	1070.56
893.57	1065.18
893.88	1064.94
894.18	1072.20
894.49	1070.80
894.80	1074.07
895.11	1076.88
895.42	1074.54
895.72	1075.94
896.03	1078.75
896.34	1082.50
896.65	1077.58
896.96	1075.71
897.26	1069.16
897.57	1074.07
897.88	1073.60
898.19	1084.37
898.49	1091.86
898.80	1085.77
899.11	1086.01
899.41	1094.67
899.72	1097.01
900.03	1094.43
900.34	1096.78
900.64	1091.39
900.95	1065.65
901.26	1059.79
901.56	1051.13
901.87	1051.13
902.18	1059.09
902.48	1073.60
902.79	1073.14
903.10	1078.05
903.40	1078.05
903.71	1071.73
904.02	1063.31
904.32	1062.60
904.63	1067.75
904.94	1075.71
905.24	1070.56
905.55	1078.28
905.85	1084.37
906.16	1094.67
906.47	1089.29
906.77	1099.12
907.08	1094.67
907.38	1093.73
907.69	1091.86
908.00	1100.05
908.30	1096.07
908.61	1091.39
908.91	1094.20
909.22	1087.18
909.52	1077.82
909.83	1074.07
910.14	1082.97
910.44	1075.24
910.75	1069.86
911.05	1071.73
911.36	1075.01
911.66	1071.03
911.97	1068.22
912.27	1067.28
912.58	1067.75
912.88	1067.99
913.19	1063.54
913.49	1069.39
913.80	1073.14
914.10	1075.94
914.41	1074.07
914.71	1071.26
915.01	1067.99
915.32	1067.28
915.62	1058.16
915.93	1059.33
916.23	1066.58
916.54	1067.52
916.84	1065.88
917.15	1070.80
917.45	1064.94
917.75	1060.73
918.06	1060.50
918.36	1061.20
918.67	1057.69
918.97	1060.03
919.27	1061.67
919.58	1066.58
919.88	1075.48
920.18	1083.90
920.49	1095.14
920.79	1101.22
921.10	1093.26
921.40	1087.88
921.70	1092.56
922.01	1083.90
922.31	1071.97
922.61	1077.58
922.92	1083.43
923.22	1089.29
923.52	1094.20
923.82	1103.80
924.13	1104.26
924.43	1096.07
924.73	1082.50
925.04	1079.92
925.34	1083.90
925.64	1084.84
925.94	1088.58
926.25	1097.71
926.55	1096.07
926.85	1085.54
927.15	1084.14
927.46	1084.37
927.76	1071.97
928.06	1082.03
928.36	1078.75
928.67	1074.31
928.97	1071.73
929.27	1075.71
929.57	1059.09
929.87	1067.05
930.18	1076.18
930.48	1075.01
930.78	1072.90
931.08	1079.69
931.38	1077.11
931.69	1069.62
931.99	1076.41
932.29	1073.84
932.59	1073.84
932.89	1074.54
933.19	1070.56
933.49	1060.96
933.80	1064.24
934.10	1069.16
934.40	1064.94
934.70	1063.07
935.00	1071.50
935.30	1080.63
935.60	1081.33
935.90	1082.26
936.20	1090.69
936.50	1086.48
936.81	1078.28
937.11	1073.37
937.41	1077.11
937.71	1080.63
938.01	1077.35
938.31	1081.33
938.61	1085.54
938.91	1092.56
939.21	1094.20
939.51	1096.31
939.81	1097.24
940.11	1095.60
940.41	1082.03
940.71	1072.90
941.01	1077.58
941.31	1071.50
941.61	1067.75
941.91	1078.52
942.21	1080.39
942.51	1085.07
942.81	1087.18
943.11	1085.54
943.41	1076.41
943.71	1082.73
944.01	1074.77
944.31	1075.94
944.61	1082.97
944.90	1090.69
945.20	1087.88
945.50	1089.99
945.80	1091.63
946.10	1087.65
946.40	1078.05
946.70	1077.11
947.00	1078.28
947.30	1087.88
947.60	1088.58
947.89	1095.37
948.19	1087.65
948.49	1090.92
948.79	1091.16
949.09	1089.75
949.39	1088.58
949.69	1096.31
949.98	1103.33
950.28	1089.29
950.58	1084.37
950.88	1085.54
951.18	1076.41
951.48	1063.07
951.77	1064.48
952.07	1064.94
952.37	1058.86
952.67	1060.73
952.97	1058.62
953.26	1051.37
953.56	1061.43
953.86	1070.56
954.16	1070.09
954.45	1063.54
954.75	1071.03
955.05	1066.58
955.35	1074.54
955.64	1082.97
955.94	1094.43
956.24	1082.97
956.54	1077.82
956.83	1077.11
957.13	1066.82
957.43	1056.99
957.72	1065.18
958.02	1071.26
958.32	1072.67
958.61	1091.86
958.91	1105.44
959.21	1109.18
959.50	1109.65
959.80	1108.24
960.10	1095.84
960.39	1093.97
960.69	1095.14
960.99	1090.69
961.28	1086.01
961.58	1081.56
961.87	1072.43
962.17	1080.16
962.47	1078.05
962.76	1075.71
963.06	1086.48
963.36	1090.69
963.65	1083.67
963.95	1087.41
964.24	1091.86
964.54	1089.75
964.83	1091.16
965.13	1095.37
965.42	1094.43
965.72	1087.18
966.02	1087.41
966.31	1082.50
966.61	1075.24
966.90	1084.84
967.20	1083.67
967.49	1080.86
967.79	1082.26
968.08	1085.54
968.38	1078.52
968.67	1087.65
968.97	1083.43
969.26	1084.14
969.56	1084.60
969.85	1077.11
970.15	1067.75
970.44	1075.24
970.74	1078.75
971.03	1081.09
971.32	1090.22
971.62	1096.78
971.91	1100.52
972.21	1104.73
972.50	1107.78
972.80	1103.09
973.09	1093.26
973.38	1089.29
973.68	1086.01
973.97	1075.94
974.27	1086.48
974.56	1093.50
974.85	1088.58
975.15	1075.24
975.44	1082.03
975.73	1072.90
976.03	1071.03
976.32	1075.24
976.61	1086.24
976.91	1079.69
977.20	1077.35
977.49	1075.94
977.79	1071.50
978.08	1076.41
978.37	1083.67
978.67	1086.24
978.96	1085.31
979.25	1084.37
979.55	1078.99
979.84	1073.37
980.13	1080.39
980.42	1084.60
980.72	1087.88
981.01	1091.63
981.30	1103.80
981.59	1088.82
981.89	1086.01
982.18	1082.26
982.47	1084.14
982.76	1073.84
983.06	1097.48
983.35	1100.52
983.64	1104.26
983.93	1093.26
984.22	1092.33
984.52	1068.45
984.81	1068.22
985.10	1067.75
985.39	1073.37
985.68	1070.09
985.97	1083.43
986.27	1081.80
986.56	1071.03
986.85	1071.50
987.14	1078.05
987.43	1073.60
987.72	1068.69
988.01	1076.41
988.31	1066.58
988.60	1062.37
988.89	1065.18
989.18	1072.67
989.47	1072.90
989.76	1083.90
990.05	1078.99
990.34	1080.63
990.63	1083.43
990.92	1084.84
991.21	1079.46
991.51	1082.97
991.80	1083.67
992.09	1074.31
992.38	1078.52
992.67	1078.52
992.96	1074.77
993.25	1074.31
993.54	1082.26
993.83	1083.90
994.12	1086.48
994.41	1090.22
994.70	1090.46
994.99	1085.07
995.28	1077.35
995.57	1086.71
995.86	1095.37
996.15	1075.48
996.44	1077.35
996.73	1076.41
997.02	1065.65
997.31	1064.01
997.59	1075.48
997.88	1079.92
998.17	1072.67
998.46	1075.01
998.75	1065.18
999.04	1070.09
999.33	1059.79
999.62	1068.69
999.91	1071.50
1000.20	1068.69
1000.49	1065.18
1000.77	1066.58
1001.06	1062.37
1001.35	1063.31
1001.64	1071.26
1001.93	1073.60
1002.22	1074.77
1002.51	1073.84
1002.79	1072.43
1003.08	1073.14
1003.37	1073.60
1003.66	1076.65
1003.95	1078.28
1004.23	1076.18
1004.52	1080.16
1004.81	1078.99
1005.10	1086.94
1005.39	1088.35
1005.67	1090.92
1005.96	1084.60
1006.25	1082.73
1006.54	1079.69
1006.83	1083.43
1007.11	1077.58
1007.40	1084.37
1007.69	1087.41
1007.97	1082.03
1008.26	1090.22
1008.55	1091.39
1008.84	1078.99
1009.12	1073.84
1009.41	1071.03
1009.70	1069.86
1009.98	1072.90
1010.27	1079.92
1010.56	1085.31
1010.85	1091.16
1011.13	1084.60
1011.42	1093.73
1011.71	1094.90
1011.99	1093.03
1012.28	1082.50
1012.56	1069.39
1012.85	1073.14
1013.14	1081.80
1013.42	1083.67
1013.71	1093.26
1014.00	1108.71
1014.28	1087.18
1014.57	1073.84
1014.85	1079.92
1015.14	1068.69
1015.43	1065.88
1015.71	1078.75
1016.00	1081.09
1016.28	1072.90
1016.57	1082.97
1016.85	1085.07
1017.14	1078.52
1017.43	1086.01
1017.71	1089.29
1018.00	1096.78
1018.28	1093.26
1018.57	1088.12
1018.85	1077.82
1019.14	1083.20
1019.42	1076.18
1019.71	1065.88
1019.99	1066.11
1020.28	1070.56
1020.56	1064.94
1020.85	1075.48
1021.13	1083.20
1021.42	1093.97
1021.70	1095.37
1021.99	1089.99
1022.27	1076.41
1022.55	1059.09
1022.84	1069.62
>>>>>End Processed Spectral Data<<<<<
