SpectraSuite Data File
++++++++++++++++++++++++++++++++++++
Date: Mon Aug 26 10:25:44 PDT 2019
User: corrico
Dark Spectrum Present: No
Reference Spectrum Present: No
Number of Sampled Component Spectra: 1
Spectrometers: USB2+H06089
Integration Time (usec): 10000 (USB2+H06089)
Spectra Averaged: 2 (USB2+H06089)
Boxcar Smoothing: 2 (USB2+H06089)
Correct for Electrical Dark: No (USB2+H06089)
Strobe/Lamp Enabled: No (USB2+H06089)
Correct for Detector Non-linearity: No (USB2+H06089)
Correct for Stray Light: No (USB2+H06089)
Number of Pixels in Processed Spectrum: 2048
>>>>>Begin Processed Spectral Data<<<<<
339.70	1071.97
340.07	1071.97
340.45	1017.90
340.82	983.26
341.19	952.13
341.57	917.96
341.94	909.30
342.31	896.66
342.69	887.06
343.06	876.30
343.43	881.45
343.81	871.38
344.18	890.11
344.55	901.34
344.93	911.64
345.30	913.98
345.67	934.58
346.04	938.79
346.42	943.70
346.79	955.87
347.16	958.45
347.54	965.00
347.91	970.85
348.28	989.11
348.65	989.81
349.03	1003.86
349.40	1002.22
349.77	1007.60
350.14	1013.69
350.52	1028.20
350.89	1033.81
351.26	1045.75
351.63	1055.58
352.01	1060.50
352.38	1063.07
352.75	1069.39
353.12	1078.75
353.50	1081.33
353.87	1086.24
354.24	1087.65
354.61	1086.94
354.98	1084.84
355.36	1081.80
355.73	1082.97
356.10	1094.67
356.47	1097.01
356.84	1091.63
357.22	1092.33
357.59	1091.39
357.96	1085.77
358.33	1091.63
358.70	1085.07
359.08	1085.54
359.45	1086.01
359.82	1065.65
360.19	1056.05
360.56	1067.05
360.94	1062.37
361.31	1048.56
361.68	1069.39
362.05	1065.41
362.42	1059.33
362.79	1067.05
363.16	1070.09
363.54	1063.77
363.91	1069.16
364.28	1070.56
364.65	1073.60
365.02	1076.88
365.39	1074.77
365.76	1077.11
366.14	1075.94
366.51	1065.41
366.88	1063.54
367.25	1060.50
367.62	1056.05
367.99	1056.52
368.36	1056.05
368.73	1059.56
369.10	1061.67
369.48	1056.99
369.85	1058.16
370.22	1064.24
370.59	1063.54
370.96	1072.20
371.33	1071.97
371.70	1073.14
372.07	1073.60
372.44	1064.01
372.81	1061.67
373.18	1067.28
373.55	1061.90
373.93	1059.79
374.30	1065.41
374.67	1060.96
375.04	1061.90
375.41	1067.75
375.78	1070.56
376.15	1064.01
376.52	1072.43
376.89	1076.65
377.26	1079.46
377.63	1079.46
378.00	1082.73
378.37	1080.86
378.74	1086.24
379.11	1082.97
379.48	1076.88
379.85	1082.26
380.22	1075.94
380.59	1060.26
380.96	1056.52
381.33	1067.05
381.70	1065.18
382.07	1065.41
382.44	1070.56
382.81	1071.50
383.18	1059.33
383.55	1061.20
383.92	1065.88
384.29	1070.56
384.66	1075.48
385.03	1078.75
385.40	1070.09
385.77	1073.60
386.14	1070.09
386.51	1068.69
386.88	1073.37
387.25	1086.94
387.62	1070.33
387.99	1067.05
388.36	1075.71
388.73	1066.11
389.10	1063.07
389.46	1071.97
389.83	1073.14
390.20	1064.71
390.57	1075.01
390.94	1079.46
391.31	1073.84
391.68	1081.33
392.05	1077.11
392.42	1074.31
392.79	1070.80
393.16	1079.92
393.53	1072.20
393.89	1073.60
394.26	1067.75
394.63	1077.35
395.00	1073.84
395.37	1073.84
395.74	1078.52
396.11	1095.14
396.48	1085.54
396.84	1081.56
397.21	1090.46
397.58	1092.33
397.95	1086.71
398.32	1084.60
398.69	1082.73
399.06	1077.11
399.42	1074.77
399.79	1070.56
400.16	1074.07
400.53	1082.73
400.90	1088.35
401.27	1089.29
401.64	1086.94
402.00	1088.12
402.37	1087.18
402.74	1080.63
403.11	1082.26
403.48	1075.01
403.84	1070.33
404.21	1063.31
404.58	1063.07
404.95	1049.73
405.32	1056.28
405.68	1056.05
406.05	1063.77
406.42	1067.99
406.79	1075.24
407.16	1074.31
407.52	1066.11
407.89	1064.71
408.26	1060.73
408.63	1064.71
408.99	1071.26
409.36	1082.03
409.73	1081.09
410.10	1081.09
410.47	1077.11
410.83	1072.67
411.20	1073.14
411.57	1072.90
411.94	1072.67
412.30	1076.88
412.67	1087.41
413.04	1085.07
413.40	1085.07
413.77	1085.77
414.14	1083.20
414.51	1074.31
414.87	1067.28
415.24	1059.79
415.61	1056.05
415.97	1049.03
416.34	1053.24
416.71	1059.33
417.08	1073.14
417.44	1072.67
417.81	1076.41
418.18	1070.09
418.54	1070.56
418.91	1068.22
419.28	1071.97
419.64	1073.37
420.01	1070.33
420.38	1069.86
420.74	1070.09
421.11	1077.35
421.48	1073.84
421.84	1083.20
422.21	1080.63
422.58	1079.46
422.94	1074.77
423.31	1080.86
423.68	1068.69
424.04	1075.94
424.41	1074.07
424.77	1061.67
425.14	1057.92
425.51	1062.84
425.87	1065.18
426.24	1062.60
426.61	1078.75
426.97	1073.14
427.34	1074.77
427.70	1067.05
428.07	1069.86
428.44	1054.41
428.80	1075.24
429.17	1073.60
429.53	1078.75
429.90	1078.52
430.27	1087.65
430.63	1066.82
431.00	1071.50
431.36	1069.62
431.73	1064.01
432.09	1064.71
432.46	1076.18
432.83	1068.22
433.19	1064.01
433.56	1068.92
433.92	1066.35
434.29	1059.56
434.65	1073.14
435.02	1087.18
435.38	1088.82
435.75	1093.73
436.11	1096.07
436.48	1088.12
436.84	1075.48
437.21	1072.90
437.57	1067.75
437.94	1070.56
438.30	1071.03
438.67	1072.67
439.03	1076.18
439.40	1080.86
439.76	1081.80
440.13	1088.12
440.49	1090.69
440.86	1084.37
441.22	1085.31
441.59	1089.52
441.95	1080.63
442.32	1078.05
442.68	1085.31
443.05	1087.88
443.41	1091.86
443.78	1087.88
444.14	1088.12
444.51	1085.54
444.87	1075.24
445.24	1068.69
445.60	1075.71
445.96	1077.58
446.33	1076.88
446.69	1082.26
447.06	1072.20
447.42	1070.33
447.79	1068.92
448.15	1075.94
448.51	1064.01
448.88	1076.18
449.24	1079.69
449.61	1086.24
449.97	1075.24
450.33	1089.05
450.70	1090.92
451.06	1086.71
451.43	1072.67
451.79	1079.46
452.15	1080.39
452.52	1067.05
452.88	1068.69
453.24	1077.58
453.61	1065.18
453.97	1061.90
454.34	1066.35
454.70	1068.69
455.06	1072.20
455.43	1083.43
455.79	1085.77
456.15	1085.07
456.52	1076.88
456.88	1071.03
457.24	1071.73
457.61	1064.94
457.97	1074.31
458.33	1077.58
458.70	1081.56
459.06	1080.16
459.42	1082.26
459.79	1074.77
460.15	1079.92
460.51	1083.43
460.88	1084.14
461.24	1089.52
461.60	1088.58
461.96	1093.73
462.33	1086.71
462.69	1094.20
463.05	1088.12
463.42	1094.90
463.78	1085.77
464.14	1091.39
464.50	1084.60
464.87	1087.18
465.23	1077.82
465.59	1080.16
465.95	1076.88
466.32	1085.07
466.68	1084.60
467.04	1094.43
467.40	1092.33
467.77	1084.37
468.13	1077.35
468.49	1081.56
468.85	1074.54
469.22	1086.01
469.58	1096.31
469.94	1099.12
470.30	1082.26
470.66	1081.56
471.03	1062.60
471.39	1062.14
471.75	1056.28
472.11	1066.35
472.47	1072.67
472.84	1085.54
473.20	1092.56
473.56	1093.03
473.92	1098.18
474.28	1108.48
474.65	1110.12
475.01	1106.84
475.37	1104.50
475.73	1109.18
476.09	1106.37
476.45	1090.69
476.81	1086.71
477.18	1095.84
477.54	1089.29
477.90	1074.77
478.26	1085.54
478.62	1088.82
478.98	1081.56
479.34	1073.84
479.71	1076.18
480.07	1080.63
480.43	1075.01
480.79	1063.31
481.15	1075.94
481.51	1069.16
481.87	1053.48
482.23	1046.22
482.59	1067.52
482.96	1064.24
483.32	1071.50
483.68	1074.77
484.04	1076.41
484.40	1065.65
484.76	1062.60
485.12	1064.71
485.48	1071.73
485.84	1079.69
486.20	1079.69
486.56	1077.11
486.92	1077.35
487.28	1082.97
487.64	1078.05
488.00	1071.97
488.37	1075.01
488.73	1072.67
489.09	1058.16
489.45	1063.77
489.81	1065.18
490.17	1065.65
490.53	1073.14
490.89	1085.77
491.25	1081.80
491.61	1084.14
491.97	1080.86
492.33	1078.05
492.69	1066.35
493.05	1071.03
493.41	1080.63
493.77	1081.33
494.13	1082.03
494.49	1089.75
494.85	1081.56
495.21	1076.65
495.57	1071.26
495.93	1067.28
496.29	1067.28
496.64	1079.92
497.00	1077.35
497.36	1097.71
497.72	1090.46
498.08	1088.35
498.44	1078.99
498.80	1087.41
499.16	1085.77
499.52	1093.03
499.88	1090.92
500.24	1096.54
500.60	1088.58
500.96	1085.54
501.32	1089.29
501.68	1091.63
502.03	1089.29
502.39	1085.07
502.75	1073.84
503.11	1064.48
503.47	1069.16
503.83	1069.86
504.19	1079.22
504.55	1079.92
504.91	1093.03
505.26	1086.01
505.62	1076.65
505.98	1071.97
506.34	1075.01
506.70	1069.62
507.06	1080.63
507.42	1084.14
507.78	1078.52
508.13	1076.88
508.49	1074.77
508.85	1073.84
509.21	1071.97
509.57	1083.90
509.93	1080.39
510.28	1075.01
510.64	1072.90
511.00	1071.50
511.36	1064.48
511.72	1064.71
512.07	1073.84
512.43	1071.03
512.79	1074.54
513.15	1073.37
513.51	1081.33
513.86	1073.37
514.22	1069.39
514.58	1060.50
514.94	1059.33
515.30	1056.99
515.65	1060.26
516.01	1063.54
516.37	1083.20
516.73	1087.65
517.08	1086.01
517.44	1087.18
517.80	1091.16
518.16	1081.33
518.51	1087.18
518.87	1086.01
519.23	1086.71
519.59	1082.03
519.94	1093.50
520.30	1093.97
520.66	1101.46
521.01	1102.16
521.37	1104.50
521.73	1093.97
522.09	1089.75
522.44	1077.82
522.80	1081.56
523.16	1079.46
523.51	1082.50
523.87	1076.88
524.23	1085.31
524.58	1079.69
524.94	1081.56
525.30	1078.28
525.65	1073.84
526.01	1076.65
526.37	1083.90
526.72	1081.80
527.08	1081.56
527.44	1093.50
527.79	1100.99
528.15	1092.56
528.51	1102.63
528.86	1112.92
529.22	1113.39
529.58	1111.99
529.93	1116.20
530.29	1112.69
530.65	1097.01
531.00	1092.80
531.36	1079.69
531.71	1079.22
532.07	1080.16
532.43	1089.29
532.78	1087.18
533.14	1097.01
533.49	1104.26
533.85	1102.63
534.21	1101.22
534.56	1091.86
534.92	1081.09
535.27	1073.37
535.63	1058.62
535.98	1063.07
536.34	1079.92
536.69	1084.14
537.05	1082.97
537.41	1092.33
537.76	1074.54
538.12	1073.84
538.47	1078.75
538.83	1072.20
539.18	1074.31
539.54	1082.26
539.89	1081.56
540.25	1078.05
540.60	1089.05
540.96	1098.18
541.31	1100.52
541.67	1100.05
542.02	1093.73
542.38	1088.35
542.73	1074.77
543.09	1074.54
543.44	1069.86
543.80	1075.71
544.15	1081.80
544.51	1094.20
544.86	1097.01
545.22	1096.31
545.57	1094.20
545.93	1082.50
546.28	1078.28
546.64	1082.50
546.99	1083.20
547.35	1083.20
547.70	1098.41
548.05	1088.35
548.41	1082.73
548.76	1087.65
549.12	1095.84
549.47	1076.88
549.83	1083.90
550.18	1080.63
550.53	1075.48
550.89	1069.16
551.24	1083.67
551.60	1092.80
551.95	1108.48
552.30	1108.71
552.66	1101.46
553.01	1086.01
553.37	1071.26
553.72	1056.05
554.07	1067.75
554.43	1078.75
554.78	1091.86
555.13	1088.35
555.49	1092.80
555.84	1081.33
556.19	1087.41
556.55	1090.69
556.90	1099.35
557.26	1101.22
557.61	1097.71
557.96	1081.09
558.32	1074.07
558.67	1085.07
559.02	1080.86
559.37	1091.63
559.73	1095.37
560.08	1099.82
560.43	1089.52
560.79	1087.41
561.14	1085.07
561.49	1090.92
561.85	1083.20
562.20	1079.92
562.55	1076.41
562.90	1079.46
563.26	1081.33
563.61	1084.60
563.96	1085.54
564.32	1093.97
564.67	1090.22
565.02	1083.67
565.37	1085.07
565.73	1080.16
566.08	1078.52
566.43	1076.18
566.78	1072.20
567.14	1066.82
567.49	1081.80
567.84	1087.18
568.19	1085.54
568.54	1089.75
568.90	1095.37
569.25	1089.75
569.60	1078.52
569.95	1072.67
570.31	1071.26
570.66	1068.92
571.01	1061.67
571.36	1062.60
571.71	1069.86
572.06	1065.18
572.42	1070.09
572.77	1068.22
573.12	1068.92
573.47	1068.45
573.82	1075.94
574.18	1077.11
574.53	1087.18
574.88	1090.69
575.23	1099.35
575.58	1095.60
575.93	1086.48
576.28	1076.18
576.64	1075.94
576.99	1064.48
577.34	1072.67
577.69	1069.86
578.04	1078.05
578.39	1086.48
578.74	1088.12
579.09	1067.05
579.44	1070.09
579.80	1061.90
580.15	1064.71
580.50	1067.99
580.85	1077.11
581.20	1086.01
581.55	1093.97
581.90	1079.46
582.25	1076.18
582.60	1087.65
582.95	1082.26
583.30	1086.48
583.65	1089.75
584.00	1087.41
584.35	1085.07
584.71	1085.54
585.06	1080.86
585.41	1092.09
585.76	1106.14
586.11	1108.24
586.46	1108.48
586.81	1101.69
587.16	1095.84
587.51	1082.97
587.86	1082.97
588.21	1076.88
588.56	1078.05
588.91	1075.24
589.26	1078.52
589.61	1066.35
589.96	1071.50
590.31	1074.77
590.66	1066.58
591.01	1075.71
591.36	1082.26
591.71	1083.90
592.06	1072.43
592.41	1077.82
592.76	1060.96
593.10	1067.52
593.45	1069.39
593.80	1078.05
594.15	1073.14
594.50	1080.63
594.85	1071.26
595.20	1069.62
595.55	1066.11
595.90	1066.58
596.25	1062.37
596.60	1069.62
596.95	1071.73
597.30	1075.48
597.64	1126.73
597.99	1130.01
598.34	1129.78
598.69	1126.73
599.04	1123.69
599.39	1085.07
599.74	1081.80
600.09	1086.24
600.44	1089.29
600.78	1093.03
601.13	1095.37
601.48	1104.50
601.83	1092.09
602.18	1095.60
602.53	1096.78
602.88	1084.60
603.22	1071.97
603.57	1082.50
603.92	1074.77
604.27	1083.43
604.62	1088.58
604.97	1093.03
605.31	1088.58
605.66	1093.97
606.01	1090.69
606.36	1082.73
606.71	1079.92
607.05	1082.03
607.40	1078.28
607.75	1073.37
608.10	1076.88
608.44	1083.43
608.79	1075.94
609.14	1080.86
609.49	1086.94
609.84	1086.71
610.18	1075.01
610.53	1085.54
610.88	1088.82
611.23	1085.54
611.57	1095.84
611.92	1108.24
612.27	1102.16
612.62	1094.90
612.96	1088.35
613.31	1079.69
613.66	1076.88
614.00	1068.69
614.35	1058.62
614.70	1058.16
615.05	1060.03
615.39	1064.94
615.74	1063.07
616.09	1076.18
616.43	1080.63
616.78	1084.84
617.13	1082.03
617.47	1087.88
617.82	1084.37
618.17	1078.52
618.51	1072.20
618.86	1068.45
619.21	1083.20
619.55	1085.31
619.90	1093.26
620.25	1099.12
620.59	1100.99
620.94	1097.24
621.29	1101.46
621.63	1100.05
621.98	1095.14
622.32	1104.03
622.67	1098.65
623.02	1091.39
623.36	1092.56
623.71	1098.41
624.05	1094.20
624.40	1093.50
624.75	1096.31
625.09	1095.84
625.44	1088.12
625.78	1079.92
626.13	1080.86
626.48	1078.52
626.82	1070.09
627.17	1077.11
627.51	1081.09
627.86	1072.67
628.20	1081.09
628.55	1085.31
628.89	1075.71
629.24	1066.58
629.58	1067.99
629.93	1063.77
630.28	1060.96
630.62	1059.09
630.97	1059.79
631.31	1069.62
631.66	1077.35
632.00	1089.05
632.35	1098.88
632.69	1105.90
633.04	1100.52
633.38	1091.16
633.73	1084.14
634.07	1078.28
634.42	1085.31
634.76	1084.37
635.11	1083.20
635.45	1080.86
635.79	1083.43
636.14	1074.54
636.48	1075.01
636.83	1079.92
637.17	1082.73
637.52	1082.26
637.86	1081.56
638.21	1075.71
638.55	1075.48
638.89	1074.07
639.24	1074.54
639.58	1080.63
639.93	1084.37
640.27	1081.33
640.61	1082.50
640.96	1089.52
641.30	1090.69
641.65	1090.46
641.99	1090.69
642.33	1090.69
642.68	1082.97
643.02	1076.88
643.37	1076.88
643.71	1071.26
644.05	1076.41
644.40	1068.45
644.74	1065.18
645.08	1064.48
645.43	1069.39
645.77	1067.05
646.11	1077.35
646.46	1073.60
646.80	1070.80
647.14	1068.45
647.49	1068.45
647.83	1068.45
648.17	1075.24
648.52	1075.24
648.86	1072.67
649.20	1064.94
649.55	1059.09
649.89	1058.16
650.23	1055.11
650.57	1054.41
650.92	1057.92
651.26	1059.09
651.60	1055.11
651.95	1067.52
652.29	1075.71
652.63	1081.09
652.97	1088.35
653.32	1083.20
653.66	1083.43
654.00	1087.18
654.34	1077.35
654.69	1076.65
655.03	1086.48
655.37	1078.99
655.71	1070.80
656.05	1075.24
656.40	1070.33
656.74	1063.07
657.08	1067.75
657.42	1073.84
657.76	1072.67
658.11	1069.39
658.45	1080.39
658.79	1075.94
659.13	1071.26
659.47	1085.07
659.82	1095.84
660.16	1092.56
660.50	1095.60
660.84	1095.37
661.18	1089.75
661.52	1088.35
661.87	1093.50
662.21	1094.20
662.55	1087.41
662.89	1083.67
663.23	1074.77
663.57	1073.37
663.91	1076.88
664.25	1093.50
664.60	1100.29
664.94	1110.58
665.28	1112.46
665.62	1115.50
665.96	1101.69
666.30	1096.78
666.64	1095.84
666.98	1094.67
667.32	1087.88
667.66	1089.52
668.01	1069.62
668.35	1063.77
668.69	1053.71
669.03	1053.94
669.37	1051.13
669.71	1070.80
670.05	1073.84
670.39	1091.63
670.73	1084.84
671.07	1083.90
671.41	1079.69
671.75	1078.28
672.09	1071.03
672.43	1072.43
672.77	1072.67
673.11	1080.39
673.45	1074.31
673.79	1076.18
674.13	1077.11
674.47	1078.28
674.81	1075.94
675.15	1083.20
675.49	1075.71
675.83	1081.09
676.17	1082.97
676.51	1079.92
676.85	1064.94
677.19	1066.82
677.53	1058.16
677.87	1053.01
678.21	1056.52
678.55	1078.28
678.89	1076.41
679.23	1093.26
679.57	1100.29
679.90	1091.39
680.24	1086.94
680.58	1091.86
680.92	1086.01
681.26	1084.84
681.60	1092.09
681.94	1088.12
682.28	1083.90
682.62	1084.37
682.96	1078.05
683.29	1087.65
683.63	1091.86
683.97	1093.26
684.31	1087.65
684.65	1091.63
684.99	1075.01
685.33	1069.16
685.67	1073.37
686.00	1077.82
686.34	1075.71
686.68	1078.99
687.02	1085.54
687.36	1089.52
687.70	1081.09
688.03	1080.63
688.37	1077.58
688.71	1074.31
689.05	1070.56
689.39	1082.73
689.72	1086.71
690.06	1091.63
690.40	1091.16
690.74	1092.56
691.08	1087.65
691.41	1090.92
691.75	1095.60
692.09	1090.92
692.43	1086.48
692.76	1090.46
693.10	1080.16
693.44	1075.94
693.78	1077.11
694.11	1076.65
694.45	1075.24
694.79	1084.37
695.13	1072.20
695.46	1074.31
695.80	1071.73
696.14	1067.28
696.48	1059.56
696.81	1065.88
697.15	1066.35
697.49	1077.11
697.82	1077.11
698.16	1092.33
698.50	1100.05
698.83	1103.80
699.17	1096.31
699.51	1101.69
699.84	1092.56
700.18	1082.73
700.52	1078.05
700.85	1075.24
701.19	1058.16
701.53	1057.92
701.86	1065.18
702.20	1069.39
702.54	1071.97
702.87	1093.50
703.21	1091.39
703.55	1089.52
703.88	1089.52
704.22	1086.01
704.55	1075.01
704.89	1074.31
705.23	1076.18
705.56	1075.48
705.90	1067.28
706.23	1074.07
706.57	1078.52
706.91	1078.28
707.24	1072.20
707.58	1087.65
707.91	1086.94
708.25	1092.80
708.58	1076.65
708.92	1074.77
709.26	1078.28
709.59	1075.01
709.93	1064.48
710.26	1078.75
710.60	1078.99
710.93	1064.48
711.27	1065.88
711.60	1067.05
711.94	1067.52
712.27	1062.60
712.61	1064.48
712.94	1058.16
713.28	1068.69
713.61	1063.07
713.95	1075.94
714.28	1078.52
714.62	1089.52
714.95	1078.05
715.29	1081.33
715.62	1076.88
715.96	1080.63
716.29	1079.46
716.63	1096.78
716.96	1095.37
717.29	1094.67
717.63	1092.80
717.96	1087.65
718.30	1073.14
718.63	1064.01
718.97	1065.18
719.30	1056.52
719.63	1052.77
719.97	1044.58
720.30	1061.43
720.64	1067.28
720.97	1069.62
721.30	1071.03
721.64	1082.73
721.97	1083.43
722.31	1077.82
722.64	1086.94
722.97	1091.86
723.31	1091.63
723.64	1087.88
723.97	1091.16
724.31	1096.54
724.64	1101.46
724.98	1100.52
725.31	1103.09
725.64	1106.14
725.98	1101.69
726.31	1089.75
726.64	1088.82
726.97	1077.11
727.31	1066.58
727.64	1064.24
727.97	1067.52
728.31	1067.28
728.64	1075.01
728.97	1085.54
729.31	1084.60
729.64	1088.82
729.97	1084.14
730.30	1082.50
730.64	1075.94
730.97	1062.84
731.30	1053.71
731.63	1055.82
731.97	1063.77
732.30	1066.35
732.63	1083.90
732.96	1089.52
733.30	1083.43
733.63	1076.65
733.96	1072.90
734.29	1069.39
734.63	1070.56
734.96	1072.90
735.29	1065.18
735.62	1070.09
735.95	1065.65
736.29	1062.37
736.62	1064.94
736.95	1078.28
737.28	1072.67
737.61	1067.99
737.94	1067.05
738.28	1072.67
738.61	1065.88
738.94	1068.92
739.27	1078.05
739.60	1086.71
739.93	1086.48
740.27	1090.69
740.60	1088.58
740.93	1086.01
741.26	1087.65
741.59	1087.88
741.92	1091.16
742.25	1097.71
742.58	1096.07
742.91	1092.56
743.25	1088.12
743.58	1086.94
743.91	1082.26
744.24	1077.82
744.57	1075.71
744.90	1075.48
745.23	1069.16
745.56	1070.33
745.89	1074.31
746.22	1077.35
746.55	1075.48
746.88	1083.90
747.21	1084.60
747.54	1097.01
747.87	1087.65
748.20	1092.09
748.53	1084.37
748.87	1077.82
749.20	1071.50
749.53	1070.33
749.86	1067.52
750.19	1066.58
750.52	1066.58
750.85	1066.58
751.18	1066.82
751.51	1068.69
751.84	1078.99
752.16	1087.18
752.49	1092.56
752.82	1096.07
753.15	1093.97
753.48	1090.22
753.81	1089.05
754.14	1081.80
754.47	1082.50
754.80	1078.28
755.13	1073.84
755.46	1072.90
755.79	1064.94
756.12	1069.86
756.45	1081.56
756.78	1079.46
757.11	1075.24
757.43	1076.18
757.76	1072.20
758.09	1073.37
758.42	1076.65
758.75	1084.37
759.08	1098.41
759.41	1103.09
759.74	1094.20
760.07	1091.39
760.39	1085.07
760.72	1086.71
761.05	1091.86
761.38	1098.41
761.71	1097.71
762.04	1098.41
762.36	1089.05
762.69	1080.86
763.02	1079.46
763.35	1074.54
763.68	1068.92
764.01	1076.88
764.33	1075.01
764.66	1072.90
764.99	1086.24
765.32	1082.50
765.65	1079.69
765.97	1085.07
766.30	1085.31
766.63	1081.09
766.96	1088.82
767.28	1081.33
767.61	1076.41
767.94	1067.75
768.27	1069.86
768.59	1063.77
768.92	1064.01
769.25	1062.84
769.58	1075.71
769.90	1062.37
770.23	1070.33
770.56	1076.65
770.89	1082.97
771.21	1078.75
771.54	1087.65
771.87	1094.67
772.19	1095.60
772.52	1079.46
772.85	1080.39
773.17	1081.33
773.50	1074.54
773.83	1067.52
774.15	1081.56
774.48	1080.16
774.81	1084.14
775.13	1088.35
775.46	1095.14
775.79	1093.03
776.11	1096.78
776.44	1094.20
776.77	1097.24
777.09	1092.56
777.42	1095.84
777.74	1074.54
778.07	1073.37
778.40	1064.71
778.72	1056.75
779.05	1051.60
779.37	1075.71
779.70	1070.56
780.03	1067.05
780.35	1072.43
780.68	1071.03
781.00	1072.43
781.33	1067.05
781.65	1074.77
781.98	1073.37
782.31	1072.20
782.63	1062.14
782.96	1071.50
783.28	1068.45
783.61	1072.90
783.93	1077.11
784.26	1083.67
784.58	1086.24
784.91	1084.60
785.23	1088.12
785.56	1090.92
785.88	1084.84
786.21	1083.90
786.53	1077.58
786.86	1080.39
787.18	1078.05
787.51	1078.99
787.83	1081.09
788.16	1082.26
788.48	1071.50
788.81	1066.58
789.13	1074.77
789.46	1071.26
789.78	1080.39
790.10	1083.90
790.43	1089.05
790.75	1088.82
791.08	1078.05
791.40	1076.65
791.73	1074.54
792.05	1077.35
792.37	1075.48
792.70	1089.29
793.02	1091.39
793.35	1092.09
793.67	1092.09
793.99	1084.37
794.32	1091.16
794.64	1090.22
794.96	1094.43
795.29	1096.54
795.61	1097.24
795.93	1091.39
796.26	1090.92
796.58	1089.52
796.91	1083.90
797.23	1084.37
797.55	1080.63
797.87	1072.67
798.20	1076.18
798.52	1070.80
798.84	1070.56
799.17	1065.41
799.49	1075.71
799.81	1078.28
800.14	1084.60
800.46	1084.37
800.78	1089.29
801.10	1088.12
801.43	1074.77
801.75	1070.09
802.07	1065.41
802.40	1069.62
802.72	1072.20
803.04	1075.71
803.36	1079.46
803.69	1079.69
804.01	1089.99
804.33	1090.22
804.65	1086.94
804.97	1089.05
805.30	1090.92
805.62	1079.69
805.94	1072.20
806.26	1080.39
806.58	1077.11
806.91	1081.56
807.23	1084.84
807.55	1092.09
807.87	1096.07
808.19	1103.80
808.52	1101.46
808.84	1096.07
809.16	1087.65
809.48	1079.46
809.80	1076.41
810.12	1078.52
810.44	1072.43
810.77	1079.92
811.09	1080.86
811.41	1074.07
811.73	1078.99
812.05	1086.01
812.37	1071.03
812.69	1067.05
813.01	1075.48
813.33	1075.24
813.66	1080.63
813.98	1086.71
814.30	1095.60
814.62	1086.71
814.94	1090.46
815.26	1087.65
815.58	1091.63
815.90	1084.60
816.22	1086.71
816.54	1087.65
816.86	1083.90
817.18	1082.97
817.50	1082.50
817.82	1076.88
818.14	1068.45
818.46	1069.39
818.78	1073.37
819.10	1083.20
819.42	1094.43
819.74	1090.92
820.06	1098.65
820.38	1102.39
820.70	1093.03
821.02	1094.67
821.34	1100.29
821.66	1078.05
821.98	1077.58
822.30	1076.18
822.62	1072.90
822.94	1076.65
823.26	1086.94
823.58	1086.48
823.90	1097.24
824.22	1093.73
824.54	1086.24
824.86	1082.50
825.18	1074.07
825.50	1068.92
825.81	1071.97
826.13	1077.82
826.45	1085.31
826.77	1088.58
827.09	1084.14
827.41	1077.58
827.73	1066.11
828.05	1064.48
828.36	1062.37
828.68	1065.88
829.00	1078.99
829.32	1083.20
829.64	1090.69
829.96	1098.88
830.28	1102.63
830.59	1100.75
830.91	1108.95
831.23	1102.86
831.55	1100.52
831.87	1098.41
832.19	1097.01
832.50	1098.18
832.82	1092.56
833.14	1090.92
833.46	1093.26
833.78	1085.54
834.09	1077.82
834.41	1083.43
834.73	1068.45
835.05	1068.45
835.36	1060.26
835.68	1057.22
836.00	1052.77
836.32	1055.82
836.63	1049.50
836.95	1066.58
837.27	1077.58
837.59	1079.22
837.90	1093.97
838.22	1096.31
838.54	1092.80
838.85	1087.41
839.17	1097.48
839.49	1095.37
839.80	1091.86
840.12	1094.43
840.44	1093.26
840.76	1079.69
841.07	1071.97
841.39	1072.43
841.71	1062.14
842.02	1058.62
842.34	1067.99
842.65	1069.62
842.97	1076.41
843.29	1080.39
843.60	1074.31
843.92	1063.31
844.24	1065.88
844.55	1057.45
844.87	1067.99
845.18	1072.43
845.50	1079.46
845.82	1074.54
846.13	1081.09
846.45	1067.52
846.76	1072.20
847.08	1077.11
847.40	1083.67
847.71	1078.28
848.03	1082.50
848.34	1079.22
848.66	1076.65
848.97	1069.16
849.29	1076.65
849.60	1079.22
849.92	1085.07
850.24	1089.05
850.55	1098.65
850.87	1097.71
851.18	1100.29
851.50	1095.14
851.81	1081.09
852.13	1071.97
852.44	1067.75
852.76	1071.73
853.07	1072.67
853.39	1082.03
853.70	1080.86
854.01	1075.48
854.33	1066.82
854.64	1067.05
854.96	1069.62
855.27	1084.60
855.59	1097.95
855.90	1099.35
856.22	1105.44
856.53	1102.63
856.84	1091.63
857.16	1094.67
857.47	1099.58
857.79	1095.37
858.10	1088.12
858.41	1089.52
858.73	1084.14
859.04	1082.26
859.36	1080.86
859.67	1094.43
859.98	1090.92
860.30	1084.60
860.61	1079.69
860.92	1084.37
861.24	1075.01
861.55	1077.11
861.87	1086.71
862.18	1091.63
862.49	1097.01
862.81	1102.39
863.12	1107.07
863.43	1093.73
863.74	1088.35
864.06	1078.28
864.37	1070.09
864.68	1067.05
865.00	1067.28
865.31	1071.97
865.62	1069.39
865.94	1075.94
866.25	1071.50
866.56	1070.56
866.87	1061.67
867.19	1065.41
867.50	1072.90
867.81	1071.73
868.12	1079.46
868.44	1087.65
868.75	1088.35
869.06	1078.52
869.37	1084.37
869.68	1084.60
870.00	1079.22
870.31	1086.48
870.62	1093.97
870.93	1090.69
871.24	1092.56
871.56	1096.31
871.87	1088.82
872.18	1089.75
872.49	1101.69
872.80	1091.39
873.12	1093.26
873.43	1092.09
873.74	1093.73
874.05	1089.75
874.36	1098.18
874.67	1088.82
874.98	1093.26
875.29	1081.33
875.61	1077.58
875.92	1086.24
876.23	1084.84
876.54	1081.33
876.85	1085.07
877.16	1091.86
877.47	1080.86
877.78	1092.80
878.09	1099.58
878.40	1096.07
878.72	1089.99
879.03	1090.92
879.34	1086.24
879.65	1076.88
879.96	1084.37
880.27	1087.41
880.58	1091.16
880.89	1091.63
881.20	1093.03
881.51	1080.39
881.82	1078.28
882.13	1071.50
882.44	1062.14
882.75	1063.77
883.06	1077.11
883.37	1078.52
883.68	1086.94
883.99	1104.03
884.30	1090.46
884.61	1077.82
884.92	1073.37
885.23	1065.41
885.54	1052.30
885.85	1056.52
886.16	1060.73
886.47	1063.77
886.78	1064.71
887.08	1066.35
887.39	1073.84
887.70	1077.11
888.01	1081.80
888.32	1086.48
888.63	1083.43
888.94	1081.56
889.25	1073.60
889.56	1062.14
889.87	1062.84
890.17	1068.22
890.48	1063.07
890.79	1064.48
891.10	1066.82
891.41	1059.09
891.72	1057.45
892.03	1068.45
892.34	1081.56
892.64	1086.94
892.95	1082.97
893.26	1082.03
893.57	1085.07
893.88	1071.73
894.18	1060.50
894.49	1059.09
894.80	1064.71
895.11	1051.37
895.42	1052.54
895.72	1055.11
896.03	1058.39
896.34	1057.92
896.65	1070.80
896.96	1083.90
897.26	1092.09
897.57	1106.37
897.88	1102.39
898.19	1098.65
898.49	1085.77
898.80	1085.07
899.11	1062.60
899.41	1061.20
899.72	1070.09
900.03	1082.73
900.34	1079.22
900.64	1098.65
900.95	1094.20
901.26	1081.80
901.56	1084.14
901.87	1096.78
902.18	1082.73
902.48	1095.84
902.79	1089.99
903.10	1075.94
903.40	1066.82
903.71	1075.48
904.02	1073.60
904.32	1069.62
904.63	1082.03
904.94	1078.75
905.24	1075.48
905.55	1068.92
905.85	1083.90
906.16	1068.92
906.47	1074.31
906.77	1084.37
907.08	1086.24
907.38	1076.88
907.69	1088.12
908.00	1090.92
908.30	1091.39
908.61	1086.71
908.91	1098.41
909.22	1089.99
909.52	1087.88
909.83	1080.63
910.14	1082.03
910.44	1074.31
910.75	1071.73
911.05	1068.69
911.36	1062.60
911.66	1065.18
911.97	1065.88
912.27	1073.37
912.58	1071.26
912.88	1074.07
913.19	1077.35
913.49	1072.67
913.80	1067.52
914.10	1071.26
914.41	1079.22
914.71	1077.82
915.01	1081.56
915.32	1081.33
915.62	1068.45
915.93	1071.50
916.23	1070.56
916.54	1074.54
916.84	1081.80
917.15	1089.29
917.45	1085.31
917.75	1091.39
918.06	1083.90
918.36	1090.92
918.67	1097.01
918.97	1089.29
919.27	1093.50
919.58	1097.01
919.88	1085.54
920.18	1082.50
920.49	1079.69
920.79	1071.73
921.10	1067.52
921.40	1070.33
921.70	1067.75
922.01	1071.03
922.31	1067.75
922.61	1075.48
922.92	1065.18
923.22	1069.39
923.52	1076.18
923.82	1072.20
924.13	1066.82
924.43	1081.09
924.73	1086.48
925.04	1084.14
925.34	1097.95
925.64	1095.60
925.94	1097.48
926.25	1096.54
926.55	1093.97
926.85	1090.69
927.15	1093.73
927.46	1088.12
927.76	1079.69
928.06	1086.24
928.36	1079.22
928.67	1075.71
928.97	1067.28
929.27	1065.65
929.57	1058.39
929.87	1065.88
930.18	1071.97
930.48	1075.71
930.78	1067.52
931.08	1074.54
931.38	1069.16
931.69	1068.22
931.99	1077.82
932.29	1095.84
932.59	1086.01
932.89	1089.99
933.19	1080.63
933.49	1068.69
933.80	1062.60
934.10	1066.58
934.40	1064.71
934.70	1080.63
935.00	1088.12
935.30	1084.37
935.60	1082.97
935.90	1084.37
936.20	1082.26
936.50	1081.09
936.81	1086.48
937.11	1082.50
937.41	1072.67
937.71	1071.73
938.01	1082.50
938.31	1082.97
938.61	1080.63
938.91	1085.77
939.21	1085.77
939.51	1069.86
939.81	1064.01
940.11	1074.31
940.41	1077.58
940.71	1077.82
941.01	1078.52
941.31	1086.01
941.61	1082.97
941.91	1079.46
942.21	1071.73
942.51	1081.56
942.81	1082.50
943.11	1073.37
943.41	1074.77
943.71	1074.31
944.01	1060.96
944.31	1056.05
944.61	1066.58
944.90	1067.28
945.20	1067.28
945.50	1081.09
945.80	1079.22
946.10	1084.14
946.40	1079.22
946.70	1088.82
947.00	1079.22
947.30	1071.50
947.60	1065.65
947.89	1065.41
948.19	1064.71
948.49	1062.14
948.79	1063.77
949.09	1063.54
949.39	1064.01
949.69	1063.07
949.98	1072.90
950.28	1075.48
950.58	1077.35
950.88	1089.99
951.18	1090.46
951.48	1082.26
951.77	1084.37
952.07	1090.46
952.37	1076.41
952.67	1073.37
952.97	1081.09
953.26	1091.63
953.56	1084.60
953.86	1086.24
954.16	1088.82
954.45	1090.69
954.75	1077.35
955.05	1079.46
955.35	1079.69
955.64	1082.03
955.94	1073.37
956.24	1080.16
956.54	1084.60
956.83	1099.35
957.13	1097.01
957.43	1095.60
957.72	1099.12
958.02	1096.54
958.32	1082.97
958.61	1088.82
958.91	1090.69
959.21	1085.54
959.50	1086.24
959.80	1103.33
960.10	1096.31
960.39	1099.35
960.69	1100.29
960.99	1088.12
961.28	1074.54
961.58	1076.88
961.87	1075.48
962.17	1081.33
962.47	1088.82
962.76	1085.31
963.06	1082.03
963.36	1084.84
963.65	1089.05
963.95	1099.12
964.24	1098.65
964.54	1101.46
964.83	1091.86
965.13	1077.58
965.42	1063.07
965.72	1064.94
966.02	1062.60
966.31	1068.69
966.61	1077.82
966.90	1086.71
967.20	1075.94
967.49	1081.09
967.79	1079.69
968.08	1082.26
968.38	1075.48
968.67	1082.26
968.97	1075.71
969.26	1076.88
969.56	1059.33
969.85	1062.60
970.15	1073.37
970.44	1077.11
970.74	1080.16
971.03	1080.86
971.32	1080.86
971.62	1060.73
971.91	1058.62
972.21	1070.80
972.50	1077.11
972.80	1080.16
973.09	1090.92
973.38	1091.16
973.68	1072.90
973.97	1082.26
974.27	1086.94
974.56	1093.97
974.85	1094.43
975.15	1095.60
975.44	1085.77
975.73	1072.67
976.03	1058.86
976.32	1054.41
976.61	1056.28
976.91	1061.43
977.20	1057.92
977.49	1061.90
977.79	1064.48
978.08	1073.37
978.37	1073.60
978.67	1082.50
978.96	1083.67
979.25	1080.63
979.55	1079.22
979.84	1080.16
980.13	1088.58
980.42	1093.03
980.72	1101.22
981.01	1094.20
981.30	1090.46
981.59	1080.86
981.89	1088.35
982.18	1085.31
982.47	1085.54
982.76	1078.28
983.06	1077.11
983.35	1061.67
983.64	1056.52
983.93	1064.24
984.22	1069.39
984.52	1075.01
984.81	1093.03
985.10	1094.90
985.39	1092.09
985.68	1092.09
985.97	1086.01
986.27	1075.94
986.56	1073.84
986.85	1062.84
987.14	1065.65
987.43	1075.94
987.72	1075.94
988.01	1075.24
988.31	1074.31
988.60	1075.71
988.89	1068.92
989.18	1065.65
989.47	1069.39
989.76	1088.58
990.05	1091.16
990.34	1087.41
990.63	1091.16
990.92	1089.75
991.21	1076.65
991.51	1073.84
991.80	1071.73
992.09	1073.37
992.38	1075.01
992.67	1065.41
992.96	1062.37
993.25	1055.82
993.54	1054.88
993.83	1057.92
994.12	1074.07
994.41	1078.75
994.70	1083.43
994.99	1082.97
995.28	1080.86
995.57	1078.05
995.86	1068.45
996.15	1079.22
996.44	1070.80
996.73	1072.90
997.02	1070.09
997.31	1073.84
997.59	1061.43
997.88	1073.84
998.17	1072.43
998.46	1077.35
998.75	1071.03
999.04	1071.97
999.33	1068.69
999.62	1069.86
999.91	1064.71
1000.20	1074.07
1000.49	1083.67
1000.77	1089.99
1001.06	1086.48
1001.35	1090.69
1001.64	1086.94
1001.93	1086.48
1002.22	1076.18
1002.51	1083.43
1002.79	1084.84
1003.08	1090.46
1003.37	1087.18
1003.66	1082.50
1003.95	1076.88
1004.23	1064.94
1004.52	1068.22
1004.81	1062.60
1005.10	1079.69
1005.39	1073.37
1005.67	1081.09
1005.96	1085.77
1006.25	1086.24
1006.54	1089.99
1006.83	1104.03
1007.11	1096.07
1007.40	1087.88
1007.69	1095.14
1007.97	1078.52
1008.26	1071.73
1008.55	1081.09
1008.84	1076.65
1009.12	1086.01
1009.41	1089.05
1009.70	1093.50
1009.98	1084.84
1010.27	1087.18
1010.56	1073.84
1010.85	1078.99
1011.13	1068.45
1011.42	1074.31
1011.71	1074.54
1011.99	1079.92
1012.28	1074.07
1012.56	1072.90
1012.85	1074.77
1013.14	1076.88
1013.42	1075.48
1013.71	1081.80
1014.00	1078.28
1014.28	1062.60
1014.57	1056.05
1014.85	1053.48
1015.14	1053.71
1015.43	1056.99
1015.71	1068.92
1016.00	1071.26
1016.28	1067.28
1016.57	1055.82
1016.85	1057.69
1017.14	1062.84
1017.43	1069.39
1017.71	1078.99
1018.00	1089.52
1018.28	1095.84
1018.57	1092.09
1018.85	1092.56
1019.14	1086.24
1019.42	1091.16
1019.71	1092.33
1019.99	1105.67
1020.28	1104.73
1020.56	1098.65
1020.85	1086.24
1021.13	1084.37
1021.42	1071.97
1021.70	1073.14
1021.99	1072.67
1022.27	1074.07
1022.55	1034.52
1022.84	1070.80
>>>>>End Processed Spectral Data<<<<<
