SpectraSuite Data File
++++++++++++++++++++++++++++++++++++
Date: Mon Aug 26 10:25:46 PDT 2019
User: corrico
Dark Spectrum Present: No
Reference Spectrum Present: No
Number of Sampled Component Spectra: 1
Spectrometers: USB2+H06089
Integration Time (usec): 10000 (USB2+H06089)
Spectra Averaged: 2 (USB2+H06089)
Boxcar Smoothing: 2 (USB2+H06089)
Correct for Electrical Dark: No (USB2+H06089)
Strobe/Lamp Enabled: No (USB2+H06089)
Correct for Detector Non-linearity: No (USB2+H06089)
Correct for Stray Light: No (USB2+H06089)
Number of Pixels in Processed Spectrum: 2048
>>>>>Begin Processed Spectral Data<<<<<
339.70	1081.33
340.07	1081.33
340.45	1029.13
340.82	996.13
341.19	963.60
341.57	931.77
341.94	926.15
342.31	922.17
342.69	915.62
343.06	911.87
343.43	909.53
343.81	902.04
344.18	895.49
344.55	899.47
344.93	901.81
345.30	903.45
345.67	905.79
346.04	915.62
346.42	917.72
346.79	936.45
347.16	945.34
347.54	968.28
347.91	984.66
348.28	998.94
348.65	1007.60
349.03	1016.03
349.40	1013.45
349.77	1011.81
350.14	1023.75
350.52	1017.90
350.89	1031.47
351.26	1040.84
351.63	1049.03
352.01	1055.11
352.38	1074.31
352.75	1068.45
353.12	1067.28
353.50	1068.69
353.87	1067.99
354.24	1051.37
354.61	1056.75
354.98	1057.92
355.36	1050.90
355.73	1054.41
356.10	1072.20
356.47	1077.35
356.84	1075.71
357.22	1094.67
357.59	1095.60
357.96	1087.41
358.33	1088.12
358.70	1088.12
359.08	1079.69
359.45	1071.73
359.82	1075.94
360.19	1071.03
360.56	1075.24
360.94	1069.39
361.31	1067.75
361.68	1060.96
362.05	1062.84
362.42	1064.01
362.79	1064.94
363.16	1064.71
363.54	1068.92
363.91	1065.18
364.28	1062.37
364.65	1072.43
365.02	1080.63
365.39	1079.46
365.76	1075.71
366.14	1076.65
366.51	1062.84
366.88	1064.01
367.25	1060.50
367.62	1065.88
367.99	1080.63
368.36	1095.60
368.73	1092.33
369.10	1089.75
369.48	1087.88
369.85	1068.69
370.22	1056.75
370.59	1060.50
370.96	1061.90
371.33	1058.86
371.70	1071.73
372.07	1084.37
372.44	1078.75
372.81	1073.60
373.18	1076.88
373.55	1071.03
373.93	1061.43
374.30	1057.92
374.67	1075.24
375.04	1078.75
375.41	1075.94
375.78	1085.77
376.15	1082.97
376.52	1070.33
376.89	1068.69
377.26	1071.50
377.63	1062.14
378.00	1075.01
378.37	1081.80
378.74	1083.90
379.11	1075.71
379.48	1071.50
379.85	1070.09
380.22	1061.67
380.59	1048.56
380.96	1061.20
381.33	1069.16
381.70	1064.01
382.07	1068.69
382.44	1082.03
382.81	1070.09
383.18	1067.28
383.55	1062.37
383.92	1066.58
384.29	1065.41
384.66	1074.07
385.03	1072.43
385.40	1068.22
385.77	1068.45
386.14	1066.35
386.51	1061.67
386.88	1062.60
387.25	1070.33
387.62	1063.54
387.99	1064.48
388.36	1065.18
388.73	1056.05
389.10	1058.39
389.46	1066.58
389.83	1063.54
390.20	1061.67
390.57	1076.41
390.94	1075.71
391.31	1068.22
391.68	1071.73
392.05	1073.37
392.42	1063.07
392.79	1062.37
393.16	1060.73
393.53	1066.11
393.89	1072.43
394.26	1082.73
394.63	1086.71
395.00	1088.12
395.37	1093.26
395.74	1091.39
396.11	1089.05
396.48	1086.24
396.84	1088.58
397.21	1086.01
397.58	1080.86
397.95	1083.90
398.32	1075.01
398.69	1085.31
399.06	1080.86
399.42	1086.71
399.79	1082.26
400.16	1081.56
400.53	1066.82
400.90	1068.69
401.27	1068.45
401.64	1073.37
402.00	1089.29
402.37	1098.88
402.74	1099.82
403.11	1105.20
403.48	1101.92
403.84	1094.20
404.21	1090.92
404.58	1086.24
404.95	1076.65
405.32	1078.52
405.68	1076.88
406.05	1072.43
406.42	1079.22
406.79	1071.26
407.16	1068.22
407.52	1069.62
407.89	1074.77
408.26	1070.09
408.63	1078.99
408.99	1084.37
409.36	1089.29
409.73	1090.22
410.10	1090.92
410.47	1087.65
410.83	1084.14
411.20	1067.05
411.57	1071.26
411.94	1055.35
412.30	1065.88
412.67	1062.14
413.04	1072.43
413.40	1060.96
413.77	1068.92
414.14	1059.33
414.51	1059.33
414.87	1054.18
415.24	1064.48
415.61	1063.31
415.97	1064.24
416.34	1063.07
416.71	1061.67
417.08	1056.28
417.44	1063.31
417.81	1063.54
418.18	1063.54
418.54	1075.48
418.91	1072.67
419.28	1072.20
419.64	1063.07
420.01	1061.20
420.38	1061.90
420.74	1054.88
421.11	1048.56
421.48	1059.79
421.84	1062.37
422.21	1059.33
422.58	1076.88
422.94	1088.58
423.31	1084.14
423.68	1084.14
424.04	1080.86
424.41	1073.60
424.77	1060.73
425.14	1064.94
425.51	1065.88
425.87	1067.99
426.24	1075.71
426.61	1086.94
426.97	1088.58
427.34	1098.88
427.70	1099.12
428.07	1089.52
428.44	1084.37
428.80	1077.58
429.17	1074.31
429.53	1073.14
429.90	1074.77
430.27	1079.46
430.63	1086.71
431.00	1075.48
431.36	1075.71
431.73	1075.48
432.09	1064.24
432.46	1070.33
432.83	1075.24
433.19	1075.71
433.56	1078.28
433.92	1091.63
434.29	1082.26
434.65	1080.39
435.02	1092.33
435.38	1090.69
435.75	1093.97
436.11	1103.33
436.48	1102.39
436.84	1087.18
437.21	1085.31
437.57	1071.50
437.94	1070.80
438.30	1075.01
438.67	1085.54
439.03	1083.43
439.40	1089.29
439.76	1083.67
440.13	1082.26
440.49	1070.09
440.86	1072.67
441.22	1076.65
441.59	1076.18
441.95	1081.09
442.32	1092.56
442.68	1089.52
443.05	1086.48
443.41	1071.50
443.78	1071.50
444.14	1069.39
444.51	1074.77
444.87	1075.24
445.24	1089.52
445.60	1085.77
445.96	1082.50
446.33	1077.82
446.69	1082.03
447.06	1079.92
447.42	1084.14
447.79	1085.31
448.15	1084.37
448.51	1072.90
448.88	1078.99
449.24	1084.84
449.61	1089.05
449.97	1087.41
450.33	1091.63
450.70	1086.24
451.06	1071.97
451.43	1070.33
451.79	1083.20
452.15	1073.37
452.52	1074.54
452.88	1078.05
453.24	1079.46
453.61	1066.35
453.97	1071.26
454.34	1070.56
454.70	1073.14
455.06	1070.80
455.43	1075.01
455.79	1079.46
456.15	1075.94
456.52	1064.24
456.88	1069.62
457.24	1068.45
457.61	1078.99
457.97	1078.05
458.33	1086.24
458.70	1079.46
459.06	1074.54
459.42	1064.24
459.79	1080.63
460.15	1074.54
460.51	1080.63
460.88	1097.71
461.24	1109.18
461.60	1098.18
461.96	1109.65
462.33	1110.35
462.69	1096.78
463.05	1078.52
463.42	1080.16
463.78	1069.62
464.14	1057.92
464.50	1063.77
464.87	1083.67
465.23	1083.43
465.59	1087.88
465.95	1100.29
466.32	1102.16
466.68	1082.03
467.04	1078.28
467.40	1084.14
467.77	1083.90
468.13	1086.24
468.49	1089.05
468.85	1093.73
469.22	1085.07
469.58	1083.43
469.94	1080.86
470.30	1086.01
470.66	1086.24
471.03	1083.67
471.39	1072.90
471.75	1077.82
472.11	1079.46
472.47	1065.88
472.84	1077.58
473.20	1083.43
473.56	1070.56
473.92	1063.54
474.28	1075.01
474.65	1067.05
475.01	1074.07
475.37	1082.97
475.73	1090.46
476.09	1084.37
476.45	1082.26
476.81	1070.33
477.18	1062.37
477.54	1066.82
477.90	1067.52
478.26	1075.71
478.62	1082.73
478.98	1099.58
479.34	1092.80
479.71	1098.18
480.07	1079.69
480.43	1079.92
480.79	1063.31
481.15	1066.35
481.51	1075.94
481.87	1085.77
482.23	1076.88
482.59	1084.37
482.96	1079.69
483.32	1063.54
483.68	1059.79
484.04	1068.45
484.40	1062.60
484.76	1059.56
485.12	1064.71
485.48	1063.07
485.84	1060.26
486.20	1063.54
486.56	1069.39
486.92	1075.71
487.28	1084.84
487.64	1088.82
488.00	1089.75
488.37	1090.69
488.73	1089.05
489.09	1097.24
489.45	1099.35
489.81	1104.73
490.17	1099.58
490.53	1093.73
490.89	1090.22
491.25	1086.94
491.61	1078.99
491.97	1080.39
492.33	1081.80
492.69	1076.18
493.05	1076.41
493.41	1084.84
493.77	1084.84
494.13	1084.60
494.49	1088.12
494.85	1077.35
495.21	1069.39
495.57	1075.01
495.93	1072.43
496.29	1075.94
496.64	1079.92
497.00	1089.99
497.36	1094.67
497.72	1103.80
498.08	1097.48
498.44	1101.69
498.80	1085.54
499.16	1078.05
499.52	1069.62
499.88	1069.86
500.24	1063.31
500.60	1066.58
500.96	1061.90
501.32	1068.22
501.68	1073.37
502.03	1088.12
502.39	1085.77
502.75	1088.12
503.11	1080.16
503.47	1082.03
503.83	1081.09
504.19	1088.58
504.55	1081.09
504.91	1082.97
505.26	1073.84
505.62	1055.82
505.98	1054.88
506.34	1064.94
506.70	1074.77
507.06	1078.99
507.42	1091.86
507.78	1091.16
508.13	1097.95
508.49	1089.52
508.85	1098.41
509.21	1091.86
509.57	1094.67
509.93	1094.43
510.28	1090.69
510.64	1077.58
511.00	1090.69
511.36	1089.52
511.72	1086.71
512.07	1087.41
512.43	1090.92
512.79	1077.82
513.15	1065.18
513.51	1068.69
513.86	1078.05
514.22	1084.60
514.58	1087.41
514.94	1097.48
515.30	1085.54
515.65	1083.43
516.01	1081.33
516.37	1088.82
516.73	1093.26
517.08	1098.65
517.44	1095.14
517.80	1096.31
518.16	1096.78
518.51	1092.80
518.87	1088.35
519.23	1092.56
519.59	1088.12
519.94	1081.09
520.30	1078.99
520.66	1076.41
521.01	1082.97
521.37	1086.24
521.73	1094.67
522.09	1096.54
522.44	1100.05
522.80	1097.01
523.16	1094.67
523.51	1098.18
523.87	1101.69
524.23	1099.35
524.58	1097.95
524.94	1089.29
525.30	1081.80
525.65	1083.20
526.01	1082.26
526.37	1068.22
526.72	1075.01
527.08	1078.05
527.44	1079.22
527.79	1093.50
528.15	1102.86
528.51	1104.26
528.86	1100.75
529.22	1089.75
529.58	1079.22
529.93	1079.46
530.29	1095.60
530.65	1107.78
531.00	1119.95
531.36	1129.31
531.71	1129.31
532.07	1109.41
532.43	1092.09
532.78	1085.31
533.14	1082.97
533.49	1079.92
533.85	1094.67
534.21	1097.01
534.56	1094.43
534.92	1088.12
535.27	1083.90
535.63	1074.54
535.98	1072.20
536.34	1074.54
536.69	1075.01
537.05	1087.18
537.41	1094.90
537.76	1101.46
538.12	1099.12
538.47	1100.75
538.83	1098.18
539.18	1082.97
539.54	1071.03
539.89	1082.73
540.25	1085.07
540.60	1081.56
540.96	1087.65
541.31	1106.37
541.67	1096.31
542.02	1090.92
542.38	1090.46
542.73	1083.20
543.09	1074.07
543.44	1075.71
543.80	1079.22
544.15	1086.24
544.51	1093.73
544.86	1092.80
545.22	1106.61
545.57	1110.35
545.93	1101.92
546.28	1102.63
546.64	1098.65
546.99	1083.43
547.35	1085.77
547.70	1092.09
548.05	1096.07
548.41	1104.50
548.76	1100.99
549.12	1098.65
549.47	1100.75
549.83	1101.22
550.18	1096.31
550.53	1096.31
550.89	1090.92
551.24	1075.24
551.60	1063.54
551.95	1067.05
552.30	1071.26
552.66	1069.62
553.01	1082.97
553.37	1076.41
553.72	1078.05
554.07	1085.54
554.43	1085.54
554.78	1079.22
555.13	1094.20
555.49	1097.48
555.84	1088.35
556.19	1095.14
556.55	1095.60
556.90	1089.52
557.26	1073.84
557.61	1067.28
557.96	1052.77
558.32	1047.86
558.67	1054.18
559.02	1064.24
559.37	1079.69
559.73	1093.26
560.08	1097.24
560.43	1097.01
560.79	1080.39
561.14	1074.07
561.49	1069.39
561.85	1072.67
562.20	1065.18
562.55	1074.07
562.90	1073.84
563.26	1068.92
563.61	1068.22
563.96	1068.45
564.32	1071.73
564.67	1063.77
565.02	1065.88
565.37	1075.24
565.73	1081.56
566.08	1082.26
566.43	1092.56
566.78	1088.12
567.14	1080.39
567.49	1073.84
567.84	1081.09
568.19	1077.35
568.54	1086.48
568.90	1085.54
569.25	1087.18
569.60	1079.22
569.95	1073.84
570.31	1068.92
570.66	1064.71
571.01	1071.97
571.36	1077.35
571.71	1089.52
572.06	1085.54
572.42	1087.18
572.77	1083.67
573.12	1080.63
573.47	1070.33
573.82	1067.28
574.18	1065.41
574.53	1068.92
574.88	1078.99
575.23	1084.84
575.58	1097.48
575.93	1098.41
576.28	1101.46
576.64	1087.18
576.99	1079.92
577.34	1082.26
577.69	1088.58
578.04	1080.63
578.39	1087.18
578.74	1095.60
579.09	1098.65
579.44	1100.05
579.80	1097.48
580.15	1097.71
580.50	1094.43
580.85	1079.46
581.20	1074.07
581.55	1086.24
581.90	1078.28
582.25	1083.43
582.60	1093.50
582.95	1090.46
583.30	1078.99
583.65	1089.52
584.00	1084.84
584.35	1080.39
584.71	1085.77
585.06	1091.16
585.41	1094.20
585.76	1089.52
586.11	1088.82
586.46	1091.86
586.81	1092.56
587.16	1080.16
587.51	1087.18
587.86	1089.05
588.21	1077.35
588.56	1070.09
588.91	1079.22
589.26	1080.86
589.61	1081.09
589.96	1086.24
590.31	1094.67
590.66	1092.09
591.01	1091.39
591.36	1093.73
591.71	1092.56
592.06	1089.05
592.41	1081.80
592.76	1084.37
593.10	1086.24
593.45	1088.82
593.80	1095.14
594.15	1106.37
594.50	1100.99
594.85	1099.58
595.20	1099.58
595.55	1088.12
595.90	1070.56
596.25	1079.69
596.60	1065.65
596.95	1068.45
597.30	1065.41
597.64	1127.44
597.99	1122.29
598.34	1148.03
598.69	1153.18
599.04	1159.50
599.39	1103.09
599.74	1098.41
600.09	1084.84
600.44	1078.28
600.78	1076.88
601.13	1083.90
601.48	1086.48
601.83	1087.41
602.18	1091.16
602.53	1092.80
602.88	1088.35
603.22	1083.90
603.57	1076.88
603.92	1073.14
604.27	1073.14
604.62	1073.60
604.97	1066.82
605.31	1078.75
605.66	1069.86
606.01	1070.80
606.36	1081.56
606.71	1088.58
607.05	1078.99
607.40	1086.24
607.75	1090.69
608.10	1084.14
608.44	1080.39
608.79	1080.86
609.14	1081.56
609.49	1083.67
609.84	1081.56
610.18	1089.99
610.53	1089.99
610.88	1095.37
611.23	1087.65
611.57	1090.22
611.92	1091.86
612.27	1089.52
612.62	1081.56
612.96	1081.80
613.31	1090.22
613.66	1088.12
614.00	1102.39
614.35	1109.41
614.70	1113.16
615.05	1109.65
615.39	1110.82
615.74	1097.48
616.09	1094.67
616.43	1090.46
616.78	1088.82
617.13	1085.31
617.47	1087.18
617.82	1088.12
618.17	1083.67
618.51	1080.86
618.86	1077.82
619.21	1085.07
619.55	1080.86
619.90	1089.75
620.25	1082.03
620.59	1084.14
620.94	1074.31
621.29	1082.26
621.63	1088.82
621.98	1087.18
622.32	1081.56
622.67	1092.09
623.02	1086.24
623.36	1078.75
623.71	1082.73
624.05	1089.75
624.40	1084.84
624.75	1085.07
625.09	1080.86
625.44	1081.09
625.78	1080.63
626.13	1079.46
626.48	1085.31
626.82	1093.73
627.17	1089.05
627.51	1092.80
627.86	1088.35
628.20	1084.60
628.55	1074.07
628.89	1079.46
629.24	1074.07
629.58	1078.28
629.93	1067.28
630.28	1069.39
630.62	1067.05
630.97	1066.11
631.31	1069.39
631.66	1080.39
632.00	1085.07
632.35	1086.94
632.69	1095.37
633.04	1097.01
633.38	1098.18
633.73	1096.31
634.07	1105.44
634.42	1094.20
634.76	1091.63
635.11	1098.88
635.45	1100.29
635.79	1095.37
636.14	1099.35
636.48	1092.09
636.83	1089.05
637.17	1089.99
637.52	1087.41
637.86	1079.46
638.21	1080.16
638.55	1069.39
638.89	1074.31
639.24	1071.26
639.58	1085.54
639.93	1077.82
640.27	1084.84
640.61	1076.88
640.96	1087.65
641.30	1080.86
641.65	1098.88
641.99	1090.69
642.33	1090.69
642.68	1080.63
643.02	1086.01
643.37	1079.22
643.71	1086.24
644.05	1086.24
644.40	1093.26
644.74	1087.18
645.08	1091.63
645.43	1088.58
645.77	1082.97
646.11	1079.92
646.46	1084.60
646.80	1072.67
647.14	1077.82
647.49	1080.16
647.83	1069.86
648.17	1068.45
648.52	1082.50
648.86	1075.01
649.20	1081.56
649.55	1094.67
649.89	1092.33
650.23	1080.86
650.57	1079.46
650.92	1075.48
651.26	1067.28
651.60	1065.41
651.95	1080.63
652.29	1084.14
652.63	1080.16
652.97	1087.41
653.32	1085.54
653.66	1077.82
654.00	1079.92
654.34	1080.86
654.69	1079.22
655.03	1066.11
655.37	1063.54
655.71	1066.58
656.05	1061.43
656.40	1062.84
656.74	1079.92
657.08	1087.88
657.42	1084.60
657.76	1089.05
658.11	1085.07
658.45	1085.31
658.79	1075.71
659.13	1080.86
659.47	1092.09
659.82	1095.60
660.16	1082.03
660.50	1075.24
660.84	1065.18
661.18	1057.69
661.52	1045.75
661.87	1056.28
662.21	1071.97
662.55	1073.37
662.89	1062.37
663.23	1078.28
663.57	1077.58
663.91	1068.45
664.25	1074.31
664.60	1080.16
664.94	1068.22
665.28	1075.48
665.62	1077.11
665.96	1060.73
666.30	1062.37
666.64	1064.48
666.98	1060.73
667.32	1053.71
667.66	1070.33
668.01	1071.73
668.35	1071.97
668.69	1076.88
669.03	1077.82
669.37	1077.58
669.71	1080.16
670.05	1089.05
670.39	1081.33
670.73	1091.16
671.07	1086.48
671.41	1083.43
671.75	1077.11
672.09	1073.37
672.43	1068.22
672.77	1069.86
673.11	1064.48
673.45	1067.52
673.79	1072.20
674.13	1064.01
674.47	1064.48
674.81	1068.22
675.15	1058.16
675.49	1063.77
675.83	1074.77
676.17	1071.50
676.51	1078.52
676.85	1086.01
677.19	1078.28
677.53	1074.31
677.87	1084.14
678.21	1088.35
678.55	1089.75
678.89	1088.58
679.23	1088.12
679.57	1078.52
679.90	1072.90
680.24	1064.01
680.58	1064.24
680.92	1069.62
681.26	1064.94
681.60	1066.58
681.94	1067.75
682.28	1073.60
682.62	1064.48
682.96	1068.92
683.29	1063.77
683.63	1073.14
683.97	1075.01
684.31	1082.73
684.65	1086.94
684.99	1088.58
685.33	1083.90
685.67	1083.20
686.00	1079.46
686.34	1077.82
686.68	1085.54
687.02	1094.90
687.36	1093.73
687.70	1099.82
688.03	1095.14
688.37	1092.80
688.71	1087.41
689.05	1093.26
689.39	1086.24
689.72	1089.52
690.06	1079.69
690.40	1078.75
690.74	1076.65
691.08	1080.16
691.41	1075.24
691.75	1080.16
692.09	1080.86
692.43	1086.24
692.76	1085.54
693.10	1089.99
693.44	1093.26
693.78	1084.37
694.11	1077.35
694.45	1077.35
694.79	1080.86
695.13	1076.18
695.46	1085.77
695.80	1080.39
696.14	1081.33
696.48	1076.65
696.81	1073.14
697.15	1071.73
697.49	1072.90
697.82	1072.90
698.16	1072.67
698.50	1076.65
698.83	1068.22
699.17	1083.90
699.51	1080.63
699.84	1078.75
700.18	1074.54
700.52	1089.75
700.85	1082.03
701.19	1087.88
701.53	1085.31
701.86	1094.43
702.20	1090.46
702.54	1088.35
702.87	1094.43
703.21	1105.67
703.55	1097.24
703.88	1100.29
704.22	1099.12
704.55	1097.24
704.89	1087.88
705.23	1096.54
705.56	1093.97
705.90	1092.56
706.23	1092.56
706.57	1105.44
706.91	1105.20
707.24	1109.41
707.58	1095.60
707.91	1097.48
708.25	1090.46
708.58	1083.67
708.92	1079.22
709.26	1089.29
709.59	1082.26
709.93	1083.43
710.26	1095.37
710.60	1087.65
710.93	1087.41
711.27	1089.75
711.60	1088.82
711.94	1083.20
712.27	1086.94
712.61	1087.18
712.94	1084.37
713.28	1089.05
713.61	1081.09
713.95	1086.24
714.28	1086.48
714.62	1086.24
714.95	1081.33
715.29	1082.03
715.62	1079.69
715.96	1080.16
716.29	1075.94
716.63	1074.07
716.96	1070.56
717.29	1061.43
717.63	1069.39
717.96	1075.48
718.30	1071.97
718.63	1071.03
718.97	1082.26
719.30	1078.28
719.63	1079.22
719.97	1086.48
720.30	1096.78
720.64	1088.12
720.97	1081.56
721.30	1082.03
721.64	1077.82
721.97	1077.11
722.31	1089.75
722.64	1086.94
722.97	1083.43
723.31	1075.01
723.64	1075.71
723.97	1070.33
724.31	1079.92
724.64	1078.05
724.98	1084.14
725.31	1075.24
725.64	1072.67
725.98	1065.41
726.31	1065.88
726.64	1070.33
726.97	1073.37
727.31	1072.90
727.64	1078.99
727.97	1075.48
728.31	1078.52
728.64	1090.92
728.97	1090.22
729.31	1090.22
729.64	1097.24
729.97	1094.43
730.30	1085.77
730.64	1084.60
730.97	1085.31
731.30	1077.58
731.63	1078.52
731.97	1082.73
732.30	1088.35
732.63	1089.05
732.96	1089.29
733.30	1089.29
733.63	1085.77
733.96	1072.43
734.29	1062.37
734.63	1062.84
734.96	1053.71
735.29	1042.47
735.62	1053.24
735.95	1060.96
736.29	1067.52
736.62	1076.65
736.95	1083.20
737.28	1077.82
737.61	1075.94
737.94	1069.16
738.28	1066.82
738.61	1075.71
738.94	1083.67
739.27	1093.50
739.60	1093.26
739.93	1085.54
740.27	1078.28
740.60	1070.80
740.93	1065.65
741.26	1061.67
741.59	1071.03
741.92	1069.62
742.25	1077.58
742.58	1077.35
742.91	1085.77
743.25	1085.07
743.58	1094.43
743.91	1093.97
744.24	1093.50
744.57	1097.71
744.90	1095.14
745.23	1075.48
745.56	1066.35
745.89	1059.79
746.22	1059.33
746.55	1057.45
746.88	1073.60
747.21	1083.20
747.54	1087.88
747.87	1079.92
748.20	1090.69
748.53	1096.54
748.87	1097.01
749.20	1097.71
749.53	1099.82
749.86	1094.43
750.19	1086.94
750.52	1072.90
750.85	1068.22
751.18	1071.73
751.51	1074.07
751.84	1066.58
752.16	1067.05
752.49	1070.80
752.82	1067.52
753.15	1066.82
753.48	1077.35
753.81	1084.60
754.14	1083.20
754.47	1093.03
754.80	1092.33
755.13	1080.39
755.46	1082.73
755.79	1082.26
756.12	1081.33
756.45	1087.41
756.78	1095.84
757.11	1085.31
757.43	1089.29
757.76	1085.07
758.09	1084.14
758.42	1088.58
758.75	1096.54
759.08	1087.18
759.41	1074.31
759.74	1071.97
760.07	1071.73
760.39	1067.99
760.72	1073.14
761.05	1082.26
761.38	1076.65
761.71	1069.62
762.04	1076.18
762.36	1078.75
762.69	1082.26
763.02	1078.28
763.35	1073.60
763.68	1072.67
764.01	1071.50
764.33	1069.39
764.66	1074.54
764.99	1077.11
765.32	1078.52
765.65	1078.52
765.97	1077.11
766.30	1067.75
766.63	1070.33
766.96	1066.82
767.28	1068.22
767.61	1072.67
767.94	1086.24
768.27	1084.60
768.59	1092.33
768.92	1089.52
769.25	1080.63
769.58	1075.24
769.90	1079.22
770.23	1076.41
770.56	1065.88
770.89	1068.22
771.21	1071.97
771.54	1071.03
771.87	1065.88
772.19	1080.16
772.52	1081.33
772.85	1072.20
773.17	1065.65
773.50	1062.84
773.83	1063.07
774.15	1060.50
774.48	1072.90
774.81	1070.80
775.13	1067.28
775.46	1067.28
775.79	1064.48
776.11	1054.41
776.44	1060.96
776.77	1061.43
777.09	1060.96
777.42	1076.18
777.74	1077.58
778.07	1078.28
778.40	1087.65
778.72	1078.28
779.05	1074.54
779.37	1081.09
779.70	1076.41
780.03	1067.75
780.35	1074.77
780.68	1065.88
781.00	1061.20
781.33	1066.82
781.65	1071.73
781.98	1079.92
782.31	1075.71
782.63	1076.41
782.96	1071.73
783.28	1071.73
783.61	1058.16
783.93	1074.77
784.26	1067.75
784.58	1072.90
784.91	1079.69
785.23	1080.16
785.56	1074.07
785.88	1079.46
786.21	1077.35
786.53	1077.82
786.86	1081.09
787.18	1072.20
787.51	1069.62
787.83	1071.97
788.16	1075.24
788.48	1074.54
788.81	1081.09
789.13	1084.37
789.46	1082.03
789.78	1071.50
790.10	1083.43
790.43	1084.14
790.75	1090.69
791.08	1103.56
791.40	1098.41
791.73	1093.26
792.05	1090.22
792.37	1092.56
792.70	1084.60
793.02	1090.22
793.35	1089.99
793.67	1091.39
793.99	1087.65
794.32	1079.69
794.64	1080.16
794.96	1078.52
795.29	1085.31
795.61	1088.82
795.93	1092.56
796.26	1100.99
796.58	1096.07
796.91	1105.90
797.23	1096.31
797.55	1103.80
797.87	1091.63
798.20	1099.82
798.52	1089.52
798.84	1086.24
799.17	1075.71
799.49	1080.16
799.81	1070.33
800.14	1066.58
800.46	1068.69
800.78	1075.24
801.10	1079.22
801.43	1087.88
801.75	1084.14
802.07	1086.71
802.40	1086.94
802.72	1081.56
803.04	1080.86
803.36	1082.03
803.69	1092.09
804.01	1092.80
804.33	1092.80
804.65	1088.58
804.97	1093.26
805.30	1079.69
805.62	1080.39
805.94	1086.71
806.26	1085.07
806.58	1084.84
806.91	1082.03
807.23	1069.62
807.55	1067.05
807.87	1067.99
808.19	1058.39
808.52	1055.35
808.84	1074.77
809.16	1066.82
809.48	1068.69
809.80	1071.73
810.12	1077.82
810.44	1072.43
810.77	1087.41
811.09	1085.31
811.41	1085.77
811.73	1093.73
812.05	1082.73
812.37	1071.26
812.69	1073.60
813.01	1076.65
813.33	1075.94
813.66	1084.60
813.98	1089.29
814.30	1088.82
814.62	1089.05
814.94	1094.20
815.26	1094.67
815.58	1084.60
815.90	1085.31
816.22	1085.54
816.54	1077.35
816.86	1080.39
817.18	1094.20
817.50	1090.92
817.82	1087.88
818.14	1081.80
818.46	1082.03
818.78	1071.26
819.10	1080.86
819.42	1080.39
819.74	1086.48
820.06	1081.80
820.38	1076.41
820.70	1068.22
821.02	1066.35
821.34	1069.86
821.66	1070.09
821.98	1079.69
822.30	1083.67
822.62	1093.73
822.94	1087.41
823.26	1083.67
823.58	1085.31
823.90	1081.80
824.22	1080.86
824.54	1080.39
824.86	1078.28
825.18	1071.97
825.50	1068.22
825.81	1061.20
826.13	1069.62
826.45	1066.11
826.77	1069.62
827.09	1071.26
827.41	1082.26
827.73	1077.11
828.05	1089.05
828.36	1085.31
828.68	1086.71
829.00	1080.86
829.32	1078.75
829.64	1075.71
829.96	1076.65
830.28	1078.05
830.59	1079.69
830.91	1085.77
831.23	1087.88
831.55	1096.78
831.87	1102.63
832.19	1105.44
832.50	1099.12
832.82	1097.95
833.14	1093.50
833.46	1089.75
833.78	1080.16
834.09	1084.84
834.41	1090.46
834.73	1093.26
835.05	1097.71
835.36	1103.33
835.68	1095.14
836.00	1085.54
836.32	1084.14
836.63	1079.46
836.95	1080.16
837.27	1074.31
837.59	1076.65
837.90	1071.26
838.22	1067.05
838.54	1062.14
838.85	1066.58
839.17	1066.35
839.49	1073.60
839.80	1070.80
840.12	1082.97
840.44	1088.12
840.76	1085.31
841.07	1078.28
841.39	1078.75
841.71	1072.43
842.02	1068.45
842.34	1067.75
842.65	1078.52
842.97	1088.82
843.29	1078.52
843.60	1086.01
843.92	1087.88
844.24	1082.73
844.55	1078.75
844.87	1085.07
845.18	1082.97
845.50	1092.09
845.82	1096.54
846.13	1097.01
846.45	1093.03
846.76	1092.80
847.08	1092.33
847.40	1085.54
847.71	1081.33
848.03	1092.56
848.34	1092.33
848.66	1085.54
848.97	1084.84
849.29	1081.33
849.60	1072.67
849.92	1072.90
850.24	1069.16
850.55	1074.07
850.87	1081.80
851.18	1082.50
851.50	1082.26
851.81	1083.90
852.13	1079.92
852.44	1075.01
852.76	1074.07
853.07	1078.99
853.39	1072.90
853.70	1073.37
854.01	1073.14
854.33	1079.69
854.64	1073.14
854.96	1081.56
855.27	1078.05
855.59	1075.24
855.90	1070.56
856.22	1071.03
856.53	1071.26
856.84	1066.58
857.16	1087.88
857.47	1089.75
857.79	1092.09
858.10	1087.18
858.41	1089.75
858.73	1078.28
859.04	1077.58
859.36	1078.28
859.67	1081.80
859.98	1086.94
860.30	1084.14
860.61	1085.54
860.92	1087.18
861.24	1097.71
861.55	1096.54
861.87	1100.52
862.18	1099.35
862.49	1097.95
862.81	1086.48
863.12	1082.97
863.43	1073.14
863.74	1071.26
864.06	1060.26
864.37	1052.77
864.68	1039.67
865.00	1038.03
865.31	1032.18
865.62	1042.94
865.94	1055.58
866.25	1072.43
866.56	1079.69
866.87	1089.75
867.19	1091.39
867.50	1094.90
867.81	1093.97
868.12	1094.90
868.44	1094.20
868.75	1092.09
869.06	1089.05
869.37	1088.12
869.68	1079.69
870.00	1078.28
870.31	1072.90
870.62	1067.52
870.93	1071.26
871.24	1078.28
871.56	1072.20
871.87	1072.67
872.18	1064.94
872.49	1064.48
872.80	1058.39
873.12	1059.79
873.43	1056.52
873.74	1068.92
874.05	1069.39
874.36	1076.88
874.67	1089.29
874.98	1091.16
875.29	1095.37
875.61	1096.31
875.92	1100.75
876.23	1084.14
876.54	1093.97
876.85	1085.54
877.16	1088.35
877.47	1081.56
877.78	1092.09
878.09	1082.73
878.40	1082.03
878.72	1074.54
879.03	1076.18
879.34	1076.65
879.65	1074.31
879.96	1070.09
880.27	1075.71
880.58	1070.80
880.89	1066.82
881.20	1078.05
881.51	1090.69
881.82	1097.95
882.13	1097.71
882.44	1097.95
882.75	1087.88
883.06	1078.99
883.37	1067.05
883.68	1075.94
883.99	1075.71
884.30	1089.29
884.61	1085.54
884.92	1093.26
885.23	1084.37
885.54	1090.69
885.85	1076.41
886.16	1083.90
886.47	1081.80
886.78	1082.50
887.08	1076.65
887.39	1080.63
887.70	1091.63
888.01	1092.33
888.32	1092.33
888.63	1092.09
888.94	1093.03
889.25	1085.54
889.56	1085.77
889.87	1093.26
890.17	1091.16
890.48	1098.41
890.79	1092.33
891.10	1082.50
891.41	1078.05
891.72	1078.99
892.03	1078.52
892.34	1069.86
892.64	1071.97
892.95	1077.11
893.26	1073.37
893.57	1071.73
893.88	1077.11
894.18	1075.71
894.49	1079.69
894.80	1092.80
895.11	1087.18
895.42	1084.14
895.72	1081.56
896.03	1072.43
896.34	1072.67
896.65	1078.05
896.96	1086.71
897.26	1092.80
897.57	1099.82
897.88	1091.63
898.19	1086.01
898.49	1079.69
898.80	1080.86
899.11	1069.86
899.41	1072.43
899.72	1067.52
900.03	1063.07
900.34	1063.31
900.64	1068.92
900.95	1061.43
901.26	1065.65
901.56	1078.75
901.87	1077.35
902.18	1074.77
902.48	1077.58
902.79	1070.56
903.10	1060.96
903.40	1057.69
903.71	1058.16
904.02	1063.07
904.32	1076.18
904.63	1085.77
904.94	1087.41
905.24	1082.50
905.55	1073.84
905.85	1070.33
906.16	1072.43
906.47	1071.50
906.77	1081.56
907.08	1094.20
907.38	1099.12
907.69	1086.24
908.00	1081.80
908.30	1077.82
908.61	1069.39
908.91	1066.35
909.22	1069.16
909.52	1072.20
909.83	1074.31
910.14	1071.73
910.44	1060.03
910.75	1069.39
911.05	1067.05
911.36	1058.86
911.66	1058.16
911.97	1069.39
912.27	1056.05
912.58	1057.45
912.88	1066.82
913.19	1066.82
913.49	1079.69
913.80	1090.22
914.10	1100.05
914.41	1097.71
914.71	1105.67
915.01	1089.29
915.32	1086.24
915.62	1074.54
915.93	1076.18
916.23	1070.33
916.54	1072.90
916.84	1067.05
917.15	1077.58
917.45	1077.58
917.75	1078.52
918.06	1079.22
918.36	1087.18
918.67	1087.88
918.97	1082.26
919.27	1082.03
919.58	1078.28
919.88	1067.28
920.18	1056.05
920.49	1050.20
920.79	1061.90
921.10	1067.05
921.40	1071.50
921.70	1085.31
922.01	1091.86
922.31	1077.11
922.61	1078.28
922.92	1078.75
923.22	1071.26
923.52	1066.58
923.82	1071.50
924.13	1068.92
924.43	1068.22
924.73	1066.11
925.04	1072.90
925.34	1068.92
925.64	1066.35
925.94	1072.20
926.25	1071.73
926.55	1067.52
926.85	1068.45
927.15	1071.50
927.46	1072.43
927.76	1072.90
928.06	1063.54
928.36	1065.18
928.67	1062.37
928.97	1066.58
929.27	1075.94
929.57	1082.26
929.87	1080.63
930.18	1078.52
930.48	1070.80
930.78	1068.45
931.08	1082.73
931.38	1082.26
931.69	1084.14
931.99	1079.92
932.29	1080.39
932.59	1065.65
932.89	1076.18
933.19	1077.11
933.49	1082.73
933.80	1074.77
934.10	1078.28
934.40	1066.11
934.70	1053.01
935.00	1058.39
935.30	1061.67
935.60	1062.84
935.90	1054.65
936.20	1064.24
936.50	1059.09
936.81	1068.92
937.11	1073.84
937.41	1087.88
937.71	1096.78
938.01	1093.73
938.31	1097.95
938.61	1094.67
938.91	1089.75
939.21	1086.48
939.51	1094.20
939.81	1081.56
940.11	1083.67
940.41	1097.01
940.71	1100.75
941.01	1098.18
941.31	1097.95
941.61	1099.58
941.91	1091.16
942.21	1090.46
942.51	1090.46
942.81	1080.16
943.11	1080.16
943.41	1076.18
943.71	1064.71
944.01	1060.96
944.31	1073.14
944.61	1072.43
944.90	1070.56
945.20	1074.77
945.50	1069.62
945.80	1057.45
946.10	1055.11
946.40	1064.24
946.70	1070.09
947.00	1076.41
947.30	1085.07
947.60	1085.07
947.89	1067.75
948.19	1070.09
948.49	1064.71
948.79	1072.43
949.09	1077.35
949.39	1093.97
949.69	1089.75
949.98	1099.82
950.28	1093.50
950.58	1086.48
950.88	1081.80
951.18	1078.52
951.48	1076.18
951.77	1078.99
952.07	1089.05
952.37	1089.75
952.67	1097.48
952.97	1091.16
953.26	1089.52
953.56	1088.12
953.86	1089.29
954.16	1082.03
954.45	1083.43
954.75	1077.58
955.05	1072.20
955.35	1061.20
955.64	1068.92
955.94	1073.37
956.24	1067.99
956.54	1065.65
956.83	1081.09
957.13	1081.33
957.43	1083.67
957.72	1098.18
958.02	1098.41
958.32	1094.20
958.61	1092.80
958.91	1091.39
959.21	1084.14
959.50	1082.50
959.80	1073.60
960.10	1072.67
960.39	1070.56
960.69	1079.69
960.99	1082.50
961.28	1101.46
961.58	1100.05
961.87	1109.18
962.17	1100.29
962.47	1105.20
962.76	1095.60
963.06	1091.16
963.36	1091.86
963.65	1097.48
963.95	1095.37
964.24	1100.05
964.54	1096.31
964.83	1081.56
965.13	1077.58
965.42	1070.80
965.72	1062.60
966.02	1068.22
966.31	1069.62
966.61	1070.33
966.90	1073.37
967.20	1069.16
967.49	1059.09
967.79	1068.92
968.08	1065.18
968.38	1064.01
968.67	1071.73
968.97	1082.50
969.26	1068.22
969.56	1076.41
969.85	1075.01
970.15	1071.50
970.44	1078.52
970.74	1093.03
971.03	1091.16
971.32	1091.86
971.62	1100.29
971.91	1102.16
972.21	1093.50
972.50	1089.05
972.80	1086.24
973.09	1085.77
973.38	1077.35
973.68	1086.48
973.97	1091.16
974.27	1097.95
974.56	1092.09
974.85	1089.52
975.15	1084.14
975.44	1082.26
975.73	1076.88
976.03	1081.56
976.32	1089.29
976.61	1090.22
976.91	1091.39
977.20	1088.82
977.49	1070.33
977.79	1062.60
978.08	1060.03
978.37	1058.86
978.67	1068.45
978.96	1086.71
979.25	1085.07
979.55	1077.11
979.84	1069.39
980.13	1066.11
980.42	1050.20
980.72	1054.18
981.01	1067.75
981.30	1071.97
981.59	1061.90
981.89	1067.28
982.18	1063.07
982.47	1060.03
982.76	1067.75
983.06	1076.65
983.35	1084.37
983.64	1084.37
983.93	1078.28
984.22	1076.41
984.52	1078.28
984.81	1077.58
985.10	1072.43
985.39	1073.14
985.68	1072.20
985.97	1068.45
986.27	1067.52
986.56	1078.28
986.85	1083.43
987.14	1077.35
987.43	1082.03
987.72	1078.28
988.01	1072.67
988.31	1072.67
988.60	1075.71
988.89	1076.65
989.18	1093.03
989.47	1091.39
989.76	1090.69
990.05	1093.03
990.34	1089.52
990.63	1071.97
990.92	1072.90
991.21	1064.48
991.51	1052.07
991.80	1050.67
992.09	1049.50
992.38	1052.07
992.67	1053.24
992.96	1055.11
993.25	1055.82
993.54	1062.14
993.83	1068.69
994.12	1079.69
994.41	1092.09
994.70	1096.78
994.99	1109.65
995.28	1099.58
995.57	1089.52
995.86	1093.26
996.15	1086.94
996.44	1071.03
996.73	1075.94
997.02	1077.11
997.31	1074.54
997.59	1075.71
997.88	1071.97
998.17	1077.35
998.46	1080.86
998.75	1065.65
999.04	1068.45
999.33	1074.54
999.62	1071.50
999.91	1073.14
1000.20	1088.12
1000.49	1090.69
1000.77	1096.78
1001.06	1100.29
1001.35	1098.65
1001.64	1090.46
1001.93	1081.80
1002.22	1083.20
1002.51	1081.33
1002.79	1079.46
1003.08	1079.69
1003.37	1085.07
1003.66	1081.56
1003.95	1064.24
1004.23	1067.05
1004.52	1062.60
1004.81	1053.48
1005.10	1046.92
1005.39	1062.84
1005.67	1058.16
1005.96	1058.86
1006.25	1073.60
1006.54	1078.99
1006.83	1079.22
1007.11	1084.60
1007.40	1093.73
1007.69	1091.63
1007.97	1090.92
1008.26	1082.97
1008.55	1079.22
1008.84	1079.69
1009.12	1076.18
1009.41	1080.16
1009.70	1081.56
1009.98	1071.97
1010.27	1064.48
1010.56	1074.77
1010.85	1070.80
1011.13	1066.35
1011.42	1091.63
1011.71	1108.01
1011.99	1096.07
1012.28	1095.14
1012.56	1111.52
1012.85	1091.39
1013.14	1082.50
1013.42	1085.77
1013.71	1087.18
1014.00	1081.56
1014.28	1088.58
1014.57	1083.90
1014.85	1077.11
1015.14	1070.80
1015.43	1071.97
1015.71	1084.84
1016.00	1092.80
1016.28	1100.52
1016.57	1108.48
1016.85	1104.73
1017.14	1092.56
1017.43	1094.20
1017.71	1088.58
1018.00	1089.05
1018.28	1090.46
1018.57	1094.67
1018.85	1086.24
1019.14	1098.88
1019.42	1098.18
1019.71	1094.67
1019.99	1096.07
1020.28	1098.88
1020.56	1082.73
1020.85	1082.97
1021.13	1084.37
1021.42	1083.20
1021.70	1084.37
1021.99	1088.12
1022.27	1078.28
1022.55	1064.94
1022.84	1049.73
>>>>>End Processed Spectral Data<<<<<
