SpectraSuite Data File
++++++++++++++++++++++++++++++++++++
Date: Mon Aug 26 10:25:45 PDT 2019
User: corrico
Dark Spectrum Present: No
Reference Spectrum Present: No
Number of Sampled Component Spectra: 1
Spectrometers: USB2+H06089
Integration Time (usec): 10000 (USB2+H06089)
Spectra Averaged: 2 (USB2+H06089)
Boxcar Smoothing: 2 (USB2+H06089)
Correct for Electrical Dark: No (USB2+H06089)
Strobe/Lamp Enabled: No (USB2+H06089)
Correct for Detector Non-linearity: No (USB2+H06089)
Correct for Stray Light: No (USB2+H06089)
Number of Pixels in Processed Spectrum: 2048
>>>>>Begin Processed Spectral Data<<<<<
339.70	1026.32
340.07	1026.32
340.45	989.11
340.82	967.81
341.19	946.75
341.57	928.96
341.94	928.72
342.31	923.11
342.69	917.26
343.06	913.04
343.43	902.51
343.81	906.26
344.18	911.87
344.55	913.98
344.93	928.72
345.30	946.51
345.67	939.73
346.04	943.70
346.42	955.17
346.79	950.49
347.16	953.77
347.54	964.53
347.91	967.81
348.28	982.32
348.65	1001.05
349.03	1016.03
349.40	1020.71
349.77	1031.47
350.14	1033.35
350.52	1038.50
350.89	1042.71
351.26	1057.22
351.63	1062.37
352.01	1060.73
352.38	1062.14
352.75	1057.45
353.12	1064.94
353.50	1079.69
353.87	1089.52
354.24	1091.63
354.61	1091.86
354.98	1079.46
355.36	1072.20
355.73	1074.31
356.10	1072.90
356.47	1070.80
356.84	1087.65
357.22	1084.84
357.59	1088.58
357.96	1078.75
358.33	1091.16
358.70	1076.88
359.08	1070.80
359.45	1067.52
359.82	1075.71
360.19	1072.20
360.56	1081.33
360.94	1090.69
361.31	1082.50
361.68	1082.03
362.05	1076.41
362.42	1067.28
362.79	1066.11
363.16	1080.86
363.54	1075.48
363.91	1075.24
364.28	1079.92
364.65	1070.56
365.02	1057.92
365.39	1055.58
365.76	1053.24
366.14	1058.39
366.51	1070.33
366.88	1069.16
367.25	1085.07
367.62	1087.65
367.99	1079.92
368.36	1072.67
368.73	1069.39
369.10	1060.50
369.48	1064.24
369.85	1079.46
370.22	1094.67
370.59	1097.01
370.96	1093.03
371.33	1101.46
371.70	1076.88
372.07	1061.20
372.44	1067.99
372.81	1078.75
373.18	1074.31
373.55	1091.63
373.93	1092.33
374.30	1089.29
374.67	1081.09
375.04	1065.65
375.41	1056.05
375.78	1046.69
376.15	1038.96
376.52	1034.98
376.89	1042.71
377.26	1044.35
377.63	1047.16
378.00	1044.82
378.37	1050.43
378.74	1051.84
379.11	1052.30
379.48	1058.39
379.85	1075.01
380.22	1085.31
380.59	1086.24
380.96	1084.84
381.33	1089.99
381.70	1078.75
382.07	1070.80
382.44	1076.18
382.81	1078.28
383.18	1072.20
383.55	1073.84
383.92	1066.58
384.29	1059.33
384.66	1061.43
385.03	1065.41
385.40	1066.58
385.77	1065.65
386.14	1063.31
386.51	1056.75
386.88	1054.18
387.25	1057.45
387.62	1066.82
387.99	1074.54
388.36	1087.41
388.73	1090.46
389.10	1086.24
389.46	1085.77
389.83	1073.60
390.20	1061.67
390.57	1057.22
390.94	1056.28
391.31	1051.84
391.68	1054.65
392.05	1063.31
392.42	1065.65
392.79	1067.75
393.16	1076.65
393.53	1073.37
393.89	1073.14
394.26	1074.77
394.63	1075.01
395.00	1061.43
395.37	1067.28
395.74	1062.84
396.11	1055.11
396.48	1048.79
396.84	1057.45
397.21	1063.31
397.58	1062.84
397.95	1078.99
398.32	1088.12
398.69	1085.31
399.06	1082.26
399.42	1071.97
399.79	1060.73
400.16	1055.82
400.53	1057.92
400.90	1063.07
401.27	1078.52
401.64	1084.14
402.00	1085.77
402.37	1089.75
402.74	1087.88
403.11	1087.41
403.48	1080.16
403.84	1082.50
404.21	1082.73
404.58	1076.65
404.95	1074.77
405.32	1074.77
405.68	1076.41
406.05	1081.80
406.42	1079.46
406.79	1068.92
407.16	1078.52
407.52	1074.54
407.89	1067.99
408.26	1064.71
408.63	1074.07
408.99	1070.33
409.36	1070.33
409.73	1071.03
410.10	1074.31
410.47	1071.26
410.83	1082.26
411.20	1093.97
411.57	1093.73
411.94	1099.35
412.30	1103.80
412.67	1094.67
413.04	1083.90
413.40	1080.63
413.77	1072.67
414.14	1077.82
414.51	1057.45
414.87	1053.48
415.24	1055.58
415.61	1066.11
415.97	1053.48
416.34	1069.86
416.71	1068.69
417.08	1072.20
417.44	1070.56
417.81	1070.80
418.18	1064.48
418.54	1064.24
418.91	1057.69
419.28	1055.35
419.64	1060.26
420.01	1074.54
420.38	1082.26
420.74	1078.99
421.11	1084.60
421.48	1093.26
421.84	1079.69
422.21	1082.73
422.58	1085.77
422.94	1082.73
423.31	1072.67
423.68	1082.03
424.04	1079.69
424.41	1079.46
424.77	1075.94
425.14	1080.16
425.51	1080.63
425.87	1072.43
426.24	1068.22
426.61	1075.01
426.97	1075.94
427.34	1069.62
427.70	1073.14
428.07	1074.54
428.44	1070.56
428.80	1067.52
429.17	1061.20
429.53	1061.20
429.90	1060.03
430.27	1060.50
430.63	1067.05
431.00	1070.80
431.36	1069.86
431.73	1064.94
432.09	1057.69
432.46	1049.50
432.83	1053.01
433.19	1053.94
433.56	1061.67
433.92	1067.28
434.29	1079.22
434.65	1083.67
435.02	1083.90
435.38	1090.69
435.75	1083.20
436.11	1072.67
436.48	1065.18
436.84	1076.88
437.21	1076.88
437.57	1087.88
437.94	1082.03
438.30	1088.12
438.67	1086.94
439.03	1077.35
439.40	1067.28
439.76	1068.45
440.13	1069.86
440.49	1067.75
440.86	1078.52
441.22	1086.94
441.59	1094.90
441.95	1093.26
442.32	1094.43
442.68	1089.29
443.05	1083.90
443.41	1083.90
443.78	1085.54
444.14	1078.28
444.51	1078.99
444.87	1084.37
445.24	1083.43
445.60	1077.35
445.96	1093.03
446.33	1100.05
446.69	1100.75
447.06	1096.78
447.42	1107.31
447.79	1092.56
448.15	1079.69
448.51	1076.18
448.88	1084.37
449.24	1074.77
449.61	1081.80
449.97	1092.56
450.33	1097.24
450.70	1087.65
451.06	1093.50
451.43	1089.29
451.79	1075.71
452.15	1066.58
452.52	1072.67
452.88	1066.82
453.24	1059.56
453.61	1057.92
453.97	1051.37
454.34	1046.92
454.70	1045.52
455.06	1057.45
455.43	1069.39
455.79	1079.46
456.15	1079.22
456.52	1082.73
456.88	1073.60
457.24	1069.16
457.61	1072.20
457.97	1070.56
458.33	1064.48
458.70	1062.84
459.06	1056.28
459.42	1056.99
459.79	1064.48
460.15	1066.35
460.51	1067.28
460.88	1073.84
461.24	1074.77
461.60	1085.77
461.96	1086.48
462.33	1091.63
462.69	1086.01
463.05	1088.82
463.42	1084.60
463.78	1092.09
464.14	1095.37
464.50	1108.01
464.87	1107.54
465.23	1092.80
465.59	1096.54
465.95	1094.90
466.32	1082.03
466.68	1075.94
467.04	1087.18
467.40	1080.63
467.77	1085.31
468.13	1087.88
468.49	1095.84
468.85	1086.71
469.22	1087.88
469.58	1073.84
469.94	1086.24
470.30	1077.11
470.66	1080.16
471.03	1071.73
471.39	1074.54
471.75	1062.14
472.11	1063.54
472.47	1060.73
472.84	1070.56
473.20	1072.20
473.56	1076.88
473.92	1080.39
474.28	1087.41
474.65	1082.73
475.01	1092.09
475.37	1094.90
475.73	1096.31
476.09	1091.63
476.45	1097.48
476.81	1086.01
477.18	1078.05
477.54	1077.82
477.90	1077.82
478.26	1079.92
478.62	1079.92
478.98	1086.94
479.34	1086.94
479.71	1091.86
480.07	1078.99
480.43	1088.12
480.79	1085.77
481.15	1084.37
481.51	1086.01
481.87	1097.24
482.23	1100.05
482.59	1103.09
482.96	1105.20
483.32	1098.41
483.68	1099.82
484.04	1092.33
484.40	1093.97
484.76	1088.35
485.12	1096.07
485.48	1092.56
485.84	1087.65
486.20	1085.54
486.56	1093.97
486.92	1085.31
487.28	1087.41
487.64	1093.03
488.00	1082.26
488.37	1068.92
488.73	1071.50
489.09	1071.50
489.45	1073.37
489.81	1080.63
490.17	1082.97
490.53	1077.58
490.89	1076.88
491.25	1065.18
491.61	1060.26
491.97	1065.41
492.33	1065.88
492.69	1073.84
493.05	1085.07
493.41	1090.92
493.77	1094.43
494.13	1094.67
494.49	1089.29
494.85	1080.86
495.21	1079.92
495.57	1069.62
495.93	1069.39
496.29	1056.99
496.64	1067.75
497.00	1068.22
497.36	1077.35
497.72	1083.20
498.08	1085.77
498.44	1077.35
498.80	1087.18
499.16	1084.84
499.52	1087.18
499.88	1093.26
500.24	1097.95
500.60	1092.09
500.96	1090.69
501.32	1083.67
501.68	1086.71
502.03	1084.37
502.39	1082.26
502.75	1085.54
503.11	1081.56
503.47	1077.58
503.83	1085.77
504.19	1078.28
504.55	1086.01
504.91	1096.78
505.26	1091.16
505.62	1086.01
505.98	1089.75
506.34	1068.92
506.70	1061.67
507.06	1059.09
507.42	1065.65
507.78	1066.58
508.13	1073.84
508.49	1082.50
508.85	1087.65
509.21	1089.75
509.57	1086.94
509.93	1093.73
510.28	1086.71
510.64	1087.88
511.00	1074.77
511.36	1077.35
511.72	1083.90
512.07	1087.41
512.43	1092.33
512.79	1096.31
513.15	1098.88
513.51	1085.54
513.86	1080.39
514.22	1065.41
514.58	1064.94
514.94	1062.60
515.30	1073.14
515.65	1074.77
516.01	1089.05
516.37	1082.97
516.73	1086.94
517.08	1081.56
517.44	1086.01
517.80	1097.48
518.16	1110.12
518.51	1106.61
518.87	1109.18
519.23	1104.03
519.59	1092.33
519.94	1094.67
520.30	1096.78
520.66	1093.03
521.01	1103.09
521.37	1097.71
521.73	1092.33
522.09	1098.88
522.44	1099.58
522.80	1092.09
523.16	1088.12
523.51	1073.84
523.87	1068.45
524.23	1058.39
524.58	1069.62
524.94	1086.71
525.30	1093.97
525.65	1095.14
526.01	1105.90
526.37	1101.22
526.72	1104.26
527.08	1103.56
527.44	1103.56
527.79	1097.48
528.15	1098.18
528.51	1080.86
528.86	1082.03
529.22	1079.46
529.58	1080.39
529.93	1073.37
530.29	1081.33
530.65	1087.18
531.00	1089.75
531.36	1091.86
531.71	1090.22
532.07	1083.90
532.43	1084.37
532.78	1089.05
533.14	1082.97
533.49	1078.52
533.85	1092.33
534.21	1086.01
534.56	1077.82
534.92	1092.33
535.27	1098.88
535.63	1094.43
535.98	1093.03
536.34	1090.22
536.69	1082.26
537.05	1087.18
537.41	1085.77
537.76	1088.82
538.12	1091.39
538.47	1085.54
538.83	1079.69
539.18	1071.97
539.54	1067.05
539.89	1068.22
540.25	1077.11
540.60	1072.90
540.96	1077.35
541.31	1077.82
541.67	1072.43
542.02	1075.24
542.38	1090.69
542.73	1088.35
543.09	1094.90
543.44	1097.24
543.80	1094.90
544.15	1082.26
544.51	1086.24
544.86	1083.20
545.22	1082.97
545.57	1073.84
545.93	1074.31
546.28	1069.62
546.64	1069.16
546.99	1071.97
547.35	1080.39
547.70	1077.58
548.05	1081.09
548.41	1081.80
548.76	1086.24
549.12	1085.54
549.47	1091.63
549.83	1090.69
550.18	1094.20
550.53	1088.12
550.89	1082.97
551.24	1082.73
551.60	1080.86
551.95	1083.67
552.30	1078.05
552.66	1089.29
553.01	1086.24
553.37	1086.71
553.72	1084.37
554.07	1088.82
554.43	1088.82
554.78	1090.92
555.13	1089.29
555.49	1089.05
555.84	1090.22
556.19	1078.75
556.55	1068.92
556.90	1071.73
557.26	1075.94
557.61	1077.11
557.96	1080.39
558.32	1081.80
558.67	1083.20
559.02	1080.16
559.37	1080.39
559.73	1081.33
560.08	1084.60
560.43	1082.26
560.79	1074.77
561.14	1081.80
561.49	1076.41
561.85	1076.18
562.20	1080.86
562.55	1084.37
562.90	1088.58
563.26	1100.52
563.61	1102.16
563.96	1094.67
564.32	1094.90
564.67	1080.63
565.02	1074.31
565.37	1077.11
565.73	1080.39
566.08	1079.69
566.43	1080.86
566.78	1082.26
567.14	1074.31
567.49	1076.65
567.84	1073.60
568.19	1080.16
568.54	1072.43
568.90	1078.52
569.25	1074.54
569.60	1080.63
569.95	1076.18
570.31	1088.58
570.66	1086.48
571.01	1086.94
571.36	1075.94
571.71	1077.11
572.06	1071.26
572.42	1068.92
572.77	1061.43
573.12	1065.88
573.47	1064.01
573.82	1071.03
574.18	1078.05
574.53	1083.20
574.88	1087.41
575.23	1091.39
575.58	1087.65
575.93	1093.50
576.28	1088.35
576.64	1082.97
576.99	1077.58
577.34	1070.80
577.69	1060.73
578.04	1076.88
578.39	1083.20
578.74	1095.37
579.09	1099.58
579.44	1106.37
579.80	1087.88
580.15	1086.48
580.50	1086.48
580.85	1085.07
581.20	1074.31
581.55	1081.09
581.90	1076.88
582.25	1058.86
582.60	1057.22
582.95	1059.56
583.30	1065.41
583.65	1071.26
584.00	1076.18
584.35	1083.20
584.71	1091.39
585.06	1094.43
585.41	1090.69
585.76	1096.31
586.11	1093.50
586.46	1091.63
586.81	1091.16
587.16	1089.52
587.51	1081.33
587.86	1081.33
588.21	1082.03
588.56	1077.11
588.91	1080.16
589.26	1092.09
589.61	1090.69
589.96	1083.20
590.31	1082.50
590.66	1083.20
591.01	1082.97
591.36	1083.43
591.71	1093.97
592.06	1084.60
592.41	1078.28
592.76	1068.22
593.10	1065.18
593.45	1061.90
593.80	1073.14
594.15	1079.69
594.50	1081.80
594.85	1088.35
595.20	1088.58
595.55	1092.09
595.90	1089.52
596.25	1093.73
596.60	1094.67
596.95	1098.88
597.30	1088.82
597.64	1147.80
597.99	1150.84
598.34	1143.35
598.69	1135.16
599.04	1146.86
599.39	1093.03
599.74	1087.65
600.09	1086.48
600.44	1090.92
600.78	1088.12
601.13	1089.52
601.48	1077.82
601.83	1081.80
602.18	1086.01
602.53	1085.54
602.88	1079.92
603.22	1094.20
603.57	1092.09
603.92	1080.63
604.27	1071.26
604.62	1073.14
604.97	1072.43
605.31	1071.50
605.66	1071.50
606.01	1078.52
606.36	1084.14
606.71	1087.88
607.05	1086.94
607.40	1091.39
607.75	1086.48
608.10	1078.99
608.44	1070.56
608.79	1076.41
609.14	1082.03
609.49	1088.35
609.84	1084.37
610.18	1089.52
610.53	1089.52
610.88	1093.26
611.23	1092.80
611.57	1104.97
611.92	1105.44
612.27	1105.20
612.62	1095.60
612.96	1103.33
613.31	1094.67
613.66	1094.67
614.00	1087.88
614.35	1083.67
614.70	1075.24
615.05	1080.86
615.39	1076.41
615.74	1078.05
616.09	1082.26
616.43	1082.73
616.78	1078.75
617.13	1082.50
617.47	1078.75
617.82	1083.90
618.17	1088.82
618.51	1084.60
618.86	1084.14
619.21	1090.22
619.55	1087.18
619.90	1078.28
620.25	1080.39
620.59	1075.71
620.94	1071.73
621.29	1072.20
621.63	1075.48
621.98	1080.39
622.32	1078.75
622.67	1087.18
623.02	1086.48
623.36	1086.94
623.71	1086.48
624.05	1083.67
624.40	1077.82
624.75	1078.05
625.09	1076.18
625.44	1076.18
625.78	1079.22
626.13	1078.99
626.48	1078.75
626.82	1072.90
627.17	1071.26
627.51	1077.35
627.86	1080.63
628.20	1090.69
628.55	1088.58
628.89	1091.39
629.24	1085.77
629.58	1081.33
629.93	1065.41
630.28	1067.28
630.62	1063.54
630.97	1069.16
631.31	1067.52
631.66	1070.09
632.00	1081.56
632.35	1079.46
632.69	1084.84
633.04	1087.65
633.38	1094.20
633.73	1096.07
634.07	1100.99
634.42	1093.50
634.76	1093.50
635.11	1087.41
635.45	1074.07
635.79	1067.52
636.14	1074.07
636.48	1072.90
636.83	1081.80
637.17	1088.58
637.52	1098.41
637.86	1096.31
638.21	1093.97
638.55	1087.65
638.89	1092.56
639.24	1089.05
639.58	1087.41
639.93	1092.33
640.27	1083.43
640.61	1088.12
640.96	1084.84
641.30	1086.01
641.65	1078.05
641.99	1087.65
642.33	1079.92
642.68	1079.46
643.02	1083.43
643.37	1094.90
643.71	1089.05
644.05	1083.67
644.40	1084.84
644.74	1074.31
645.08	1070.09
645.43	1079.22
645.77	1077.58
646.11	1077.58
646.46	1074.77
646.80	1071.03
647.14	1059.79
647.49	1063.54
647.83	1068.69
648.17	1076.18
648.52	1078.75
648.86	1085.31
649.20	1091.16
649.55	1092.09
649.89	1090.69
650.23	1090.22
650.57	1090.69
650.92	1086.24
651.26	1079.46
651.60	1088.58
651.95	1090.46
652.29	1076.88
652.63	1064.48
652.97	1061.90
653.32	1053.71
653.66	1045.05
654.00	1052.77
654.34	1072.67
654.69	1075.48
655.03	1071.73
655.37	1086.94
655.71	1101.46
656.05	1095.60
656.40	1086.71
656.74	1088.58
657.08	1081.56
657.42	1075.01
657.76	1074.31
658.11	1081.09
658.45	1076.88
658.79	1075.48
659.13	1075.24
659.47	1076.65
659.82	1086.71
660.16	1085.07
660.50	1087.88
660.84	1095.84
661.18	1085.54
661.52	1072.20
661.87	1073.14
662.21	1071.03
662.55	1055.58
662.89	1057.92
663.23	1065.41
663.57	1073.37
663.91	1076.65
664.25	1075.71
664.60	1077.35
664.94	1078.05
665.28	1071.26
665.62	1058.62
665.96	1061.20
666.30	1062.37
666.64	1063.07
666.98	1067.75
667.32	1073.37
667.66	1080.63
668.01	1092.56
668.35	1089.99
668.69	1087.65
669.03	1097.71
669.37	1087.41
669.71	1071.73
670.05	1075.71
670.39	1077.82
670.73	1076.41
671.07	1084.37
671.41	1090.46
671.75	1088.82
672.09	1089.52
672.43	1085.77
672.77	1078.05
673.11	1078.05
673.45	1073.60
673.79	1074.54
674.13	1082.03
674.47	1087.18
674.81	1080.39
675.15	1082.03
675.49	1081.56
675.83	1070.80
676.17	1078.28
676.51	1086.24
676.85	1089.99
677.19	1091.86
677.53	1093.03
677.87	1089.99
678.21	1085.07
678.55	1081.33
678.89	1078.99
679.23	1083.90
679.57	1072.90
679.90	1071.73
680.24	1066.82
680.58	1070.56
680.92	1072.20
681.26	1083.20
681.60	1087.88
681.94	1089.05
682.28	1084.84
682.62	1071.03
682.96	1067.05
683.29	1069.62
683.63	1079.22
683.97	1073.60
684.31	1084.14
684.65	1079.92
684.99	1071.03
685.33	1064.48
685.67	1071.26
686.00	1079.92
686.34	1084.60
686.68	1084.14
687.02	1082.50
687.36	1092.56
687.70	1083.90
688.03	1085.77
688.37	1097.24
688.71	1102.63
689.05	1093.26
689.39	1093.97
689.72	1086.94
690.06	1081.33
690.40	1075.71
690.74	1068.92
691.08	1061.90
691.41	1066.58
691.75	1073.37
692.09	1071.26
692.43	1077.35
692.76	1071.50
693.10	1068.92
693.44	1055.11
693.78	1053.71
694.11	1056.75
694.45	1064.94
694.79	1067.05
695.13	1072.90
695.46	1084.84
695.80	1082.03
696.14	1082.26
696.48	1080.86
696.81	1077.58
697.15	1079.69
697.49	1078.52
697.82	1081.56
698.16	1080.86
698.50	1086.01
698.83	1079.69
699.17	1073.84
699.51	1081.33
699.84	1078.28
700.18	1078.99
700.52	1073.84
700.85	1073.37
701.19	1059.56
701.53	1065.88
701.86	1060.50
702.20	1060.03
702.54	1064.94
702.87	1064.01
703.21	1062.60
703.55	1064.01
703.88	1070.09
704.22	1074.31
704.55	1087.18
704.89	1089.05
705.23	1093.97
705.56	1088.82
705.90	1087.41
706.23	1078.05
706.57	1085.07
706.91	1087.18
707.24	1081.80
707.58	1078.99
707.91	1074.54
708.25	1067.05
708.58	1057.22
708.92	1066.58
709.26	1065.18
709.59	1075.48
709.93	1069.62
710.26	1078.05
710.60	1074.54
710.93	1072.43
711.27	1063.54
711.60	1075.94
711.94	1071.50
712.27	1071.97
712.61	1081.33
712.94	1094.43
713.28	1093.26
713.61	1098.88
713.95	1096.07
714.28	1096.31
714.62	1086.71
714.95	1087.88
715.29	1088.82
715.62	1094.67
715.96	1081.56
716.29	1084.37
716.63	1074.07
716.96	1059.09
717.29	1049.73
717.63	1059.09
717.96	1065.65
718.30	1061.90
718.63	1065.88
718.97	1078.28
719.30	1077.82
719.63	1077.35
719.97	1080.16
720.30	1082.97
720.64	1078.28
720.97	1071.97
721.30	1065.41
721.64	1069.16
721.97	1070.09
722.31	1065.18
722.64	1066.58
722.97	1063.31
723.31	1057.45
723.64	1067.28
723.97	1068.45
724.31	1073.60
724.64	1078.75
724.98	1079.46
725.31	1066.35
725.64	1069.39
725.98	1067.52
726.31	1065.18
726.64	1069.39
726.97	1070.56
727.31	1066.82
727.64	1066.82
727.97	1061.67
728.31	1056.99
728.64	1056.28
728.97	1062.84
729.31	1062.84
729.64	1061.67
729.97	1078.28
730.30	1084.84
730.64	1081.80
730.97	1081.33
731.30	1096.07
731.63	1085.07
731.97	1078.52
732.30	1075.94
732.63	1082.73
732.96	1076.65
733.30	1068.92
733.63	1073.14
733.96	1080.63
734.29	1074.07
734.63	1071.73
734.96	1092.80
735.29	1088.58
735.62	1082.50
735.95	1083.67
736.29	1088.35
736.62	1072.67
736.95	1079.69
737.28	1079.69
737.61	1089.99
737.94	1085.54
738.28	1087.88
738.61	1081.80
738.94	1084.84
739.27	1064.24
739.60	1068.45
739.93	1065.18
740.27	1063.31
740.60	1064.71
740.93	1072.67
741.26	1075.01
741.59	1078.75
741.92	1084.37
742.25	1079.69
742.58	1079.22
742.91	1073.84
743.25	1071.03
743.58	1070.80
743.91	1078.75
744.24	1085.77
744.57	1085.77
744.90	1093.03
745.23	1095.60
745.56	1091.63
745.89	1084.14
746.22	1088.35
746.55	1082.73
746.88	1075.24
747.21	1073.60
747.54	1080.16
747.87	1078.28
748.20	1080.39
748.53	1086.01
748.87	1083.20
749.20	1083.20
749.53	1084.14
749.86	1085.77
750.19	1089.99
750.52	1089.29
750.85	1089.99
751.18	1090.69
751.51	1090.69
751.84	1084.37
752.16	1084.84
752.49	1083.43
752.82	1077.35
753.15	1076.88
753.48	1076.18
753.81	1075.71
754.14	1078.75
754.47	1080.63
754.80	1079.69
755.13	1082.97
755.46	1084.37
755.79	1083.20
756.12	1082.03
756.45	1079.92
756.78	1077.58
757.11	1072.67
757.43	1076.88
757.76	1067.28
758.09	1067.75
758.42	1069.16
758.75	1071.03
759.08	1066.58
759.41	1084.84
759.74	1089.52
760.07	1091.86
760.39	1097.01
760.72	1096.07
761.05	1080.39
761.38	1066.58
761.71	1062.37
762.04	1069.62
762.36	1064.24
762.69	1074.07
763.02	1079.22
763.35	1081.09
763.68	1080.16
764.01	1088.35
764.33	1091.63
764.66	1096.07
764.99	1105.44
765.32	1103.33
765.65	1106.37
765.97	1096.54
766.30	1097.01
766.63	1089.99
766.96	1079.69
767.28	1062.84
767.61	1069.39
767.94	1069.62
768.27	1071.97
768.59	1077.58
768.92	1086.24
769.25	1087.65
769.58	1083.67
769.90	1079.92
770.23	1074.07
770.56	1065.65
770.89	1059.56
771.21	1067.99
771.54	1062.14
771.87	1066.58
772.19	1069.16
772.52	1073.14
772.85	1067.52
773.17	1073.60
773.50	1070.33
773.83	1081.80
774.15	1074.54
774.48	1075.24
774.81	1080.39
775.13	1081.33
775.46	1068.45
775.79	1064.71
776.11	1060.73
776.44	1050.67
776.77	1063.31
777.09	1075.01
777.42	1086.94
777.74	1088.82
778.07	1096.78
778.40	1100.52
778.72	1093.26
779.05	1091.16
779.37	1089.52
779.70	1081.56
780.03	1070.33
780.35	1072.43
780.68	1071.03
781.00	1082.97
781.33	1084.84
781.65	1082.50
781.98	1082.03
782.31	1082.03
782.63	1072.67
782.96	1075.94
783.28	1079.69
783.61	1079.46
783.93	1071.50
784.26	1073.60
784.58	1071.03
784.91	1063.77
785.23	1061.43
785.56	1076.65
785.88	1071.50
786.21	1067.99
786.53	1072.20
786.86	1090.69
787.18	1087.65
787.51	1097.01
787.83	1105.20
788.16	1106.37
788.48	1091.39
788.81	1084.84
789.13	1080.63
789.46	1073.37
789.78	1068.69
790.10	1065.65
790.43	1069.39
790.75	1067.28
791.08	1069.16
791.40	1074.54
791.73	1091.39
792.05	1087.65
792.37	1080.16
792.70	1074.31
793.02	1073.60
793.35	1067.75
793.67	1068.45
793.99	1077.35
794.32	1083.20
794.64	1082.03
794.96	1065.65
795.29	1070.80
795.61	1065.88
795.93	1067.52
796.26	1072.67
796.58	1081.33
796.91	1082.26
797.23	1087.41
797.55	1097.01
797.87	1089.05
798.20	1082.50
798.52	1080.63
798.84	1078.99
799.17	1061.90
799.49	1072.43
799.81	1073.84
800.14	1079.46
800.46	1080.39
800.78	1087.65
801.10	1081.56
801.43	1075.94
801.75	1067.28
802.07	1068.69
802.40	1068.22
802.72	1063.77
803.04	1074.07
803.36	1069.62
803.69	1071.03
804.01	1074.31
804.33	1079.46
804.65	1094.20
804.97	1107.78
805.30	1115.03
805.62	1108.01
805.94	1114.56
806.26	1089.99
806.58	1076.18
806.91	1065.65
807.23	1065.88
807.55	1059.33
807.87	1069.86
808.19	1072.43
808.52	1073.14
808.84	1072.90
809.16	1072.90
809.48	1071.50
809.80	1075.94
810.12	1071.73
810.44	1074.07
810.77	1075.71
811.09	1083.43
811.41	1080.39
811.73	1087.88
812.05	1094.90
812.37	1090.46
812.69	1079.92
813.01	1086.24
813.33	1080.63
813.66	1078.52
813.98	1084.84
814.30	1093.26
814.62	1082.26
814.94	1087.65
815.26	1080.39
815.58	1074.31
815.90	1063.31
816.22	1069.39
816.54	1080.16
816.86	1087.65
817.18	1091.39
817.50	1092.56
817.82	1093.03
818.14	1077.58
818.46	1072.20
818.78	1075.24
819.10	1085.07
819.42	1086.48
819.74	1091.63
820.06	1097.24
820.38	1100.29
820.70	1101.92
821.02	1108.48
821.34	1106.84
821.66	1099.12
821.98	1081.80
822.30	1067.52
822.62	1051.37
822.94	1051.37
823.26	1057.92
823.58	1060.03
823.90	1072.20
824.22	1073.37
824.54	1070.33
824.86	1066.58
825.18	1069.39
825.50	1063.54
825.81	1072.90
826.13	1073.60
826.45	1069.39
826.77	1067.99
827.09	1068.69
827.41	1060.50
827.73	1066.35
828.05	1065.65
828.36	1079.46
828.68	1085.54
829.00	1091.86
829.32	1086.48
829.64	1087.18
829.96	1079.92
830.28	1078.75
830.59	1080.86
830.91	1080.16
831.23	1082.50
831.55	1080.86
831.87	1075.24
832.19	1075.01
832.50	1078.52
832.82	1081.56
833.14	1082.26
833.46	1090.69
833.78	1085.07
834.09	1079.46
834.41	1073.60
834.73	1071.97
835.05	1067.52
835.36	1071.73
835.68	1074.31
836.00	1073.60
836.32	1070.56
836.63	1074.07
836.95	1070.33
837.27	1063.77
837.59	1068.22
837.90	1068.22
838.22	1061.20
838.54	1068.92
838.85	1067.28
839.17	1076.65
839.49	1077.35
839.80	1080.63
840.12	1086.01
840.44	1089.29
840.76	1077.82
841.07	1073.84
841.39	1072.43
841.71	1068.69
842.02	1075.24
842.34	1076.41
842.65	1084.60
842.97	1082.50
843.29	1083.90
843.60	1082.03
843.92	1086.71
844.24	1077.82
844.55	1084.37
844.87	1070.80
845.18	1067.52
845.50	1062.84
845.82	1075.24
846.13	1072.20
846.45	1073.37
846.76	1083.67
847.08	1085.07
847.40	1080.39
847.71	1071.97
848.03	1068.92
848.34	1061.20
848.66	1063.31
848.97	1064.71
849.29	1065.18
849.60	1066.82
849.92	1066.11
850.24	1060.26
850.55	1065.41
850.87	1067.75
851.18	1079.46
851.50	1081.09
851.81	1080.86
852.13	1066.58
852.44	1074.31
852.76	1060.96
853.07	1068.69
853.39	1073.37
853.70	1082.97
854.01	1081.09
854.33	1094.67
854.64	1082.26
854.96	1081.80
855.27	1086.94
855.59	1083.67
855.90	1077.11
856.22	1073.84
856.53	1076.18
856.84	1071.26
857.16	1067.75
857.47	1068.22
857.79	1072.20
858.10	1076.41
858.41	1076.65
858.73	1083.67
859.04	1083.43
859.36	1088.35
859.67	1073.84
859.98	1070.09
860.30	1065.65
860.61	1053.94
860.92	1058.62
861.24	1068.92
861.55	1072.20
861.87	1077.11
862.18	1092.33
862.49	1086.94
862.81	1087.65
863.12	1083.43
863.43	1074.31
863.74	1074.77
864.06	1076.88
864.37	1070.56
864.68	1074.77
865.00	1080.86
865.31	1079.69
865.62	1077.11
865.94	1086.94
866.25	1080.86
866.56	1081.33
866.87	1088.58
867.19	1094.67
867.50	1092.56
867.81	1103.33
868.12	1105.20
868.44	1099.82
868.75	1104.50
869.06	1098.41
869.37	1096.31
869.68	1098.88
870.00	1092.56
870.31	1082.97
870.62	1090.46
870.93	1086.24
871.24	1085.07
871.56	1094.43
871.87	1084.37
872.18	1091.63
872.49	1088.35
872.80	1083.43
873.12	1079.69
873.43	1082.50
873.74	1075.24
874.05	1072.20
874.36	1074.07
874.67	1072.43
874.98	1075.71
875.29	1071.97
875.61	1084.37
875.92	1088.12
876.23	1081.56
876.54	1081.09
876.85	1080.39
877.16	1076.18
877.47	1068.45
877.78	1066.58
878.09	1067.75
878.40	1075.71
878.72	1086.24
879.03	1089.52
879.34	1097.71
879.65	1103.33
879.96	1095.14
880.27	1086.71
880.58	1085.07
880.89	1094.90
881.20	1088.58
881.51	1090.46
881.82	1091.86
882.13	1094.90
882.44	1084.14
882.75	1090.69
883.06	1100.05
883.37	1088.58
883.68	1088.12
883.99	1087.41
884.30	1073.14
884.61	1066.35
884.92	1078.28
885.23	1078.99
885.54	1079.46
885.85	1078.28
886.16	1078.75
886.47	1070.80
886.78	1073.37
887.08	1071.50
887.39	1087.41
887.70	1077.35
888.01	1075.71
888.32	1079.22
888.63	1084.60
888.94	1073.14
889.25	1078.52
889.56	1086.48
889.87	1075.01
890.17	1065.65
890.48	1083.20
890.79	1086.94
891.10	1083.67
891.41	1085.77
891.72	1083.43
892.03	1073.84
892.34	1071.50
892.64	1064.24
892.95	1066.82
893.26	1071.50
893.57	1076.65
893.88	1073.37
894.18	1082.26
894.49	1086.24
894.80	1100.52
895.11	1090.22
895.42	1096.07
895.72	1093.26
896.03	1094.67
896.34	1079.69
896.65	1080.86
896.96	1070.33
897.26	1068.45
897.57	1060.96
897.88	1062.37
898.19	1074.77
898.49	1078.99
898.80	1079.46
899.11	1079.22
899.41	1072.20
899.72	1058.16
900.03	1068.22
900.34	1064.94
900.64	1066.35
900.95	1080.86
901.26	1093.03
901.56	1078.52
901.87	1086.48
902.18	1082.50
902.48	1082.97
902.79	1069.16
903.10	1066.11
903.40	1056.99
903.71	1070.80
904.02	1069.16
904.32	1082.26
904.63	1097.71
904.94	1113.16
905.24	1100.29
905.55	1100.75
905.85	1094.20
906.16	1080.63
906.47	1071.50
906.77	1078.52
907.08	1069.39
907.38	1066.11
907.69	1066.82
908.00	1071.50
908.30	1056.28
908.61	1056.28
908.91	1053.94
909.22	1063.54
909.52	1062.84
909.83	1079.22
910.14	1089.52
910.44	1099.35
910.75	1100.52
911.05	1096.54
911.36	1092.09
911.66	1080.63
911.97	1069.16
912.27	1063.07
912.58	1054.18
912.88	1039.90
913.19	1052.77
913.49	1068.69
913.80	1074.54
914.10	1085.77
914.41	1103.33
914.71	1093.26
915.01	1071.26
915.32	1069.86
915.62	1062.84
915.93	1055.11
916.23	1058.39
916.54	1071.26
916.84	1070.09
917.15	1069.62
917.45	1068.45
917.75	1062.37
918.06	1063.31
918.36	1068.92
918.67	1067.99
918.97	1060.50
919.27	1057.22
919.58	1059.33
919.88	1055.35
920.18	1058.62
920.49	1074.31
920.79	1078.28
921.10	1070.09
921.40	1066.82
921.70	1070.56
922.01	1065.65
922.31	1074.77
922.61	1081.09
922.92	1072.20
923.22	1064.94
923.52	1064.94
923.82	1058.39
924.13	1059.33
924.43	1065.41
924.73	1072.43
925.04	1068.45
925.34	1066.82
925.64	1071.03
925.94	1074.54
926.25	1073.84
926.55	1079.22
926.85	1080.63
927.15	1073.14
927.46	1077.35
927.76	1070.09
928.06	1072.20
928.36	1078.52
928.67	1072.90
928.97	1067.52
929.27	1075.24
929.57	1071.03
929.87	1068.22
930.18	1063.77
930.48	1066.58
930.78	1067.28
931.08	1063.07
931.38	1060.50
931.69	1072.67
931.99	1069.86
932.29	1072.20
932.59	1082.50
932.89	1082.97
933.19	1082.03
933.49	1091.16
933.80	1086.94
934.10	1089.05
934.40	1082.50
934.70	1067.28
935.00	1054.18
935.30	1053.71
935.60	1043.88
935.90	1047.39
936.20	1060.50
936.50	1071.50
936.81	1076.41
937.11	1078.99
937.41	1082.73
937.71	1088.58
938.01	1085.54
938.31	1077.82
938.61	1078.99
938.91	1082.26
939.21	1075.48
939.51	1070.56
939.81	1072.90
940.11	1074.77
940.41	1079.22
940.71	1084.37
941.01	1084.14
941.31	1079.92
941.61	1087.65
941.91	1087.41
942.21	1085.31
942.51	1086.71
942.81	1090.69
943.11	1074.54
943.41	1063.54
943.71	1059.56
944.01	1055.58
944.31	1052.77
944.61	1065.65
944.90	1075.24
945.20	1071.03
945.50	1071.26
945.80	1074.77
946.10	1070.33
946.40	1068.92
946.70	1076.65
947.00	1084.84
947.30	1089.29
947.60	1091.86
947.89	1083.43
948.19	1080.63
948.49	1077.35
948.79	1079.69
949.09	1084.37
949.39	1088.82
949.69	1087.41
949.98	1087.41
950.28	1082.03
950.58	1071.97
950.88	1070.09
951.18	1067.52
951.48	1066.35
951.77	1061.20
952.07	1057.92
952.37	1055.58
952.67	1062.84
952.97	1067.28
953.26	1072.90
953.56	1073.14
953.86	1077.58
954.16	1075.24
954.45	1070.09
954.75	1062.84
955.05	1060.73
955.35	1061.90
955.64	1070.33
955.94	1065.65
956.24	1067.75
956.54	1075.01
956.83	1067.05
957.13	1057.45
957.43	1066.11
957.72	1074.31
958.02	1069.39
958.32	1076.18
958.61	1079.92
958.91	1078.28
959.21	1067.99
959.50	1072.43
959.80	1075.48
960.10	1063.31
960.39	1056.52
960.69	1065.18
960.99	1064.24
961.28	1070.56
961.58	1085.07
961.87	1088.82
962.17	1087.88
962.47	1080.16
962.76	1075.48
963.06	1073.37
963.36	1080.16
963.65	1071.97
963.95	1077.35
964.24	1076.88
964.54	1086.01
964.83	1085.07
965.13	1086.94
965.42	1091.63
965.72	1089.29
966.02	1086.24
966.31	1081.33
966.61	1090.22
966.90	1086.94
967.20	1089.75
967.49	1086.71
967.79	1084.84
968.08	1084.60
968.38	1074.77
968.67	1070.33
968.97	1068.92
969.26	1072.20
969.56	1078.28
969.85	1096.78
970.15	1092.09
970.44	1089.52
970.74	1085.54
971.03	1072.43
971.32	1063.54
971.62	1075.01
971.91	1070.33
972.21	1083.67
972.50	1082.97
972.80	1089.75
973.09	1076.65
973.38	1086.71
973.68	1089.05
973.97	1089.75
974.27	1089.05
974.56	1100.52
974.85	1095.37
975.15	1076.65
975.44	1079.69
975.73	1085.54
976.03	1071.26
976.32	1073.14
976.61	1085.54
976.91	1090.92
977.20	1067.28
977.49	1075.48
977.79	1072.20
978.08	1075.01
978.37	1061.90
978.67	1075.01
978.96	1076.18
979.25	1070.33
979.55	1058.86
979.84	1060.96
980.13	1061.43
980.42	1062.14
980.72	1070.56
981.01	1082.26
981.30	1085.77
981.59	1084.84
981.89	1080.39
982.18	1086.94
982.47	1080.39
982.76	1084.14
983.06	1085.77
983.35	1089.52
983.64	1082.03
983.93	1078.28
984.22	1080.16
984.52	1079.69
984.81	1073.37
985.10	1066.35
985.39	1072.43
985.68	1069.62
985.97	1067.52
986.27	1065.88
986.56	1071.26
986.85	1066.35
987.14	1066.35
987.43	1059.56
987.72	1066.35
988.01	1071.50
988.31	1065.18
988.60	1072.20
988.89	1080.39
989.18	1076.88
989.47	1074.31
989.76	1080.16
990.05	1075.01
990.34	1077.82
990.63	1086.48
990.92	1095.37
991.21	1098.65
991.51	1103.56
991.80	1100.29
992.09	1095.84
992.38	1091.16
992.67	1095.14
992.96	1085.54
993.25	1096.07
993.54	1100.05
993.83	1098.88
994.12	1097.01
994.41	1096.07
994.70	1087.41
994.99	1083.43
995.28	1082.26
995.57	1080.39
995.86	1076.18
996.15	1070.33
996.44	1063.77
996.73	1061.90
997.02	1056.75
997.31	1055.11
997.59	1054.65
997.88	1049.50
998.17	1040.84
998.46	1043.41
998.75	1057.22
999.04	1058.16
999.33	1067.05
999.62	1070.56
999.91	1070.56
1000.20	1066.11
1000.49	1075.71
1000.77	1076.41
1001.06	1082.73
1001.35	1083.90
1001.64	1078.05
1001.93	1068.22
1002.22	1073.60
1002.51	1067.52
1002.79	1067.99
1003.08	1082.97
1003.37	1080.39
1003.66	1069.62
1003.95	1072.90
1004.23	1072.43
1004.52	1065.88
1004.81	1067.52
1005.10	1070.33
1005.39	1065.18
1005.67	1062.14
1005.96	1068.22
1006.25	1082.73
1006.54	1086.01
1006.83	1094.67
1007.11	1098.88
1007.40	1090.46
1007.69	1082.26
1007.97	1079.22
1008.26	1081.80
1008.55	1074.31
1008.84	1075.24
1009.12	1076.41
1009.41	1079.92
1009.70	1069.62
1009.98	1071.50
1010.27	1069.39
1010.56	1066.58
1010.85	1069.39
1011.13	1071.03
1011.42	1068.45
1011.71	1068.45
1011.99	1061.43
1012.28	1059.09
1012.56	1057.92
1012.85	1071.73
1013.14	1076.88
1013.42	1081.09
1013.71	1071.26
1014.00	1075.01
1014.28	1070.56
1014.57	1064.94
1014.85	1066.82
1015.14	1078.05
1015.43	1077.58
1015.71	1074.07
1016.00	1071.97
1016.28	1070.56
1016.57	1077.11
1016.85	1090.69
1017.14	1094.20
1017.43	1102.16
1017.71	1102.86
1018.00	1097.95
1018.28	1082.73
1018.57	1076.41
1018.85	1079.92
1019.14	1081.33
1019.42	1067.99
1019.71	1080.16
1019.99	1089.05
1020.28	1075.71
1020.56	1075.24
1020.85	1084.84
1021.13	1075.24
1021.42	1072.43
1021.70	1079.69
1021.99	1083.67
1022.27	1081.33
1022.55	1093.03
1022.84	1062.60
>>>>>End Processed Spectral Data<<<<<
