SpectraSuite Data File
++++++++++++++++++++++++++++++++++++
Date: Mon Aug 26 10:25:49 PDT 2019
User: corrico
Dark Spectrum Present: No
Reference Spectrum Present: No
Number of Sampled Component Spectra: 1
Spectrometers: USB2+H06089
Integration Time (usec): 10000 (USB2+H06089)
Spectra Averaged: 2 (USB2+H06089)
Boxcar Smoothing: 2 (USB2+H06089)
Correct for Electrical Dark: No (USB2+H06089)
Strobe/Lamp Enabled: No (USB2+H06089)
Correct for Detector Non-linearity: No (USB2+H06089)
Correct for Stray Light: No (USB2+H06089)
Number of Pixels in Processed Spectrum: 2048
>>>>>Begin Processed Spectral Data<<<<<
339.70	1049.73
340.07	1049.73
340.45	1000.81
340.82	985.37
341.19	958.45
341.57	927.55
341.94	924.98
342.31	921.00
342.69	917.26
343.06	908.83
343.43	904.38
343.81	901.11
344.18	898.77
344.55	885.66
344.93	900.64
345.30	910.00
345.67	917.72
346.04	938.09
346.42	954.47
346.79	951.19
347.16	961.26
347.54	974.37
347.91	963.36
348.28	962.43
348.65	976.94
349.03	984.43
349.40	998.47
349.77	1011.11
350.14	1023.05
350.52	1024.92
350.89	1031.71
351.26	1023.05
351.63	1031.47
352.01	1031.94
352.38	1042.01
352.75	1045.99
353.12	1049.73
353.50	1049.03
353.87	1067.05
354.24	1063.54
354.61	1068.45
354.98	1071.03
355.36	1073.37
355.73	1067.05
356.10	1071.26
356.47	1059.09
356.84	1067.99
357.22	1069.86
357.59	1056.52
357.96	1053.01
358.33	1068.45
358.70	1064.48
359.08	1073.84
359.45	1082.03
359.82	1082.50
360.19	1071.50
360.56	1076.18
360.94	1069.39
361.31	1078.99
361.68	1074.77
362.05	1080.16
362.42	1068.69
362.79	1061.43
363.16	1048.79
363.54	1057.69
363.91	1054.41
364.28	1058.39
364.65	1052.07
365.02	1051.37
365.39	1049.26
365.76	1052.30
366.14	1058.39
366.51	1067.75
366.88	1072.67
367.25	1071.50
367.62	1071.03
367.99	1064.94
368.36	1060.96
368.73	1060.96
369.10	1065.65
369.48	1069.39
369.85	1070.80
370.22	1076.65
370.59	1078.99
370.96	1073.37
371.33	1079.22
371.70	1083.90
372.07	1083.43
372.44	1081.80
372.81	1085.07
373.18	1070.09
373.55	1064.01
373.93	1064.01
374.30	1069.16
374.67	1073.14
375.04	1074.77
375.41	1082.97
375.78	1082.73
376.15	1079.46
376.52	1071.03
376.89	1070.80
377.26	1061.20
377.63	1055.82
378.00	1056.75
378.37	1054.65
378.74	1062.84
379.11	1070.33
379.48	1071.03
379.85	1065.41
380.22	1073.60
380.59	1069.16
380.96	1067.05
381.33	1069.62
381.70	1069.16
382.07	1073.37
382.44	1077.35
382.81	1075.71
383.18	1075.94
383.55	1078.28
383.92	1079.46
384.29	1076.65
384.66	1074.07
385.03	1081.09
385.40	1079.69
385.77	1068.22
386.14	1070.09
386.51	1071.50
386.88	1061.90
387.25	1064.71
387.62	1070.56
387.99	1073.14
388.36	1070.56
388.73	1078.52
389.10	1082.50
389.46	1090.69
389.83	1090.46
390.20	1097.01
390.57	1098.18
390.94	1089.29
391.31	1080.86
391.68	1071.97
392.05	1066.35
392.42	1061.67
392.79	1067.28
393.16	1072.20
393.53	1065.65
393.89	1058.62
394.26	1056.99
394.63	1065.41
395.00	1061.43
395.37	1066.82
395.74	1070.56
396.11	1077.35
396.48	1076.18
396.84	1073.14
397.21	1075.94
397.58	1085.31
397.95	1083.20
398.32	1076.41
398.69	1072.20
399.06	1069.86
399.42	1066.58
399.79	1059.33
400.16	1062.37
400.53	1070.56
400.90	1075.48
401.27	1078.99
401.64	1081.80
402.00	1081.80
402.37	1079.92
402.74	1083.20
403.11	1075.01
403.48	1071.26
403.84	1070.33
404.21	1066.58
404.58	1060.73
404.95	1066.82
405.32	1072.43
405.68	1067.75
406.05	1068.45
406.42	1065.88
406.79	1062.14
407.16	1055.58
407.52	1057.45
407.89	1066.35
408.26	1072.20
408.63	1060.03
408.99	1060.73
409.36	1060.73
409.73	1053.71
410.10	1051.13
410.47	1071.03
410.83	1080.39
411.20	1081.33
411.57	1075.48
411.94	1073.60
412.30	1060.26
412.67	1062.37
413.04	1070.09
413.40	1067.52
413.77	1065.18
414.14	1070.33
414.51	1075.01
414.87	1066.11
415.24	1075.01
415.61	1079.92
415.97	1076.41
416.34	1060.50
416.71	1064.94
417.08	1062.60
417.44	1068.45
417.81	1071.73
418.18	1076.18
418.54	1069.62
418.91	1069.39
419.28	1061.90
419.64	1056.52
420.01	1060.50
420.38	1054.18
420.74	1059.09
421.11	1061.90
421.48	1064.01
421.84	1061.43
422.21	1069.16
422.58	1068.69
422.94	1073.84
423.31	1084.37
423.68	1084.60
424.04	1089.29
424.41	1085.31
424.77	1088.12
425.14	1093.50
425.51	1100.75
425.87	1098.18
426.24	1103.33
426.61	1091.86
426.97	1077.35
427.34	1071.73
427.70	1071.73
428.07	1070.56
428.44	1071.50
428.80	1080.86
429.17	1069.86
429.53	1074.07
429.90	1073.60
430.27	1074.54
430.63	1076.41
431.00	1086.48
431.36	1071.50
431.73	1073.84
432.09	1068.92
432.46	1064.01
432.83	1060.50
433.19	1066.82
433.56	1059.56
433.92	1069.16
434.29	1077.35
434.65	1087.65
435.02	1088.58
435.38	1089.05
435.75	1086.94
436.11	1077.82
436.48	1071.97
436.84	1072.90
437.21	1085.31
437.57	1087.41
437.94	1093.03
438.30	1089.05
438.67	1087.41
439.03	1071.73
439.40	1072.43
439.76	1066.11
440.13	1061.90
440.49	1065.41
440.86	1079.46
441.22	1075.24
441.59	1074.77
441.95	1083.67
442.32	1082.50
442.68	1081.33
443.05	1073.60
443.41	1077.58
443.78	1074.07
444.14	1081.09
444.51	1074.31
444.87	1082.73
445.24	1079.46
445.60	1079.22
445.96	1077.58
446.33	1079.92
446.69	1081.33
447.06	1078.05
447.42	1085.07
447.79	1081.33
448.15	1075.94
448.51	1078.28
448.88	1076.88
449.24	1069.62
449.61	1060.26
449.97	1064.94
450.33	1055.35
450.70	1061.90
451.06	1061.90
451.43	1071.73
451.79	1070.09
452.15	1071.73
452.52	1068.45
452.88	1071.50
453.24	1074.54
453.61	1070.80
453.97	1078.05
454.34	1082.50
454.70	1087.18
455.06	1087.65
455.43	1096.54
455.79	1085.77
456.15	1079.22
456.52	1087.65
456.88	1086.01
457.24	1067.28
457.61	1079.22
457.97	1078.28
458.33	1055.58
458.70	1059.33
459.06	1078.28
459.42	1073.14
459.79	1074.31
460.15	1075.94
460.51	1067.28
460.88	1064.48
461.24	1071.03
461.60	1071.26
461.96	1080.16
462.33	1093.50
462.69	1091.86
463.05	1088.82
463.42	1090.92
463.78	1088.35
464.14	1074.31
464.50	1077.35
464.87	1074.07
465.23	1069.16
465.59	1067.05
465.95	1066.58
466.32	1064.94
466.68	1067.28
467.04	1081.56
467.40	1082.97
467.77	1084.37
468.13	1075.94
468.49	1067.05
468.85	1065.65
469.22	1070.56
469.58	1074.31
469.94	1080.16
470.30	1089.99
470.66	1086.24
471.03	1079.22
471.39	1073.60
471.75	1070.56
472.11	1073.14
472.47	1071.97
472.84	1089.05
473.20	1099.82
473.56	1101.69
473.92	1099.12
474.28	1092.33
474.65	1077.35
475.01	1073.14
475.37	1073.60
475.73	1079.92
476.09	1087.65
476.45	1085.77
476.81	1078.05
477.18	1081.09
477.54	1068.22
477.90	1068.69
478.26	1075.01
478.62	1079.22
478.98	1083.67
479.34	1094.20
479.71	1098.88
480.07	1106.14
480.43	1112.92
480.79	1099.35
481.15	1093.73
481.51	1090.69
481.87	1071.50
482.23	1067.52
482.59	1066.82
482.96	1068.22
483.32	1075.94
483.68	1090.92
484.04	1095.84
484.40	1113.63
484.76	1108.95
485.12	1098.65
485.48	1093.26
485.84	1080.16
486.20	1064.94
486.56	1069.16
486.92	1055.82
487.28	1054.18
487.64	1062.37
488.00	1075.71
488.37	1077.11
488.73	1091.16
489.09	1103.09
489.45	1099.35
489.81	1092.56
490.17	1088.82
490.53	1078.99
490.89	1065.41
491.25	1071.26
491.61	1070.80
491.97	1079.46
492.33	1081.56
492.69	1085.07
493.05	1084.14
493.41	1080.16
493.77	1072.67
494.13	1075.24
494.49	1072.90
494.85	1070.56
495.21	1077.82
495.57	1083.20
495.93	1080.16
496.29	1081.80
496.64	1081.56
497.00	1077.35
497.36	1068.22
497.72	1078.28
498.08	1078.75
498.44	1077.11
498.80	1087.88
499.16	1088.12
499.52	1092.09
499.88	1089.99
500.24	1090.92
500.60	1087.18
500.96	1081.33
501.32	1067.75
501.68	1066.11
502.03	1071.97
502.39	1065.41
502.75	1071.03
503.11	1081.56
503.47	1089.05
503.83	1083.20
504.19	1083.43
504.55	1092.80
504.91	1088.12
505.26	1081.56
505.62	1089.29
505.98	1090.46
506.34	1084.84
506.70	1088.35
507.06	1094.20
507.42	1091.63
507.78	1090.69
508.13	1095.37
508.49	1089.99
508.85	1086.01
509.21	1072.43
509.57	1077.58
509.93	1082.03
510.28	1078.05
510.64	1083.20
511.00	1097.01
511.36	1093.50
511.72	1095.14
512.07	1097.01
512.43	1089.05
512.79	1083.67
513.15	1072.90
513.51	1055.58
513.86	1065.88
514.22	1076.41
514.58	1079.22
514.94	1089.99
515.30	1099.82
515.65	1091.63
516.01	1087.18
516.37	1086.24
516.73	1092.33
517.08	1086.71
517.44	1090.22
517.80	1085.77
518.16	1082.97
518.51	1081.80
518.87	1086.94
519.23	1080.86
519.59	1082.50
519.94	1081.80
520.30	1087.18
520.66	1078.05
521.01	1086.01
521.37	1082.97
521.73	1085.77
522.09	1074.54
522.44	1087.18
522.80	1090.92
523.16	1094.90
523.51	1093.97
523.87	1103.56
524.23	1099.58
524.58	1093.03
524.94	1087.41
525.30	1087.18
525.65	1073.14
526.01	1069.86
526.37	1074.54
526.72	1076.18
527.08	1079.92
527.44	1088.82
527.79	1090.46
528.15	1087.41
528.51	1095.60
528.86	1092.56
529.22	1085.54
529.58	1090.46
529.93	1100.52
530.29	1106.14
530.65	1105.44
531.00	1108.71
531.36	1107.78
531.71	1104.73
532.07	1104.73
532.43	1102.63
532.78	1097.48
533.14	1092.56
533.49	1081.80
533.85	1073.14
534.21	1079.22
534.56	1082.97
534.92	1092.09
535.27	1091.86
535.63	1087.88
535.98	1079.92
536.34	1077.82
536.69	1071.26
537.05	1078.05
537.41	1078.28
537.76	1086.71
538.12	1087.88
538.47	1091.63
538.83	1089.52
539.18	1078.99
539.54	1080.39
539.89	1092.56
540.25	1087.41
540.60	1095.84
540.96	1101.69
541.31	1091.63
541.67	1082.97
542.02	1079.22
542.38	1075.01
542.73	1082.26
543.09	1096.31
543.44	1100.05
543.80	1099.58
544.15	1095.60
544.51	1093.50
544.86	1085.31
545.22	1081.80
545.57	1088.12
545.93	1086.24
546.28	1088.58
546.64	1082.03
546.99	1076.18
547.35	1073.14
547.70	1067.52
548.05	1067.28
548.41	1075.94
548.76	1086.71
549.12	1085.77
549.47	1088.58
549.83	1086.94
550.18	1081.09
550.53	1077.35
550.89	1081.80
551.24	1089.29
551.60	1086.94
551.95	1084.84
552.30	1083.43
552.66	1072.20
553.01	1068.45
553.37	1069.16
553.72	1073.14
554.07	1064.24
554.43	1079.46
554.78	1083.67
555.13	1082.97
555.49	1084.84
555.84	1093.97
556.19	1098.18
556.55	1091.39
556.90	1093.03
557.26	1094.43
557.61	1091.63
557.96	1068.45
558.32	1069.86
558.67	1070.80
559.02	1076.65
559.37	1076.41
559.73	1090.22
560.08	1089.05
560.43	1088.35
560.79	1077.35
561.14	1072.20
561.49	1070.56
561.85	1071.97
562.20	1067.75
562.55	1067.52
562.90	1078.52
563.26	1078.52
563.61	1077.11
563.96	1084.60
564.32	1097.71
564.67	1099.12
565.02	1104.73
565.37	1107.78
565.73	1113.63
566.08	1101.69
566.43	1093.73
566.78	1087.88
567.14	1087.65
567.49	1079.92
567.84	1071.73
568.19	1068.45
568.54	1078.05
568.90	1078.99
569.25	1078.05
569.60	1088.58
569.95	1093.50
570.31	1082.50
570.66	1065.65
571.01	1072.67
571.36	1070.80
571.71	1065.88
572.06	1068.22
572.42	1078.75
572.77	1071.97
573.12	1078.99
573.47	1084.84
573.82	1089.05
574.18	1096.31
574.53	1099.82
574.88	1092.80
575.23	1093.97
575.58	1087.41
575.93	1086.94
576.28	1085.77
576.64	1086.94
576.99	1089.99
577.34	1093.26
577.69	1091.16
578.04	1084.14
578.39	1080.16
578.74	1072.20
579.09	1061.90
579.44	1064.24
579.80	1063.07
580.15	1068.22
580.50	1068.45
580.85	1074.54
581.20	1071.26
581.55	1080.63
581.90	1080.16
582.25	1080.16
582.60	1085.77
582.95	1080.86
583.30	1087.18
583.65	1091.63
584.00	1102.39
584.35	1094.43
584.71	1096.78
585.06	1094.20
585.41	1095.14
585.76	1085.54
586.11	1084.60
586.46	1082.97
586.81	1069.39
587.16	1058.86
587.51	1064.94
587.86	1058.39
588.21	1058.39
588.56	1066.58
588.91	1068.92
589.26	1058.62
589.61	1071.97
589.96	1076.88
590.31	1078.28
590.66	1078.28
591.01	1087.88
591.36	1085.07
591.71	1083.43
592.06	1092.56
592.41	1091.63
592.76	1084.84
593.10	1081.80
593.45	1081.80
593.80	1069.86
594.15	1070.33
594.50	1065.65
594.85	1075.24
595.20	1078.05
595.55	1074.07
595.90	1078.75
596.25	1081.56
596.60	1085.77
596.95	1093.73
597.30	1096.78
597.64	1152.25
597.99	1166.05
598.34	1151.31
598.69	1144.52
599.04	1141.48
599.39	1088.58
599.74	1079.92
600.09	1094.20
600.44	1090.69
600.78	1098.18
601.13	1092.09
601.48	1091.16
601.83	1086.71
602.18	1089.99
602.53	1094.43
602.88	1096.07
603.22	1094.67
603.57	1097.01
603.92	1094.67
604.27	1083.43
604.62	1082.50
604.97	1080.39
605.31	1080.16
605.66	1076.18
606.01	1071.26
606.36	1071.03
606.71	1075.24
607.05	1071.73
607.40	1073.84
607.75	1083.43
608.10	1083.43
608.44	1077.82
608.79	1073.60
609.14	1075.01
609.49	1066.82
609.84	1070.09
610.18	1078.05
610.53	1086.71
610.88	1098.18
611.23	1116.44
611.57	1123.69
611.92	1127.67
612.27	1120.41
612.62	1108.24
612.96	1100.29
613.31	1099.58
613.66	1095.37
614.00	1095.37
614.35	1099.12
614.70	1096.07
615.05	1082.73
615.39	1077.58
615.74	1080.86
616.09	1080.39
616.43	1077.82
616.78	1078.28
617.13	1072.43
617.47	1074.31
617.82	1072.90
618.17	1074.54
618.51	1084.37
618.86	1099.12
619.21	1094.67
619.55	1087.41
619.90	1081.80
620.25	1078.52
620.59	1065.41
620.94	1063.31
621.29	1072.43
621.63	1081.56
621.98	1080.63
622.32	1087.41
622.67	1091.16
623.02	1092.56
623.36	1083.90
623.71	1079.92
624.05	1082.73
624.40	1081.56
624.75	1079.46
625.09	1073.37
625.44	1074.77
625.78	1078.05
626.13	1080.86
626.48	1079.22
626.82	1091.39
627.17	1089.29
627.51	1084.37
627.86	1071.03
628.20	1071.50
628.55	1066.35
628.89	1070.56
629.24	1069.39
629.58	1075.24
629.93	1081.80
630.28	1088.12
630.62	1096.54
630.97	1096.31
631.31	1103.33
631.66	1088.12
632.00	1078.75
632.35	1068.22
632.69	1060.50
633.04	1060.03
633.38	1060.96
633.73	1067.75
634.07	1064.01
634.42	1071.73
634.76	1077.82
635.11	1080.16
635.45	1075.71
635.79	1093.73
636.14	1089.05
636.48	1077.35
636.83	1077.82
637.17	1083.20
637.52	1072.67
637.86	1075.71
638.21	1082.26
638.55	1094.67
638.89	1092.09
639.24	1093.50
639.58	1102.86
639.93	1104.97
640.27	1088.82
640.61	1098.41
640.96	1095.60
641.30	1084.37
641.65	1075.48
641.99	1089.75
642.33	1084.60
642.68	1085.54
643.02	1092.33
643.37	1093.97
643.71	1087.88
644.05	1082.73
644.40	1077.35
644.74	1075.24
645.08	1072.67
645.43	1073.37
645.77	1076.65
646.11	1081.80
646.46	1075.01
646.80	1084.60
647.14	1080.86
647.49	1080.39
647.83	1085.07
648.17	1095.60
648.52	1089.99
648.86	1096.78
649.20	1100.99
649.55	1094.90
649.89	1092.09
650.23	1095.60
650.57	1094.90
650.92	1090.46
651.26	1094.43
651.60	1087.41
651.95	1089.52
652.29	1083.67
652.63	1077.82
652.97	1074.54
653.32	1074.07
653.66	1076.41
654.00	1065.18
654.34	1067.99
654.69	1066.58
655.03	1068.69
655.37	1062.37
655.71	1061.20
656.05	1049.96
656.40	1055.11
656.74	1056.52
657.08	1051.37
657.42	1067.75
657.76	1086.71
658.11	1078.75
658.45	1087.88
658.79	1085.54
659.13	1079.46
659.47	1062.14
659.82	1068.45
660.16	1057.92
660.50	1059.79
660.84	1062.37
661.18	1071.73
661.52	1075.01
661.87	1078.28
662.21	1082.73
662.55	1084.60
662.89	1082.73
663.23	1073.14
663.57	1072.20
663.91	1066.11
664.25	1063.77
664.60	1069.39
664.94	1068.45
665.28	1071.50
665.62	1079.46
665.96	1081.56
666.30	1089.75
666.64	1091.86
666.98	1088.82
667.32	1086.94
667.66	1083.67
668.01	1075.48
668.35	1073.84
668.69	1070.56
669.03	1072.20
669.37	1080.63
669.71	1081.56
670.05	1097.01
670.39	1100.75
670.73	1102.16
671.07	1091.16
671.41	1081.09
671.75	1070.80
672.09	1072.90
672.43	1068.45
672.77	1082.26
673.11	1087.88
673.45	1092.09
673.79	1084.37
674.13	1083.67
674.47	1075.71
674.81	1074.77
675.15	1063.77
675.49	1064.01
675.83	1066.82
676.17	1063.77
676.51	1066.82
676.85	1064.24
677.19	1075.01
677.53	1081.33
677.87	1086.71
678.21	1086.01
678.55	1095.37
678.89	1087.41
679.23	1079.69
679.57	1081.09
679.90	1080.86
680.24	1075.24
680.58	1083.90
680.92	1086.71
681.26	1082.50
681.60	1087.41
681.94	1100.52
682.28	1098.41
682.62	1088.35
682.96	1087.18
683.29	1091.39
683.63	1086.48
683.97	1078.28
684.31	1094.43
684.65	1093.50
684.99	1075.48
685.33	1072.67
685.67	1086.24
686.00	1079.22
686.34	1069.62
686.68	1081.80
687.02	1078.99
687.36	1075.01
687.70	1080.16
688.03	1096.31
688.37	1101.69
688.71	1111.05
689.05	1103.09
689.39	1100.29
689.72	1086.71
690.06	1082.97
690.40	1074.31
690.74	1082.03
691.08	1077.11
691.41	1085.07
691.75	1075.94
692.09	1075.01
692.43	1068.22
692.76	1066.58
693.10	1067.52
693.44	1079.46
693.78	1090.69
694.11	1091.63
694.45	1089.99
694.79	1095.14
695.13	1087.18
695.46	1076.41
695.80	1079.69
696.14	1082.26
696.48	1069.39
696.81	1077.58
697.15	1085.31
697.49	1093.03
697.82	1095.60
698.16	1102.16
698.50	1099.12
698.83	1096.78
699.17	1089.29
699.51	1095.37
699.84	1104.26
700.18	1108.95
700.52	1101.92
700.85	1102.63
701.19	1096.78
701.53	1091.63
701.86	1077.11
702.20	1082.97
702.54	1081.33
702.87	1079.69
703.21	1072.43
703.55	1074.07
703.88	1078.28
704.22	1075.01
704.55	1061.90
704.89	1067.75
705.23	1077.82
705.56	1070.09
705.90	1076.18
706.23	1091.63
706.57	1090.92
706.91	1079.22
707.24	1073.14
707.58	1070.56
707.91	1073.37
708.25	1071.73
708.58	1072.67
708.92	1074.54
709.26	1070.33
709.59	1069.86
709.93	1070.56
710.26	1070.09
710.60	1075.48
710.93	1076.18
711.27	1080.39
711.60	1086.24
711.94	1088.82
712.27	1090.46
712.61	1099.12
712.94	1088.82
713.28	1082.50
713.61	1087.88
713.95	1087.88
714.28	1079.22
714.62	1082.73
714.95	1078.75
715.29	1081.09
715.62	1092.09
715.96	1095.60
716.29	1101.92
716.63	1111.05
716.96	1110.12
717.29	1099.58
717.63	1092.56
717.96	1074.31
718.30	1070.09
718.63	1070.33
718.97	1068.22
719.30	1068.69
719.63	1074.54
719.97	1072.67
720.30	1061.67
720.64	1054.41
720.97	1061.43
721.30	1069.86
721.64	1076.65
721.97	1094.67
722.31	1101.22
722.64	1092.09
722.97	1087.88
723.31	1085.07
723.64	1078.75
723.97	1076.88
724.31	1087.18
724.64	1087.88
724.98	1086.01
725.31	1083.43
725.64	1089.75
725.98	1093.03
726.31	1094.67
726.64	1090.92
726.97	1092.09
727.31	1083.20
727.64	1074.77
727.97	1066.82
728.31	1079.22
728.64	1086.24
728.97	1094.43
729.31	1097.71
729.64	1092.56
729.97	1082.97
730.30	1078.99
730.64	1072.20
730.97	1066.11
731.30	1074.31
731.63	1078.28
731.97	1063.31
732.30	1073.60
732.63	1076.18
732.96	1080.63
733.30	1069.16
733.63	1074.31
733.96	1066.58
734.29	1076.88
734.63	1071.50
734.96	1075.71
735.29	1078.28
735.62	1086.48
735.95	1084.84
736.29	1094.43
736.62	1104.26
736.95	1106.84
737.28	1094.20
737.61	1086.48
737.94	1079.69
738.28	1072.43
738.61	1073.37
738.94	1083.20
739.27	1086.94
739.60	1087.41
739.93	1082.50
740.27	1078.05
740.60	1073.60
740.93	1067.52
741.26	1071.26
741.59	1075.48
741.92	1077.82
742.25	1074.07
742.58	1081.09
742.91	1074.77
743.25	1071.03
743.58	1061.90
743.91	1064.71
744.24	1061.43
744.57	1068.22
744.90	1075.01
745.23	1087.65
745.56	1091.39
745.89	1092.33
746.22	1088.82
746.55	1089.99
746.88	1084.84
747.21	1087.88
747.54	1087.18
747.87	1084.84
748.20	1077.58
748.53	1076.41
748.87	1069.16
749.20	1069.16
749.53	1063.31
749.86	1068.69
750.19	1081.09
750.52	1082.50
750.85	1078.28
751.18	1073.37
751.51	1071.73
751.84	1066.58
752.16	1067.99
752.49	1067.75
752.82	1072.43
753.15	1076.18
753.48	1068.45
753.81	1062.60
754.14	1062.84
754.47	1069.86
754.80	1068.92
755.13	1078.28
755.46	1083.90
755.79	1088.12
756.12	1097.01
756.45	1089.29
756.78	1087.65
757.11	1087.41
757.43	1088.58
757.76	1078.52
758.09	1088.58
758.42	1085.07
758.75	1085.77
759.08	1081.33
759.41	1080.16
759.74	1073.37
760.07	1078.28
760.39	1076.18
760.72	1088.82
761.05	1094.67
761.38	1100.52
761.71	1097.95
762.04	1098.65
762.36	1090.22
762.69	1081.33
763.02	1086.48
763.35	1080.16
763.68	1071.97
764.01	1073.37
764.33	1077.11
764.66	1077.11
764.99	1082.50
765.32	1095.37
765.65	1089.05
765.97	1088.58
766.30	1082.50
766.63	1076.65
766.96	1068.69
767.28	1073.60
767.61	1080.16
767.94	1069.62
768.27	1065.18
768.59	1061.43
768.92	1067.99
769.25	1061.67
769.58	1065.18
769.90	1071.73
770.23	1068.92
770.56	1060.96
770.89	1059.79
771.21	1064.01
771.54	1063.54
771.87	1077.35
772.19	1076.88
772.52	1084.60
772.85	1082.73
773.17	1081.80
773.50	1079.22
773.83	1082.50
774.15	1074.77
774.48	1076.18
774.81	1074.31
775.13	1067.99
775.46	1064.24
775.79	1063.77
776.11	1070.33
776.44	1078.28
776.77	1082.97
777.09	1083.67
777.42	1080.39
777.74	1060.96
778.07	1059.56
778.40	1052.07
778.72	1054.18
779.05	1053.24
779.37	1060.73
779.70	1055.11
780.03	1064.48
780.35	1055.11
780.68	1068.22
781.00	1073.37
781.33	1083.67
781.65	1079.46
781.98	1088.35
782.31	1085.31
782.63	1090.22
782.96	1082.50
783.28	1089.05
783.61	1093.26
783.93	1085.07
784.26	1077.11
784.58	1081.09
784.91	1073.37
785.23	1065.18
785.56	1070.56
785.88	1065.88
786.21	1062.60
786.53	1060.26
786.86	1064.71
787.18	1067.52
787.51	1074.77
787.83	1065.65
788.16	1071.26
788.48	1067.28
788.81	1070.09
789.13	1064.48
789.46	1082.73
789.78	1080.39
790.10	1085.77
790.43	1083.20
790.75	1092.80
791.08	1080.39
791.40	1079.92
791.73	1076.88
792.05	1076.65
792.37	1061.90
792.70	1062.14
793.02	1066.82
793.35	1075.48
793.67	1076.41
793.99	1098.88
794.32	1098.88
794.64	1100.29
794.96	1092.80
795.29	1098.65
795.61	1090.46
795.93	1100.05
796.26	1095.84
796.58	1094.90
796.91	1076.18
797.23	1077.58
797.55	1057.92
797.87	1055.82
798.20	1046.92
798.52	1055.58
798.84	1041.77
799.17	1048.56
799.49	1052.54
799.81	1059.56
800.14	1062.37
800.46	1077.11
800.78	1089.05
801.10	1087.18
801.43	1083.90
801.75	1078.99
802.07	1075.71
802.40	1069.62
802.72	1074.07
803.04	1074.77
803.36	1082.26
803.69	1081.80
804.01	1077.11
804.33	1079.69
804.65	1083.67
804.97	1077.58
805.30	1081.80
805.62	1083.67
805.94	1079.69
806.26	1075.48
806.58	1083.90
806.91	1078.75
807.23	1081.80
807.55	1094.20
807.87	1100.29
808.19	1095.60
808.52	1099.35
808.84	1098.88
809.16	1086.94
809.48	1087.88
809.80	1091.39
810.12	1087.88
810.44	1090.92
810.77	1086.24
811.09	1087.88
811.41	1095.84
811.73	1101.69
812.05	1104.50
812.37	1102.16
812.69	1103.56
813.01	1084.60
813.33	1082.26
813.66	1073.37
813.98	1078.05
814.30	1078.05
814.62	1079.46
814.94	1081.56
815.26	1082.50
815.58	1082.26
815.90	1076.88
816.22	1083.90
816.54	1083.67
816.86	1091.39
817.18	1084.14
817.50	1079.46
817.82	1082.73
818.14	1077.82
818.46	1065.65
818.78	1070.56
819.10	1082.97
819.42	1075.71
819.74	1085.31
820.06	1094.67
820.38	1098.18
820.70	1095.60
821.02	1092.33
821.34	1073.60
821.66	1073.84
821.98	1068.69
822.30	1062.14
822.62	1071.50
822.94	1078.99
823.26	1079.46
823.58	1083.90
823.90	1081.33
824.22	1075.71
824.54	1076.65
824.86	1075.24
825.18	1064.94
825.50	1063.54
825.81	1054.88
826.13	1062.37
826.45	1057.92
826.77	1065.41
827.09	1068.92
827.41	1075.71
827.73	1066.82
828.05	1070.56
828.36	1074.07
828.68	1072.43
829.00	1069.16
829.32	1075.24
829.64	1079.22
829.96	1081.80
830.28	1090.46
830.59	1093.97
830.91	1099.58
831.23	1093.50
831.55	1089.52
831.87	1083.67
832.19	1086.94
832.50	1081.56
832.82	1076.18
833.14	1072.90
833.46	1065.88
833.78	1062.14
834.09	1057.22
834.41	1055.35
834.73	1050.20
835.05	1060.50
835.36	1073.84
835.68	1072.43
836.00	1078.52
836.32	1089.99
836.63	1093.73
836.95	1090.92
837.27	1088.12
837.59	1097.48
837.90	1083.20
838.22	1076.41
838.54	1066.58
838.85	1066.11
839.17	1053.01
839.49	1064.01
839.80	1061.43
840.12	1068.69
840.44	1078.05
840.76	1087.88
841.07	1093.03
841.39	1099.82
841.71	1090.46
842.02	1097.01
842.34	1086.71
842.65	1091.16
842.97	1085.54
843.29	1081.09
843.60	1063.07
843.92	1069.62
844.24	1058.39
844.55	1054.88
844.87	1051.37
845.18	1049.26
845.50	1044.58
845.82	1042.01
846.13	1055.82
846.45	1071.26
846.76	1079.69
847.08	1080.39
847.40	1073.84
847.71	1067.28
848.03	1071.26
848.34	1071.03
848.66	1083.67
848.97	1096.07
849.29	1093.03
849.60	1078.99
849.92	1081.33
850.24	1077.58
850.55	1072.67
850.87	1069.16
851.18	1082.73
851.50	1080.86
851.81	1085.31
852.13	1089.29
852.44	1095.60
852.76	1085.54
853.07	1088.12
853.39	1075.48
853.70	1078.75
854.01	1072.90
854.33	1073.37
854.64	1071.73
854.96	1076.88
855.27	1077.58
855.59	1087.88
855.90	1094.67
856.22	1090.46
856.53	1094.43
856.84	1087.65
857.16	1080.63
857.47	1081.09
857.79	1086.48
858.10	1078.52
858.41	1085.07
858.73	1082.50
859.04	1072.43
859.36	1070.56
859.67	1071.73
859.98	1067.52
860.30	1070.56
860.61	1083.67
860.92	1081.09
861.24	1081.33
861.55	1080.86
861.87	1086.48
862.18	1080.16
862.49	1079.92
862.81	1078.75
863.12	1084.14
863.43	1084.14
863.74	1088.12
864.06	1090.46
864.37	1103.56
864.68	1093.26
865.00	1088.82
865.31	1082.03
865.62	1078.05
865.94	1070.09
866.25	1075.48
866.56	1076.65
866.87	1076.65
867.19	1085.07
867.50	1086.01
867.81	1082.50
868.12	1076.65
868.44	1078.05
868.75	1076.41
869.06	1074.31
869.37	1077.35
869.68	1086.48
870.00	1086.24
870.31	1084.14
870.62	1079.22
870.93	1077.11
871.24	1076.41
871.56	1082.26
871.87	1075.94
872.18	1076.41
872.49	1078.75
872.80	1072.43
873.12	1068.45
873.43	1075.24
873.74	1074.31
874.05	1072.90
874.36	1081.33
874.67	1068.45
874.98	1066.58
875.29	1070.33
875.61	1072.43
875.92	1072.43
876.23	1090.92
876.54	1081.80
876.85	1075.71
877.16	1070.56
877.47	1064.24
877.78	1047.86
878.09	1062.14
878.40	1062.14
878.72	1075.01
879.03	1078.75
879.34	1088.12
879.65	1085.07
879.96	1092.56
880.27	1082.73
880.58	1090.92
880.89	1092.56
881.20	1092.33
881.51	1093.26
881.82	1096.07
882.13	1088.58
882.44	1082.97
882.75	1079.92
883.06	1090.92
883.37	1089.29
883.68	1075.01
883.99	1078.05
884.30	1081.56
884.61	1066.11
884.92	1060.96
885.23	1073.60
885.54	1081.09
885.85	1084.14
886.16	1086.01
886.47	1090.22
886.78	1083.67
887.08	1077.11
887.39	1078.05
887.70	1077.82
888.01	1083.90
888.32	1084.37
888.63	1079.92
888.94	1068.45
889.25	1077.35
889.56	1065.41
889.87	1069.86
890.17	1070.80
890.48	1073.14
890.79	1066.35
891.10	1069.16
891.41	1063.77
891.72	1065.88
892.03	1075.94
892.34	1070.33
892.64	1072.20
892.95	1081.80
893.26	1086.71
893.57	1087.88
893.88	1094.20
894.18	1093.50
894.49	1085.54
894.80	1085.77
895.11	1071.97
895.42	1074.31
895.72	1078.52
896.03	1085.07
896.34	1080.86
896.65	1099.58
896.96	1093.73
897.26	1098.65
897.57	1095.84
897.88	1093.03
898.19	1075.71
898.49	1067.75
898.80	1069.39
899.11	1074.07
899.41	1067.75
899.72	1069.86
900.03	1075.48
900.34	1065.41
900.64	1063.31
900.95	1078.52
901.26	1084.60
901.56	1091.63
901.87	1095.37
902.18	1093.97
902.48	1085.07
902.79	1075.94
903.10	1061.43
903.40	1061.90
903.71	1060.73
904.02	1057.45
904.32	1067.05
904.63	1075.01
904.94	1075.48
905.24	1066.82
905.55	1079.46
905.85	1078.52
906.16	1080.63
906.47	1080.39
906.77	1087.41
907.08	1086.01
907.38	1082.73
907.69	1082.03
908.00	1086.94
908.30	1092.09
908.61	1079.69
908.91	1082.03
909.22	1089.29
909.52	1086.71
909.83	1080.63
910.14	1092.80
910.44	1093.50
910.75	1078.75
911.05	1078.52
911.36	1075.94
911.66	1066.35
911.97	1062.14
912.27	1076.65
912.58	1071.73
912.88	1070.09
913.19	1078.99
913.49	1073.84
913.80	1077.35
914.10	1079.92
914.41	1079.46
914.71	1079.92
915.01	1082.03
915.32	1083.43
915.62	1078.99
915.93	1081.56
916.23	1071.03
916.54	1082.26
916.84	1067.05
917.15	1084.60
917.45	1084.14
917.75	1092.80
918.06	1092.33
918.36	1094.67
918.67	1073.14
918.97	1068.45
919.27	1064.71
919.58	1057.92
919.88	1058.86
920.18	1060.96
920.49	1073.37
920.79	1085.54
921.10	1084.84
921.40	1086.01
921.70	1096.07
922.01	1085.07
922.31	1077.11
922.61	1076.88
922.92	1081.56
923.22	1068.92
923.52	1071.50
923.82	1064.71
924.13	1073.14
924.43	1070.56
924.73	1067.75
925.04	1070.80
925.34	1067.75
925.64	1058.39
925.94	1060.03
926.25	1086.01
926.55	1088.82
926.85	1091.63
927.15	1090.69
927.46	1087.65
927.76	1067.99
928.06	1066.58
928.36	1081.80
928.67	1088.35
928.97	1089.75
929.27	1095.37
929.57	1099.35
929.87	1085.31
930.18	1079.92
930.48	1079.92
930.78	1078.52
931.08	1069.62
931.38	1073.37
931.69	1078.75
931.99	1076.41
932.29	1072.90
932.59	1077.11
932.89	1065.18
933.19	1065.18
933.49	1072.20
933.80	1073.37
934.10	1070.56
934.40	1085.77
934.70	1084.14
935.00	1079.92
935.30	1088.12
935.60	1096.78
935.90	1093.03
936.20	1088.35
936.50	1089.75
936.81	1080.86
937.11	1076.41
937.41	1072.20
937.71	1070.33
938.01	1069.16
938.31	1070.56
938.61	1071.03
938.91	1070.33
939.21	1072.20
939.51	1074.54
939.81	1069.16
940.11	1070.56
940.41	1081.80
940.71	1084.37
941.01	1074.77
941.31	1076.18
941.61	1060.03
941.91	1050.67
942.21	1056.28
942.51	1051.60
942.81	1062.37
943.11	1081.09
943.41	1090.22
943.71	1086.01
944.01	1098.88
944.31	1080.63
944.61	1068.45
944.90	1063.54
945.20	1059.79
945.50	1054.65
945.80	1063.54
946.10	1066.58
946.40	1071.97
946.70	1077.82
947.00	1078.75
947.30	1084.84
947.60	1089.99
947.89	1082.26
948.19	1070.09
948.49	1062.84
948.79	1059.56
949.09	1054.18
949.39	1060.73
949.69	1066.35
949.98	1076.18
950.28	1078.75
950.58	1079.22
950.88	1073.60
951.18	1084.14
951.48	1089.75
951.77	1089.29
952.07	1083.90
952.37	1080.16
952.67	1082.26
952.97	1079.92
953.26	1075.71
953.56	1086.94
953.86	1089.52
954.16	1074.77
954.45	1069.39
954.75	1068.69
955.05	1063.31
955.35	1059.09
955.64	1062.37
955.94	1053.48
956.24	1051.13
956.54	1053.94
956.83	1055.11
957.13	1055.11
957.43	1076.88
957.72	1079.22
958.02	1082.26
958.32	1087.18
958.61	1088.12
958.91	1076.88
959.21	1085.54
959.50	1086.94
959.80	1083.90
960.10	1078.05
960.39	1082.97
960.69	1079.22
960.99	1077.11
961.28	1080.39
961.58	1086.94
961.87	1075.48
962.17	1084.84
962.47	1090.69
962.76	1085.07
963.06	1085.77
963.36	1095.60
963.65	1086.01
963.95	1072.67
964.24	1077.35
964.54	1083.43
964.83	1083.20
965.13	1086.01
965.42	1094.67
965.72	1097.24
966.02	1090.46
966.31	1078.99
966.61	1074.07
966.90	1071.50
967.20	1075.01
967.49	1077.58
967.79	1084.14
968.08	1088.58
968.38	1097.95
968.67	1099.12
968.97	1095.14
969.26	1091.63
969.56	1089.29
969.85	1083.43
970.15	1079.22
970.44	1075.94
970.74	1082.50
971.03	1075.94
971.32	1074.07
971.62	1069.62
971.91	1068.92
972.21	1075.71
972.50	1077.35
972.80	1081.09
973.09	1084.37
973.38	1089.29
973.68	1080.86
973.97	1082.03
974.27	1073.14
974.56	1075.24
974.85	1079.46
975.15	1071.97
975.44	1069.86
975.73	1072.43
976.03	1076.88
976.32	1066.58
976.61	1074.54
976.91	1084.84
977.20	1087.41
977.49	1084.84
977.79	1091.86
978.08	1085.31
978.37	1069.86
978.67	1063.54
978.96	1056.28
979.25	1054.65
979.55	1060.73
979.84	1064.71
980.13	1080.39
980.42	1078.52
980.72	1084.60
981.01	1089.75
981.30	1094.67
981.59	1086.01
981.89	1084.14
982.18	1080.39
982.47	1075.71
982.76	1078.99
983.06	1082.97
983.35	1084.14
983.64	1079.69
983.93	1088.12
984.22	1084.37
984.52	1080.39
984.81	1089.05
985.10	1101.69
985.39	1101.92
985.68	1095.14
985.97	1088.12
986.27	1090.69
986.56	1080.63
986.85	1067.75
987.14	1080.63
987.43	1092.80
987.72	1092.33
988.01	1087.65
988.31	1092.56
988.60	1093.50
988.89	1094.43
989.18	1091.86
989.47	1098.41
989.76	1097.24
990.05	1094.20
990.34	1088.12
990.63	1090.22
990.92	1087.88
991.21	1086.48
991.51	1087.88
991.80	1079.22
992.09	1079.22
992.38	1078.52
992.67	1082.26
992.96	1072.67
993.25	1076.65
993.54	1074.31
993.83	1085.77
994.12	1082.97
994.41	1085.54
994.70	1084.60
994.99	1074.31
995.28	1069.16
995.57	1067.28
995.86	1064.71
996.15	1062.37
996.44	1065.41
996.73	1061.20
997.02	1059.33
997.31	1064.71
997.59	1063.77
997.88	1058.16
998.17	1064.24
998.46	1059.33
998.75	1058.39
999.04	1060.96
999.33	1080.63
999.62	1075.71
999.91	1084.37
1000.20	1088.12
1000.49	1095.60
1000.77	1079.69
1001.06	1080.86
1001.35	1078.28
1001.64	1071.50
1001.93	1072.90
1002.22	1082.03
1002.51	1074.31
1002.79	1075.24
1003.08	1072.90
1003.37	1078.05
1003.66	1076.41
1003.95	1089.05
1004.23	1099.82
1004.52	1107.54
1004.81	1092.09
1005.10	1095.14
1005.39	1089.75
1005.67	1076.65
1005.96	1072.43
1006.25	1081.80
1006.54	1081.56
1006.83	1078.28
1007.11	1077.82
1007.40	1077.58
1007.69	1074.07
1007.97	1063.54
1008.26	1067.52
1008.55	1073.14
1008.84	1065.65
1009.12	1058.62
1009.41	1060.26
1009.70	1051.84
1009.98	1061.43
1010.27	1064.71
1010.56	1066.82
1010.85	1066.35
1011.13	1073.60
1011.42	1066.82
1011.71	1082.03
1011.99	1087.41
1012.28	1086.71
1012.56	1076.18
1012.85	1070.33
1013.14	1061.43
1013.42	1058.39
1013.71	1073.84
1014.00	1081.09
1014.28	1081.80
1014.57	1083.43
1014.85	1084.14
1015.14	1077.11
1015.43	1078.99
1015.71	1079.92
1016.00	1081.56
1016.28	1083.43
1016.57	1070.80
1016.85	1074.31
1017.14	1075.24
1017.43	1070.33
1017.71	1064.71
1018.00	1071.03
1018.28	1072.90
1018.57	1063.54
1018.85	1061.90
1019.14	1062.60
1019.42	1064.48
1019.71	1059.09
1019.99	1067.75
1020.28	1069.16
1020.56	1070.09
1020.85	1067.28
1021.13	1069.86
1021.42	1070.33
1021.70	1069.62
1021.99	1077.11
1022.27	1076.65
1022.55	1102.39
1022.84	1055.58
>>>>>End Processed Spectral Data<<<<<
