SpectraSuite Data File
++++++++++++++++++++++++++++++++++++
Date: Mon Aug 26 10:25:47 PDT 2019
User: corrico
Dark Spectrum Present: No
Reference Spectrum Present: No
Number of Sampled Component Spectra: 1
Spectrometers: USB2+H06089
Integration Time (usec): 10000 (USB2+H06089)
Spectra Averaged: 2 (USB2+H06089)
Boxcar Smoothing: 2 (USB2+H06089)
Correct for Electrical Dark: No (USB2+H06089)
Strobe/Lamp Enabled: No (USB2+H06089)
Correct for Detector Non-linearity: No (USB2+H06089)
Correct for Stray Light: No (USB2+H06089)
Number of Pixels in Processed Spectrum: 2048
>>>>>Begin Processed Spectral Data<<<<<
339.70	987.71
340.07	987.71
340.45	977.64
340.82	971.56
341.19	952.36
341.57	926.62
341.94	915.38
342.31	900.17
342.69	893.15
343.06	887.53
343.43	890.11
343.81	894.08
344.18	901.81
344.55	899.00
344.93	908.83
345.30	911.87
345.67	922.41
346.04	934.34
346.42	952.36
346.79	966.17
347.16	987.24
347.54	1005.73
347.91	1017.90
348.28	1011.35
348.65	1011.11
349.03	1024.69
349.40	1016.03
349.77	1003.86
350.14	1020.01
350.52	1029.84
350.89	1022.35
351.26	1027.96
351.63	1039.43
352.01	1041.54
352.38	1039.90
352.75	1047.62
353.12	1046.22
353.50	1055.58
353.87	1059.09
354.24	1067.28
354.61	1066.11
354.98	1077.35
355.36	1075.24
355.73	1087.18
356.10	1097.48
356.47	1099.82
356.84	1092.09
357.22	1095.14
357.59	1084.84
357.96	1075.94
358.33	1086.71
358.70	1093.26
359.08	1086.24
359.45	1084.37
359.82	1088.12
360.19	1083.20
360.56	1084.14
360.94	1086.24
361.31	1080.16
361.68	1074.31
362.05	1069.39
362.42	1064.94
362.79	1058.86
363.16	1062.37
363.54	1059.79
363.91	1059.79
364.28	1068.69
364.65	1069.39
365.02	1070.80
365.39	1080.63
365.76	1073.84
366.14	1071.26
366.51	1077.11
366.88	1078.52
367.25	1071.73
367.62	1073.14
367.99	1061.67
368.36	1070.56
368.73	1062.14
369.10	1067.99
369.48	1070.09
369.85	1067.75
370.22	1051.84
370.59	1062.60
370.96	1067.75
371.33	1070.80
371.70	1095.84
372.07	1105.44
372.44	1103.09
372.81	1088.58
373.18	1087.18
373.55	1067.52
373.93	1079.46
374.30	1083.90
374.67	1100.99
375.04	1104.73
375.41	1108.95
375.78	1089.99
376.15	1086.01
376.52	1069.39
376.89	1068.92
377.26	1069.39
377.63	1075.48
378.00	1074.07
378.37	1079.22
378.74	1079.46
379.11	1084.37
379.48	1085.54
379.85	1082.97
380.22	1073.14
380.59	1068.69
380.96	1060.50
381.33	1054.18
381.70	1052.77
382.07	1067.75
382.44	1068.92
382.81	1081.80
383.18	1078.52
383.55	1071.03
383.92	1065.88
384.29	1063.31
384.66	1048.79
385.03	1051.60
385.40	1072.67
385.77	1068.69
386.14	1078.28
386.51	1076.88
386.88	1075.24
387.25	1063.54
387.62	1061.43
387.99	1065.88
388.36	1075.01
388.73	1065.88
389.10	1070.80
389.46	1078.05
389.83	1072.67
390.20	1075.01
390.57	1082.50
390.94	1083.67
391.31	1081.33
391.68	1078.05
392.05	1076.65
392.42	1077.35
392.79	1068.22
393.16	1072.43
393.53	1077.58
393.89	1069.39
394.26	1077.82
394.63	1084.84
395.00	1082.26
395.37	1079.46
395.74	1078.99
396.11	1073.84
396.48	1076.18
396.84	1079.46
397.21	1075.71
397.58	1069.39
397.95	1075.01
398.32	1070.09
398.69	1069.16
399.06	1067.99
399.42	1074.77
399.79	1071.03
400.16	1062.14
400.53	1060.73
400.90	1057.45
401.27	1055.11
401.64	1053.94
402.00	1072.67
402.37	1063.31
402.74	1080.86
403.11	1091.39
403.48	1087.65
403.84	1069.86
404.21	1077.11
404.58	1066.82
404.95	1062.37
405.32	1058.39
405.68	1069.86
406.05	1065.88
406.42	1066.35
406.79	1066.82
407.16	1085.07
407.52	1078.75
407.89	1086.24
408.26	1083.90
408.63	1088.12
408.99	1077.82
409.36	1083.20
409.73	1083.43
410.10	1086.01
410.47	1083.20
410.83	1088.58
411.20	1086.94
411.57	1085.54
411.94	1079.22
412.30	1070.09
412.67	1058.86
413.04	1065.41
413.40	1062.37
413.77	1069.62
414.14	1077.35
414.51	1086.71
414.87	1089.99
415.24	1090.22
415.61	1090.92
415.97	1085.07
416.34	1084.60
416.71	1069.62
417.08	1079.69
417.44	1071.97
417.81	1081.09
418.18	1082.97
418.54	1093.73
418.91	1088.82
419.28	1098.88
419.64	1093.73
420.01	1093.26
420.38	1089.29
420.74	1082.26
421.11	1081.09
421.48	1083.67
421.84	1077.82
422.21	1073.14
422.58	1069.39
422.94	1062.14
423.31	1062.37
423.68	1053.48
424.04	1050.20
424.41	1056.28
424.77	1056.75
425.14	1047.62
425.51	1059.79
425.87	1067.75
426.24	1064.24
426.61	1066.58
426.97	1075.24
427.34	1064.48
427.70	1067.28
428.07	1078.52
428.44	1074.07
428.80	1073.60
429.17	1080.16
429.53	1071.50
429.90	1066.82
430.27	1063.77
430.63	1060.26
431.00	1070.09
431.36	1073.60
431.73	1071.73
432.09	1074.54
432.46	1078.99
432.83	1077.35
433.19	1077.35
433.56	1075.48
433.92	1079.22
434.29	1075.71
434.65	1064.48
435.02	1071.26
435.38	1072.20
435.75	1070.56
436.11	1069.16
436.48	1086.24
436.84	1083.90
437.21	1090.69
437.57	1092.33
437.94	1100.75
438.30	1087.41
438.67	1089.75
439.03	1087.88
439.40	1085.31
439.76	1081.09
440.13	1083.20
440.49	1072.90
440.86	1064.71
441.22	1066.35
441.59	1072.43
441.95	1078.05
442.32	1093.73
442.68	1097.95
443.05	1087.18
443.41	1089.75
443.78	1083.43
444.14	1067.75
444.51	1065.18
444.87	1080.86
445.24	1067.99
445.60	1062.37
445.96	1064.01
446.33	1071.73
446.69	1068.22
447.06	1075.24
447.42	1079.92
447.79	1087.65
448.15	1079.92
448.51	1080.16
448.88	1072.90
449.24	1082.50
449.61	1081.33
449.97	1086.01
450.33	1086.24
450.70	1088.58
451.06	1080.16
451.43	1077.58
451.79	1085.07
452.15	1080.86
452.52	1078.28
452.88	1080.39
453.24	1080.39
453.61	1069.62
453.97	1074.54
454.34	1077.58
454.70	1076.41
455.06	1077.58
455.43	1085.54
455.79	1085.07
456.15	1086.48
456.52	1086.24
456.88	1082.26
457.24	1080.63
457.61	1089.75
457.97	1084.14
458.33	1082.97
458.70	1079.92
459.06	1076.41
459.42	1071.50
459.79	1076.41
460.15	1076.18
460.51	1081.09
460.88	1086.94
461.24	1075.71
461.60	1080.16
461.96	1078.05
462.33	1083.67
462.69	1077.82
463.05	1089.52
463.42	1077.82
463.78	1088.58
464.14	1086.24
464.50	1089.29
464.87	1090.69
465.23	1102.16
465.59	1085.31
465.95	1089.99
466.32	1078.05
466.68	1071.97
467.04	1075.48
467.40	1080.86
467.77	1080.16
468.13	1088.58
468.49	1082.03
468.85	1072.43
469.22	1071.50
469.58	1063.31
469.94	1072.90
470.30	1076.88
470.66	1095.37
471.03	1110.35
471.39	1119.95
471.75	1108.01
472.11	1105.90
472.47	1081.56
472.84	1072.90
473.20	1067.75
473.56	1075.94
473.92	1086.01
474.28	1083.67
474.65	1080.86
475.01	1078.75
475.37	1078.28
475.73	1080.63
476.09	1094.43
476.45	1095.37
476.81	1102.39
477.18	1090.92
477.54	1084.60
477.90	1086.01
478.26	1091.63
478.62	1075.48
478.98	1073.60
479.34	1066.35
479.71	1069.62
480.07	1057.22
480.43	1069.86
480.79	1068.22
481.15	1065.18
481.51	1060.73
481.87	1075.71
482.23	1074.54
482.59	1086.24
482.96	1092.33
483.32	1087.18
483.68	1087.65
484.04	1096.07
484.40	1093.73
484.76	1097.48
485.12	1104.03
485.48	1090.92
485.84	1077.11
486.20	1074.54
486.56	1072.43
486.92	1070.09
487.28	1080.16
487.64	1082.03
488.00	1093.03
488.37	1086.94
488.73	1083.20
489.09	1087.88
489.45	1098.18
489.81	1093.50
490.17	1108.95
490.53	1111.05
490.89	1101.46
491.25	1093.50
491.61	1087.65
491.97	1080.63
492.33	1076.41
492.69	1075.24
493.05	1079.46
493.41	1076.88
493.77	1075.94
494.13	1080.16
494.49	1071.26
494.85	1064.24
495.21	1069.39
495.57	1067.52
495.93	1075.24
496.29	1082.03
496.64	1081.56
497.00	1082.73
497.36	1078.28
497.72	1074.07
498.08	1072.43
498.44	1077.82
498.80	1078.28
499.16	1092.33
499.52	1086.48
499.88	1091.16
500.24	1095.37
500.60	1095.60
500.96	1081.09
501.32	1086.01
501.68	1082.50
502.03	1072.67
502.39	1066.58
502.75	1067.99
503.11	1058.86
503.47	1064.01
503.83	1058.39
504.19	1059.33
504.55	1071.26
504.91	1077.35
505.26	1075.24
505.62	1085.77
505.98	1092.56
506.34	1092.56
506.70	1095.14
507.06	1095.84
507.42	1096.78
507.78	1101.22
508.13	1099.82
508.49	1104.03
508.85	1107.54
509.21	1100.29
509.57	1089.05
509.93	1081.56
510.28	1078.75
510.64	1076.41
511.00	1089.29
511.36	1089.29
511.72	1091.39
512.07	1082.03
512.43	1076.18
512.79	1069.16
513.15	1075.48
513.51	1087.65
513.86	1093.73
514.22	1106.84
514.58	1106.14
514.94	1103.56
515.30	1097.48
515.65	1103.33
516.01	1101.22
516.37	1099.58
516.73	1100.75
517.08	1083.67
517.44	1075.01
517.80	1069.39
518.16	1067.75
518.51	1072.20
518.87	1082.97
519.23	1093.03
519.59	1094.67
519.94	1099.82
520.30	1099.82
520.66	1105.20
521.01	1094.67
521.37	1096.31
521.73	1100.52
522.09	1093.97
522.44	1093.26
522.80	1095.14
523.16	1092.80
523.51	1084.37
523.87	1079.92
524.23	1078.05
524.58	1083.90
524.94	1081.33
525.30	1070.09
525.65	1068.22
526.01	1065.65
526.37	1067.99
526.72	1071.03
527.08	1086.01
527.44	1100.75
527.79	1104.03
528.15	1101.22
528.51	1094.67
528.86	1097.71
529.22	1097.01
529.58	1095.37
529.93	1084.37
530.29	1086.48
530.65	1073.60
531.00	1070.56
531.36	1070.80
531.71	1077.58
532.07	1089.52
532.43	1095.84
532.78	1081.80
533.14	1084.84
533.49	1084.84
533.85	1086.94
534.21	1081.80
534.56	1094.43
534.92	1099.82
535.27	1100.99
535.63	1091.39
535.98	1099.35
536.34	1096.07
536.69	1088.82
537.05	1087.18
537.41	1087.88
537.76	1092.56
538.12	1099.12
538.47	1090.92
538.83	1091.86
539.18	1089.29
539.54	1088.58
539.89	1090.46
540.25	1089.29
540.60	1091.39
540.96	1088.58
541.31	1083.90
541.67	1083.67
542.02	1090.92
542.38	1081.33
542.73	1082.97
543.09	1082.97
543.44	1073.14
543.80	1076.18
544.15	1088.82
544.51	1089.99
544.86	1088.35
545.22	1097.48
545.57	1092.33
545.93	1087.88
546.28	1087.18
546.64	1092.80
546.99	1082.73
547.35	1085.31
547.70	1093.50
548.05	1098.41
548.41	1093.03
548.76	1110.35
549.12	1116.20
549.47	1106.84
549.83	1110.12
550.18	1116.20
550.53	1089.75
550.89	1078.52
551.24	1082.97
551.60	1072.67
551.95	1066.35
552.30	1070.80
552.66	1078.28
553.01	1073.14
553.37	1080.86
553.72	1078.75
554.07	1079.92
554.43	1071.50
554.78	1075.01
555.13	1081.33
555.49	1082.03
555.84	1090.46
556.19	1095.37
556.55	1089.05
556.90	1071.97
557.26	1081.09
557.61	1082.73
557.96	1082.97
558.32	1086.48
558.67	1096.31
559.02	1093.97
559.37	1091.16
559.73	1094.67
560.08	1083.67
560.43	1067.75
560.79	1056.28
561.14	1046.69
561.49	1044.35
561.85	1059.09
562.20	1073.60
562.55	1083.90
562.90	1094.43
563.26	1092.09
563.61	1086.48
563.96	1086.01
564.32	1084.84
564.67	1078.99
565.02	1080.63
565.37	1085.54
565.73	1080.86
566.08	1081.56
566.43	1082.97
566.78	1086.71
567.14	1091.63
567.49	1096.07
567.84	1098.88
568.19	1100.99
568.54	1092.56
568.90	1078.99
569.25	1084.37
569.60	1072.90
569.95	1071.26
570.31	1076.65
570.66	1087.88
571.01	1079.92
571.36	1084.84
571.71	1081.80
572.06	1077.58
572.42	1069.86
572.77	1073.37
573.12	1071.97
573.47	1080.39
573.82	1088.35
574.18	1093.03
574.53	1092.33
574.88	1104.97
575.23	1100.05
575.58	1099.12
575.93	1098.18
576.28	1094.67
576.64	1081.56
576.99	1086.48
577.34	1087.65
577.69	1094.67
578.04	1097.71
578.39	1097.95
578.74	1094.90
579.09	1085.54
579.44	1066.58
579.80	1068.69
580.15	1068.92
580.50	1069.86
580.85	1080.63
581.20	1096.07
581.55	1095.14
581.90	1098.18
582.25	1099.58
582.60	1102.86
582.95	1100.05
583.30	1098.88
583.65	1096.78
584.00	1093.97
584.35	1075.71
584.71	1081.80
585.06	1079.22
585.41	1083.67
585.76	1080.39
586.11	1096.78
586.46	1093.03
586.81	1097.24
587.16	1101.69
587.51	1110.82
587.86	1096.31
588.21	1092.80
588.56	1093.50
588.91	1087.18
589.26	1081.33
589.61	1094.90
589.96	1098.41
590.31	1090.46
590.66	1086.94
591.01	1085.54
591.36	1079.46
591.71	1075.01
592.06	1080.16
592.41	1084.84
592.76	1094.43
593.10	1089.75
593.45	1093.03
593.80	1094.20
594.15	1092.33
594.50	1086.71
594.85	1087.65
595.20	1081.09
595.55	1082.26
595.90	1088.12
596.25	1093.03
596.60	1093.97
596.95	1105.44
597.30	1097.48
597.64	1144.99
597.99	1145.22
598.34	1141.95
598.69	1138.20
599.04	1137.03
599.39	1090.69
599.74	1081.09
600.09	1077.11
600.44	1071.97
600.78	1072.20
601.13	1060.96
601.48	1072.43
601.83	1075.94
602.18	1076.18
602.53	1078.99
602.88	1077.11
603.22	1072.67
603.57	1068.92
603.92	1074.77
604.27	1075.48
604.62	1086.71
604.97	1087.18
605.31	1101.46
605.66	1101.69
606.01	1093.03
606.36	1088.35
606.71	1081.56
607.05	1081.09
607.40	1076.41
607.75	1091.39
608.10	1095.14
608.44	1099.35
608.79	1089.29
609.14	1086.94
609.49	1082.03
609.84	1075.71
610.18	1077.35
610.53	1085.54
610.88	1088.35
611.23	1097.48
611.57	1105.20
611.92	1100.99
612.27	1101.69
612.62	1101.92
612.96	1100.52
613.31	1099.82
613.66	1101.92
614.00	1099.82
614.35	1090.92
614.70	1093.26
615.05	1096.54
615.39	1097.48
615.74	1101.46
616.09	1108.48
616.43	1099.35
616.78	1097.95
617.13	1095.60
617.47	1089.99
617.82	1088.35
618.17	1093.03
618.51	1084.84
618.86	1089.05
619.21	1095.37
619.55	1100.99
619.90	1097.71
620.25	1099.82
620.59	1097.24
620.94	1084.84
621.29	1082.50
621.63	1073.14
621.98	1076.65
622.32	1074.77
622.67	1086.01
623.02	1081.80
623.36	1100.99
623.71	1090.69
624.05	1093.50
624.40	1089.05
624.75	1097.24
625.09	1095.84
625.44	1095.14
625.78	1079.92
626.13	1082.97
626.48	1077.35
626.82	1065.41
627.17	1068.69
627.51	1086.48
627.86	1082.03
628.20	1079.22
628.55	1078.99
628.89	1085.31
629.24	1079.22
629.58	1082.73
629.93	1084.37
630.28	1086.71
630.62	1078.75
630.97	1076.41
631.31	1065.18
631.66	1064.24
632.00	1063.77
632.35	1070.56
632.69	1073.14
633.04	1081.09
633.38	1093.73
633.73	1093.26
634.07	1084.37
634.42	1077.58
634.76	1074.31
635.11	1060.73
635.45	1050.43
635.79	1056.99
636.14	1063.54
636.48	1073.14
636.83	1076.41
637.17	1087.18
637.52	1080.86
637.86	1079.22
638.21	1073.37
638.55	1075.94
638.89	1079.69
639.24	1084.14
639.58	1090.92
639.93	1099.82
640.27	1097.24
640.61	1092.33
640.96	1092.33
641.30	1092.33
641.65	1086.01
641.99	1086.71
642.33	1082.73
642.68	1086.01
643.02	1083.67
643.37	1083.90
643.71	1084.84
644.05	1087.88
644.40	1074.77
644.74	1073.60
645.08	1073.14
645.43	1071.26
645.77	1071.26
646.11	1079.92
646.46	1079.92
646.80	1088.35
647.14	1086.24
647.49	1083.67
647.83	1090.92
648.17	1087.88
648.52	1073.37
648.86	1069.16
649.20	1076.41
649.55	1064.48
649.89	1071.03
650.23	1077.11
650.57	1078.99
650.92	1080.16
651.26	1091.86
651.60	1093.50
651.95	1087.65
652.29	1088.35
652.63	1089.52
652.97	1085.54
653.32	1082.26
653.66	1090.92
654.00	1091.86
654.34	1086.48
654.69	1081.09
655.03	1070.56
655.37	1071.03
655.71	1073.84
656.05	1068.22
656.40	1074.07
656.74	1096.07
657.08	1089.29
657.42	1086.71
657.76	1090.92
658.11	1082.73
658.45	1071.03
658.79	1077.58
659.13	1081.80
659.47	1078.28
659.82	1090.92
660.16	1089.75
660.50	1089.75
660.84	1086.48
661.18	1090.22
661.52	1082.50
661.87	1074.07
662.21	1070.33
662.55	1068.45
662.89	1071.97
663.23	1078.28
663.57	1086.24
663.91	1080.39
664.25	1084.60
664.60	1076.18
664.94	1069.16
665.28	1073.37
665.62	1080.16
665.96	1079.22
666.30	1093.73
666.64	1104.73
666.98	1095.14
667.32	1090.22
667.66	1088.35
668.01	1080.86
668.35	1062.84
668.69	1060.96
669.03	1070.56
669.37	1068.22
669.71	1063.77
670.05	1071.50
670.39	1074.54
670.73	1070.09
671.07	1064.71
671.41	1064.24
671.75	1067.05
672.09	1067.05
672.43	1060.03
672.77	1067.05
673.11	1067.75
673.45	1071.03
673.79	1076.41
674.13	1082.03
674.47	1086.94
674.81	1092.33
675.15	1094.20
675.49	1092.33
675.83	1083.20
676.17	1076.88
676.51	1078.52
676.85	1078.99
677.19	1082.50
677.53	1093.73
677.87	1098.41
678.21	1105.90
678.55	1101.46
678.89	1100.05
679.23	1102.16
679.57	1098.88
679.90	1080.39
680.24	1076.41
680.58	1073.60
680.92	1073.60
681.26	1079.46
681.60	1087.65
681.94	1086.24
682.28	1086.94
682.62	1073.14
682.96	1072.90
683.29	1072.90
683.63	1079.22
683.97	1082.50
684.31	1089.52
684.65	1091.16
684.99	1097.01
685.33	1093.26
685.67	1085.54
686.00	1085.54
686.34	1085.54
686.68	1080.16
687.02	1081.33
687.36	1086.24
687.70	1090.69
688.03	1078.99
688.37	1085.07
688.71	1084.37
689.05	1080.16
689.39	1085.31
689.72	1084.14
690.06	1075.48
690.40	1085.31
690.74	1091.63
691.08	1086.94
691.41	1094.90
691.75	1095.84
692.09	1091.39
692.43	1093.50
692.76	1081.80
693.10	1076.65
693.44	1084.60
693.78	1078.28
694.11	1072.43
694.45	1089.99
694.79	1095.37
695.13	1090.69
695.46	1100.99
695.80	1100.05
696.14	1087.41
696.48	1085.77
696.81	1093.50
697.15	1080.16
697.49	1081.33
697.82	1085.77
698.16	1095.84
698.50	1083.90
698.83	1087.41
699.17	1078.28
699.51	1075.01
699.84	1076.65
700.18	1080.86
700.52	1090.46
700.85	1094.90
701.19	1108.95
701.53	1097.71
701.86	1094.90
702.20	1083.90
702.54	1082.50
702.87	1081.09
703.21	1089.52
703.55	1085.77
703.88	1084.60
704.22	1088.35
704.55	1071.73
704.89	1054.41
705.23	1054.88
705.56	1063.54
705.90	1080.16
706.23	1089.05
706.57	1102.16
706.91	1104.97
707.24	1098.65
707.58	1080.63
707.91	1079.92
708.25	1087.18
708.58	1081.09
708.92	1080.86
709.26	1083.90
709.59	1086.01
709.93	1067.28
710.26	1078.99
710.60	1077.35
710.93	1086.01
711.27	1080.39
711.60	1081.80
711.94	1073.14
712.27	1069.62
712.61	1067.99
712.94	1075.24
713.28	1086.01
713.61	1082.97
713.95	1088.12
714.28	1090.69
714.62	1080.39
714.95	1078.52
715.29	1087.65
715.62	1086.24
715.96	1081.56
716.29	1088.82
716.63	1078.99
716.96	1090.92
717.29	1095.14
717.63	1093.03
717.96	1088.35
718.30	1089.29
718.63	1071.50
718.97	1059.79
719.30	1057.22
719.63	1061.67
719.97	1060.96
720.30	1064.48
720.64	1081.09
720.97	1079.69
721.30	1062.84
721.64	1077.58
721.97	1074.54
722.31	1071.97
722.64	1071.97
722.97	1082.73
723.31	1070.56
723.64	1068.45
723.97	1059.79
724.31	1059.56
724.64	1061.67
724.98	1069.16
725.31	1068.45
725.64	1075.24
725.98	1079.22
726.31	1091.63
726.64	1084.37
726.97	1088.12
727.31	1093.73
727.64	1083.43
727.97	1066.35
728.31	1073.14
728.64	1073.60
728.97	1067.05
729.31	1076.18
729.64	1079.92
729.97	1071.73
730.30	1065.88
730.64	1067.28
730.97	1066.11
731.30	1071.73
731.63	1080.63
731.97	1084.37
732.30	1091.39
732.63	1096.07
732.96	1093.97
733.30	1087.18
733.63	1083.20
733.96	1076.88
734.29	1075.24
734.63	1066.11
734.96	1070.33
735.29	1073.14
735.62	1070.80
735.95	1069.16
736.29	1075.24
736.62	1062.14
736.95	1067.99
737.28	1066.82
737.61	1066.35
737.94	1062.84
738.28	1076.41
738.61	1074.07
738.94	1069.86
739.27	1067.99
739.60	1074.07
739.93	1067.99
740.27	1077.35
740.60	1078.75
740.93	1081.80
741.26	1073.84
741.59	1079.92
741.92	1073.84
742.25	1080.16
742.58	1071.73
742.91	1081.09
743.25	1078.75
743.58	1072.67
743.91	1076.18
744.24	1089.05
744.57	1095.37
744.90	1096.31
745.23	1103.33
745.56	1089.52
745.89	1075.94
746.22	1061.20
746.55	1061.67
746.88	1062.84
747.21	1068.92
747.54	1080.63
747.87	1084.84
748.20	1087.18
748.53	1090.69
748.87	1090.22
749.20	1076.88
749.53	1082.03
749.86	1075.24
750.19	1064.48
750.52	1066.11
750.85	1077.11
751.18	1073.14
751.51	1077.11
751.84	1087.88
752.16	1090.92
752.49	1094.43
752.82	1094.43
753.15	1098.88
753.48	1096.07
753.81	1099.58
754.14	1089.52
754.47	1082.97
754.80	1081.33
755.13	1078.05
755.46	1070.80
755.79	1075.24
756.12	1086.71
756.45	1082.50
756.78	1078.52
757.11	1073.84
757.43	1070.33
757.76	1067.28
758.09	1082.03
758.42	1088.35
758.75	1083.20
759.08	1090.22
759.41	1086.24
759.74	1070.09
760.07	1066.82
760.39	1075.94
760.72	1072.67
761.05	1064.24
761.38	1076.18
761.71	1078.75
762.04	1082.03
762.36	1082.73
762.69	1093.73
763.02	1091.86
763.35	1086.94
763.68	1086.48
764.01	1084.14
764.33	1085.77
764.66	1081.33
764.99	1078.05
765.32	1078.99
765.65	1078.28
765.97	1087.41
766.30	1085.77
766.63	1090.46
766.96	1091.39
767.28	1099.82
767.61	1091.86
767.94	1085.77
768.27	1083.20
768.59	1082.50
768.92	1074.77
769.25	1063.31
769.58	1070.56
769.90	1075.01
770.23	1074.77
770.56	1075.01
770.89	1084.37
771.21	1091.86
771.54	1090.22
771.87	1090.46
772.19	1100.52
772.52	1104.03
772.85	1095.14
773.17	1096.31
773.50	1095.60
773.83	1084.60
774.15	1069.16
774.48	1067.05
774.81	1068.45
775.13	1065.88
775.46	1074.54
775.79	1092.80
776.11	1105.90
776.44	1108.71
776.77	1118.31
777.09	1119.95
777.42	1103.33
777.74	1095.37
778.07	1096.31
778.40	1083.20
778.72	1076.41
779.05	1091.63
779.37	1090.92
779.70	1089.75
780.03	1098.18
780.35	1099.82
780.68	1092.80
781.00	1097.71
781.33	1088.82
781.65	1087.88
781.98	1097.71
782.31	1098.41
782.63	1090.46
782.96	1088.12
783.28	1083.43
783.61	1072.90
783.93	1075.48
784.26	1074.07
784.58	1086.94
784.91	1090.22
785.23	1081.33
785.56	1077.58
785.88	1073.84
786.21	1078.99
786.53	1085.54
786.86	1083.90
787.18	1080.16
787.51	1085.07
787.83	1066.11
788.16	1052.54
788.48	1057.69
788.81	1061.20
789.13	1064.48
789.46	1073.14
789.78	1063.54
790.10	1058.62
790.43	1060.26
790.75	1061.67
791.08	1060.50
791.40	1074.54
791.73	1096.31
792.05	1100.99
792.37	1092.09
792.70	1083.20
793.02	1082.97
793.35	1071.26
793.67	1070.56
793.99	1080.16
794.32	1090.46
794.64	1085.07
794.96	1087.41
795.29	1076.41
795.61	1060.73
795.93	1063.31
796.26	1068.22
796.58	1060.50
796.91	1070.33
797.23	1085.07
797.55	1076.41
797.87	1090.69
798.20	1095.14
798.52	1090.92
798.84	1086.71
799.17	1098.41
799.49	1085.07
799.81	1084.84
800.14	1082.03
800.46	1082.73
800.78	1072.67
801.10	1071.26
801.43	1076.88
801.75	1076.41
802.07	1086.24
802.40	1086.71
802.72	1089.52
803.04	1086.71
803.36	1090.22
803.69	1084.60
804.01	1079.92
804.33	1078.75
804.65	1075.48
804.97	1069.16
805.30	1066.82
805.62	1075.24
805.94	1073.14
806.26	1071.73
806.58	1079.92
806.91	1083.90
807.23	1083.67
807.55	1091.16
807.87	1098.65
808.19	1109.65
808.52	1092.56
808.84	1088.58
809.16	1088.82
809.48	1084.37
809.80	1070.56
810.12	1085.07
810.44	1091.86
810.77	1096.54
811.09	1095.60
811.41	1096.31
811.73	1100.99
812.05	1094.20
812.37	1081.09
812.69	1081.33
813.01	1091.16
813.33	1080.39
813.66	1088.12
813.98	1090.22
814.30	1086.94
814.62	1081.09
814.94	1089.75
815.26	1083.43
815.58	1084.60
815.90	1078.05
816.22	1070.09
816.54	1068.92
816.86	1069.86
817.18	1071.03
817.50	1079.46
817.82	1093.26
818.14	1085.77
818.46	1075.48
818.78	1071.73
819.10	1077.35
819.42	1075.94
819.74	1085.31
820.06	1087.88
820.38	1085.31
820.70	1086.01
821.02	1073.84
821.34	1062.37
821.66	1065.18
821.98	1064.71
822.30	1056.28
822.62	1064.71
822.94	1068.22
823.26	1083.20
823.58	1088.82
823.90	1091.86
824.22	1081.80
824.54	1091.39
824.86	1081.56
825.18	1079.92
825.50	1077.11
825.81	1077.35
826.13	1071.97
826.45	1075.24
826.77	1080.39
827.09	1078.75
827.41	1089.52
827.73	1094.20
828.05	1089.52
828.36	1081.56
828.68	1089.29
829.00	1083.20
829.32	1080.39
829.64	1077.35
829.96	1077.11
830.28	1079.69
830.59	1083.67
830.91	1077.58
831.23	1077.58
831.55	1083.67
831.87	1078.75
832.19	1063.31
832.50	1060.73
832.82	1069.86
833.14	1066.35
833.46	1067.99
833.78	1082.26
834.09	1080.63
834.41	1082.03
834.73	1092.09
835.05	1097.24
835.36	1097.48
835.68	1101.69
836.00	1099.82
836.32	1104.03
836.63	1103.80
836.95	1091.39
837.27	1087.41
837.59	1088.82
837.90	1078.75
838.22	1067.28
838.54	1083.20
838.85	1091.63
839.17	1080.86
839.49	1067.75
839.80	1067.75
840.12	1063.77
840.44	1067.75
840.76	1064.71
841.07	1086.01
841.39	1084.37
841.71	1089.29
842.02	1084.14
842.34	1086.48
842.65	1075.24
842.97	1085.31
843.29	1072.67
843.60	1064.48
843.92	1069.16
844.24	1067.28
844.55	1059.56
844.87	1067.99
845.18	1071.50
845.50	1067.75
845.82	1078.52
846.13	1075.94
846.45	1078.28
846.76	1096.54
847.08	1104.26
847.40	1093.50
847.71	1098.41
848.03	1097.24
848.34	1082.73
848.66	1086.71
848.97	1083.67
849.29	1086.71
849.60	1094.20
849.92	1091.86
850.24	1081.33
850.55	1091.39
850.87	1092.09
851.18	1084.84
851.50	1082.50
851.81	1084.84
852.13	1077.58
852.44	1077.11
852.76	1080.63
853.07	1084.60
853.39	1084.37
853.70	1090.92
854.01	1077.11
854.33	1073.84
854.64	1073.14
854.96	1065.18
855.27	1058.16
855.59	1066.11
855.90	1076.65
856.22	1065.41
856.53	1067.75
856.84	1071.26
857.16	1062.60
857.47	1039.43
857.79	1043.88
858.10	1053.48
858.41	1058.39
858.73	1081.09
859.04	1081.56
859.36	1092.56
859.67	1079.46
859.98	1065.18
860.30	1049.26
860.61	1050.90
860.92	1044.35
861.24	1047.86
861.55	1056.28
861.87	1066.82
862.18	1075.71
862.49	1067.75
862.81	1078.52
863.12	1078.05
863.43	1078.52
863.74	1071.50
864.06	1081.09
864.37	1081.80
864.68	1081.56
865.00	1079.69
865.31	1090.92
865.62	1094.67
865.94	1081.80
866.25	1087.88
866.56	1081.09
866.87	1076.41
867.19	1072.67
867.50	1078.05
867.81	1088.58
868.12	1086.71
868.44	1091.16
868.75	1094.90
869.06	1097.95
869.37	1082.97
869.68	1089.05
870.00	1078.05
870.31	1071.97
870.62	1070.33
870.93	1072.90
871.24	1070.80
871.56	1078.05
871.87	1072.90
872.18	1079.22
872.49	1079.22
872.80	1080.86
873.12	1077.58
873.43	1080.63
873.74	1075.48
874.05	1066.82
874.36	1062.14
874.67	1056.05
874.98	1066.58
875.29	1068.22
875.61	1069.39
875.92	1077.35
876.23	1085.77
876.54	1082.73
876.85	1086.94
877.16	1092.09
877.47	1090.46
877.78	1089.99
878.09	1088.35
878.40	1082.26
878.72	1096.31
879.03	1088.58
879.34	1088.58
879.65	1092.80
879.96	1085.07
880.27	1069.86
880.58	1071.50
880.89	1071.26
881.20	1066.82
881.51	1073.37
881.82	1069.86
882.13	1069.86
882.44	1070.56
882.75	1071.50
883.06	1072.20
883.37	1084.14
883.68	1088.82
883.99	1082.73
884.30	1076.88
884.61	1076.41
884.92	1064.94
885.23	1061.90
885.54	1066.58
885.85	1074.31
886.16	1076.65
886.47	1084.14
886.78	1086.24
887.08	1083.20
887.39	1082.03
887.70	1084.14
888.01	1079.22
888.32	1076.88
888.63	1074.07
888.94	1082.50
889.25	1084.84
889.56	1079.22
889.87	1088.82
890.17	1097.95
890.48	1086.48
890.79	1086.01
891.10	1089.29
891.41	1084.14
891.72	1074.31
892.03	1080.16
892.34	1081.09
892.64	1075.94
892.95	1066.11
893.26	1075.01
893.57	1073.14
893.88	1071.97
894.18	1081.09
894.49	1084.37
894.80	1073.14
895.11	1065.18
895.42	1059.33
895.72	1064.24
896.03	1057.92
896.34	1070.56
896.65	1075.94
896.96	1078.28
897.26	1076.41
897.57	1088.35
897.88	1085.07
898.19	1089.05
898.49	1087.18
898.80	1083.20
899.11	1086.48
899.41	1086.24
899.72	1082.26
900.03	1086.01
900.34	1086.94
900.64	1078.05
900.95	1075.71
901.26	1075.94
901.56	1079.46
901.87	1065.18
902.18	1069.39
902.48	1064.01
902.79	1064.71
903.10	1057.92
903.40	1078.75
903.71	1079.22
904.02	1086.24
904.32	1077.35
904.63	1083.90
904.94	1086.71
905.24	1094.67
905.55	1095.60
905.85	1103.33
906.16	1098.41
906.47	1091.16
906.77	1078.75
907.08	1086.24
907.38	1093.73
907.69	1097.48
908.00	1097.48
908.30	1103.09
908.61	1101.92
908.91	1096.31
909.22	1093.50
909.52	1082.26
909.83	1072.67
910.14	1073.84
910.44	1066.82
910.75	1063.07
911.05	1073.84
911.36	1086.01
911.66	1078.05
911.97	1079.69
912.27	1075.71
912.58	1072.67
912.88	1066.82
913.19	1071.50
913.49	1076.65
913.80	1074.31
914.10	1074.31
914.41	1074.07
914.71	1072.20
915.01	1064.94
915.32	1076.41
915.62	1077.35
915.93	1075.01
916.23	1070.80
916.54	1073.84
916.84	1075.24
917.15	1074.77
917.45	1084.60
917.75	1088.58
918.06	1093.26
918.36	1091.63
918.67	1089.05
918.97	1080.39
919.27	1080.63
919.58	1079.22
919.88	1073.84
920.18	1080.86
920.49	1081.56
920.79	1083.20
921.10	1081.33
921.40	1083.43
921.70	1083.20
922.01	1084.60
922.31	1087.41
922.61	1087.88
922.92	1079.92
923.22	1070.56
923.52	1074.31
923.82	1075.01
924.13	1082.03
924.43	1086.48
924.73	1097.71
925.04	1087.41
925.34	1068.45
925.64	1060.50
925.94	1066.11
926.25	1059.33
926.55	1063.54
926.85	1073.14
927.15	1072.20
927.46	1065.65
927.76	1069.62
928.06	1065.65
928.36	1060.26
928.67	1062.37
928.97	1066.11
929.27	1059.79
929.57	1064.71
929.87	1069.62
930.18	1066.35
930.48	1069.39
930.78	1073.84
931.08	1084.14
931.38	1091.86
931.69	1100.29
931.99	1105.20
932.29	1094.20
932.59	1082.26
932.89	1069.86
933.19	1065.88
933.49	1063.31
933.80	1070.80
934.10	1075.48
934.40	1081.80
934.70	1085.07
935.00	1082.97
935.30	1082.73
935.60	1073.37
935.90	1071.73
936.20	1075.94
936.50	1076.18
936.81	1083.43
937.11	1094.67
937.41	1093.50
937.71	1085.31
938.01	1076.18
938.31	1072.43
938.61	1066.11
938.91	1078.75
939.21	1083.67
939.51	1092.33
939.81	1082.26
940.11	1075.24
940.41	1064.94
940.71	1063.54
941.01	1063.07
941.31	1071.73
941.61	1082.97
941.91	1087.65
942.21	1090.22
942.51	1083.90
942.81	1082.03
943.11	1076.88
943.41	1075.94
943.71	1063.54
944.01	1068.92
944.31	1065.18
944.61	1070.33
944.90	1064.48
945.20	1066.35
945.50	1073.60
945.80	1076.65
946.10	1075.24
946.40	1076.18
946.70	1081.33
947.00	1072.20
947.30	1075.94
947.60	1067.28
947.89	1076.18
948.19	1069.62
948.49	1069.16
948.79	1073.37
949.09	1075.94
949.39	1067.99
949.69	1077.58
949.98	1074.77
950.28	1068.22
950.58	1079.69
950.88	1082.03
951.18	1070.09
951.48	1084.14
951.77	1092.80
952.07	1089.52
952.37	1094.90
952.67	1101.69
952.97	1089.99
953.26	1077.11
953.56	1072.90
953.86	1072.90
954.16	1062.84
954.45	1070.80
954.75	1081.80
955.05	1082.03
955.35	1077.58
955.64	1093.03
955.94	1088.35
956.24	1089.52
956.54	1095.14
956.83	1099.35
957.13	1089.29
957.43	1084.14
957.72	1077.11
958.02	1075.94
958.32	1067.28
958.61	1075.48
958.91	1081.09
959.21	1071.97
959.50	1076.18
959.80	1076.65
960.10	1076.41
960.39	1078.75
960.69	1078.99
960.99	1075.01
961.28	1085.54
961.58	1086.48
961.87	1082.50
962.17	1090.92
962.47	1089.75
962.76	1085.07
963.06	1081.80
963.36	1083.67
963.65	1083.90
963.95	1073.84
964.24	1058.39
964.54	1062.37
964.83	1064.94
965.13	1063.31
965.42	1068.92
965.72	1077.11
966.02	1070.33
966.31	1064.71
966.61	1075.71
966.90	1078.75
967.20	1081.56
967.49	1074.31
967.79	1070.56
968.08	1072.90
968.38	1079.22
968.67	1079.46
968.97	1086.01
969.26	1088.12
969.56	1072.20
969.85	1066.35
970.15	1070.09
970.44	1077.58
970.74	1077.82
971.03	1084.37
971.32	1089.99
971.62	1092.80
971.91	1093.26
972.21	1101.69
972.50	1107.78
972.80	1096.54
973.09	1097.48
973.38	1091.86
973.68	1086.01
973.97	1080.63
974.27	1089.05
974.56	1082.03
974.85	1081.33
975.15	1083.43
975.44	1075.94
975.73	1064.71
976.03	1065.18
976.32	1068.69
976.61	1067.99
976.91	1067.99
977.20	1077.82
977.49	1071.97
977.79	1075.24
978.08	1078.52
978.37	1079.92
978.67	1068.69
978.96	1076.88
979.25	1069.39
979.55	1058.16
979.84	1071.50
980.13	1085.31
980.42	1086.94
980.72	1091.86
981.01	1107.07
981.30	1103.09
981.59	1096.78
981.89	1089.52
982.18	1079.22
982.47	1073.60
982.76	1071.26
983.06	1078.75
983.35	1084.84
983.64	1095.37
983.93	1082.73
984.22	1076.18
984.52	1076.88
984.81	1078.52
985.10	1075.48
985.39	1088.82
985.68	1091.16
985.97	1077.35
986.27	1071.50
986.56	1070.56
986.85	1071.26
987.14	1074.54
987.43	1080.86
987.72	1086.48
988.01	1089.75
988.31	1084.37
988.60	1075.71
988.89	1076.18
989.18	1064.24
989.47	1055.58
989.76	1049.73
990.05	1059.79
990.34	1063.54
990.63	1076.18
990.92	1080.16
991.21	1086.94
991.51	1078.99
991.80	1072.43
992.09	1071.03
992.38	1072.43
992.67	1065.88
992.96	1062.60
993.25	1066.58
993.54	1063.77
993.83	1061.67
994.12	1067.05
994.41	1076.88
994.70	1083.20
994.99	1092.56
995.28	1099.35
995.57	1092.33
995.86	1090.46
996.15	1082.50
996.44	1075.01
996.73	1072.67
997.02	1075.71
997.31	1075.71
997.59	1073.84
997.88	1070.09
998.17	1076.88
998.46	1082.97
998.75	1079.69
999.04	1082.50
999.33	1081.09
999.62	1076.41
999.91	1078.28
1000.20	1075.94
1000.49	1069.39
1000.77	1069.39
1001.06	1066.82
1001.35	1068.92
1001.64	1075.24
1001.93	1080.86
1002.22	1081.80
1002.51	1082.97
1002.79	1072.20
1003.08	1075.01
1003.37	1076.41
1003.66	1079.92
1003.95	1079.46
1004.23	1083.20
1004.52	1087.65
1004.81	1089.99
1005.10	1100.29
1005.39	1099.82
1005.67	1101.92
1005.96	1086.94
1006.25	1086.94
1006.54	1087.18
1006.83	1094.67
1007.11	1094.43
1007.40	1098.41
1007.69	1090.22
1007.97	1080.39
1008.26	1076.88
1008.55	1082.73
1008.84	1092.09
1009.12	1097.48
1009.41	1098.88
1009.70	1103.09
1009.98	1088.58
1010.27	1081.80
1010.56	1083.20
1010.85	1082.26
1011.13	1064.48
1011.42	1075.48
1011.71	1073.84
1011.99	1075.48
1012.28	1076.65
1012.56	1089.99
1012.85	1084.37
1013.14	1083.43
1013.42	1086.48
1013.71	1088.12
1014.00	1082.03
1014.28	1086.01
1014.57	1092.80
1014.85	1085.07
1015.14	1086.48
1015.43	1094.90
1015.71	1097.48
1016.00	1088.12
1016.28	1087.65
1016.57	1085.54
1016.85	1081.09
1017.14	1085.07
1017.43	1092.80
1017.71	1098.18
1018.00	1093.73
1018.28	1089.29
1018.57	1082.73
1018.85	1087.65
1019.14	1082.26
1019.42	1073.14
1019.71	1078.05
1019.99	1081.80
1020.28	1073.14
1020.56	1078.99
1020.85	1087.65
1021.13	1078.99
1021.42	1070.56
1021.70	1070.56
1021.99	1068.92
1022.27	1061.43
1022.55	1088.35
1022.84	1042.71
>>>>>End Processed Spectral Data<<<<<
