SpectraSuite Data File
++++++++++++++++++++++++++++++++++++
Date: Mon Aug 26 10:25:44 PDT 2019
User: corrico
Dark Spectrum Present: No
Reference Spectrum Present: No
Number of Sampled Component Spectra: 1
Spectrometers: USB2+H06089
Integration Time (usec): 10000 (USB2+H06089)
Spectra Averaged: 2 (USB2+H06089)
Boxcar Smoothing: 2 (USB2+H06089)
Correct for Electrical Dark: No (USB2+H06089)
Strobe/Lamp Enabled: No (USB2+H06089)
Correct for Detector Non-linearity: No (USB2+H06089)
Correct for Stray Light: No (USB2+H06089)
Number of Pixels in Processed Spectrum: 2048
>>>>>Begin Processed Spectral Data<<<<<
339.70	1066.11
340.07	1066.11
340.45	1018.84
340.82	998.47
341.19	962.19
341.57	925.92
341.94	917.26
342.31	910.94
342.69	895.49
343.06	885.89
343.43	882.85
343.81	882.62
344.18	887.53
344.55	890.34
344.93	899.00
345.30	912.81
345.67	918.66
346.04	924.04
346.42	935.51
346.79	952.13
347.16	961.73
347.54	979.28
347.91	983.73
348.28	994.03
348.65	1006.66
349.03	1014.86
349.40	1016.26
349.77	1035.22
350.14	1038.73
350.52	1043.88
350.89	1047.16
351.26	1051.37
351.63	1061.20
352.01	1064.94
352.38	1070.33
352.75	1081.09
353.12	1088.82
353.50	1080.86
353.87	1081.56
354.24	1084.60
354.61	1078.05
354.98	1075.24
355.36	1077.11
355.73	1085.07
356.10	1075.71
356.47	1074.54
356.84	1080.39
357.22	1072.90
357.59	1072.90
357.96	1080.39
358.33	1099.12
358.70	1097.48
359.08	1094.67
359.45	1093.03
359.82	1092.33
360.19	1084.37
360.56	1081.09
360.94	1084.84
361.31	1087.65
361.68	1088.12
362.05	1069.86
362.42	1066.58
362.79	1067.52
363.16	1051.37
363.54	1046.69
363.91	1052.77
364.28	1055.35
364.65	1056.52
365.02	1076.18
365.39	1081.33
365.76	1079.22
366.14	1077.11
366.51	1073.84
366.88	1061.90
367.25	1059.79
367.62	1064.48
367.99	1062.14
368.36	1064.94
368.73	1067.05
369.10	1066.11
369.48	1068.92
369.85	1070.56
370.22	1072.43
370.59	1068.69
370.96	1060.73
371.33	1055.82
371.70	1061.90
372.07	1061.90
372.44	1067.75
372.81	1077.82
373.18	1081.56
373.55	1074.31
373.93	1066.58
374.30	1066.35
374.67	1058.62
375.04	1061.90
375.41	1068.92
375.78	1076.18
376.15	1080.39
376.52	1090.22
376.89	1085.07
377.26	1077.82
377.63	1084.60
378.00	1076.18
378.37	1066.35
378.74	1065.41
379.11	1067.99
379.48	1055.82
379.85	1054.88
380.22	1056.05
380.59	1051.37
380.96	1051.37
381.33	1056.05
381.70	1057.69
382.07	1063.07
382.44	1066.82
382.81	1059.79
383.18	1058.62
383.55	1064.48
383.92	1062.37
384.29	1067.28
384.66	1073.14
385.03	1072.90
385.40	1075.24
385.77	1082.97
386.14	1086.24
386.51	1083.43
386.88	1084.37
387.25	1071.73
387.62	1063.07
387.99	1056.28
388.36	1059.09
388.73	1065.41
389.10	1080.16
389.46	1089.29
389.83	1081.80
390.20	1085.07
390.57	1084.60
390.94	1076.18
391.31	1071.97
391.68	1078.99
392.05	1067.28
392.42	1058.39
392.79	1067.52
393.16	1064.94
393.53	1069.86
393.89	1068.69
394.26	1070.09
394.63	1060.96
395.00	1054.41
395.37	1054.41
395.74	1057.92
396.11	1058.86
396.48	1061.20
396.84	1070.56
397.21	1067.05
397.58	1074.07
397.95	1078.28
398.32	1081.80
398.69	1083.90
399.06	1079.69
399.42	1084.14
399.79	1076.18
400.16	1076.18
400.53	1068.22
400.90	1078.05
401.27	1071.26
401.64	1074.54
402.00	1065.41
402.37	1073.37
402.74	1066.58
403.11	1070.09
403.48	1074.31
403.84	1085.77
404.21	1075.01
404.58	1079.46
404.95	1087.18
405.32	1087.65
405.68	1081.09
406.05	1087.18
406.42	1082.50
406.79	1064.94
407.16	1070.33
407.52	1077.11
407.89	1075.01
408.26	1080.39
408.63	1086.24
408.99	1078.75
409.36	1067.52
409.73	1063.07
410.10	1061.43
410.47	1063.31
410.83	1055.58
411.20	1066.82
411.57	1075.71
411.94	1075.71
412.30	1074.31
412.67	1078.28
413.04	1068.22
413.40	1056.99
413.77	1051.84
414.14	1054.88
414.51	1060.50
414.87	1061.43
415.24	1066.11
415.61	1067.75
415.97	1063.07
416.34	1061.43
416.71	1070.09
417.08	1074.77
417.44	1077.82
417.81	1082.50
418.18	1084.60
418.54	1084.60
418.91	1085.77
419.28	1078.52
419.64	1078.75
420.01	1070.09
420.38	1069.39
420.74	1067.05
421.11	1075.48
421.48	1074.07
421.84	1081.56
422.21	1073.84
422.58	1074.77
422.94	1078.28
423.31	1069.16
423.68	1067.75
424.04	1067.28
424.41	1065.18
424.77	1057.92
425.14	1067.52
425.51	1070.33
425.87	1069.16
426.24	1064.71
426.61	1067.52
426.97	1062.84
427.34	1056.28
427.70	1056.99
428.07	1065.65
428.44	1060.26
428.80	1066.58
429.17	1071.26
429.53	1070.09
429.90	1063.31
430.27	1075.24
430.63	1072.67
431.00	1065.41
431.36	1074.77
431.73	1083.43
432.09	1079.69
432.46	1072.20
432.83	1078.05
433.19	1072.67
433.56	1071.50
433.92	1070.56
434.29	1079.22
434.65	1086.94
435.02	1100.05
435.38	1103.09
435.75	1099.58
436.11	1102.63
436.48	1091.16
436.84	1074.54
437.21	1068.45
437.57	1067.52
437.94	1058.62
438.30	1066.35
438.67	1070.33
439.03	1072.20
439.40	1073.60
439.76	1075.48
440.13	1069.86
440.49	1069.16
440.86	1061.43
441.22	1067.75
441.59	1067.52
441.95	1068.22
442.32	1066.82
442.68	1075.01
443.05	1070.80
443.41	1076.41
443.78	1083.43
444.14	1086.01
444.51	1082.97
444.87	1082.73
445.24	1078.99
445.60	1076.41
445.96	1062.84
446.33	1066.82
446.69	1065.65
447.06	1068.45
447.42	1058.39
447.79	1069.16
448.15	1061.90
448.51	1061.43
448.88	1054.18
449.24	1050.90
449.61	1056.75
449.97	1068.45
450.33	1074.31
450.70	1077.58
451.06	1097.48
451.43	1093.50
451.79	1083.20
452.15	1077.58
452.52	1086.48
452.88	1071.03
453.24	1068.69
453.61	1071.73
453.97	1079.22
454.34	1080.39
454.70	1074.77
455.06	1085.54
455.43	1083.43
455.79	1075.24
456.15	1069.39
456.52	1080.39
456.88	1079.69
457.24	1075.48
457.61	1078.99
457.97	1080.63
458.33	1080.39
458.70	1080.39
459.06	1094.20
459.42	1097.24
459.79	1100.29
460.15	1101.69
460.51	1100.05
460.88	1092.80
461.24	1087.18
461.60	1091.86
461.96	1094.20
462.33	1101.46
462.69	1110.35
463.05	1108.95
463.42	1105.90
463.78	1098.18
464.14	1080.63
464.50	1062.60
464.87	1063.31
465.23	1047.39
465.59	1061.90
465.95	1062.84
466.32	1079.92
466.68	1079.22
467.04	1091.39
467.40	1076.18
467.77	1080.16
468.13	1068.69
468.49	1065.18
468.85	1065.41
469.22	1077.82
469.58	1086.24
469.94	1084.37
470.30	1094.43
470.66	1092.09
471.03	1084.84
471.39	1071.03
471.75	1066.35
472.11	1072.43
472.47	1063.54
472.84	1058.62
473.20	1061.90
473.56	1075.48
473.92	1069.39
474.28	1073.37
474.65	1078.28
475.01	1082.97
475.37	1079.46
475.73	1078.05
476.09	1089.99
476.45	1083.90
476.81	1078.52
477.18	1082.26
477.54	1080.86
477.90	1075.94
478.26	1082.03
478.62	1090.22
478.98	1084.60
479.34	1082.26
479.71	1082.26
480.07	1077.58
480.43	1068.92
480.79	1074.54
481.15	1070.56
481.51	1068.69
481.87	1078.52
482.23	1083.43
482.59	1078.05
482.96	1073.37
483.32	1072.90
483.68	1077.35
484.04	1075.01
484.40	1077.11
484.76	1086.48
485.12	1080.39
485.48	1079.46
485.84	1078.28
486.20	1076.65
486.56	1079.69
486.92	1085.54
487.28	1075.94
487.64	1079.92
488.00	1078.05
488.37	1076.41
488.73	1077.11
489.09	1082.03
489.45	1081.09
489.81	1083.43
490.17	1085.31
490.53	1081.09
490.89	1074.54
491.25	1071.73
491.61	1077.35
491.97	1077.82
492.33	1072.67
492.69	1072.43
493.05	1068.45
493.41	1068.69
493.77	1063.54
494.13	1070.80
494.49	1075.94
494.85	1080.63
495.21	1080.86
495.57	1085.54
495.93	1094.90
496.29	1089.99
496.64	1088.82
497.00	1081.33
497.36	1076.18
497.72	1070.56
498.08	1067.05
498.44	1067.99
498.80	1065.65
499.16	1066.82
499.52	1068.69
499.88	1070.09
500.24	1075.01
500.60	1083.20
500.96	1092.80
501.32	1091.39
501.68	1090.46
502.03	1094.43
502.39	1087.41
502.75	1085.31
503.11	1073.60
503.47	1074.54
503.83	1067.28
504.19	1077.35
504.55	1075.94
504.91	1077.35
505.26	1079.22
505.62	1076.88
505.98	1074.31
506.34	1074.54
506.70	1086.24
507.06	1087.88
507.42	1089.75
507.78	1083.67
508.13	1077.35
508.49	1075.24
508.85	1087.65
509.21	1081.56
509.57	1076.18
509.93	1084.14
510.28	1080.16
510.64	1067.99
511.00	1076.18
511.36	1085.31
511.72	1087.41
512.07	1088.82
512.43	1089.75
512.79	1091.16
513.15	1082.97
513.51	1069.16
513.86	1076.41
514.22	1086.48
514.58	1093.50
514.94	1110.35
515.30	1125.33
515.65	1129.78
516.01	1120.41
516.37	1112.92
516.73	1106.37
517.08	1100.05
517.44	1098.18
517.80	1096.54
518.16	1105.90
518.51	1106.37
518.87	1097.01
519.23	1094.90
519.59	1100.99
519.94	1097.71
520.30	1091.86
520.66	1104.50
521.01	1101.92
521.37	1095.60
521.73	1089.99
522.09	1088.12
522.44	1081.80
522.80	1077.58
523.16	1075.71
523.51	1071.50
523.87	1083.67
524.23	1083.67
524.58	1082.97
524.94	1098.18
525.30	1101.46
525.65	1094.20
526.01	1101.46
526.37	1106.37
526.72	1102.39
527.08	1099.58
527.44	1104.97
527.79	1105.44
528.15	1104.26
528.51	1091.39
528.86	1092.33
529.22	1091.63
529.58	1082.97
529.93	1085.54
530.29	1090.92
530.65	1100.52
531.00	1092.33
531.36	1091.63
531.71	1090.92
532.07	1093.97
532.43	1086.94
532.78	1095.84
533.14	1096.07
533.49	1099.35
533.85	1094.20
534.21	1090.46
534.56	1087.88
534.92	1086.24
535.27	1072.67
535.63	1076.65
535.98	1078.52
536.34	1078.99
536.69	1080.39
537.05	1091.16
537.41	1082.03
537.76	1071.73
538.12	1063.07
538.47	1060.03
538.83	1054.41
539.18	1071.03
539.54	1081.33
539.89	1089.99
540.25	1093.97
540.60	1091.39
540.96	1088.58
541.31	1083.20
541.67	1087.18
542.02	1093.03
542.38	1100.05
542.73	1090.69
543.09	1097.48
543.44	1092.80
543.80	1082.03
544.15	1080.63
544.51	1087.18
544.86	1091.63
545.22	1091.39
545.57	1096.07
545.93	1094.90
546.28	1093.50
546.64	1086.01
546.99	1089.75
547.35	1088.82
547.70	1085.31
548.05	1082.73
548.41	1090.92
548.76	1077.82
549.12	1074.07
549.47	1078.05
549.83	1077.82
550.18	1074.77
550.53	1082.73
550.89	1091.39
551.24	1087.65
551.60	1096.07
551.95	1085.54
552.30	1089.05
552.66	1089.05
553.01	1102.16
553.37	1089.05
553.72	1088.58
554.07	1087.41
554.43	1082.50
554.78	1070.56
555.13	1072.67
555.49	1075.71
555.84	1073.84
556.19	1070.80
556.55	1068.69
556.90	1063.07
557.26	1058.16
557.61	1056.05
557.96	1069.16
558.32	1078.28
558.67	1085.54
559.02	1086.01
559.37	1083.20
559.73	1070.56
560.08	1063.31
560.43	1066.11
560.79	1081.09
561.14	1085.07
561.49	1089.75
561.85	1083.67
562.20	1076.18
562.55	1058.86
562.90	1052.54
563.26	1053.24
563.61	1059.56
563.96	1066.82
564.32	1079.69
564.67	1090.22
565.02	1095.14
565.37	1101.22
565.73	1098.65
566.08	1093.73
566.43	1091.16
566.78	1082.26
567.14	1082.26
567.49	1084.84
567.84	1086.01
568.19	1088.12
568.54	1088.35
568.90	1073.60
569.25	1079.92
569.60	1077.82
569.95	1076.88
570.31	1071.73
570.66	1072.43
571.01	1070.80
571.36	1075.24
571.71	1068.45
572.06	1077.58
572.42	1091.16
572.77	1084.37
573.12	1078.75
573.47	1073.60
573.82	1071.03
574.18	1073.60
574.53	1069.62
574.88	1070.56
575.23	1081.80
575.58	1082.73
575.93	1078.75
576.28	1078.28
576.64	1075.48
576.99	1065.18
577.34	1060.26
577.69	1047.39
578.04	1057.92
578.39	1056.52
578.74	1060.96
579.09	1063.54
579.44	1071.26
579.80	1060.73
580.15	1065.41
580.50	1065.65
580.85	1064.94
581.20	1061.43
581.55	1060.73
581.90	1062.60
582.25	1063.31
582.60	1067.28
582.95	1071.73
583.30	1083.90
583.65	1093.50
584.00	1100.05
584.35	1097.95
584.71	1090.92
585.06	1086.01
585.41	1076.41
585.76	1064.24
586.11	1057.92
586.46	1070.80
586.81	1078.99
587.16	1084.84
587.51	1092.80
587.86	1093.26
588.21	1086.01
588.56	1072.43
588.91	1069.39
589.26	1080.86
589.61	1083.43
589.96	1093.50
590.31	1087.88
590.66	1091.16
591.01	1078.99
591.36	1082.03
591.71	1074.31
592.06	1097.24
592.41	1088.35
592.76	1081.56
593.10	1079.46
593.45	1080.63
593.80	1072.90
594.15	1074.54
594.50	1085.07
594.85	1089.29
595.20	1085.31
595.55	1072.90
595.90	1078.05
596.25	1069.62
596.60	1068.92
596.95	1073.84
597.30	1079.22
597.64	1122.52
597.99	1127.44
598.34	1138.67
598.69	1137.73
599.04	1134.69
599.39	1093.26
599.74	1090.69
600.09	1082.50
600.44	1077.58
600.78	1073.37
601.13	1065.41
601.48	1060.03
601.83	1059.33
602.18	1063.31
602.53	1072.90
602.88	1076.65
603.22	1091.86
603.57	1085.77
603.92	1077.35
604.27	1073.14
604.62	1066.82
604.97	1065.41
605.31	1078.05
605.66	1087.65
606.01	1089.29
606.36	1090.92
606.71	1084.60
607.05	1073.60
607.40	1077.58
607.75	1078.05
608.10	1088.82
608.44	1087.88
608.79	1091.16
609.14	1090.69
609.49	1092.09
609.84	1091.63
610.18	1096.78
610.53	1107.54
610.88	1106.14
611.23	1104.97
611.57	1094.43
611.92	1099.58
612.27	1087.41
612.62	1078.52
612.96	1075.48
613.31	1073.84
613.66	1062.60
614.00	1061.90
614.35	1079.22
614.70	1082.97
615.05	1089.99
615.39	1086.48
615.74	1092.56
616.09	1079.22
616.43	1077.11
616.78	1081.56
617.13	1087.18
617.47	1079.22
617.82	1078.05
618.17	1074.54
618.51	1066.58
618.86	1065.88
619.21	1062.60
619.55	1064.01
619.90	1076.88
620.25	1081.56
620.59	1076.41
620.94	1076.41
621.29	1079.22
621.63	1063.54
621.98	1060.96
622.32	1076.18
622.67	1084.84
623.02	1081.56
623.36	1095.37
623.71	1086.24
624.05	1068.45
624.40	1062.14
624.75	1070.09
625.09	1066.82
625.44	1081.09
625.78	1088.82
626.13	1089.05
626.48	1092.33
626.82	1091.16
627.17	1079.69
627.51	1080.16
627.86	1088.12
628.20	1082.26
628.55	1081.33
628.89	1080.63
629.24	1083.90
629.58	1078.28
629.93	1069.39
630.28	1071.03
630.62	1077.35
630.97	1070.09
631.31	1069.39
631.66	1075.24
632.00	1073.14
632.35	1070.80
632.69	1072.43
633.04	1078.52
633.38	1073.84
633.73	1070.09
634.07	1069.62
634.42	1060.03
634.76	1057.69
635.11	1058.39
635.45	1064.94
635.79	1060.26
636.14	1070.56
636.48	1061.90
636.83	1071.73
637.17	1070.09
637.52	1082.26
637.86	1080.39
638.21	1083.90
638.55	1076.65
638.89	1077.82
639.24	1078.52
639.58	1083.20
639.93	1084.14
640.27	1075.01
640.61	1072.67
640.96	1068.92
641.30	1069.16
641.65	1070.56
641.99	1081.80
642.33	1081.09
642.68	1074.54
643.02	1076.88
643.37	1084.37
643.71	1081.09
644.05	1080.16
644.40	1091.39
644.74	1100.05
645.08	1087.41
645.43	1090.69
645.77	1087.18
646.11	1082.03
646.46	1072.90
646.80	1075.24
647.14	1072.43
647.49	1071.26
647.83	1067.99
648.17	1066.58
648.52	1080.16
648.86	1083.43
649.20	1087.65
649.55	1097.24
649.89	1092.80
650.23	1085.54
650.57	1076.18
650.92	1085.31
651.26	1075.24
651.60	1081.56
651.95	1069.86
652.29	1078.28
652.63	1075.01
652.97	1087.88
653.32	1084.14
653.66	1095.60
654.00	1089.99
654.34	1079.69
654.69	1064.94
655.03	1062.14
655.37	1071.97
655.71	1078.75
656.05	1077.58
656.40	1083.67
656.74	1089.75
657.08	1078.52
657.42	1075.94
657.76	1080.16
658.11	1081.56
658.45	1078.28
658.79	1085.07
659.13	1082.26
659.47	1096.07
659.82	1094.67
660.16	1087.65
660.50	1074.07
660.84	1080.16
661.18	1074.77
661.52	1083.90
661.87	1091.86
662.21	1099.12
662.55	1093.03
662.89	1084.60
663.23	1065.88
663.57	1075.71
663.91	1075.48
664.25	1084.60
664.60	1084.84
664.94	1093.50
665.28	1092.33
665.62	1091.86
665.96	1083.43
666.30	1090.92
666.64	1091.86
666.98	1085.77
667.32	1071.50
667.66	1073.14
668.01	1078.28
668.35	1074.07
668.69	1067.05
669.03	1073.37
669.37	1066.35
669.71	1055.82
670.05	1061.90
670.39	1071.73
670.73	1083.67
671.07	1091.63
671.41	1089.75
671.75	1089.52
672.09	1079.69
672.43	1070.33
672.77	1064.94
673.11	1064.01
673.45	1065.88
673.79	1074.54
674.13	1078.05
674.47	1087.18
674.81	1095.37
675.15	1086.01
675.49	1093.97
675.83	1094.20
676.17	1091.63
676.51	1086.48
676.85	1092.09
677.19	1082.73
677.53	1078.75
677.87	1068.92
678.21	1068.45
678.55	1071.50
678.89	1068.45
679.23	1071.26
679.57	1081.80
679.90	1086.01
680.24	1083.20
680.58	1080.39
680.92	1077.35
681.26	1074.31
681.60	1072.67
681.94	1073.37
682.28	1073.14
682.62	1072.43
682.96	1072.20
683.29	1071.97
683.63	1073.37
683.97	1076.18
684.31	1088.35
684.65	1079.22
684.99	1069.86
685.33	1062.84
685.67	1069.86
686.00	1063.07
686.34	1074.77
686.68	1091.39
687.02	1093.50
687.36	1088.58
687.70	1086.24
688.03	1083.90
688.37	1070.09
688.71	1061.90
689.05	1052.54
689.39	1051.37
689.72	1053.48
690.06	1066.11
690.40	1081.33
690.74	1095.84
691.08	1097.95
691.41	1105.90
691.75	1090.46
692.09	1080.16
692.43	1078.99
692.76	1079.46
693.10	1069.39
693.44	1080.16
693.78	1086.24
694.11	1062.37
694.45	1067.99
694.79	1067.52
695.13	1062.84
695.46	1074.31
695.80	1084.60
696.14	1079.69
696.48	1083.43
696.81	1082.26
697.15	1077.82
697.49	1088.82
697.82	1084.14
698.16	1078.99
698.50	1082.97
698.83	1069.62
699.17	1060.03
699.51	1066.58
699.84	1065.65
700.18	1064.71
700.52	1067.99
700.85	1073.14
701.19	1068.22
701.53	1075.71
701.86	1073.60
702.20	1078.05
702.54	1070.80
702.87	1076.65
703.21	1061.90
703.55	1074.77
703.88	1075.01
704.22	1091.16
704.55	1086.24
704.89	1105.67
705.23	1097.24
705.56	1095.37
705.90	1100.99
706.23	1101.92
706.57	1103.56
706.91	1098.65
707.24	1098.41
707.58	1092.56
707.91	1091.16
708.25	1082.97
708.58	1088.12
708.92	1078.99
709.26	1067.28
709.59	1063.77
709.93	1063.54
710.26	1066.35
710.60	1075.48
710.93	1082.97
711.27	1086.01
711.60	1090.92
711.94	1082.50
712.27	1084.60
712.61	1078.52
712.94	1081.09
713.28	1080.39
713.61	1084.14
713.95	1082.73
714.28	1094.90
714.62	1090.46
714.95	1082.97
715.29	1088.12
715.62	1088.82
715.96	1081.80
716.29	1087.18
716.63	1078.75
716.96	1073.37
717.29	1081.56
717.63	1084.60
717.96	1079.92
718.30	1098.41
718.63	1097.01
718.97	1091.86
719.30	1089.52
719.63	1096.78
719.97	1084.84
720.30	1084.60
720.64	1083.67
720.97	1078.52
721.30	1072.20
721.64	1072.43
721.97	1075.24
722.31	1069.16
722.64	1071.26
722.97	1071.73
723.31	1079.92
723.64	1077.58
723.97	1086.71
724.31	1083.67
724.64	1083.20
724.98	1076.88
725.31	1079.46
725.64	1083.67
725.98	1080.63
726.31	1080.16
726.64	1084.37
726.97	1086.48
727.31	1079.69
727.64	1089.52
727.97	1093.03
728.31	1091.39
728.64	1083.90
728.97	1081.56
729.31	1076.41
729.64	1077.11
729.97	1072.43
730.30	1072.67
730.64	1074.31
730.97	1080.16
731.30	1079.22
731.63	1088.82
731.97	1098.65
732.30	1097.71
732.63	1098.18
732.96	1099.82
733.30	1095.37
733.63	1093.26
733.96	1089.05
734.29	1086.71
734.63	1092.80
734.96	1094.20
735.29	1095.14
735.62	1094.90
735.95	1090.46
736.29	1074.07
736.62	1079.22
736.95	1081.56
737.28	1084.14
737.61	1088.12
737.94	1100.05
738.28	1092.56
738.61	1088.12
738.94	1080.63
739.27	1077.35
739.60	1075.94
739.93	1065.41
740.27	1072.43
740.60	1081.33
740.93	1085.54
741.26	1074.77
741.59	1078.99
741.92	1063.54
742.25	1063.77
742.58	1062.60
742.91	1079.92
743.25	1088.35
743.58	1098.88
743.91	1096.31
744.24	1095.14
744.57	1081.80
744.90	1076.41
745.23	1081.56
745.56	1075.71
745.89	1074.77
746.22	1080.63
746.55	1078.99
746.88	1066.82
747.21	1071.97
747.54	1067.52
747.87	1064.71
748.20	1067.28
748.53	1065.41
748.87	1062.84
749.20	1064.71
749.53	1063.31
749.86	1056.75
750.19	1061.90
750.52	1060.50
750.85	1063.54
751.18	1069.62
751.51	1067.52
751.84	1067.52
752.16	1073.37
752.49	1077.11
752.82	1076.88
753.15	1085.07
753.48	1093.73
753.81	1102.86
754.14	1098.41
754.47	1096.31
754.80	1092.56
755.13	1083.43
755.46	1077.58
755.79	1084.60
756.12	1084.60
756.45	1093.03
756.78	1093.73
757.11	1096.78
757.43	1091.63
757.76	1093.97
758.09	1089.05
758.42	1085.07
758.75	1073.60
759.08	1077.11
759.41	1078.28
759.74	1082.73
760.07	1094.20
760.39	1103.09
760.72	1088.82
761.05	1090.22
761.38	1099.58
761.71	1096.07
762.04	1101.92
762.36	1112.69
762.69	1108.95
763.02	1097.48
763.35	1091.63
763.68	1078.75
764.01	1077.58
764.33	1074.54
764.66	1079.22
764.99	1077.58
765.32	1069.86
765.65	1071.03
765.97	1061.20
766.30	1051.84
766.63	1052.07
766.96	1059.56
767.28	1039.90
767.61	1049.26
767.94	1056.05
768.27	1060.73
768.59	1061.90
768.92	1082.97
769.25	1087.65
769.58	1088.35
769.90	1086.01
770.23	1087.18
770.56	1090.46
770.89	1089.75
771.21	1098.41
771.54	1106.14
771.87	1114.10
772.19	1100.75
772.52	1100.99
772.85	1090.92
773.17	1078.28
773.50	1067.28
773.83	1074.07
774.15	1072.90
774.48	1080.16
774.81	1087.88
775.13	1089.05
775.46	1089.99
775.79	1099.12
776.11	1086.48
776.44	1075.48
776.77	1072.90
777.09	1064.94
777.42	1061.43
777.74	1059.56
778.07	1066.58
778.40	1069.39
778.72	1076.88
779.05	1062.60
779.37	1057.92
779.70	1056.99
780.03	1052.30
780.35	1048.56
780.68	1044.11
781.00	1056.05
781.33	1054.88
781.65	1056.75
781.98	1050.20
782.31	1068.45
782.63	1069.86
782.96	1077.35
783.28	1084.37
783.61	1097.48
783.93	1089.52
784.26	1093.26
784.58	1094.90
784.91	1082.50
785.23	1080.86
785.56	1092.09
785.88	1088.58
786.21	1083.20
786.53	1092.80
786.86	1100.52
787.18	1087.18
787.51	1081.09
787.83	1078.05
788.16	1077.11
788.48	1062.14
788.81	1064.01
789.13	1068.22
789.46	1078.05
789.78	1085.31
790.10	1081.33
790.43	1093.03
790.75	1092.56
791.08	1086.24
791.40	1073.14
791.73	1088.58
792.05	1088.12
792.37	1082.73
792.70	1081.09
793.02	1088.35
793.35	1088.58
793.67	1084.14
793.99	1089.05
794.32	1092.80
794.64	1105.20
794.96	1101.69
795.29	1097.01
795.61	1094.67
795.93	1088.35
796.26	1074.77
796.58	1074.54
796.91	1080.63
797.23	1089.99
797.55	1096.31
797.87	1096.54
798.20	1097.01
798.52	1092.56
798.84	1092.09
799.17	1091.86
799.49	1081.56
799.81	1069.16
800.14	1077.35
800.46	1074.31
800.78	1076.18
801.10	1085.54
801.43	1092.33
801.75	1089.05
802.07	1079.92
802.40	1084.37
802.72	1087.41
803.04	1085.31
803.36	1075.94
803.69	1090.92
804.01	1078.52
804.33	1086.48
804.65	1088.12
804.97	1089.52
805.30	1086.48
805.62	1084.84
805.94	1076.65
806.26	1085.77
806.58	1089.75
806.91	1085.54
807.23	1088.58
807.55	1082.26
807.87	1079.22
808.19	1078.75
808.52	1075.24
808.84	1075.94
809.16	1082.03
809.48	1077.82
809.80	1073.84
810.12	1075.24
810.44	1081.33
810.77	1082.50
811.09	1081.09
811.41	1090.22
811.73	1092.33
812.05	1080.16
812.37	1079.69
812.69	1081.80
813.01	1078.75
813.33	1083.20
813.66	1097.95
813.98	1096.54
814.30	1098.41
814.62	1092.09
814.94	1079.22
815.26	1070.09
815.58	1079.92
815.90	1066.35
816.22	1069.62
816.54	1083.43
816.86	1087.88
817.18	1086.71
817.50	1106.61
817.82	1107.78
818.14	1095.84
818.46	1082.50
818.78	1073.14
819.10	1061.67
819.42	1059.09
819.74	1064.48
820.06	1077.82
820.38	1074.31
820.70	1078.99
821.02	1087.65
821.34	1091.39
821.66	1087.41
821.98	1083.43
822.30	1087.65
822.62	1087.88
822.94	1084.14
823.26	1084.14
823.58	1089.05
823.90	1084.84
824.22	1080.86
824.54	1083.43
824.86	1093.97
825.18	1090.69
825.50	1088.82
825.81	1086.94
826.13	1089.75
826.45	1087.41
826.77	1101.46
827.09	1110.58
827.41	1106.61
827.73	1093.73
828.05	1084.84
828.36	1073.60
828.68	1072.43
829.00	1067.75
829.32	1081.09
829.64	1088.35
829.96	1092.56
830.28	1090.46
830.59	1096.54
830.91	1090.22
831.23	1082.50
831.55	1081.33
831.87	1072.20
832.19	1075.71
832.50	1078.28
832.82	1082.03
833.14	1081.80
833.46	1086.94
833.78	1086.94
834.09	1082.73
834.41	1077.82
834.73	1077.82
835.05	1068.92
835.36	1063.77
835.68	1061.90
836.00	1067.75
836.32	1069.16
836.63	1075.24
836.95	1076.88
837.27	1086.48
837.59	1084.37
837.90	1086.48
838.22	1090.22
838.54	1088.35
838.85	1082.26
839.17	1074.54
839.49	1079.92
839.80	1077.35
840.12	1078.28
840.44	1072.67
840.76	1089.75
841.07	1086.48
841.39	1083.43
841.71	1079.22
842.02	1090.46
842.34	1075.24
842.65	1078.99
842.97	1079.92
843.29	1096.07
843.60	1095.37
843.92	1099.82
844.24	1088.58
844.55	1092.09
844.87	1078.75
845.18	1078.28
845.50	1082.97
845.82	1083.20
846.13	1080.86
846.45	1090.22
846.76	1088.58
847.08	1085.54
847.40	1095.37
847.71	1090.92
848.03	1092.56
848.34	1091.16
848.66	1092.33
848.97	1086.48
849.29	1093.03
849.60	1086.94
849.92	1088.82
850.24	1085.31
850.55	1089.29
850.87	1083.43
851.18	1071.03
851.50	1058.62
851.81	1060.26
852.13	1058.39
852.44	1069.16
852.76	1082.26
853.07	1086.24
853.39	1087.65
853.70	1082.50
854.01	1070.09
854.33	1068.22
854.64	1072.20
854.96	1069.16
855.27	1074.54
855.59	1080.63
855.90	1080.63
856.22	1083.67
856.53	1085.31
856.84	1075.01
857.16	1068.45
857.47	1059.56
857.79	1058.62
858.10	1056.75
858.41	1067.05
858.73	1069.86
859.04	1081.56
859.36	1078.99
859.67	1078.28
859.98	1074.54
860.30	1080.63
860.61	1074.54
860.92	1070.56
861.24	1070.80
861.55	1066.82
861.87	1065.88
862.18	1073.37
862.49	1074.54
862.81	1074.77
863.12	1080.39
863.43	1077.82
863.74	1065.41
864.06	1074.31
864.37	1074.07
864.68	1073.37
865.00	1067.05
865.31	1073.14
865.62	1061.20
865.94	1075.24
866.25	1071.50
866.56	1080.86
866.87	1089.52
867.19	1096.31
867.50	1092.09
867.81	1094.90
868.12	1092.33
868.44	1081.09
868.75	1080.63
869.06	1075.24
869.37	1075.24
869.68	1086.24
870.00	1093.26
870.31	1091.63
870.62	1092.80
870.93	1091.39
871.24	1085.07
871.56	1079.22
871.87	1072.67
872.18	1080.16
872.49	1076.41
872.80	1070.09
873.12	1064.94
873.43	1075.94
873.74	1065.88
874.05	1071.03
874.36	1068.22
874.67	1068.22
874.98	1065.65
875.29	1066.58
875.61	1070.56
875.92	1071.26
876.23	1076.88
876.54	1085.77
876.85	1086.01
877.16	1082.03
877.47	1086.01
877.78	1085.77
878.09	1083.90
878.40	1087.88
878.72	1088.58
879.03	1089.52
879.34	1084.14
879.65	1078.28
879.96	1071.50
880.27	1075.24
880.58	1074.77
880.89	1078.99
881.20	1079.22
881.51	1080.86
881.82	1079.22
882.13	1078.75
882.44	1080.86
882.75	1077.11
883.06	1081.80
883.37	1086.01
883.68	1090.22
883.99	1088.82
884.30	1100.99
884.61	1097.95
884.92	1094.67
885.23	1091.16
885.54	1099.12
885.85	1089.29
886.16	1083.20
886.47	1076.18
886.78	1076.41
887.08	1073.60
887.39	1074.31
887.70	1086.94
888.01	1100.52
888.32	1102.63
888.63	1103.33
888.94	1104.03
889.25	1099.58
889.56	1094.20
889.87	1089.29
890.17	1084.14
890.48	1080.16
890.79	1078.75
891.10	1085.07
891.41	1095.60
891.72	1088.12
892.03	1090.69
892.34	1080.16
892.64	1071.03
892.95	1062.84
893.26	1065.88
893.57	1064.71
893.88	1075.01
894.18	1077.35
894.49	1079.92
894.80	1078.99
895.11	1080.86
895.42	1077.58
895.72	1081.33
896.03	1077.82
896.34	1082.97
896.65	1079.69
896.96	1086.94
897.26	1080.86
897.57	1086.71
897.88	1089.29
898.19	1088.35
898.49	1082.97
898.80	1081.09
899.11	1079.92
899.41	1076.41
899.72	1088.58
900.03	1082.26
900.34	1078.28
900.64	1068.22
900.95	1067.99
901.26	1065.88
901.56	1073.84
901.87	1084.84
902.18	1086.71
902.48	1090.69
902.79	1078.52
903.10	1070.33
903.40	1071.50
903.71	1076.18
904.02	1066.58
904.32	1067.75
904.63	1058.62
904.94	1058.16
905.24	1060.50
905.55	1066.58
905.85	1065.65
906.16	1079.69
906.47	1078.75
906.77	1078.52
907.08	1081.09
907.38	1089.75
907.69	1093.73
908.00	1083.90
908.30	1083.90
908.61	1075.94
908.91	1073.14
909.22	1074.77
909.52	1082.97
909.83	1087.65
910.14	1092.33
910.44	1088.82
910.75	1085.54
911.05	1072.67
911.36	1064.24
911.66	1069.86
911.97	1069.86
912.27	1078.75
912.58	1082.97
912.88	1086.94
913.19	1088.82
913.49	1090.69
913.80	1083.67
914.10	1088.58
914.41	1084.84
914.71	1085.77
915.01	1080.39
915.32	1078.28
915.62	1073.14
915.93	1075.94
916.23	1074.31
916.54	1076.18
916.84	1073.60
917.15	1078.75
917.45	1075.24
917.75	1069.39
918.06	1069.86
918.36	1070.09
918.67	1069.16
918.97	1062.84
919.27	1060.96
919.58	1070.33
919.88	1084.14
920.18	1077.58
920.49	1090.22
920.79	1089.05
921.10	1078.28
921.40	1056.99
921.70	1055.82
922.01	1044.35
922.31	1059.33
922.61	1061.90
922.92	1069.86
923.22	1072.90
923.52	1077.58
923.82	1070.33
924.13	1077.11
924.43	1070.80
924.73	1063.54
925.04	1079.46
925.34	1085.07
925.64	1077.82
925.94	1085.77
926.25	1094.67
926.55	1083.67
926.85	1076.18
927.15	1084.60
927.46	1085.77
927.76	1087.41
928.06	1081.56
928.36	1071.03
928.67	1061.90
928.97	1064.48
929.27	1062.60
929.57	1071.26
929.87	1072.90
930.18	1085.54
930.48	1081.33
930.78	1089.75
931.08	1089.05
931.38	1098.88
931.69	1090.92
931.99	1093.50
932.29	1090.22
932.59	1084.37
932.89	1084.84
933.19	1093.03
933.49	1086.48
933.80	1088.58
934.10	1089.99
934.40	1089.29
934.70	1074.31
935.00	1074.54
935.30	1067.75
935.60	1059.79
935.90	1054.88
936.20	1063.77
936.50	1067.05
936.81	1070.33
937.11	1076.18
937.41	1080.86
937.71	1078.05
938.01	1078.75
938.31	1080.86
938.61	1073.60
938.91	1073.14
939.21	1072.20
939.51	1065.18
939.81	1055.82
940.11	1071.50
940.41	1067.28
940.71	1067.28
941.01	1071.50
941.31	1082.03
941.61	1084.60
941.91	1087.88
942.21	1086.48
942.51	1085.77
942.81	1083.67
943.11	1075.48
943.41	1074.31
943.71	1072.20
944.01	1073.60
944.31	1068.22
944.61	1060.73
944.90	1062.37
945.20	1061.20
945.50	1060.03
945.80	1064.24
946.10	1066.58
946.40	1063.07
946.70	1072.90
947.00	1069.86
947.30	1069.16
947.60	1072.20
947.89	1065.18
948.19	1057.45
948.49	1058.16
948.79	1055.58
949.09	1052.07
949.39	1062.84
949.69	1067.99
949.98	1066.11
950.28	1065.18
950.58	1073.84
950.88	1069.62
951.18	1065.65
951.48	1076.18
951.77	1078.99
952.07	1075.48
952.37	1080.39
952.67	1084.84
952.97	1073.14
953.26	1074.54
953.56	1070.80
953.86	1077.11
954.16	1067.05
954.45	1073.37
954.75	1074.77
955.05	1080.63
955.35	1076.65
955.64	1079.22
955.94	1078.99
956.24	1082.03
956.54	1080.86
956.83	1077.58
957.13	1082.73
957.43	1082.26
957.72	1075.24
958.02	1070.80
958.32	1062.60
958.61	1062.60
958.91	1059.56
959.21	1065.88
959.50	1065.41
959.80	1087.88
960.10	1082.03
960.39	1087.41
960.69	1082.97
960.99	1087.88
961.28	1062.14
961.58	1068.92
961.87	1059.79
962.17	1052.54
962.47	1057.45
962.76	1078.05
963.06	1082.97
963.36	1099.58
963.65	1097.71
963.95	1087.18
964.24	1075.94
964.54	1066.58
964.83	1061.20
965.13	1066.35
965.42	1074.54
965.72	1070.33
966.02	1082.26
966.31	1080.86
966.61	1083.43
966.90	1074.77
967.20	1086.48
967.49	1071.73
967.79	1075.24
968.08	1079.46
968.38	1091.86
968.67	1085.07
968.97	1093.73
969.26	1087.88
969.56	1083.90
969.85	1081.09
970.15	1083.90
970.44	1087.18
970.74	1086.48
971.03	1083.20
971.32	1081.09
971.62	1076.88
971.91	1075.48
972.21	1070.09
972.50	1073.84
972.80	1070.09
973.09	1073.37
973.38	1073.60
973.68	1079.69
973.97	1078.28
974.27	1083.90
974.56	1091.86
974.85	1078.99
975.15	1078.05
975.44	1083.20
975.73	1084.84
976.03	1072.43
976.32	1078.05
976.61	1076.88
976.91	1072.67
977.20	1066.11
977.49	1077.35
977.79	1080.16
978.08	1081.09
978.37	1085.31
978.67	1078.28
978.96	1067.28
979.25	1066.11
979.55	1066.11
979.84	1064.48
980.13	1073.84
980.42	1083.67
980.72	1085.54
981.01	1093.26
981.30	1089.99
981.59	1087.88
981.89	1081.56
982.18	1085.77
982.47	1086.71
982.76	1087.88
983.06	1100.75
983.35	1100.05
983.64	1092.09
983.93	1078.99
984.22	1086.71
984.52	1067.99
984.81	1069.86
985.10	1075.24
985.39	1082.50
985.68	1078.75
985.97	1096.54
986.27	1090.92
986.56	1094.90
986.85	1095.60
987.14	1093.26
987.43	1082.50
987.72	1078.52
988.01	1075.71
988.31	1064.48
988.60	1066.58
988.89	1066.58
989.18	1078.75
989.47	1077.82
989.76	1083.90
990.05	1085.31
990.34	1093.73
990.63	1096.31
990.92	1098.65
991.21	1101.22
991.51	1104.97
991.80	1097.71
992.09	1096.54
992.38	1094.43
992.67	1088.12
992.96	1075.01
993.25	1069.16
993.54	1060.73
993.83	1070.56
994.12	1082.73
994.41	1078.28
994.70	1076.88
994.99	1078.99
995.28	1071.50
995.57	1072.43
995.86	1075.48
996.15	1085.77
996.44	1093.97
996.73	1087.18
997.02	1079.92
997.31	1082.03
997.59	1071.03
997.88	1064.24
998.17	1064.71
998.46	1060.96
998.75	1062.37
999.04	1067.52
999.33	1071.50
999.62	1075.48
999.91	1090.92
1000.20	1095.37
1000.49	1091.63
1000.77	1089.52
1001.06	1093.97
1001.35	1088.12
1001.64	1089.29
1001.93	1094.90
1002.22	1098.18
1002.51	1088.82
1002.79	1085.77
1003.08	1087.65
1003.37	1086.71
1003.66	1077.35
1003.95	1080.16
1004.23	1074.31
1004.52	1068.69
1004.81	1064.48
1005.10	1060.26
1005.39	1058.62
1005.67	1064.01
1005.96	1067.28
1006.25	1075.71
1006.54	1088.35
1006.83	1082.03
1007.11	1075.94
1007.40	1075.71
1007.69	1066.82
1007.97	1071.03
1008.26	1075.48
1008.55	1089.52
1008.84	1085.07
1009.12	1075.94
1009.41	1064.48
1009.70	1061.90
1009.98	1048.79
1010.27	1050.43
1010.56	1064.94
1010.85	1067.75
1011.13	1073.60
1011.42	1071.73
1011.71	1077.11
1011.99	1078.52
1012.28	1084.37
1012.56	1088.35
1012.85	1096.07
1013.14	1092.09
1013.42	1092.80
1013.71	1094.20
1014.00	1082.73
1014.28	1089.05
1014.57	1084.84
1014.85	1090.46
1015.14	1080.86
1015.43	1079.92
1015.71	1074.31
1016.00	1078.99
1016.28	1073.14
1016.57	1071.26
1016.85	1080.86
1017.14	1073.60
1017.43	1076.41
1017.71	1079.22
1018.00	1085.07
1018.28	1078.05
1018.57	1083.43
1018.85	1087.18
1019.14	1086.24
1019.42	1084.14
1019.71	1087.18
1019.99	1081.33
1020.28	1065.88
1020.56	1066.35
1020.85	1062.14
1021.13	1059.79
1021.42	1067.28
1021.70	1073.37
1021.99	1074.07
1022.27	1074.54
1022.55	1105.90
1022.84	1055.58
>>>>>End Processed Spectral Data<<<<<
