SpectraSuite Data File
++++++++++++++++++++++++++++++++++++
Date: Mon Aug 26 10:25:48 PDT 2019
User: corrico
Dark Spectrum Present: No
Reference Spectrum Present: No
Number of Sampled Component Spectra: 1
Spectrometers: USB2+H06089
Integration Time (usec): 10000 (USB2+H06089)
Spectra Averaged: 2 (USB2+H06089)
Boxcar Smoothing: 2 (USB2+H06089)
Correct for Electrical Dark: No (USB2+H06089)
Strobe/Lamp Enabled: No (USB2+H06089)
Correct for Detector Non-linearity: No (USB2+H06089)
Correct for Stray Light: No (USB2+H06089)
Number of Pixels in Processed Spectrum: 2048
>>>>>Begin Processed Spectral Data<<<<<
339.70	1064.94
340.07	1064.94
340.45	1018.37
340.82	990.98
341.19	961.96
341.57	927.55
341.94	922.41
342.31	906.26
342.69	899.94
343.06	899.47
343.43	906.96
343.81	902.98
344.18	914.45
344.55	922.64
344.93	921.94
345.30	933.17
345.67	943.00
346.04	941.13
346.42	945.34
346.79	959.39
347.16	961.73
347.54	966.41
347.91	979.28
348.28	983.73
348.65	990.28
349.03	995.43
349.40	1010.18
349.77	1014.62
350.14	1029.60
350.52	1034.28
350.89	1048.56
351.26	1053.48
351.63	1057.92
352.01	1058.39
352.38	1056.99
352.75	1045.52
353.12	1045.28
353.50	1050.67
353.87	1054.65
354.24	1066.35
354.61	1075.24
354.98	1079.92
355.36	1090.22
355.73	1091.39
356.10	1094.20
356.47	1099.35
356.84	1101.46
357.22	1094.20
357.59	1097.01
357.96	1080.16
358.33	1077.35
358.70	1073.84
359.08	1077.35
359.45	1069.39
359.82	1080.16
360.19	1074.31
360.56	1074.77
360.94	1072.20
361.31	1071.26
361.68	1068.69
362.05	1071.73
362.42	1061.90
362.79	1058.62
363.16	1067.28
363.54	1072.20
363.91	1073.14
364.28	1077.82
364.65	1075.01
365.02	1072.90
365.39	1067.99
365.76	1055.82
366.14	1067.99
366.51	1070.56
366.88	1063.31
367.25	1064.24
367.62	1077.58
367.99	1072.67
368.36	1064.71
368.73	1073.84
369.10	1069.86
369.48	1064.01
369.85	1056.28
370.22	1061.90
370.59	1057.69
370.96	1055.82
371.33	1056.28
371.70	1061.67
372.07	1068.22
372.44	1065.88
372.81	1077.58
373.18	1082.03
373.55	1071.97
373.93	1064.48
374.30	1064.24
374.67	1063.54
375.04	1058.62
375.41	1069.16
375.78	1068.69
376.15	1067.99
376.52	1068.22
376.89	1072.43
377.26	1069.62
377.63	1083.43
378.00	1093.50
378.37	1100.29
378.74	1096.54
379.11	1098.65
379.48	1093.50
379.85	1087.88
380.22	1072.43
380.59	1075.71
380.96	1074.31
381.33	1069.39
381.70	1068.69
382.07	1070.56
382.44	1067.05
382.81	1059.33
383.18	1053.24
383.55	1054.88
383.92	1050.43
384.29	1052.07
384.66	1062.37
385.03	1078.05
385.40	1082.26
385.77	1088.58
386.14	1102.63
386.51	1100.29
386.88	1093.26
387.25	1086.01
387.62	1088.35
387.99	1070.80
388.36	1064.01
388.73	1066.11
389.10	1062.14
389.46	1060.50
389.83	1061.67
390.20	1069.86
390.57	1070.56
390.94	1072.67
391.31	1073.14
391.68	1083.20
392.05	1093.50
392.42	1096.31
392.79	1095.84
393.16	1089.52
393.53	1087.18
393.89	1074.54
394.26	1063.54
394.63	1069.39
395.00	1077.58
395.37	1070.09
395.74	1073.37
396.11	1074.31
396.48	1084.14
396.84	1084.37
397.21	1090.22
397.58	1100.05
397.95	1103.80
398.32	1097.95
398.69	1093.50
399.06	1086.71
399.42	1078.52
399.79	1080.63
400.16	1065.65
400.53	1065.65
400.90	1068.69
401.27	1062.14
401.64	1060.96
402.00	1072.67
402.37	1072.90
402.74	1070.80
403.11	1078.52
403.48	1082.26
403.84	1081.33
404.21	1083.20
404.58	1089.05
404.95	1086.71
405.32	1083.90
405.68	1071.73
406.05	1071.26
406.42	1070.09
406.79	1062.37
407.16	1058.62
407.52	1054.65
407.89	1046.92
408.26	1041.07
408.63	1045.75
408.99	1047.39
409.36	1059.56
409.73	1065.88
410.10	1075.01
410.47	1066.58
410.83	1071.26
411.20	1071.97
411.57	1073.14
411.94	1066.35
412.30	1072.67
412.67	1066.11
413.04	1067.52
413.40	1066.58
413.77	1068.69
414.14	1073.60
414.51	1080.39
414.87	1086.71
415.24	1084.60
415.61	1082.50
415.97	1089.99
416.34	1091.16
416.71	1075.24
417.08	1073.37
417.44	1067.52
417.81	1055.82
418.18	1045.28
418.54	1056.75
418.91	1068.45
419.28	1072.90
419.64	1074.07
420.01	1075.01
420.38	1067.75
420.74	1049.26
421.11	1058.16
421.48	1051.84
421.84	1052.54
422.21	1056.99
422.58	1078.52
422.94	1069.86
423.31	1073.37
423.68	1077.11
424.04	1082.50
424.41	1067.52
424.77	1078.99
425.14	1091.86
425.51	1093.97
425.87	1089.52
426.24	1085.54
426.61	1076.41
426.97	1071.97
427.34	1067.05
427.70	1068.92
428.07	1080.63
428.44	1075.94
428.80	1065.18
429.17	1078.99
429.53	1078.28
429.90	1077.11
430.27	1085.07
430.63	1093.73
431.00	1075.01
431.36	1072.43
431.73	1069.62
432.09	1071.97
432.46	1065.88
432.83	1071.73
433.19	1071.03
433.56	1072.20
433.92	1071.73
434.29	1073.14
434.65	1075.48
435.02	1068.45
435.38	1067.05
435.75	1065.18
436.11	1069.86
436.48	1070.33
436.84	1080.86
437.21	1078.99
437.57	1074.07
437.94	1075.94
438.30	1078.75
438.67	1079.92
439.03	1089.05
439.40	1090.22
439.76	1085.31
440.13	1084.14
440.49	1081.33
440.86	1078.05
441.22	1075.71
441.59	1073.37
441.95	1067.28
442.32	1063.07
442.68	1054.41
443.05	1064.01
443.41	1072.90
443.78	1082.73
444.14	1090.69
444.51	1104.73
444.87	1091.16
445.24	1086.48
445.60	1082.97
445.96	1075.01
446.33	1066.11
446.69	1072.43
447.06	1076.65
447.42	1068.22
447.79	1070.56
448.15	1060.50
448.51	1071.03
448.88	1060.96
449.24	1068.69
449.61	1075.01
449.97	1086.24
450.33	1071.97
450.70	1073.84
451.06	1069.62
451.43	1064.71
451.79	1069.62
452.15	1071.97
452.52	1078.05
452.88	1093.26
453.24	1099.58
453.61	1087.88
453.97	1092.33
454.34	1084.60
454.70	1068.45
455.06	1061.43
455.43	1077.82
455.79	1075.48
456.15	1072.90
456.52	1082.97
456.88	1086.71
457.24	1083.67
457.61	1090.46
457.97	1104.03
458.33	1100.75
458.70	1090.92
459.06	1082.26
459.42	1069.39
459.79	1066.11
460.15	1063.31
460.51	1067.99
460.88	1068.92
461.24	1073.84
461.60	1072.90
461.96	1071.97
462.33	1082.26
462.69	1080.39
463.05	1079.22
463.42	1073.14
463.78	1061.43
464.14	1059.79
464.50	1065.88
464.87	1067.28
465.23	1071.97
465.59	1078.28
465.95	1069.16
466.32	1066.11
466.68	1070.09
467.04	1077.82
467.40	1092.80
467.77	1093.97
468.13	1095.60
468.49	1086.24
468.85	1078.28
469.22	1074.54
469.58	1077.82
469.94	1083.90
470.30	1091.86
470.66	1098.88
471.03	1100.29
471.39	1093.50
471.75	1086.71
472.11	1089.05
472.47	1082.03
472.84	1075.24
473.20	1078.99
473.56	1080.86
473.92	1077.58
474.28	1079.69
474.65	1079.92
475.01	1087.88
475.37	1090.46
475.73	1090.22
476.09	1094.43
476.45	1095.84
476.81	1081.33
477.18	1077.58
477.54	1086.48
477.90	1079.22
478.26	1074.07
478.62	1075.94
478.98	1078.75
479.34	1067.75
479.71	1067.99
480.07	1065.88
480.43	1073.60
480.79	1072.20
481.15	1080.39
481.51	1086.24
481.87	1090.46
482.23	1082.73
482.59	1078.75
482.96	1078.05
483.32	1070.09
483.68	1067.99
484.04	1070.80
484.40	1077.11
484.76	1069.86
485.12	1065.88
485.48	1070.80
485.84	1078.05
486.20	1073.37
486.56	1067.52
486.92	1078.28
487.28	1076.65
487.64	1068.69
488.00	1065.41
488.37	1074.31
488.73	1074.07
489.09	1073.60
489.45	1088.58
489.81	1089.29
490.17	1089.52
490.53	1082.26
490.89	1089.29
491.25	1081.80
491.61	1083.20
491.97	1078.28
492.33	1082.03
492.69	1084.14
493.05	1086.48
493.41	1090.69
493.77	1101.46
494.13	1104.26
494.49	1082.73
494.85	1078.05
495.21	1080.63
495.57	1078.05
495.93	1072.67
496.29	1084.60
496.64	1085.31
497.00	1080.39
497.36	1062.84
497.72	1066.82
498.08	1082.26
498.44	1085.07
498.80	1088.35
499.16	1108.24
499.52	1105.90
499.88	1089.99
500.24	1091.86
500.60	1076.88
500.96	1060.73
501.32	1065.41
501.68	1060.96
502.03	1048.79
502.39	1059.33
502.75	1070.80
503.11	1068.45
503.47	1070.80
503.83	1075.01
504.19	1079.46
504.55	1078.28
504.91	1072.90
505.26	1078.99
505.62	1082.73
505.98	1079.46
506.34	1076.65
506.70	1070.80
507.06	1070.33
507.42	1068.22
507.78	1068.22
508.13	1065.88
508.49	1071.73
508.85	1077.58
509.21	1085.54
509.57	1091.63
509.93	1098.88
510.28	1103.56
510.64	1100.29
511.00	1084.84
511.36	1078.05
511.72	1070.56
512.07	1068.92
512.43	1071.73
512.79	1082.50
513.15	1082.50
513.51	1079.46
513.86	1075.94
514.22	1065.88
514.58	1058.62
514.94	1069.39
515.30	1077.58
515.65	1080.16
516.01	1082.73
516.37	1081.80
516.73	1073.84
517.08	1075.01
517.44	1081.33
517.80	1074.07
518.16	1079.22
518.51	1076.41
518.87	1079.92
519.23	1071.50
519.59	1084.37
519.94	1087.18
520.30	1097.95
520.66	1089.05
521.01	1102.39
521.37	1095.14
521.73	1091.86
522.09	1085.07
522.44	1087.41
522.80	1080.16
523.16	1077.82
523.51	1079.92
523.87	1078.05
524.23	1080.39
524.58	1075.48
524.94	1076.88
525.30	1075.24
525.65	1075.94
526.01	1071.26
526.37	1071.97
526.72	1075.24
527.08	1085.54
527.44	1074.77
527.79	1081.56
528.15	1077.58
528.51	1083.90
528.86	1074.54
529.22	1085.54
529.58	1086.94
529.93	1084.84
530.29	1077.35
530.65	1079.69
531.00	1078.28
531.36	1079.92
531.71	1091.16
532.07	1092.56
532.43	1082.50
532.78	1088.35
533.14	1083.20
533.49	1074.31
533.85	1079.92
534.21	1100.29
534.56	1099.82
534.92	1090.69
535.27	1106.61
535.63	1097.01
535.98	1088.82
536.34	1081.80
536.69	1090.69
537.05	1083.20
537.41	1087.18
537.76	1082.26
538.12	1080.16
538.47	1081.56
538.83	1078.75
539.18	1065.65
539.54	1063.54
539.89	1075.24
540.25	1074.54
540.60	1063.31
540.96	1074.54
541.31	1077.11
541.67	1073.60
542.02	1076.18
542.38	1090.92
542.73	1082.50
543.09	1083.20
543.44	1081.56
543.80	1074.54
544.15	1078.05
544.51	1090.22
544.86	1093.50
545.22	1099.58
545.57	1106.14
545.93	1102.86
546.28	1100.29
546.64	1092.80
546.99	1082.73
547.35	1088.12
547.70	1080.86
548.05	1080.39
548.41	1080.63
548.76	1073.37
549.12	1059.56
549.47	1066.11
549.83	1060.03
550.18	1070.56
550.53	1069.39
550.89	1076.41
551.24	1076.88
551.60	1087.41
551.95	1078.75
552.30	1090.46
552.66	1085.31
553.01	1082.03
553.37	1078.99
553.72	1089.05
554.07	1085.54
554.43	1090.46
554.78	1087.65
555.13	1092.80
555.49	1086.24
555.84	1090.22
556.19	1086.48
556.55	1088.82
556.90	1081.56
557.26	1087.88
557.61	1082.50
557.96	1084.84
558.32	1080.16
558.67	1085.54
559.02	1064.48
559.37	1068.92
559.73	1062.60
560.08	1066.35
560.43	1065.88
560.79	1082.50
561.14	1075.94
561.49	1078.05
561.85	1082.97
562.20	1073.84
562.55	1066.11
562.90	1070.80
563.26	1077.58
563.61	1073.14
563.96	1075.24
564.32	1079.92
564.67	1078.28
565.02	1077.35
565.37	1073.60
565.73	1084.60
566.08	1082.26
566.43	1078.75
566.78	1075.01
567.14	1080.86
567.49	1078.75
567.84	1071.03
568.19	1072.20
568.54	1076.65
568.90	1077.82
569.25	1068.45
569.60	1078.75
569.95	1085.07
570.31	1088.58
570.66	1086.01
571.01	1084.14
571.36	1086.94
571.71	1084.60
572.06	1079.22
572.42	1083.43
572.77	1080.39
573.12	1078.05
573.47	1087.88
573.82	1086.48
574.18	1081.56
574.53	1091.63
574.88	1089.75
575.23	1087.65
575.58	1090.22
575.93	1094.90
576.28	1095.84
576.64	1094.43
576.99	1086.01
577.34	1087.41
577.69	1089.29
578.04	1083.20
578.39	1088.82
578.74	1096.07
579.09	1092.56
579.44	1085.31
579.80	1084.60
580.15	1074.31
580.50	1068.22
580.85	1063.54
581.20	1063.77
581.55	1069.62
581.90	1078.99
582.25	1084.84
582.60	1082.50
582.95	1085.07
583.30	1077.82
583.65	1073.14
584.00	1069.39
584.35	1073.60
584.71	1066.35
585.06	1070.56
585.41	1079.46
585.76	1076.88
586.11	1080.39
586.46	1091.86
586.81	1096.78
587.16	1081.56
587.51	1088.12
587.86	1095.37
588.21	1083.90
588.56	1076.65
588.91	1079.92
589.26	1064.01
589.61	1061.20
589.96	1069.16
590.31	1066.11
590.66	1073.84
591.01	1086.71
591.36	1087.18
591.71	1086.71
592.06	1090.69
592.41	1093.73
592.76	1077.35
593.10	1077.35
593.45	1076.65
593.80	1082.03
594.15	1077.11
594.50	1091.86
594.85	1091.16
595.20	1092.80
595.55	1085.77
595.90	1082.03
596.25	1081.80
596.60	1070.33
596.95	1067.05
597.30	1072.67
597.64	1124.16
597.99	1127.44
598.34	1136.33
598.69	1142.42
599.04	1134.46
599.39	1083.67
599.74	1072.90
600.09	1073.14
600.44	1070.09
600.78	1069.86
601.13	1072.90
601.48	1078.99
601.83	1082.26
602.18	1082.73
602.53	1085.77
602.88	1094.90
603.22	1092.56
603.57	1085.54
603.92	1077.82
604.27	1083.67
604.62	1074.31
604.97	1078.52
605.31	1076.65
605.66	1090.46
606.01	1096.78
606.36	1100.05
606.71	1099.82
607.05	1098.65
607.40	1092.56
607.75	1085.77
608.10	1079.46
608.44	1065.18
608.79	1071.50
609.14	1073.60
609.49	1076.65
609.84	1082.50
610.18	1092.33
610.53	1090.69
610.88	1091.63
611.23	1082.97
611.57	1087.18
611.92	1091.16
612.27	1095.14
612.62	1099.82
612.96	1109.41
613.31	1102.39
613.66	1102.39
614.00	1096.78
614.35	1086.48
614.70	1079.92
615.05	1087.18
615.39	1081.80
615.74	1089.05
616.09	1101.69
616.43	1111.52
616.78	1112.22
617.13	1116.67
617.47	1109.88
617.82	1098.65
618.17	1093.50
618.51	1078.75
618.86	1070.33
619.21	1068.45
619.55	1065.88
619.90	1056.75
620.25	1058.16
620.59	1059.79
620.94	1054.41
621.29	1052.77
621.63	1057.22
621.98	1053.71
622.32	1059.79
622.67	1066.11
623.02	1067.52
623.36	1065.18
623.71	1074.07
624.05	1081.80
624.40	1088.82
624.75	1091.39
625.09	1089.75
625.44	1096.78
625.78	1090.92
626.13	1092.33
626.48	1092.09
626.82	1093.73
627.17	1087.18
627.51	1081.80
627.86	1077.35
628.20	1080.86
628.55	1083.67
628.89	1083.43
629.24	1097.24
629.58	1096.78
629.93	1092.09
630.28	1095.84
630.62	1084.37
630.97	1076.18
631.31	1075.71
631.66	1072.90
632.00	1070.09
632.35	1074.07
632.69	1078.99
633.04	1074.77
633.38	1079.69
633.73	1077.82
634.07	1078.99
634.42	1074.31
634.76	1072.43
635.11	1070.80
635.45	1068.92
635.79	1062.60
636.14	1064.71
636.48	1069.62
636.83	1072.20
637.17	1070.09
637.52	1081.56
637.86	1080.16
638.21	1075.71
638.55	1063.07
638.89	1070.80
639.24	1068.45
639.58	1070.80
639.93	1079.46
640.27	1092.80
640.61	1097.01
640.96	1101.46
641.30	1094.43
641.65	1082.73
641.99	1083.20
642.33	1072.43
642.68	1072.20
643.02	1074.54
643.37	1092.09
643.71	1091.63
644.05	1096.78
644.40	1090.69
644.74	1095.14
645.08	1090.69
645.43	1095.37
645.77	1105.44
646.11	1110.58
646.46	1108.95
646.80	1100.75
647.14	1086.71
647.49	1079.46
647.83	1085.31
648.17	1074.31
648.52	1063.07
648.86	1061.43
649.20	1054.88
649.55	1050.90
649.89	1062.84
650.23	1076.88
650.57	1084.84
650.92	1084.37
651.26	1079.22
651.60	1075.01
651.95	1072.43
652.29	1075.01
652.63	1081.09
652.97	1087.88
653.32	1087.41
653.66	1098.88
654.00	1095.60
654.34	1096.07
654.69	1086.01
655.03	1089.75
655.37	1081.33
655.71	1084.37
656.05	1085.54
656.40	1102.63
656.74	1094.67
657.08	1097.48
657.42	1095.14
657.76	1086.94
658.11	1077.82
658.45	1079.69
658.79	1077.35
659.13	1082.50
659.47	1079.69
659.82	1077.35
660.16	1069.16
660.50	1061.67
660.84	1055.58
661.18	1058.62
661.52	1068.92
661.87	1079.46
662.21	1086.24
662.55	1082.26
662.89	1086.24
663.23	1080.86
663.57	1082.26
663.91	1083.67
664.25	1094.20
664.60	1094.90
664.94	1086.71
665.28	1082.73
665.62	1075.48
665.96	1069.39
666.30	1067.75
666.64	1068.45
666.98	1077.35
667.32	1085.54
667.66	1079.92
668.01	1081.09
668.35	1088.12
668.69	1082.50
669.03	1072.67
669.37	1085.07
669.71	1082.03
670.05	1076.18
670.39	1072.43
670.73	1086.94
671.07	1084.37
671.41	1091.16
671.75	1089.99
672.09	1096.31
672.43	1086.48
672.77	1092.33
673.11	1092.09
673.45	1096.07
673.79	1089.05
674.13	1094.20
674.47	1085.54
674.81	1079.92
675.15	1072.67
675.49	1082.50
675.83	1087.41
676.17	1092.33
676.51	1099.35
676.85	1098.88
677.19	1091.63
677.53	1083.90
677.87	1080.39
678.21	1076.88
678.55	1089.52
678.89	1088.35
679.23	1097.24
679.57	1086.71
679.90	1079.69
680.24	1077.82
680.58	1080.63
680.92	1069.62
681.26	1075.01
681.60	1081.80
681.94	1073.84
682.28	1077.11
682.62	1071.73
682.96	1070.33
683.29	1070.80
683.63	1077.35
683.97	1068.22
684.31	1073.84
684.65	1077.58
684.99	1071.97
685.33	1080.16
685.67	1080.63
686.00	1082.73
686.34	1083.20
686.68	1087.65
687.02	1083.20
687.36	1083.20
687.70	1079.69
688.03	1086.24
688.37	1081.56
688.71	1076.18
689.05	1082.26
689.39	1089.99
689.72	1086.71
690.06	1086.71
690.40	1087.88
690.74	1089.75
691.08	1081.09
691.41	1080.16
691.75	1079.22
692.09	1077.82
692.43	1076.88
692.76	1084.60
693.10	1086.94
693.44	1092.09
693.78	1095.37
694.11	1097.01
694.45	1100.52
694.79	1106.14
695.13	1101.92
695.46	1098.65
695.80	1088.12
696.14	1082.50
696.48	1075.01
696.81	1082.26
697.15	1079.22
697.49	1080.16
697.82	1080.16
698.16	1083.20
698.50	1081.56
698.83	1079.92
699.17	1090.46
699.51	1085.31
699.84	1080.63
700.18	1077.11
700.52	1075.48
700.85	1073.14
701.19	1081.33
701.53	1076.41
701.86	1080.39
702.20	1083.67
702.54	1081.80
702.87	1081.80
703.21	1088.58
703.55	1096.07
703.88	1089.75
704.22	1097.24
704.55	1089.29
704.89	1088.12
705.23	1083.43
705.56	1097.71
705.90	1088.35
706.23	1084.60
706.57	1085.54
706.91	1080.63
707.24	1071.26
707.58	1072.20
707.91	1078.52
708.25	1077.82
708.58	1076.88
708.92	1081.09
709.26	1079.69
709.59	1080.39
709.93	1075.01
710.26	1077.35
710.60	1083.43
710.93	1089.29
711.27	1097.95
711.60	1101.69
711.94	1104.97
712.27	1093.03
712.61	1087.18
712.94	1082.97
713.28	1088.12
713.61	1083.43
713.95	1085.07
714.28	1089.05
714.62	1080.86
714.95	1062.84
715.29	1063.77
715.62	1071.26
715.96	1077.82
716.29	1084.60
716.63	1092.80
716.96	1094.90
717.29	1091.63
717.63	1080.86
717.96	1068.22
718.30	1065.18
718.63	1070.09
718.97	1075.71
719.30	1074.77
719.63	1078.28
719.97	1077.35
720.30	1064.24
720.64	1053.94
720.97	1051.60
721.30	1064.71
721.64	1068.22
721.97	1071.73
722.31	1081.80
722.64	1091.86
722.97	1083.43
723.31	1082.26
723.64	1075.94
723.97	1076.18
724.31	1072.20
724.64	1069.39
724.98	1070.56
725.31	1074.54
725.64	1072.43
725.98	1070.33
726.31	1078.75
726.64	1091.63
726.97	1094.67
727.31	1085.54
727.64	1086.94
727.97	1075.24
728.31	1070.80
728.64	1080.86
728.97	1086.71
729.31	1086.71
729.64	1095.37
729.97	1090.69
730.30	1086.01
730.64	1092.56
730.97	1099.12
731.30	1102.16
731.63	1106.37
731.97	1097.71
732.30	1080.16
732.63	1069.16
732.96	1066.58
733.30	1068.22
733.63	1063.31
733.96	1073.14
734.29	1079.46
734.63	1077.58
734.96	1071.73
735.29	1081.56
735.62	1088.35
735.95	1091.16
736.29	1093.73
736.62	1096.54
736.95	1093.50
737.28	1091.63
737.61	1091.86
737.94	1081.09
738.28	1081.09
738.61	1083.20
738.94	1072.20
739.27	1057.45
739.60	1069.39
739.93	1064.71
740.27	1063.54
740.60	1063.07
740.93	1076.18
741.26	1079.69
741.59	1078.99
741.92	1079.46
742.25	1093.50
742.58	1089.99
742.91	1082.50
743.25	1088.58
743.58	1093.73
743.91	1077.35
744.24	1083.43
744.57	1081.80
744.90	1072.90
745.23	1069.86
745.56	1077.82
745.89	1076.65
746.22	1081.56
746.55	1086.01
746.88	1087.65
747.21	1086.94
747.54	1081.33
747.87	1077.82
748.20	1086.24
748.53	1093.50
748.87	1100.99
749.20	1099.58
749.53	1103.56
749.86	1095.37
750.19	1089.29
750.52	1075.01
750.85	1078.52
751.18	1066.35
751.51	1048.79
751.84	1039.67
752.16	1052.77
752.49	1057.92
752.82	1064.94
753.15	1077.35
753.48	1079.92
753.81	1079.69
754.14	1070.33
754.47	1072.67
754.80	1076.18
755.13	1077.11
755.46	1073.84
755.79	1090.46
756.12	1094.20
756.45	1100.05
756.78	1101.22
757.11	1098.18
757.43	1085.31
757.76	1079.69
758.09	1081.33
758.42	1079.92
758.75	1075.24
759.08	1075.48
759.41	1074.77
759.74	1073.84
760.07	1075.71
760.39	1083.90
760.72	1075.48
761.05	1068.22
761.38	1064.48
761.71	1053.71
762.04	1050.20
762.36	1052.54
762.69	1055.35
763.02	1059.33
763.35	1072.43
763.68	1072.20
764.01	1080.39
764.33	1090.46
764.66	1091.39
764.99	1087.18
765.32	1091.39
765.65	1080.16
765.97	1067.52
766.30	1059.56
766.63	1057.92
766.96	1053.94
767.28	1061.43
767.61	1071.26
767.94	1080.16
768.27	1084.14
768.59	1094.90
768.92	1095.84
769.25	1101.92
769.58	1097.01
769.90	1100.05
770.23	1082.73
770.56	1078.75
770.89	1065.88
771.21	1070.56
771.54	1068.69
771.87	1084.14
772.19	1087.65
772.52	1090.92
772.85	1087.41
773.17	1076.18
773.50	1068.45
773.83	1075.48
774.15	1078.99
774.48	1082.03
774.81	1090.92
775.13	1084.84
775.46	1060.50
775.79	1069.62
776.11	1064.71
776.44	1064.48
776.77	1069.39
777.09	1085.31
777.42	1079.22
777.74	1084.37
778.07	1081.09
778.40	1077.35
778.72	1082.03
779.05	1070.09
779.37	1065.65
779.70	1063.54
780.03	1069.16
780.35	1064.01
780.68	1072.20
781.00	1069.62
781.33	1068.22
781.65	1072.20
781.98	1066.58
782.31	1067.28
782.63	1067.28
782.96	1073.14
783.28	1064.01
783.61	1071.03
783.93	1073.37
784.26	1075.01
784.58	1071.97
784.91	1070.09
785.23	1064.94
785.56	1069.16
785.88	1067.52
786.21	1080.16
786.53	1086.71
786.86	1095.60
787.18	1083.90
787.51	1084.14
787.83	1075.94
788.16	1079.92
788.48	1071.26
788.81	1078.05
789.13	1085.31
789.46	1073.60
789.78	1073.14
790.10	1075.01
790.43	1074.54
790.75	1073.37
791.08	1082.97
791.40	1076.18
791.73	1084.37
792.05	1081.80
792.37	1082.26
792.70	1081.80
793.02	1078.52
793.35	1070.33
793.67	1071.03
793.99	1064.48
794.32	1066.58
794.64	1069.62
794.96	1077.11
795.29	1088.35
795.61	1090.92
795.93	1097.95
796.26	1106.37
796.58	1092.09
796.91	1073.37
797.23	1066.58
797.55	1060.73
797.87	1054.65
798.20	1061.43
798.52	1064.94
798.84	1070.33
799.17	1077.35
799.49	1075.01
799.81	1076.41
800.14	1081.09
800.46	1072.90
800.78	1063.07
801.10	1071.03
801.43	1086.01
801.75	1083.43
802.07	1094.43
802.40	1095.84
802.72	1085.07
803.04	1075.01
803.36	1073.37
803.69	1072.20
804.01	1078.99
804.33	1081.33
804.65	1080.86
804.97	1082.26
805.30	1087.88
805.62	1085.31
805.94	1094.43
806.26	1088.82
806.58	1087.41
806.91	1082.26
807.23	1070.80
807.55	1061.20
807.87	1060.50
808.19	1060.03
808.52	1061.67
808.84	1065.18
809.16	1068.92
809.48	1082.73
809.80	1089.29
810.12	1082.03
810.44	1082.50
810.77	1079.46
811.09	1068.69
811.41	1060.03
811.73	1053.94
812.05	1061.67
812.37	1069.62
812.69	1069.39
813.01	1072.43
813.33	1084.14
813.66	1082.26
813.98	1078.05
814.30	1086.01
814.62	1093.97
814.94	1090.46
815.26	1086.48
815.58	1093.97
815.90	1086.01
816.22	1081.33
816.54	1082.03
816.86	1082.97
817.18	1069.62
817.50	1071.50
817.82	1071.50
818.14	1062.37
818.46	1060.03
818.78	1059.33
819.10	1053.71
819.42	1051.84
819.74	1058.39
820.06	1060.50
820.38	1073.84
820.70	1074.07
821.02	1086.94
821.34	1101.92
821.66	1111.99
821.98	1102.63
822.30	1113.39
822.62	1099.35
822.94	1085.54
823.26	1080.63
823.58	1081.33
823.90	1065.18
824.22	1069.39
824.54	1069.39
824.86	1059.79
825.18	1068.69
825.50	1085.54
825.81	1088.35
826.13	1091.86
826.45	1097.01
826.77	1093.03
827.09	1087.41
827.41	1084.14
827.73	1084.60
828.05	1094.67
828.36	1088.35
828.68	1096.78
829.00	1102.86
829.32	1108.95
829.64	1097.71
829.96	1108.71
830.28	1099.35
830.59	1100.05
830.91	1090.69
831.23	1095.14
831.55	1084.60
831.87	1082.50
832.19	1071.50
832.50	1069.39
832.82	1069.86
833.14	1078.05
833.46	1086.24
833.78	1097.95
834.09	1104.03
834.41	1104.50
834.73	1103.33
835.05	1102.16
835.36	1089.99
835.68	1084.14
836.00	1076.65
836.32	1066.82
836.63	1058.86
836.95	1064.48
837.27	1078.99
837.59	1080.16
837.90	1083.43
838.22	1089.29
838.54	1093.50
838.85	1084.84
839.17	1086.48
839.49	1091.39
839.80	1088.82
840.12	1081.33
840.44	1084.37
840.76	1089.99
841.07	1082.97
841.39	1084.37
841.71	1096.78
842.02	1093.73
842.34	1092.56
842.65	1092.56
842.97	1096.31
843.29	1085.77
843.60	1080.86
843.92	1072.43
844.24	1084.14
844.55	1080.63
844.87	1081.80
845.18	1081.56
845.50	1086.24
845.82	1086.01
846.13	1092.09
846.45	1096.54
846.76	1099.58
847.08	1089.75
847.40	1086.24
847.71	1079.22
848.03	1083.20
848.34	1078.99
848.66	1086.94
848.97	1085.77
849.29	1087.41
849.60	1072.90
849.92	1064.94
850.24	1064.48
850.55	1065.65
850.87	1064.48
851.18	1063.07
851.50	1080.39
851.81	1075.94
852.13	1069.16
852.44	1066.35
852.76	1077.82
853.07	1078.52
853.39	1090.92
853.70	1097.71
854.01	1093.03
854.33	1085.54
854.64	1085.07
854.96	1087.41
855.27	1086.24
855.59	1093.26
855.90	1099.58
856.22	1097.95
856.53	1089.29
856.84	1086.24
857.16	1095.37
857.47	1090.69
857.79	1089.52
858.10	1087.65
858.41	1086.71
858.73	1086.24
859.04	1084.84
859.36	1074.77
859.67	1082.73
859.98	1087.88
860.30	1076.41
860.61	1075.94
860.92	1084.84
861.24	1091.39
861.55	1087.88
861.87	1093.50
862.18	1090.69
862.49	1086.24
862.81	1070.56
863.12	1071.26
863.43	1068.45
863.74	1069.62
864.06	1077.11
864.37	1067.52
864.68	1076.18
865.00	1067.75
865.31	1077.11
865.62	1073.14
865.94	1092.33
866.25	1082.97
866.56	1088.12
866.87	1081.56
867.19	1080.63
867.50	1087.41
867.81	1089.29
868.12	1091.63
868.44	1094.67
868.75	1088.12
869.06	1074.77
869.37	1069.62
869.68	1062.60
870.00	1057.69
870.31	1068.69
870.62	1064.71
870.93	1064.71
871.24	1074.54
871.56	1073.37
871.87	1058.16
872.18	1062.60
872.49	1061.43
872.80	1064.01
873.12	1069.16
873.43	1078.28
873.74	1064.94
874.05	1073.37
874.36	1067.75
874.67	1074.07
874.98	1067.99
875.29	1076.41
875.61	1068.45
875.92	1070.56
876.23	1072.20
876.54	1080.16
876.85	1090.22
877.16	1100.52
877.47	1106.14
877.78	1100.05
878.09	1097.01
878.40	1098.41
878.72	1099.12
879.03	1086.48
879.34	1076.65
879.65	1078.52
879.96	1079.92
880.27	1072.20
880.58	1078.28
880.89	1082.26
881.20	1085.31
881.51	1076.41
881.82	1076.41
882.13	1071.50
882.44	1073.37
882.75	1070.09
883.06	1079.69
883.37	1080.16
883.68	1083.20
883.99	1087.41
884.30	1085.31
884.61	1078.99
884.92	1089.29
885.23	1099.58
885.54	1088.58
885.85	1085.07
886.16	1083.67
886.47	1072.90
886.78	1064.24
887.08	1072.43
887.39	1087.18
887.70	1086.01
888.01	1090.46
888.32	1097.95
888.63	1106.84
888.94	1100.75
889.25	1100.75
889.56	1101.92
889.87	1092.56
890.17	1082.97
890.48	1073.14
890.79	1077.82
891.10	1065.41
891.41	1063.77
891.72	1069.39
892.03	1074.77
892.34	1074.07
892.64	1080.16
892.95	1081.56
893.26	1070.33
893.57	1076.65
893.88	1074.31
894.18	1075.48
894.49	1079.22
894.80	1085.31
895.11	1087.41
895.42	1082.97
895.72	1085.31
896.03	1078.75
896.34	1085.77
896.65	1077.82
896.96	1086.48
897.26	1088.35
897.57	1097.71
897.88	1088.82
898.19	1093.03
898.49	1094.43
898.80	1092.33
899.11	1094.20
899.41	1107.31
899.72	1101.46
900.03	1095.84
900.34	1092.56
900.64	1074.31
900.95	1067.52
901.26	1075.24
901.56	1075.94
901.87	1078.75
902.18	1090.22
902.48	1086.71
902.79	1072.90
903.10	1070.09
903.40	1071.50
903.71	1069.39
904.02	1066.35
904.32	1080.39
904.63	1083.90
904.94	1091.16
905.24	1094.90
905.55	1100.99
905.85	1093.03
906.16	1088.58
906.47	1084.14
906.77	1083.67
907.08	1078.05
907.38	1078.75
907.69	1086.24
908.00	1073.14
908.30	1069.62
908.61	1074.77
908.91	1078.99
909.22	1071.03
909.52	1079.46
909.83	1080.86
910.14	1080.63
910.44	1078.52
910.75	1075.71
911.05	1078.05
911.36	1079.69
911.66	1080.39
911.97	1087.18
912.27	1093.97
912.58	1089.99
912.88	1080.16
913.19	1069.62
913.49	1059.56
913.80	1068.22
914.10	1061.43
914.41	1073.14
914.71	1082.03
915.01	1083.90
915.32	1077.82
915.62	1081.33
915.93	1084.14
916.23	1085.77
916.54	1087.18
916.84	1084.60
917.15	1084.84
917.45	1090.92
917.75	1081.56
918.06	1090.22
918.36	1092.33
918.67	1105.90
918.97	1081.56
919.27	1082.26
919.58	1075.24
919.88	1077.58
920.18	1068.45
920.49	1072.90
920.79	1074.54
921.10	1071.73
921.40	1067.75
921.70	1075.71
922.01	1077.82
922.31	1082.26
922.61	1082.26
922.92	1079.69
923.22	1075.94
923.52	1085.07
923.82	1088.12
924.13	1099.12
924.43	1108.71
924.73	1110.35
925.04	1115.27
925.34	1109.65
925.64	1109.65
925.94	1107.54
926.25	1098.88
926.55	1085.54
926.85	1086.71
927.15	1065.65
927.46	1057.45
927.76	1065.41
928.06	1076.18
928.36	1073.60
928.67	1085.07
928.97	1078.05
929.27	1069.39
929.57	1062.14
929.87	1074.77
930.18	1067.52
930.48	1082.50
930.78	1075.24
931.08	1070.09
931.38	1062.14
931.69	1061.43
931.99	1056.52
932.29	1061.43
932.59	1078.75
932.89	1076.88
933.19	1083.67
933.49	1084.84
933.80	1091.16
934.10	1076.88
934.40	1083.67
934.70	1082.73
935.00	1080.39
935.30	1080.39
935.60	1091.63
935.90	1089.05
936.20	1098.41
936.50	1096.78
936.81	1090.46
937.11	1082.26
937.41	1082.26
937.71	1070.80
938.01	1078.05
938.31	1092.56
938.61	1094.20
938.91	1088.58
939.21	1106.37
939.51	1107.07
939.81	1107.31
940.11	1107.07
940.41	1110.58
940.71	1097.71
941.01	1093.73
941.31	1084.37
941.61	1077.58
941.91	1082.03
942.21	1077.82
942.51	1075.94
942.81	1084.60
943.11	1092.33
943.41	1080.63
943.71	1089.52
944.01	1091.16
944.31	1085.07
944.61	1081.80
944.90	1091.16
945.20	1093.97
945.50	1095.84
945.80	1098.41
946.10	1113.39
946.40	1106.14
946.70	1096.54
947.00	1079.92
947.30	1079.92
947.60	1066.58
947.89	1066.11
948.19	1072.20
948.49	1082.50
948.79	1070.09
949.09	1067.75
949.39	1071.26
949.69	1062.37
949.98	1068.22
950.28	1083.20
950.58	1080.63
950.88	1080.39
951.18	1086.94
951.48	1082.03
951.77	1073.84
952.07	1073.60
952.37	1072.67
952.67	1072.90
952.97	1079.92
953.26	1071.03
953.56	1082.03
953.86	1081.80
954.16	1077.58
954.45	1068.92
954.75	1076.88
955.05	1071.26
955.35	1067.75
955.64	1074.31
955.94	1074.31
956.24	1075.48
956.54	1066.82
956.83	1064.94
957.13	1064.48
957.43	1072.90
957.72	1078.75
958.02	1086.24
958.32	1096.78
958.61	1100.99
958.91	1102.63
959.21	1102.16
959.50	1109.41
959.80	1101.69
960.10	1099.35
960.39	1097.24
960.69	1095.14
960.99	1088.35
961.28	1095.14
961.58	1087.41
961.87	1083.90
962.17	1089.75
962.47	1096.54
962.76	1090.69
963.06	1081.33
963.36	1082.97
963.65	1078.28
963.95	1070.80
964.24	1075.71
964.54	1086.24
964.83	1082.97
965.13	1073.84
965.42	1070.56
965.72	1072.20
966.02	1061.43
966.31	1062.60
966.61	1072.20
966.90	1075.94
967.20	1072.20
967.49	1087.41
967.79	1088.82
968.08	1079.69
968.38	1073.84
968.67	1080.63
968.97	1073.37
969.26	1073.37
969.56	1081.09
969.85	1083.67
970.15	1074.54
970.44	1073.37
970.74	1064.71
971.03	1066.58
971.32	1075.01
971.62	1078.28
971.91	1089.29
972.21	1091.86
972.50	1088.82
972.80	1078.99
973.09	1085.77
973.38	1084.60
973.68	1088.82
973.97	1084.14
974.27	1086.24
974.56	1072.43
974.85	1063.31
975.15	1066.82
975.44	1065.41
975.73	1070.80
976.03	1076.18
976.32	1078.75
976.61	1068.45
976.91	1071.03
977.20	1064.48
977.49	1074.77
977.79	1073.84
978.08	1084.14
978.37	1086.71
978.67	1096.54
978.96	1087.65
979.25	1096.31
979.55	1100.99
979.84	1099.82
980.13	1095.14
980.42	1094.90
980.72	1083.43
981.01	1069.39
981.30	1062.60
981.59	1063.77
981.89	1060.26
982.18	1056.28
982.47	1056.99
982.76	1068.22
983.06	1077.58
983.35	1080.63
983.64	1090.92
983.93	1086.48
984.22	1082.03
984.52	1068.92
984.81	1065.88
985.10	1070.56
985.39	1082.73
985.68	1078.99
985.97	1083.43
986.27	1087.18
986.56	1087.41
986.85	1079.92
987.14	1075.48
987.43	1072.90
987.72	1074.07
988.01	1073.60
988.31	1081.33
988.60	1088.12
988.89	1088.58
989.18	1082.50
989.47	1073.37
989.76	1070.09
990.05	1070.09
990.34	1079.22
990.63	1082.26
990.92	1080.39
991.21	1077.11
991.51	1074.07
991.80	1063.77
992.09	1064.24
992.38	1069.86
992.67	1073.84
992.96	1067.28
993.25	1071.73
993.54	1072.90
993.83	1078.28
994.12	1084.37
994.41	1093.50
994.70	1086.48
994.99	1085.31
995.28	1077.35
995.57	1075.24
995.86	1086.48
996.15	1093.97
996.44	1089.99
996.73	1094.20
997.02	1088.58
997.31	1080.39
997.59	1073.84
997.88	1080.39
998.17	1081.80
998.46	1081.56
998.75	1075.01
999.04	1072.90
999.33	1063.31
999.62	1055.82
999.91	1054.88
1000.20	1059.33
1000.49	1061.67
1000.77	1068.69
1001.06	1064.71
1001.35	1071.03
1001.64	1070.80
1001.93	1074.77
1002.22	1081.09
1002.51	1087.65
1002.79	1092.09
1003.08	1090.46
1003.37	1087.88
1003.66	1086.71
1003.95	1086.48
1004.23	1077.11
1004.52	1080.63
1004.81	1083.43
1005.10	1063.31
1005.39	1065.41
1005.67	1068.69
1005.96	1063.54
1006.25	1065.41
1006.54	1078.05
1006.83	1071.03
1007.11	1066.58
1007.40	1071.26
1007.69	1075.24
1007.97	1087.65
1008.26	1096.78
1008.55	1098.88
1008.84	1104.26
1009.12	1099.35
1009.41	1084.60
1009.70	1082.73
1009.98	1082.73
1010.27	1075.24
1010.56	1073.37
1010.85	1065.41
1011.13	1071.26
1011.42	1070.56
1011.71	1074.54
1011.99	1065.65
1012.28	1085.77
1012.56	1089.75
1012.85	1093.03
1013.14	1089.29
1013.42	1097.01
1013.71	1094.20
1014.00	1095.37
1014.28	1090.46
1014.57	1088.12
1014.85	1093.26
1015.14	1087.18
1015.43	1076.65
1015.71	1083.67
1016.00	1090.92
1016.28	1087.18
1016.57	1087.18
1016.85	1079.92
1017.14	1073.84
1017.43	1082.26
1017.71	1078.99
1018.00	1079.46
1018.28	1083.20
1018.57	1078.28
1018.85	1068.45
1019.14	1060.26
1019.42	1055.82
1019.71	1058.39
1019.99	1060.26
1020.28	1050.67
1020.56	1064.71
1020.85	1071.73
1021.13	1072.67
1021.42	1076.65
1021.70	1077.35
1021.99	1071.03
1022.27	1060.26
1022.55	1066.11
1022.84	1029.84
>>>>>End Processed Spectral Data<<<<<
