SpectraSuite Data File
++++++++++++++++++++++++++++++++++++
Date: Mon Aug 26 10:25:46 PDT 2019
User: corrico
Dark Spectrum Present: No
Reference Spectrum Present: No
Number of Sampled Component Spectra: 1
Spectrometers: USB2+H06089
Integration Time (usec): 10000 (USB2+H06089)
Spectra Averaged: 2 (USB2+H06089)
Boxcar Smoothing: 2 (USB2+H06089)
Correct for Electrical Dark: No (USB2+H06089)
Strobe/Lamp Enabled: No (USB2+H06089)
Correct for Detector Non-linearity: No (USB2+H06089)
Correct for Stray Light: No (USB2+H06089)
Number of Pixels in Processed Spectrum: 2048
>>>>>Begin Processed Spectral Data<<<<<
339.70	1025.15
340.07	1025.15
340.45	992.15
340.82	963.60
341.19	945.11
341.57	919.60
341.94	909.06
342.31	900.17
342.69	900.87
343.06	885.42
343.43	883.08
343.81	886.83
344.18	884.02
344.55	888.94
344.93	913.04
345.30	925.45
345.67	938.55
346.04	947.45
346.42	961.49
346.79	952.36
347.16	963.83
347.54	974.60
347.91	981.15
348.28	981.62
348.65	986.77
349.03	984.66
349.40	982.56
349.77	997.54
350.14	1017.66
350.52	1037.56
350.89	1043.18
351.26	1051.84
351.63	1050.67
352.01	1046.22
352.38	1045.99
352.75	1050.20
353.12	1056.05
353.50	1065.65
353.87	1073.60
354.24	1082.97
354.61	1104.26
354.98	1099.58
355.36	1093.26
355.73	1084.14
356.10	1084.84
356.47	1075.01
356.84	1080.16
357.22	1086.48
357.59	1086.24
357.96	1081.80
358.33	1080.16
358.70	1080.39
359.08	1086.94
359.45	1096.78
359.82	1096.54
360.19	1089.99
360.56	1091.63
360.94	1080.86
361.31	1082.26
361.68	1077.35
362.05	1078.75
362.42	1081.09
362.79	1083.43
363.16	1083.20
363.54	1086.24
363.91	1081.09
364.28	1079.69
364.65	1082.97
365.02	1068.92
365.39	1062.84
365.76	1063.77
366.14	1051.13
366.51	1049.03
366.88	1058.39
367.25	1067.99
367.62	1065.18
367.99	1075.71
368.36	1060.96
368.73	1051.13
369.10	1045.99
369.48	1055.58
369.85	1049.73
370.22	1061.43
370.59	1064.71
370.96	1065.41
371.33	1064.01
371.70	1064.71
372.07	1059.79
372.44	1062.60
372.81	1073.60
373.18	1066.35
373.55	1064.01
373.93	1067.52
374.30	1067.28
374.67	1063.77
375.04	1060.26
375.41	1058.86
375.78	1061.67
376.15	1059.56
376.52	1058.86
376.89	1066.11
377.26	1068.69
377.63	1057.92
378.00	1064.24
378.37	1060.50
378.74	1063.31
379.11	1068.69
379.48	1082.03
379.85	1078.28
380.22	1070.56
380.59	1069.62
380.96	1082.26
381.33	1072.90
381.70	1074.54
382.07	1085.54
382.44	1083.90
382.81	1070.33
383.18	1074.54
383.55	1079.92
383.92	1078.05
384.29	1085.54
384.66	1086.24
385.03	1086.01
385.40	1080.16
385.77	1083.67
386.14	1078.05
386.51	1077.58
386.88	1087.88
387.25	1086.01
387.62	1076.18
387.99	1084.37
388.36	1082.73
388.73	1075.71
389.10	1085.07
389.46	1090.69
389.83	1082.97
390.20	1082.73
390.57	1087.65
390.94	1077.58
391.31	1074.31
391.68	1071.73
392.05	1068.45
392.42	1065.18
392.79	1070.56
393.16	1072.67
393.53	1079.69
393.89	1084.37
394.26	1077.58
394.63	1072.90
395.00	1087.18
395.37	1081.09
395.74	1078.75
396.11	1083.43
396.48	1084.14
396.84	1066.82
397.21	1067.99
397.58	1074.07
397.95	1073.84
398.32	1082.26
398.69	1090.46
399.06	1101.69
399.42	1095.37
399.79	1092.56
400.16	1085.07
400.53	1077.82
400.90	1059.56
401.27	1065.88
401.64	1070.33
402.00	1075.94
402.37	1073.37
402.74	1081.80
403.11	1079.22
403.48	1079.92
403.84	1075.01
404.21	1082.26
404.58	1084.37
404.95	1089.05
405.32	1082.03
405.68	1079.69
406.05	1076.65
406.42	1074.31
406.79	1068.92
407.16	1072.90
407.52	1071.26
407.89	1070.80
408.26	1071.26
408.63	1071.73
408.99	1072.43
409.36	1073.14
409.73	1070.80
410.10	1065.41
410.47	1064.94
410.83	1065.65
411.20	1079.46
411.57	1087.41
411.94	1096.07
412.30	1096.07
412.67	1086.48
413.04	1070.33
413.40	1066.82
413.77	1075.24
414.14	1074.07
414.51	1077.11
414.87	1081.80
415.24	1076.18
415.61	1061.67
415.97	1060.26
416.34	1060.03
416.71	1056.05
417.08	1061.67
417.44	1065.18
417.81	1075.94
418.18	1081.33
418.54	1087.88
418.91	1081.56
419.28	1081.56
419.64	1073.37
420.01	1065.41
420.38	1066.58
420.74	1074.54
421.11	1068.92
421.48	1067.75
421.84	1082.03
422.21	1082.03
422.58	1085.77
422.94	1093.73
423.31	1095.14
423.68	1090.46
424.04	1074.31
424.41	1060.26
424.77	1055.11
425.14	1063.54
425.51	1072.90
425.87	1085.54
426.24	1088.82
426.61	1090.69
426.97	1078.28
427.34	1068.69
427.70	1075.24
428.07	1071.26
428.44	1079.69
428.80	1088.35
429.17	1086.01
429.53	1079.22
429.90	1078.99
430.27	1075.24
430.63	1068.92
431.00	1069.16
431.36	1079.69
431.73	1089.75
432.09	1086.94
432.46	1089.29
432.83	1091.16
433.19	1079.46
433.56	1068.69
433.92	1071.73
434.29	1076.18
434.65	1077.35
435.02	1076.41
435.38	1084.37
435.75	1081.33
436.11	1072.67
436.48	1075.71
436.84	1087.18
437.21	1087.88
437.57	1088.35
437.94	1090.46
438.30	1089.29
438.67	1077.58
439.03	1075.94
439.40	1079.92
439.76	1077.58
440.13	1078.28
440.49	1085.77
440.86	1089.75
441.22	1083.67
441.59	1088.82
441.95	1075.94
442.32	1067.28
442.68	1066.58
443.05	1062.60
443.41	1062.37
443.78	1078.52
444.14	1081.33
444.51	1081.09
444.87	1094.20
445.24	1085.77
445.60	1074.54
445.96	1074.54
446.33	1075.94
446.69	1065.65
447.06	1080.63
447.42	1086.94
447.79	1079.46
448.15	1065.65
448.51	1059.56
448.88	1049.96
449.24	1046.22
449.61	1050.43
449.97	1060.73
450.33	1068.69
450.70	1070.56
451.06	1078.28
451.43	1083.20
451.79	1079.92
452.15	1074.07
452.52	1067.99
452.88	1067.05
453.24	1071.26
453.61	1078.75
453.97	1082.73
454.34	1080.86
454.70	1077.35
455.06	1074.77
455.43	1072.43
455.79	1080.63
456.15	1087.65
456.52	1088.82
456.88	1083.20
457.24	1084.14
457.61	1071.26
457.97	1072.43
458.33	1073.14
458.70	1079.92
459.06	1076.88
459.42	1089.75
459.79	1082.03
460.15	1078.28
460.51	1078.28
460.88	1088.12
461.24	1086.24
461.60	1100.52
461.96	1098.88
462.33	1085.77
462.69	1075.24
463.05	1067.99
463.42	1067.75
463.78	1066.11
464.14	1082.26
464.50	1090.92
464.87	1094.90
465.23	1092.09
465.59	1094.67
465.95	1092.56
466.32	1082.26
466.68	1083.67
467.04	1081.09
467.40	1078.99
467.77	1076.41
468.13	1076.88
468.49	1074.07
468.85	1067.28
469.22	1059.33
469.58	1071.03
469.94	1077.82
470.30	1076.88
470.66	1085.31
471.03	1102.39
471.39	1090.92
471.75	1092.33
472.11	1095.14
472.47	1088.12
472.84	1087.18
473.20	1086.48
473.56	1087.88
473.92	1091.39
474.28	1096.07
474.65	1080.63
475.01	1083.20
475.37	1076.18
475.73	1069.39
476.09	1066.35
476.45	1079.22
476.81	1076.18
477.18	1081.56
477.54	1083.43
477.90	1088.58
478.26	1085.77
478.62	1091.16
478.98	1086.94
479.34	1090.92
479.71	1081.09
480.07	1075.71
480.43	1070.09
480.79	1063.31
481.15	1059.33
481.51	1059.79
481.87	1071.73
482.23	1075.01
482.59	1076.41
482.96	1079.22
483.32	1085.54
483.68	1080.39
484.04	1073.84
484.40	1078.28
484.76	1074.77
485.12	1077.11
485.48	1069.62
485.84	1074.07
486.20	1076.65
486.56	1081.56
486.92	1083.90
487.28	1095.60
487.64	1096.31
488.00	1096.31
488.37	1093.03
488.73	1087.41
489.09	1085.07
489.45	1078.75
489.81	1072.90
490.17	1073.37
490.53	1076.41
490.89	1068.69
491.25	1078.75
491.61	1087.88
491.97	1090.46
492.33	1093.03
492.69	1099.12
493.05	1094.43
493.41	1088.58
493.77	1088.58
494.13	1098.65
494.49	1096.54
494.85	1100.29
495.21	1099.58
495.57	1095.84
495.93	1079.46
496.29	1077.11
496.64	1071.03
497.00	1079.22
497.36	1080.39
497.72	1082.97
498.08	1079.22
498.44	1087.88
498.80	1084.84
499.16	1089.05
499.52	1090.92
499.88	1097.01
500.24	1083.43
500.60	1091.63
500.96	1080.63
501.32	1081.56
501.68	1078.99
502.03	1080.39
502.39	1068.22
502.75	1074.77
503.11	1067.05
503.47	1071.73
503.83	1078.28
504.19	1068.45
504.55	1067.99
504.91	1068.92
505.26	1064.71
505.62	1060.96
505.98	1072.67
506.34	1073.60
506.70	1083.43
507.06	1093.73
507.42	1093.97
507.78	1096.78
508.13	1095.84
508.49	1090.22
508.85	1075.94
509.21	1081.09
509.57	1079.22
509.93	1073.14
510.28	1071.03
510.64	1079.46
511.00	1081.33
511.36	1079.92
511.72	1090.69
512.07	1103.80
512.43	1108.48
512.79	1100.99
513.15	1094.67
513.51	1086.94
513.86	1075.94
514.22	1079.22
514.58	1077.11
514.94	1068.92
515.30	1069.39
515.65	1064.94
516.01	1056.28
516.37	1056.99
516.73	1078.99
517.08	1087.41
517.44	1099.12
517.80	1099.35
518.16	1103.09
518.51	1095.37
518.87	1090.46
519.23	1081.56
519.59	1075.71
519.94	1075.01
520.30	1084.14
520.66	1085.77
521.01	1082.97
521.37	1085.54
521.73	1094.43
522.09	1083.20
522.44	1080.39
522.80	1091.86
523.16	1101.46
523.51	1094.67
523.87	1103.80
524.23	1108.01
524.58	1097.01
524.94	1089.99
525.30	1090.46
525.65	1082.26
526.01	1080.16
526.37	1093.50
526.72	1097.71
527.08	1097.95
527.44	1099.35
527.79	1090.92
528.15	1081.56
528.51	1077.82
528.86	1074.07
529.22	1078.52
529.58	1088.58
529.93	1090.22
530.29	1099.58
530.65	1109.88
531.00	1100.99
531.36	1103.09
531.71	1111.05
532.07	1103.33
532.43	1099.35
532.78	1103.80
533.14	1101.22
533.49	1096.78
533.85	1093.97
534.21	1081.09
534.56	1083.67
534.92	1074.31
535.27	1074.54
535.63	1075.71
535.98	1075.71
536.34	1083.67
536.69	1089.52
537.05	1090.46
537.41	1093.50
537.76	1095.84
538.12	1083.43
538.47	1080.63
538.83	1079.69
539.18	1068.22
539.54	1083.20
539.89	1087.41
540.25	1100.29
540.60	1103.33
540.96	1111.99
541.31	1099.58
541.67	1091.63
542.02	1085.31
542.38	1072.90
542.73	1071.97
543.09	1069.62
543.44	1077.82
543.80	1078.75
544.15	1087.18
544.51	1092.09
544.86	1102.63
545.22	1100.75
545.57	1086.24
545.93	1078.52
546.28	1074.07
546.64	1074.31
546.99	1071.50
547.35	1085.54
547.70	1085.07
548.05	1075.24
548.41	1067.75
548.76	1064.48
549.12	1056.99
549.47	1059.79
549.83	1067.99
550.18	1063.07
550.53	1064.94
550.89	1068.22
551.24	1061.20
551.60	1065.88
551.95	1076.41
552.30	1083.20
552.66	1094.20
553.01	1104.73
553.37	1110.82
553.72	1113.86
554.07	1112.69
554.43	1106.84
554.78	1101.92
555.13	1094.90
555.49	1089.29
555.84	1082.97
556.19	1077.11
556.55	1075.71
556.90	1079.46
557.26	1082.26
557.61	1088.12
557.96	1101.22
558.32	1108.95
558.67	1103.80
559.02	1093.97
559.37	1082.03
559.73	1071.97
560.08	1074.07
560.43	1067.52
560.79	1077.35
561.14	1087.88
561.49	1078.75
561.85	1067.52
562.20	1069.39
562.55	1065.18
562.90	1065.41
563.26	1067.28
563.61	1069.39
563.96	1078.05
564.32	1073.60
564.67	1070.56
565.02	1072.90
565.37	1075.24
565.73	1066.82
566.08	1077.11
566.43	1082.26
566.78	1082.03
567.14	1070.80
567.49	1077.82
567.84	1074.31
568.19	1070.33
568.54	1077.35
568.90	1089.29
569.25	1084.14
569.60	1087.65
569.95	1088.35
570.31	1085.77
570.66	1077.82
571.01	1082.50
571.36	1077.35
571.71	1071.26
572.06	1064.48
572.42	1081.56
572.77	1086.01
573.12	1097.71
573.47	1099.35
573.82	1107.31
574.18	1092.80
574.53	1086.71
574.88	1081.33
575.23	1091.39
575.58	1092.09
575.93	1089.52
576.28	1084.37
576.64	1073.14
576.99	1062.37
577.34	1054.41
577.69	1063.31
578.04	1069.62
578.39	1079.22
578.74	1082.97
579.09	1087.18
579.44	1091.63
579.80	1091.16
580.15	1091.39
580.50	1097.71
580.85	1097.01
581.20	1091.63
581.55	1094.20
581.90	1096.07
582.25	1095.14
582.60	1088.82
582.95	1088.82
583.30	1089.05
583.65	1088.35
584.00	1082.03
584.35	1087.41
584.71	1089.29
585.06	1085.31
585.41	1085.77
585.76	1093.50
586.11	1097.71
586.46	1099.82
586.81	1103.33
587.16	1095.60
587.51	1092.80
587.86	1092.80
588.21	1085.77
588.56	1075.24
588.91	1082.03
589.26	1083.20
589.61	1085.54
589.96	1091.16
590.31	1101.69
590.66	1088.82
591.01	1084.14
591.36	1075.94
591.71	1082.26
592.06	1077.82
592.41	1076.18
592.76	1079.69
593.10	1081.33
593.45	1071.97
593.80	1067.28
594.15	1072.67
594.50	1071.50
594.85	1075.01
595.20	1075.24
595.55	1081.33
595.90	1088.12
596.25	1079.22
596.60	1080.16
596.95	1083.90
597.30	1074.77
597.64	1117.37
597.99	1128.14
598.34	1128.37
598.69	1118.31
599.04	1121.58
599.39	1081.33
599.74	1075.24
600.09	1077.11
600.44	1083.43
600.78	1095.37
601.13	1091.63
601.48	1092.09
601.83	1091.39
602.18	1095.60
602.53	1084.14
602.88	1081.56
603.22	1077.35
603.57	1073.37
603.92	1073.84
604.27	1076.18
604.62	1077.11
604.97	1083.90
605.31	1089.99
605.66	1086.94
606.01	1081.56
606.36	1081.09
606.71	1076.41
607.05	1069.86
607.40	1072.43
607.75	1082.97
608.10	1077.82
608.44	1083.20
608.79	1086.94
609.14	1091.16
609.49	1091.39
609.84	1104.26
610.18	1115.03
610.53	1121.58
610.88	1122.29
611.23	1123.93
611.57	1119.71
611.92	1111.75
612.27	1102.16
612.62	1096.31
612.96	1094.43
613.31	1085.54
613.66	1090.22
614.00	1087.41
614.35	1094.90
614.70	1091.63
615.05	1093.73
615.39	1085.07
615.74	1085.54
616.09	1083.43
616.43	1094.20
616.78	1102.63
617.13	1102.86
617.47	1109.65
617.82	1096.31
618.17	1079.69
618.51	1086.71
618.86	1089.75
619.21	1086.71
619.55	1094.43
619.90	1100.75
620.25	1084.84
620.59	1076.88
620.94	1083.43
621.29	1081.33
621.63	1078.99
621.98	1086.24
622.32	1094.43
622.67	1082.50
623.02	1091.39
623.36	1086.01
623.71	1089.05
624.05	1087.18
624.40	1093.26
624.75	1076.41
625.09	1077.35
625.44	1074.07
625.78	1067.28
626.13	1075.01
626.48	1083.43
626.82	1089.05
627.17	1091.86
627.51	1096.31
627.86	1082.50
628.20	1083.20
628.55	1079.92
628.89	1081.09
629.24	1076.65
629.58	1091.63
629.93	1092.09
630.28	1093.50
630.62	1082.73
630.97	1089.05
631.31	1075.48
631.66	1075.71
632.00	1079.46
632.35	1092.09
632.69	1089.99
633.04	1090.69
633.38	1091.39
633.73	1091.63
634.07	1085.77
634.42	1085.07
634.76	1086.71
635.11	1085.77
635.45	1078.75
635.79	1075.01
636.14	1074.31
636.48	1083.20
636.83	1089.29
637.17	1089.75
637.52	1093.03
637.86	1094.20
638.21	1081.33
638.55	1074.07
638.89	1069.86
639.24	1066.58
639.58	1063.54
639.93	1061.67
640.27	1057.22
640.61	1071.97
640.96	1074.31
641.30	1076.65
641.65	1079.69
641.99	1085.77
642.33	1075.94
642.68	1073.37
643.02	1078.05
643.37	1086.24
643.71	1088.35
644.05	1088.58
644.40	1080.39
644.74	1076.41
645.08	1073.84
645.43	1069.39
645.77	1067.52
646.11	1075.94
646.46	1078.05
646.80	1070.80
647.14	1072.90
647.49	1080.63
647.83	1084.84
648.17	1091.63
648.52	1102.39
648.86	1108.95
649.20	1106.37
649.55	1104.73
649.89	1098.88
650.23	1087.18
650.57	1074.54
650.92	1067.99
651.26	1062.60
651.60	1063.31
651.95	1078.75
652.29	1077.58
652.63	1082.26
652.97	1086.24
653.32	1088.12
653.66	1082.03
654.00	1089.05
654.34	1097.71
654.69	1094.43
655.03	1078.99
655.37	1066.82
655.71	1068.45
656.05	1059.56
656.40	1066.58
656.74	1070.80
657.08	1076.88
657.42	1067.28
657.76	1068.22
658.11	1065.18
658.45	1074.07
658.79	1081.33
659.13	1093.73
659.47	1097.24
659.82	1099.82
660.16	1100.52
660.50	1091.39
660.84	1081.33
661.18	1068.22
661.52	1053.24
661.87	1047.86
662.21	1048.79
662.55	1058.86
662.89	1072.43
663.23	1085.31
663.57	1078.28
663.91	1086.94
664.25	1081.80
664.60	1078.05
664.94	1073.84
665.28	1078.52
665.62	1068.45
665.96	1068.92
666.30	1068.45
666.64	1066.11
666.98	1075.48
667.32	1082.26
667.66	1068.92
668.01	1058.86
668.35	1068.22
668.69	1056.75
669.03	1056.99
669.37	1061.20
669.71	1076.65
670.05	1073.37
670.39	1079.92
670.73	1074.07
671.07	1080.86
671.41	1083.90
671.75	1086.24
672.09	1083.67
672.43	1092.33
672.77	1090.22
673.11	1090.22
673.45	1086.71
673.79	1085.07
674.13	1082.03
674.47	1079.69
674.81	1076.88
675.15	1080.39
675.49	1082.73
675.83	1069.62
676.17	1072.90
676.51	1061.43
676.85	1059.09
677.19	1061.43
677.53	1078.05
677.87	1081.33
678.21	1092.33
678.55	1088.12
678.89	1087.88
679.23	1081.80
679.57	1075.94
679.90	1083.43
680.24	1085.07
680.58	1085.31
680.92	1080.86
681.26	1083.67
681.60	1078.05
681.94	1081.80
682.28	1087.18
682.62	1092.33
682.96	1097.48
683.29	1081.80
683.63	1084.60
683.97	1069.62
684.31	1068.22
684.65	1067.05
684.99	1084.14
685.33	1077.11
685.67	1098.41
686.00	1101.22
686.34	1102.39
686.68	1093.97
687.02	1096.07
687.36	1081.56
687.70	1079.46
688.03	1085.77
688.37	1087.88
688.71	1090.22
689.05	1095.60
689.39	1090.22
689.72	1078.28
690.06	1074.54
690.40	1071.73
690.74	1070.33
691.08	1089.29
691.41	1097.01
691.75	1100.99
692.09	1095.84
692.43	1093.03
692.76	1083.90
693.10	1081.33
693.44	1097.24
693.78	1109.88
694.11	1112.92
694.45	1108.71
694.79	1105.67
695.13	1090.92
695.46	1086.24
695.80	1083.67
696.14	1085.31
696.48	1083.20
696.81	1082.26
697.15	1085.77
697.49	1079.69
697.82	1082.73
698.16	1083.90
698.50	1082.97
698.83	1080.86
699.17	1085.31
699.51	1082.73
699.84	1079.46
700.18	1070.33
700.52	1061.20
700.85	1068.22
701.19	1069.86
701.53	1079.46
701.86	1085.54
702.20	1096.07
702.54	1086.01
702.87	1085.77
703.21	1083.90
703.55	1088.82
703.88	1085.07
704.22	1087.41
704.55	1080.16
704.89	1079.46
705.23	1077.11
705.56	1077.58
705.90	1080.86
706.23	1080.86
706.57	1073.60
706.91	1076.18
707.24	1070.33
707.58	1067.28
707.91	1070.33
708.25	1075.71
708.58	1088.58
708.92	1085.31
709.26	1082.97
709.59	1083.43
709.93	1083.67
710.26	1074.77
710.60	1079.46
710.93	1082.73
711.27	1091.86
711.60	1095.37
711.94	1081.33
712.27	1084.84
712.61	1084.60
712.94	1078.99
713.28	1074.31
713.61	1081.80
713.95	1077.11
714.28	1091.16
714.62	1090.92
714.95	1086.48
715.29	1089.99
715.62	1093.73
715.96	1078.05
716.29	1073.84
716.63	1084.37
716.96	1087.88
717.29	1086.94
717.63	1089.52
717.96	1090.22
718.30	1078.28
718.63	1079.92
718.97	1091.16
719.30	1096.78
719.63	1098.41
719.97	1111.29
720.30	1104.26
720.64	1094.20
720.97	1098.18
721.30	1097.24
721.64	1094.20
721.97	1086.94
722.31	1080.86
722.64	1072.20
722.97	1072.43
723.31	1067.99
723.64	1070.33
723.97	1068.92
724.31	1078.75
724.64	1071.73
724.98	1067.28
725.31	1072.20
725.64	1077.11
725.98	1064.01
726.31	1068.22
726.64	1074.77
726.97	1072.90
727.31	1077.11
727.64	1084.37
727.97	1078.28
728.31	1074.31
728.64	1068.69
728.97	1071.26
729.31	1070.56
729.64	1074.07
729.97	1072.90
730.30	1085.31
730.64	1087.18
730.97	1089.99
731.30	1092.33
731.63	1091.16
731.97	1093.50
732.30	1087.18
732.63	1081.80
732.96	1083.20
733.30	1085.77
733.63	1074.31
733.96	1063.77
734.29	1061.43
734.63	1064.24
734.96	1062.37
735.29	1073.14
735.62	1086.24
735.95	1095.37
736.29	1088.12
736.62	1095.60
736.95	1086.48
737.28	1080.39
737.61	1073.37
737.94	1079.46
738.28	1078.99
738.61	1086.94
738.94	1093.73
739.27	1085.31
739.60	1081.80
739.93	1071.26
740.27	1059.09
740.60	1058.62
740.93	1065.41
741.26	1076.18
741.59	1078.05
741.92	1083.90
742.25	1071.50
742.58	1077.35
742.91	1070.56
743.25	1069.86
743.58	1064.94
743.91	1070.80
744.24	1069.86
744.57	1069.16
744.90	1076.88
745.23	1083.90
745.56	1093.26
745.89	1088.82
746.22	1078.99
746.55	1073.84
746.88	1074.07
747.21	1063.77
747.54	1061.43
747.87	1064.71
748.20	1067.99
748.53	1070.80
748.87	1076.65
749.20	1084.37
749.53	1093.26
749.86	1089.05
750.19	1083.20
750.52	1081.09
750.85	1076.65
751.18	1072.67
751.51	1078.05
751.84	1078.75
752.16	1083.90
752.49	1091.86
752.82	1095.84
753.15	1095.37
753.48	1087.88
753.81	1081.80
754.14	1065.88
754.47	1059.56
754.80	1045.75
755.13	1052.07
755.46	1051.13
755.79	1052.07
756.12	1059.79
756.45	1071.97
756.78	1066.11
757.11	1075.24
757.43	1089.75
757.76	1082.03
758.09	1085.31
758.42	1088.82
758.75	1078.99
759.08	1071.03
759.41	1076.41
759.74	1075.01
760.07	1079.69
760.39	1083.43
760.72	1078.52
761.05	1065.88
761.38	1059.33
761.71	1056.52
762.04	1062.14
762.36	1056.05
762.69	1059.56
763.02	1063.77
763.35	1066.11
763.68	1053.01
764.01	1062.60
764.33	1070.33
764.66	1078.99
764.99	1079.46
765.32	1094.20
765.65	1096.78
765.97	1101.22
766.30	1103.33
766.63	1102.39
766.96	1102.86
767.28	1103.56
767.61	1097.24
767.94	1086.94
768.27	1094.43
768.59	1080.63
768.92	1081.80
769.25	1082.97
769.58	1082.50
769.90	1078.05
770.23	1088.35
770.56	1082.26
770.89	1074.77
771.21	1076.41
771.54	1070.09
771.87	1070.56
772.19	1076.41
772.52	1088.58
772.85	1088.58
773.17	1088.82
773.50	1088.35
773.83	1079.46
774.15	1072.43
774.48	1073.60
774.81	1078.28
775.13	1071.26
775.46	1077.35
775.79	1086.71
776.11	1087.88
776.44	1086.48
776.77	1084.14
777.09	1085.77
777.42	1073.84
777.74	1065.18
778.07	1060.73
778.40	1065.18
778.72	1064.01
779.05	1064.48
779.37	1066.58
779.70	1064.94
780.03	1058.39
780.35	1057.69
780.68	1057.92
781.00	1064.94
781.33	1074.31
781.65	1078.52
781.98	1075.94
782.31	1076.88
782.63	1076.65
782.96	1075.71
783.28	1076.88
783.61	1074.77
783.93	1076.41
784.26	1070.09
784.58	1060.96
784.91	1064.01
785.23	1064.48
785.56	1075.94
785.88	1071.03
786.21	1071.03
786.53	1069.16
786.86	1071.03
787.18	1062.14
787.51	1071.50
787.83	1085.07
788.16	1083.43
788.48	1083.90
788.81	1088.35
789.13	1082.97
789.46	1075.24
789.78	1075.94
790.10	1085.54
790.43	1093.26
790.75	1102.16
791.08	1102.86
791.40	1104.97
791.73	1101.69
792.05	1085.07
792.37	1078.28
792.70	1078.05
793.02	1070.33
793.35	1068.45
793.67	1071.50
793.99	1077.58
794.32	1081.09
794.64	1083.43
794.96	1086.24
795.29	1083.20
795.61	1086.01
795.93	1089.99
796.26	1097.01
796.58	1090.92
796.91	1086.94
797.23	1078.99
797.55	1072.20
797.87	1071.73
798.20	1077.35
798.52	1081.80
798.84	1082.03
799.17	1082.50
799.49	1080.39
799.81	1067.99
800.14	1070.33
800.46	1085.07
800.78	1083.67
801.10	1084.14
801.43	1095.60
801.75	1097.01
802.07	1080.39
802.40	1080.16
802.72	1077.58
803.04	1072.67
803.36	1075.24
803.69	1083.20
804.01	1084.84
804.33	1089.99
804.65	1103.56
804.97	1107.07
805.30	1105.67
805.62	1103.56
805.94	1103.09
806.26	1093.97
806.58	1091.86
806.91	1079.22
807.23	1081.56
807.55	1075.24
807.87	1072.20
808.19	1066.82
808.52	1078.28
808.84	1084.84
809.16	1093.26
809.48	1086.24
809.80	1084.60
810.12	1081.80
810.44	1074.77
810.77	1072.90
811.09	1073.84
811.41	1078.52
811.73	1080.86
812.05	1073.14
812.37	1073.37
812.69	1086.01
813.01	1084.60
813.33	1082.03
813.66	1095.84
813.98	1084.60
814.30	1072.67
814.62	1079.46
814.94	1074.77
815.26	1069.16
815.58	1078.52
815.90	1084.60
816.22	1075.48
816.54	1075.71
816.86	1072.90
817.18	1075.71
817.50	1074.77
817.82	1071.26
818.14	1078.28
818.46	1077.11
818.78	1073.84
819.10	1076.18
819.42	1071.73
819.74	1067.52
820.06	1080.63
820.38	1078.75
820.70	1074.54
821.02	1081.80
821.34	1083.43
821.66	1062.60
821.98	1059.56
822.30	1058.39
822.62	1058.62
822.94	1063.31
823.26	1065.41
823.58	1061.90
823.90	1063.77
824.22	1064.71
824.54	1064.94
824.86	1077.11
825.18	1078.75
825.50	1082.73
825.81	1080.63
826.13	1077.35
826.45	1070.56
826.77	1067.52
827.09	1071.73
827.41	1077.35
827.73	1083.43
828.05	1080.63
828.36	1083.20
828.68	1069.62
829.00	1064.71
829.32	1060.96
829.64	1079.46
829.96	1090.22
830.28	1099.82
830.59	1097.24
830.91	1087.88
831.23	1072.67
831.55	1076.41
831.87	1072.43
832.19	1080.39
832.50	1083.90
832.82	1087.88
833.14	1070.80
833.46	1081.33
833.78	1072.90
834.09	1073.14
834.41	1075.01
834.73	1085.54
835.05	1078.75
835.36	1079.69
835.68	1089.99
836.00	1086.01
836.32	1089.75
836.63	1083.90
836.95	1093.26
837.27	1092.33
837.59	1088.82
837.90	1073.84
838.22	1078.99
838.54	1079.69
838.85	1071.97
839.17	1069.86
839.49	1085.31
839.80	1085.07
840.12	1088.58
840.44	1095.14
840.76	1102.86
841.07	1103.09
841.39	1108.24
841.71	1101.22
842.02	1098.18
842.34	1095.60
842.65	1086.24
842.97	1081.56
843.29	1086.48
843.60	1083.20
843.92	1077.35
844.24	1087.88
844.55	1094.20
844.87	1093.50
845.18	1094.67
845.50	1095.84
845.82	1096.54
846.13	1090.92
846.45	1088.82
846.76	1089.52
847.08	1101.92
847.40	1097.95
847.71	1096.31
848.03	1090.46
848.34	1083.90
848.66	1076.18
848.97	1071.97
849.29	1063.54
849.60	1071.03
849.92	1077.58
850.24	1080.39
850.55	1078.28
850.87	1087.65
851.18	1079.46
851.50	1078.28
851.81	1084.14
852.13	1086.48
852.44	1082.97
852.76	1079.46
853.07	1070.09
853.39	1065.65
853.70	1062.37
854.01	1062.60
854.33	1062.60
854.64	1069.62
854.96	1062.14
855.27	1066.58
855.59	1067.99
855.90	1076.65
856.22	1084.37
856.53	1092.56
856.84	1091.86
857.16	1078.52
857.47	1076.41
857.79	1071.97
858.10	1061.67
858.41	1053.48
858.73	1059.09
859.04	1056.75
859.36	1054.41
859.67	1059.33
859.98	1071.97
860.30	1076.65
860.61	1082.73
860.92	1084.84
861.24	1081.80
861.55	1078.05
861.87	1091.63
862.18	1093.73
862.49	1087.65
862.81	1090.92
863.12	1099.58
863.43	1089.05
863.74	1086.24
864.06	1089.52
864.37	1089.29
864.68	1071.03
865.00	1063.31
865.31	1056.99
865.62	1065.88
865.94	1066.82
866.25	1074.54
866.56	1074.07
866.87	1081.33
867.19	1070.09
867.50	1062.84
867.81	1070.56
868.12	1075.48
868.44	1066.35
868.75	1079.92
869.06	1083.43
869.37	1078.99
869.68	1076.18
870.00	1086.24
870.31	1075.94
870.62	1082.50
870.93	1086.71
871.24	1097.48
871.56	1085.77
871.87	1091.39
872.18	1090.69
872.49	1076.65
872.80	1070.09
873.12	1066.35
873.43	1058.62
873.74	1054.65
874.05	1068.45
874.36	1070.09
874.67	1081.80
874.98	1079.46
875.29	1081.56
875.61	1074.31
875.92	1079.46
876.23	1076.18
876.54	1077.35
876.85	1075.01
877.16	1073.84
877.47	1067.75
877.78	1072.20
878.09	1074.07
878.40	1079.92
878.72	1087.88
879.03	1076.18
879.34	1072.20
879.65	1076.41
879.96	1073.37
880.27	1070.09
880.58	1084.60
880.89	1090.92
881.20	1086.71
881.51	1081.80
881.82	1078.28
882.13	1072.43
882.44	1065.18
882.75	1068.22
883.06	1075.24
883.37	1074.77
883.68	1078.75
883.99	1085.07
884.30	1079.69
884.61	1068.92
884.92	1065.88
885.23	1072.43
885.54	1068.92
885.85	1075.71
886.16	1082.03
886.47	1083.43
886.78	1080.86
887.08	1083.90
887.39	1080.63
887.70	1078.99
888.01	1072.43
888.32	1067.75
888.63	1058.86
888.94	1054.18
889.25	1053.71
889.56	1062.14
889.87	1061.67
890.17	1065.41
890.48	1071.73
890.79	1070.33
891.10	1079.46
891.41	1088.58
891.72	1083.20
892.03	1085.07
892.34	1091.63
892.64	1092.33
892.95	1087.65
893.26	1082.97
893.57	1088.58
893.88	1079.69
894.18	1065.41
894.49	1057.69
894.80	1068.22
895.11	1058.39
895.42	1067.05
895.72	1066.35
896.03	1067.05
896.34	1074.07
896.65	1079.92
896.96	1080.86
897.26	1092.56
897.57	1092.80
897.88	1085.31
898.19	1082.97
898.49	1082.50
898.80	1082.97
899.11	1086.01
899.41	1092.09
899.72	1092.80
900.03	1086.71
900.34	1082.26
900.64	1083.20
900.95	1078.75
901.26	1077.82
901.56	1075.24
901.87	1074.31
902.18	1071.26
902.48	1077.11
902.79	1079.22
903.10	1086.94
903.40	1093.73
903.71	1092.56
904.02	1089.29
904.32	1084.84
904.63	1082.73
904.94	1073.60
905.24	1081.56
905.55	1085.31
905.85	1088.58
906.16	1089.29
906.47	1094.20
906.77	1085.31
907.08	1077.35
907.38	1070.33
907.69	1066.35
908.00	1069.16
908.30	1071.03
908.61	1071.97
908.91	1075.48
909.22	1081.09
909.52	1074.54
909.83	1086.24
910.14	1084.60
910.44	1086.71
910.75	1086.48
911.05	1083.20
911.36	1075.01
911.66	1076.65
911.97	1078.75
912.27	1082.73
912.58	1086.94
912.88	1083.43
913.19	1098.41
913.49	1094.90
913.80	1088.35
914.10	1093.50
914.41	1091.39
914.71	1077.35
915.01	1078.75
915.32	1078.99
915.62	1081.33
915.93	1085.54
916.23	1076.18
916.54	1074.31
916.84	1070.80
917.15	1073.37
917.45	1082.26
917.75	1093.97
918.06	1079.22
918.36	1076.41
918.67	1075.24
918.97	1060.73
919.27	1055.82
919.58	1065.18
919.88	1077.11
920.18	1064.48
920.49	1065.18
920.79	1071.73
921.10	1080.86
921.40	1074.77
921.70	1085.31
922.01	1093.03
922.31	1083.43
922.61	1073.60
922.92	1076.88
923.22	1067.52
923.52	1058.86
923.82	1067.52
924.13	1070.33
924.43	1072.90
924.73	1077.11
925.04	1089.99
925.34	1089.52
925.64	1093.50
925.94	1097.95
926.25	1096.31
926.55	1087.18
926.85	1096.07
927.15	1099.35
927.46	1089.29
927.76	1091.39
928.06	1090.22
928.36	1079.69
928.67	1068.22
928.97	1065.65
929.27	1059.79
929.57	1057.69
929.87	1052.07
930.18	1063.54
930.48	1064.24
930.78	1069.16
931.08	1066.35
931.38	1067.75
931.69	1064.01
931.99	1069.62
932.29	1071.73
932.59	1076.18
932.89	1075.94
933.19	1075.71
933.49	1067.99
933.80	1070.80
934.10	1069.39
934.40	1069.39
934.70	1066.11
935.00	1061.43
935.30	1050.20
935.60	1056.28
935.90	1063.54
936.20	1065.18
936.50	1076.65
936.81	1084.14
937.11	1085.07
937.41	1075.48
937.71	1073.37
938.01	1079.22
938.31	1075.94
938.61	1068.92
938.91	1069.86
939.21	1079.22
939.51	1073.37
939.81	1067.28
940.11	1071.50
940.41	1077.35
940.71	1076.65
941.01	1082.97
941.31	1099.35
941.61	1112.46
941.91	1107.78
942.21	1098.41
942.51	1090.46
942.81	1079.92
943.11	1067.28
943.41	1070.80
943.71	1078.05
944.01	1080.16
944.31	1081.80
944.61	1083.67
944.90	1087.41
945.20	1081.33
945.50	1076.18
945.80	1076.18
946.10	1068.45
946.40	1059.79
946.70	1066.35
947.00	1071.97
947.30	1071.50
947.60	1074.54
947.89	1075.01
948.19	1072.90
948.49	1069.39
948.79	1067.05
949.09	1070.56
949.39	1073.84
949.69	1074.07
949.98	1078.75
950.28	1086.01
950.58	1074.54
950.88	1070.56
951.18	1064.71
951.48	1055.58
951.77	1052.07
952.07	1062.37
952.37	1066.82
952.67	1071.26
952.97	1075.24
953.26	1077.11
953.56	1076.88
953.86	1081.33
954.16	1074.77
954.45	1072.43
954.75	1059.79
955.05	1062.37
955.35	1051.37
955.64	1051.37
955.94	1046.92
956.24	1057.69
956.54	1052.77
956.83	1067.28
957.13	1075.48
957.43	1082.73
957.72	1080.86
958.02	1080.86
958.32	1068.45
958.61	1078.75
958.91	1078.28
959.21	1074.77
959.50	1072.67
959.80	1081.09
960.10	1081.56
960.39	1080.16
960.69	1082.50
960.99	1089.99
961.28	1088.82
961.58	1075.01
961.87	1080.63
962.17	1089.99
962.47	1088.82
962.76	1091.86
963.06	1095.14
963.36	1082.97
963.65	1081.56
963.95	1083.20
964.24	1079.92
964.54	1071.73
964.83	1082.26
965.13	1075.01
965.42	1075.71
965.72	1079.69
966.02	1093.73
966.31	1091.63
966.61	1090.92
966.90	1086.48
967.20	1077.11
967.49	1074.54
967.79	1074.77
968.08	1064.94
968.38	1058.86
968.67	1058.86
968.97	1056.28
969.26	1053.01
969.56	1063.31
969.85	1071.03
970.15	1069.39
970.44	1064.01
970.74	1074.07
971.03	1078.05
971.32	1077.35
971.62	1078.28
971.91	1081.80
972.21	1082.50
972.50	1078.75
972.80	1075.48
973.09	1066.11
973.38	1066.35
973.68	1051.84
973.97	1050.90
974.27	1054.65
974.56	1059.09
974.85	1060.26
975.15	1065.88
975.44	1074.54
975.73	1071.73
976.03	1086.71
976.32	1085.54
976.61	1086.01
976.91	1083.90
977.20	1089.05
977.49	1090.92
977.79	1082.26
978.08	1085.07
978.37	1080.16
978.67	1075.71
978.96	1059.33
979.25	1061.43
979.55	1065.18
979.84	1072.43
980.13	1076.18
980.42	1078.75
980.72	1086.71
981.01	1075.24
981.30	1058.62
981.59	1056.75
981.89	1066.58
982.18	1064.48
982.47	1064.24
982.76	1077.35
983.06	1075.01
983.35	1076.65
983.64	1067.28
983.93	1073.37
984.22	1061.20
984.52	1075.94
984.81	1068.22
985.10	1077.35
985.39	1080.16
985.68	1085.31
985.97	1080.16
986.27	1081.33
986.56	1079.22
986.85	1067.75
987.14	1078.28
987.43	1071.26
987.72	1075.01
988.01	1072.90
988.31	1088.35
988.60	1079.46
988.89	1085.31
989.18	1079.46
989.47	1094.67
989.76	1080.86
990.05	1084.14
990.34	1077.11
990.63	1080.86
990.92	1073.60
991.21	1082.50
991.51	1077.11
991.80	1078.28
992.09	1081.80
992.38	1082.73
992.67	1086.94
992.96	1090.92
993.25	1092.09
993.54	1095.37
993.83	1096.31
994.12	1092.09
994.41	1091.86
994.70	1092.09
994.99	1083.67
995.28	1073.84
995.57	1074.31
995.86	1073.37
996.15	1081.33
996.44	1086.01
996.73	1094.20
997.02	1092.33
997.31	1096.54
997.59	1081.33
997.88	1081.33
998.17	1072.43
998.46	1075.71
998.75	1071.03
999.04	1079.92
999.33	1085.07
999.62	1094.90
999.91	1098.88
1000.20	1111.29
1000.49	1114.56
1000.77	1107.78
1001.06	1100.05
1001.35	1094.67
1001.64	1091.39
1001.93	1083.90
1002.22	1073.84
1002.51	1082.26
1002.79	1081.80
1003.08	1071.03
1003.37	1071.26
1003.66	1071.73
1003.95	1062.37
1004.23	1063.54
1004.52	1073.84
1004.81	1073.14
1005.10	1078.75
1005.39	1087.65
1005.67	1081.80
1005.96	1078.05
1006.25	1080.63
1006.54	1090.46
1006.83	1089.05
1007.11	1097.01
1007.40	1099.12
1007.69	1100.52
1007.97	1097.71
1008.26	1093.03
1008.55	1089.52
1008.84	1091.16
1009.12	1089.52
1009.41	1086.71
1009.70	1087.88
1009.98	1091.39
1010.27	1076.65
1010.56	1072.67
1010.85	1068.45
1011.13	1073.60
1011.42	1068.92
1011.71	1078.75
1011.99	1083.90
1012.28	1085.54
1012.56	1087.65
1012.85	1079.92
1013.14	1077.58
1013.42	1076.88
1013.71	1072.90
1014.00	1063.07
1014.28	1066.11
1014.57	1066.11
1014.85	1067.99
1015.14	1073.14
1015.43	1078.52
1015.71	1084.60
1016.00	1081.09
1016.28	1089.99
1016.57	1094.20
1016.85	1088.82
1017.14	1092.33
1017.43	1104.03
1017.71	1093.03
1018.00	1097.48
1018.28	1102.86
1018.57	1097.71
1018.85	1084.14
1019.14	1090.22
1019.42	1077.82
1019.71	1076.18
1019.99	1081.80
1020.28	1085.77
1020.56	1084.84
1020.85	1090.92
1021.13	1090.69
1021.42	1076.65
1021.70	1072.43
1021.99	1070.33
1022.27	1077.11
1022.55	1095.37
1022.84	1129.31
>>>>>End Processed Spectral Data<<<<<
