SpectraSuite Data File
++++++++++++++++++++++++++++++++++++
Date: Mon Aug 26 10:25:46 PDT 2019
User: corrico
Dark Spectrum Present: No
Reference Spectrum Present: No
Number of Sampled Component Spectra: 1
Spectrometers: USB2+H06089
Integration Time (usec): 10000 (USB2+H06089)
Spectra Averaged: 2 (USB2+H06089)
Boxcar Smoothing: 2 (USB2+H06089)
Correct for Electrical Dark: No (USB2+H06089)
Strobe/Lamp Enabled: No (USB2+H06089)
Correct for Detector Non-linearity: No (USB2+H06089)
Correct for Stray Light: No (USB2+H06089)
Number of Pixels in Processed Spectrum: 2048
>>>>>Begin Processed Spectral Data<<<<<
339.70	1053.24
340.07	1053.24
340.45	1007.37
340.82	979.51
341.19	957.51
341.57	928.02
341.94	920.30
342.31	899.23
342.69	897.13
343.06	887.53
343.43	887.77
343.81	890.57
344.18	895.96
344.55	895.49
344.93	908.36
345.30	914.92
345.67	920.77
346.04	940.43
346.42	948.62
346.79	942.77
347.16	944.17
347.54	957.28
347.91	958.22
348.28	973.66
348.65	989.11
349.03	999.41
349.40	1000.58
349.77	1011.81
350.14	1018.60
350.52	1012.28
350.89	1011.35
351.26	1012.52
351.63	1018.60
352.01	1020.24
352.38	1034.52
352.75	1048.56
353.12	1055.58
353.50	1048.09
353.87	1044.11
354.24	1048.56
354.61	1045.75
354.98	1045.75
355.36	1056.99
355.73	1056.99
356.10	1055.11
356.47	1057.45
356.84	1069.39
357.22	1072.43
357.59	1080.86
357.96	1086.48
358.33	1089.29
358.70	1090.46
359.08	1093.26
359.45	1093.26
359.82	1092.80
360.19	1089.05
360.56	1081.09
360.94	1078.28
361.31	1080.63
361.68	1074.77
362.05	1075.71
362.42	1076.88
362.79	1067.28
363.16	1066.11
363.54	1077.82
363.91	1074.77
364.28	1081.33
364.65	1093.50
365.02	1092.33
365.39	1084.37
365.76	1089.99
366.14	1078.52
366.51	1080.63
366.88	1075.01
367.25	1074.77
367.62	1075.48
367.99	1078.99
368.36	1067.05
368.73	1058.39
369.10	1056.52
369.48	1054.41
369.85	1060.26
370.22	1066.11
370.59	1075.94
370.96	1082.03
371.33	1077.35
371.70	1065.88
372.07	1063.54
372.44	1069.39
372.81	1067.05
373.18	1078.75
373.55	1080.39
373.93	1081.56
374.30	1081.56
374.67	1083.67
375.04	1083.43
375.41	1093.50
375.78	1086.94
376.15	1080.63
376.52	1078.99
376.89	1075.94
377.26	1068.45
377.63	1082.97
378.00	1089.05
378.37	1093.97
378.74	1095.60
379.11	1101.22
379.48	1101.92
379.85	1097.01
380.22	1086.94
380.59	1076.41
380.96	1077.11
381.33	1066.82
381.70	1064.01
382.07	1062.14
382.44	1069.39
382.81	1059.09
383.18	1058.86
383.55	1061.20
383.92	1064.71
384.29	1058.39
384.66	1055.82
385.03	1060.26
385.40	1053.24
385.77	1041.54
386.14	1052.07
386.51	1054.18
386.88	1046.92
387.25	1060.26
387.62	1071.97
387.99	1073.84
388.36	1075.94
388.73	1082.26
389.10	1082.97
389.46	1081.80
389.83	1076.88
390.20	1078.99
390.57	1084.37
390.94	1085.54
391.31	1085.31
391.68	1080.39
392.05	1082.97
392.42	1071.73
392.79	1071.50
393.16	1071.97
393.53	1071.03
393.89	1066.82
394.26	1068.92
394.63	1065.18
395.00	1066.35
395.37	1073.14
395.74	1067.75
396.11	1072.20
396.48	1073.60
396.84	1069.62
397.21	1068.22
397.58	1077.11
397.95	1080.63
398.32	1074.54
398.69	1073.37
399.06	1069.39
399.42	1066.11
399.79	1057.22
400.16	1063.07
400.53	1072.20
400.90	1078.99
401.27	1082.03
401.64	1085.54
402.00	1081.80
402.37	1073.14
402.74	1063.77
403.11	1058.16
403.48	1059.09
403.84	1062.14
404.21	1075.71
404.58	1081.80
404.95	1090.92
405.32	1096.31
405.68	1095.37
406.05	1092.09
406.42	1098.65
406.79	1106.84
407.16	1097.01
407.52	1097.24
407.89	1094.90
408.26	1085.54
408.63	1074.77
408.99	1084.37
409.36	1082.50
409.73	1087.65
410.10	1090.46
410.47	1090.46
410.83	1084.60
411.20	1085.54
411.57	1064.01
411.94	1061.67
412.30	1065.65
412.67	1070.56
413.04	1077.11
413.40	1098.65
413.77	1095.14
414.14	1087.41
414.51	1085.77
414.87	1082.03
415.24	1075.48
415.61	1078.99
415.97	1081.09
416.34	1078.05
416.71	1069.16
417.08	1062.84
417.44	1072.67
417.81	1079.46
418.18	1081.56
418.54	1085.77
418.91	1082.73
419.28	1079.22
419.64	1071.73
420.01	1074.31
420.38	1074.07
420.74	1087.41
421.11	1084.60
421.48	1081.56
421.84	1069.39
422.21	1066.35
422.58	1063.54
422.94	1057.22
423.31	1060.96
423.68	1065.41
424.04	1071.97
424.41	1069.39
424.77	1071.97
425.14	1080.86
425.51	1079.69
425.87	1077.35
426.24	1079.92
426.61	1083.67
426.97	1071.97
427.34	1072.90
427.70	1071.03
428.07	1071.26
428.44	1053.24
428.80	1056.99
429.17	1063.54
429.53	1072.90
429.90	1077.58
430.27	1098.18
430.63	1097.71
431.00	1097.01
431.36	1086.71
431.73	1087.88
432.09	1086.01
432.46	1087.41
432.83	1078.52
433.19	1072.67
433.56	1071.26
433.92	1073.60
434.29	1075.94
434.65	1082.26
435.02	1089.29
435.38	1086.71
435.75	1086.24
436.11	1084.14
436.48	1088.82
436.84	1094.20
437.21	1093.73
437.57	1090.69
437.94	1089.05
438.30	1083.43
438.67	1082.73
439.03	1082.03
439.40	1085.31
439.76	1084.60
440.13	1091.16
440.49	1092.09
440.86	1094.67
441.22	1087.18
441.59	1086.94
441.95	1075.24
442.32	1069.16
442.68	1058.16
443.05	1067.28
443.41	1069.39
443.78	1064.71
444.14	1063.31
444.51	1075.71
444.87	1067.28
445.24	1065.88
445.60	1075.94
445.96	1085.77
446.33	1071.03
446.69	1071.97
447.06	1067.99
447.42	1066.11
447.79	1060.03
448.15	1072.67
448.51	1066.35
448.88	1071.50
449.24	1068.92
449.61	1069.86
449.97	1071.73
450.33	1078.28
450.70	1072.43
451.06	1067.99
451.43	1057.45
451.79	1047.16
452.15	1049.26
452.52	1050.90
452.88	1063.77
453.24	1078.75
453.61	1083.20
453.97	1084.37
454.34	1089.99
454.70	1086.01
455.06	1087.18
455.43	1086.71
455.79	1091.39
456.15	1097.71
456.52	1094.67
456.88	1095.37
457.24	1093.26
457.61	1083.90
457.97	1074.54
458.33	1073.60
458.70	1073.37
459.06	1078.28
459.42	1087.88
459.79	1094.90
460.15	1099.35
460.51	1099.58
460.88	1093.97
461.24	1094.67
461.60	1087.41
461.96	1088.58
462.33	1083.67
462.69	1087.65
463.05	1082.50
463.42	1089.52
463.78	1092.80
464.14	1090.92
464.50	1095.84
464.87	1091.39
465.23	1086.71
465.59	1080.39
465.95	1089.29
466.32	1087.18
466.68	1082.26
467.04	1081.09
467.40	1084.14
467.77	1078.05
468.13	1076.41
468.49	1075.24
468.85	1068.69
469.22	1068.45
469.58	1071.73
469.94	1069.39
470.30	1076.65
470.66	1084.14
471.03	1086.71
471.39	1087.18
471.75	1085.07
472.11	1079.46
472.47	1071.03
472.84	1070.09
473.20	1068.92
473.56	1061.67
473.92	1068.22
474.28	1080.39
474.65	1079.92
475.01	1073.37
475.37	1086.24
475.73	1091.39
476.09	1091.16
476.45	1090.46
476.81	1082.97
477.18	1079.22
477.54	1068.92
477.90	1061.67
478.26	1057.22
478.62	1062.37
478.98	1053.71
479.34	1064.71
479.71	1074.31
480.07	1072.20
480.43	1072.90
480.79	1086.71
481.15	1077.35
481.51	1067.75
481.87	1065.88
482.23	1071.03
482.59	1074.77
482.96	1091.16
483.32	1094.43
483.68	1097.95
484.04	1091.63
484.40	1086.48
484.76	1076.65
485.12	1073.84
485.48	1083.43
485.84	1100.29
486.20	1094.90
486.56	1085.77
486.92	1086.71
487.28	1083.20
487.64	1070.80
488.00	1076.18
488.37	1083.43
488.73	1079.22
489.09	1069.39
489.45	1070.33
489.81	1070.33
490.17	1072.90
490.53	1079.69
490.89	1089.05
491.25	1085.07
491.61	1087.65
491.97	1089.99
492.33	1077.82
492.69	1084.84
493.05	1086.94
493.41	1075.01
493.77	1065.41
494.13	1075.94
494.49	1067.52
494.85	1072.43
495.21	1077.11
495.57	1075.71
495.93	1078.28
496.29	1080.16
496.64	1077.11
497.00	1080.63
497.36	1085.77
497.72	1090.46
498.08	1082.97
498.44	1086.48
498.80	1079.22
499.16	1079.69
499.52	1075.71
499.88	1073.37
500.24	1066.58
500.60	1064.48
500.96	1064.48
501.32	1061.20
501.68	1066.82
502.03	1077.82
502.39	1086.48
502.75	1089.99
503.11	1086.94
503.47	1093.03
503.83	1088.82
504.19	1083.20
504.55	1080.86
504.91	1087.18
505.26	1079.46
505.62	1073.84
505.98	1076.18
506.34	1078.75
506.70	1073.14
507.06	1074.54
507.42	1075.71
507.78	1081.56
508.13	1075.24
508.49	1073.37
508.85	1071.50
509.21	1070.80
509.57	1069.16
509.93	1057.45
510.28	1068.92
510.64	1081.33
511.00	1076.65
511.36	1067.99
511.72	1082.50
512.07	1080.16
512.43	1083.67
512.79	1080.86
513.15	1082.97
513.51	1086.24
513.86	1079.69
514.22	1060.26
514.58	1073.14
514.94	1078.75
515.30	1073.37
515.65	1073.60
516.01	1077.11
516.37	1076.88
516.73	1069.62
517.08	1075.48
517.44	1071.26
517.80	1078.28
518.16	1077.58
518.51	1079.92
518.87	1076.41
519.23	1086.94
519.59	1081.33
519.94	1080.16
520.30	1088.35
520.66	1100.52
521.01	1110.82
521.37	1115.73
521.73	1116.44
522.09	1113.86
522.44	1104.97
522.80	1093.26
523.16	1089.99
523.51	1084.37
523.87	1084.60
524.23	1078.75
524.58	1069.16
524.94	1073.84
525.30	1069.62
525.65	1079.92
526.01	1089.75
526.37	1087.18
526.72	1079.92
527.08	1080.63
527.44	1070.56
527.79	1074.31
528.15	1089.05
528.51	1097.24
528.86	1107.31
529.22	1101.92
529.58	1098.18
529.93	1093.03
530.29	1087.41
530.65	1092.56
531.00	1095.14
531.36	1083.43
531.71	1091.86
532.07	1109.65
532.43	1104.50
532.78	1109.41
533.14	1112.46
533.49	1101.92
533.85	1096.07
534.21	1089.75
534.56	1089.29
534.92	1088.35
535.27	1089.29
535.63	1077.11
535.98	1080.86
536.34	1079.69
536.69	1084.84
537.05	1085.54
537.41	1092.80
537.76	1094.90
538.12	1095.84
538.47	1097.24
538.83	1100.05
539.18	1098.88
539.54	1103.09
539.89	1101.69
540.25	1096.78
540.60	1098.88
540.96	1093.03
541.31	1081.80
541.67	1080.39
542.02	1092.56
542.38	1092.09
542.73	1099.58
543.09	1104.26
543.44	1108.48
543.80	1099.12
544.15	1096.07
544.51	1087.18
544.86	1089.99
545.22	1083.43
545.57	1086.94
545.93	1086.01
546.28	1081.09
546.64	1082.03
546.99	1080.39
547.35	1079.92
547.70	1086.01
548.05	1087.65
548.41	1084.84
548.76	1088.82
549.12	1092.56
549.47	1086.94
549.83	1095.60
550.18	1085.07
550.53	1086.48
550.89	1067.05
551.24	1072.67
551.60	1074.77
551.95	1085.54
552.30	1088.12
552.66	1096.31
553.01	1091.63
553.37	1084.60
553.72	1090.22
554.07	1093.03
554.43	1098.88
554.78	1096.54
555.13	1095.84
555.49	1084.14
555.84	1075.48
556.19	1071.50
556.55	1073.37
556.90	1071.97
557.26	1074.77
557.61	1081.80
557.96	1079.69
558.32	1080.86
558.67	1093.50
559.02	1097.71
559.37	1093.73
559.73	1090.69
560.08	1094.43
560.43	1095.14
560.79	1095.60
561.14	1094.67
561.49	1100.05
561.85	1093.50
562.20	1078.28
562.55	1066.58
562.90	1070.56
563.26	1064.71
563.61	1067.52
563.96	1078.05
564.32	1087.65
564.67	1083.20
565.02	1085.31
565.37	1084.84
565.73	1081.09
566.08	1075.48
566.43	1066.82
566.78	1062.14
567.14	1062.60
567.49	1061.20
567.84	1061.20
568.19	1061.90
568.54	1067.52
568.90	1062.37
569.25	1067.05
569.60	1070.56
569.95	1075.24
570.31	1082.97
570.66	1083.43
571.01	1071.50
571.36	1073.14
571.71	1078.75
572.06	1066.11
572.42	1069.16
572.77	1074.31
573.12	1071.03
573.47	1066.35
573.82	1070.56
574.18	1071.73
574.53	1075.01
574.88	1075.94
575.23	1082.03
575.58	1079.22
575.93	1080.86
576.28	1079.22
576.64	1085.31
576.99	1081.33
577.34	1088.35
577.69	1080.63
578.04	1076.41
578.39	1067.28
578.74	1076.41
579.09	1068.45
579.44	1080.16
579.80	1088.12
580.15	1089.52
580.50	1084.14
580.85	1091.63
581.20	1093.26
581.55	1103.09
581.90	1108.71
582.25	1106.84
582.60	1106.84
582.95	1098.88
583.30	1090.22
583.65	1090.46
584.00	1086.24
584.35	1077.58
584.71	1074.07
585.06	1075.01
585.41	1078.75
585.76	1085.54
586.11	1097.95
586.46	1105.20
586.81	1103.56
587.16	1100.99
587.51	1093.26
587.86	1087.18
588.21	1088.12
588.56	1086.01
588.91	1082.97
589.26	1097.71
589.61	1097.95
589.96	1095.84
590.31	1098.18
590.66	1097.48
591.01	1081.80
591.36	1086.94
591.71	1085.54
592.06	1080.16
592.41	1079.69
592.76	1082.97
593.10	1080.86
593.45	1089.52
593.80	1094.90
594.15	1094.67
594.50	1096.54
594.85	1106.37
595.20	1091.86
595.55	1088.82
595.90	1092.80
596.25	1092.56
596.60	1082.50
596.95	1084.37
597.30	1081.56
597.64	1130.24
597.99	1128.84
598.34	1131.88
598.69	1129.31
599.04	1135.86
599.39	1088.12
599.74	1076.88
600.09	1073.84
600.44	1075.48
600.78	1071.50
601.13	1067.28
601.48	1081.09
601.83	1084.84
602.18	1093.50
602.53	1097.95
602.88	1103.56
603.22	1103.33
603.57	1091.86
603.92	1091.16
604.27	1078.52
604.62	1074.07
604.97	1070.09
605.31	1080.16
605.66	1074.77
606.01	1080.39
606.36	1084.37
606.71	1090.69
607.05	1091.16
607.40	1101.92
607.75	1097.24
608.10	1090.46
608.44	1095.60
608.79	1095.14
609.14	1086.24
609.49	1085.07
609.84	1088.12
610.18	1080.63
610.53	1080.16
610.88	1086.24
611.23	1097.24
611.57	1103.33
611.92	1106.84
612.27	1100.75
612.62	1096.07
612.96	1100.99
613.31	1098.65
613.66	1097.01
614.00	1098.65
614.35	1091.86
614.70	1089.52
615.05	1087.65
615.39	1089.52
615.74	1085.77
616.09	1095.14
616.43	1089.99
616.78	1081.80
617.13	1071.97
617.47	1088.82
617.82	1078.05
618.17	1074.54
618.51	1077.35
618.86	1074.31
619.21	1062.37
619.55	1075.01
619.90	1077.58
620.25	1082.26
620.59	1084.84
620.94	1089.75
621.29	1076.41
621.63	1076.88
621.98	1071.26
622.32	1073.37
622.67	1070.56
623.02	1080.39
623.36	1083.90
623.71	1087.65
624.05	1091.39
624.40	1094.67
624.75	1102.39
625.09	1103.33
625.44	1105.44
625.78	1107.54
626.13	1107.31
626.48	1096.31
626.82	1099.35
627.17	1092.09
627.51	1085.77
627.86	1082.73
628.20	1082.97
628.55	1078.99
628.89	1082.73
629.24	1087.65
629.58	1087.18
629.93	1087.65
630.28	1082.97
630.62	1086.24
630.97	1068.22
631.31	1071.26
631.66	1074.07
632.00	1073.37
632.35	1079.22
632.69	1098.65
633.04	1095.14
633.38	1095.60
633.73	1104.97
634.07	1092.09
634.42	1075.71
634.76	1079.69
635.11	1071.03
635.45	1063.31
635.79	1062.14
636.14	1072.90
636.48	1075.24
636.83	1070.33
637.17	1066.82
637.52	1060.96
637.86	1063.31
638.21	1044.58
638.55	1048.79
638.89	1057.69
639.24	1071.97
639.58	1074.31
639.93	1092.09
640.27	1109.41
640.61	1108.01
640.96	1112.22
641.30	1099.58
641.65	1090.46
641.99	1080.63
642.33	1086.24
642.68	1074.07
643.02	1092.80
643.37	1093.50
643.71	1098.65
644.05	1086.71
644.40	1094.90
644.74	1088.82
645.08	1089.99
645.43	1080.39
645.77	1085.31
646.11	1082.26
646.46	1085.77
646.80	1085.54
647.14	1087.18
647.49	1097.71
647.83	1097.48
648.17	1089.99
648.52	1092.33
648.86	1093.73
649.20	1085.31
649.55	1087.65
649.89	1089.99
650.23	1093.50
650.57	1083.43
650.92	1085.77
651.26	1082.97
651.60	1079.46
651.95	1076.18
652.29	1096.31
652.63	1089.99
652.97	1089.99
653.32	1084.37
653.66	1080.16
654.00	1073.37
654.34	1085.31
654.69	1086.01
655.03	1095.14
655.37	1093.03
655.71	1093.03
656.05	1078.05
656.40	1075.94
656.74	1074.31
657.08	1081.33
657.42	1077.82
657.76	1084.60
658.11	1080.63
658.45	1082.73
658.79	1078.05
659.13	1076.18
659.47	1069.86
659.82	1077.35
660.16	1070.09
660.50	1079.22
660.84	1076.65
661.18	1085.07
661.52	1073.37
661.87	1075.48
662.21	1069.62
662.55	1071.50
662.89	1071.50
663.23	1089.05
663.57	1095.60
663.91	1094.43
664.25	1101.69
664.60	1094.43
664.94	1080.39
665.28	1074.77
665.62	1072.43
665.96	1072.43
666.30	1073.14
666.64	1080.16
666.98	1081.56
667.32	1087.88
667.66	1082.26
668.01	1091.39
668.35	1091.39
668.69	1092.56
669.03	1095.84
669.37	1099.35
669.71	1092.80
670.05	1094.67
670.39	1097.95
670.73	1089.75
671.07	1093.50
671.41	1099.35
671.75	1099.12
672.09	1095.14
672.43	1089.99
672.77	1088.82
673.11	1086.24
673.45	1082.97
673.79	1077.11
674.13	1084.60
674.47	1085.31
674.81	1082.50
675.15	1084.84
675.49	1088.82
675.83	1082.03
676.17	1072.20
676.51	1067.99
676.85	1068.69
677.19	1068.92
677.53	1073.37
677.87	1076.88
678.21	1081.33
678.55	1083.43
678.89	1086.48
679.23	1087.65
679.57	1085.07
679.90	1078.28
680.24	1071.50
680.58	1072.67
680.92	1071.50
681.26	1080.63
681.60	1084.14
681.94	1093.73
682.28	1093.03
682.62	1088.82
682.96	1075.24
683.29	1074.54
683.63	1070.33
683.97	1075.48
684.31	1080.16
684.65	1086.48
684.99	1090.92
685.33	1098.65
685.67	1084.60
686.00	1088.12
686.34	1078.99
686.68	1077.11
687.02	1064.71
687.36	1072.43
687.70	1064.24
688.03	1077.58
688.37	1077.58
688.71	1081.56
689.05	1074.77
689.39	1078.75
689.72	1077.11
690.06	1080.16
690.40	1078.75
690.74	1084.37
691.08	1087.88
691.41	1086.01
691.75	1080.16
692.09	1076.88
692.43	1081.09
692.76	1082.03
693.10	1079.69
693.44	1085.77
693.78	1094.20
694.11	1089.29
694.45	1080.16
694.79	1087.18
695.13	1075.94
695.46	1068.69
695.80	1075.71
696.14	1092.56
696.48	1093.73
696.81	1105.44
697.15	1104.03
697.49	1094.20
697.82	1080.16
698.16	1076.41
698.50	1079.69
698.83	1088.35
699.17	1093.26
699.51	1099.35
699.84	1096.07
700.18	1092.09
700.52	1081.33
700.85	1076.88
701.19	1074.31
701.53	1073.37
701.86	1067.75
702.20	1066.35
702.54	1073.84
702.87	1074.07
703.21	1068.22
703.55	1068.92
703.88	1075.01
704.22	1071.03
704.55	1068.92
704.89	1084.84
705.23	1074.07
705.56	1078.52
705.90	1073.84
706.23	1073.60
706.57	1060.73
706.91	1071.97
707.24	1064.01
707.58	1072.20
707.91	1084.60
708.25	1085.77
708.58	1081.80
708.92	1080.86
709.26	1076.18
709.59	1073.14
709.93	1079.22
710.26	1079.69
710.60	1085.54
710.93	1081.09
711.27	1075.94
711.60	1067.99
711.94	1071.03
712.27	1069.62
712.61	1071.50
712.94	1069.16
713.28	1078.05
713.61	1065.65
713.95	1064.94
714.28	1066.35
714.62	1063.07
714.95	1066.11
715.29	1076.18
715.62	1076.41
715.96	1084.60
716.29	1087.88
716.63	1074.07
716.96	1080.16
717.29	1078.28
717.63	1067.52
717.96	1073.60
718.30	1082.26
718.63	1074.31
718.97	1077.35
719.30	1083.20
719.63	1073.37
719.97	1075.71
720.30	1081.33
720.64	1083.67
720.97	1078.52
721.30	1085.54
721.64	1075.71
721.97	1080.63
722.31	1074.77
722.64	1079.69
722.97	1079.69
723.31	1084.14
723.64	1075.94
723.97	1073.60
724.31	1080.16
724.64	1085.77
724.98	1089.99
725.31	1088.35
725.64	1094.43
725.98	1091.63
726.31	1086.24
726.64	1077.82
726.97	1078.99
727.31	1083.20
727.64	1080.16
727.97	1074.07
728.31	1079.92
728.64	1073.84
728.97	1067.52
729.31	1064.48
729.64	1062.14
729.97	1067.75
730.30	1080.16
730.64	1080.86
730.97	1085.07
731.30	1094.20
731.63	1094.43
731.97	1093.03
732.30	1089.05
732.63	1091.86
732.96	1095.84
733.30	1079.46
733.63	1077.35
733.96	1079.22
734.29	1075.94
734.63	1066.11
734.96	1079.92
735.29	1080.63
735.62	1090.69
735.95	1099.58
736.29	1102.16
736.62	1102.63
736.95	1095.60
737.28	1088.82
737.61	1078.05
737.94	1074.77
738.28	1074.07
738.61	1077.35
738.94	1076.41
739.27	1083.43
739.60	1084.84
739.93	1084.37
740.27	1089.99
740.60	1096.78
740.93	1090.69
741.26	1082.03
741.59	1076.88
741.92	1078.05
742.25	1064.71
742.58	1067.99
742.91	1079.92
743.25	1080.16
743.58	1071.03
743.91	1077.58
744.24	1074.54
744.57	1071.26
744.90	1078.05
745.23	1096.31
745.56	1097.48
745.89	1104.73
746.22	1105.90
746.55	1096.31
746.88	1085.07
747.21	1094.20
747.54	1090.46
747.87	1095.37
748.20	1105.90
748.53	1096.54
748.87	1083.20
749.20	1081.33
749.53	1086.48
749.86	1078.75
750.19	1092.56
750.52	1096.78
750.85	1091.16
751.18	1086.48
751.51	1098.65
751.84	1089.29
752.16	1085.54
752.49	1084.84
752.82	1075.01
753.15	1058.39
753.48	1053.01
753.81	1060.73
754.14	1061.20
754.47	1068.22
754.80	1073.60
755.13	1095.84
755.46	1101.92
755.79	1097.24
756.12	1097.71
756.45	1089.99
756.78	1073.14
757.11	1061.90
757.43	1071.03
757.76	1076.65
758.09	1089.75
758.42	1096.78
758.75	1091.39
759.08	1084.60
759.41	1069.62
759.74	1062.84
760.07	1059.79
760.39	1066.58
760.72	1077.35
761.05	1086.71
761.38	1087.18
761.71	1088.58
762.04	1092.80
762.36	1089.05
762.69	1086.01
763.02	1084.37
763.35	1084.60
763.68	1082.97
764.01	1085.31
764.33	1086.48
764.66	1095.14
764.99	1086.01
765.32	1087.65
765.65	1077.35
765.97	1075.48
766.30	1067.28
766.63	1078.99
766.96	1069.39
767.28	1078.99
767.61	1079.92
767.94	1077.58
768.27	1077.82
768.59	1088.12
768.92	1080.39
769.25	1080.63
769.58	1083.67
769.90	1071.03
770.23	1063.77
770.56	1072.90
770.89	1072.67
771.21	1075.24
771.54	1081.80
771.87	1086.48
772.19	1088.82
772.52	1088.82
772.85	1093.97
773.17	1097.01
773.50	1092.80
773.83	1082.50
774.15	1075.48
774.48	1071.03
774.81	1069.39
775.13	1067.52
775.46	1059.79
775.79	1067.52
776.11	1057.45
776.44	1057.45
776.77	1060.73
777.09	1074.77
777.42	1070.80
777.74	1085.54
778.07	1083.20
778.40	1081.56
778.72	1076.65
779.05	1076.18
779.37	1065.18
779.70	1066.35
780.03	1062.37
780.35	1067.05
780.68	1071.73
781.00	1076.41
781.33	1083.67
781.65	1094.43
781.98	1093.50
782.31	1079.92
782.63	1078.99
782.96	1070.33
783.28	1061.67
783.61	1060.73
783.93	1075.24
784.26	1079.69
784.58	1093.03
784.91	1095.37
785.23	1089.75
785.56	1099.82
785.88	1102.16
786.21	1094.43
786.53	1106.14
786.86	1105.90
787.18	1097.71
787.51	1095.84
787.83	1103.56
788.16	1094.20
788.48	1101.69
788.81	1093.50
789.13	1088.82
789.46	1082.26
789.78	1088.12
790.10	1084.84
790.43	1084.14
790.75	1091.16
791.08	1078.99
791.40	1068.69
791.73	1079.92
792.05	1093.03
792.37	1101.69
792.70	1103.33
793.02	1116.90
793.35	1104.26
793.67	1096.07
793.99	1087.65
794.32	1089.75
794.64	1076.65
794.96	1078.28
795.29	1087.41
795.61	1074.07
795.93	1075.48
796.26	1067.75
796.58	1071.26
796.91	1066.82
797.23	1074.31
797.55	1071.03
797.87	1085.31
798.20	1080.86
798.52	1075.94
798.84	1073.14
799.17	1072.43
799.49	1071.03
799.81	1066.35
800.14	1075.01
800.46	1078.28
800.78	1094.67
801.10	1093.03
801.43	1102.39
801.75	1097.01
802.07	1104.73
802.40	1091.16
802.72	1093.26
803.04	1089.29
803.36	1078.28
803.69	1076.88
804.01	1083.20
804.33	1085.54
804.65	1097.48
804.97	1101.46
805.30	1098.65
805.62	1098.41
805.94	1089.99
806.26	1080.86
806.58	1087.18
806.91	1084.14
807.23	1081.33
807.55	1080.63
807.87	1074.54
808.19	1065.88
808.52	1070.09
808.84	1070.33
809.16	1075.48
809.48	1088.35
809.80	1092.33
810.12	1092.56
810.44	1095.37
810.77	1088.12
811.09	1079.22
811.41	1075.48
811.73	1071.50
812.05	1070.09
812.37	1081.33
812.69	1075.48
813.01	1085.77
813.33	1085.77
813.66	1085.77
813.98	1081.33
814.30	1088.12
814.62	1082.03
814.94	1080.86
815.26	1084.37
815.58	1080.86
815.90	1081.09
816.22	1083.90
816.54	1088.12
816.86	1078.99
817.18	1082.26
817.50	1079.92
817.82	1076.65
818.14	1077.82
818.46	1085.07
818.78	1080.63
819.10	1087.41
819.42	1086.71
819.74	1081.33
820.06	1081.33
820.38	1084.37
820.70	1076.65
821.02	1085.07
821.34	1088.58
821.66	1088.58
821.98	1082.03
822.30	1080.39
822.62	1075.01
822.94	1072.43
823.26	1067.52
823.58	1073.37
823.90	1079.69
824.22	1083.67
824.54	1078.99
824.86	1069.39
825.18	1062.37
825.50	1063.31
825.81	1063.31
826.13	1063.31
826.45	1080.16
826.77	1085.07
827.09	1076.18
827.41	1075.71
827.73	1083.67
828.05	1076.88
828.36	1080.63
828.68	1083.90
829.00	1082.50
829.32	1084.84
829.64	1089.05
829.96	1080.16
830.28	1089.75
830.59	1085.07
830.91	1079.46
831.23	1078.75
831.55	1088.35
831.87	1091.63
832.19	1100.99
832.50	1099.12
832.82	1091.39
833.14	1089.29
833.46	1078.28
833.78	1073.37
834.09	1082.26
834.41	1091.86
834.73	1088.12
835.05	1083.67
835.36	1078.52
835.68	1070.80
836.00	1060.96
836.32	1065.65
836.63	1065.65
836.95	1076.65
837.27	1081.56
837.59	1092.80
837.90	1102.16
838.22	1111.99
838.54	1101.69
838.85	1094.90
839.17	1080.16
839.49	1071.73
839.80	1064.71
840.12	1062.60
840.44	1067.28
840.76	1081.80
841.07	1091.16
841.39	1094.20
841.71	1104.73
842.02	1097.48
842.34	1093.03
842.65	1084.37
842.97	1077.82
843.29	1065.65
843.60	1069.86
843.92	1066.11
844.24	1070.80
844.55	1085.07
844.87	1097.48
845.18	1093.03
845.50	1099.58
845.82	1096.54
846.13	1083.90
846.45	1079.92
846.76	1077.82
847.08	1082.73
847.40	1077.35
847.71	1087.88
848.03	1082.03
848.34	1087.18
848.66	1069.16
848.97	1071.50
849.29	1064.24
849.60	1062.60
849.92	1065.88
850.24	1078.99
850.55	1078.28
850.87	1088.35
851.18	1089.05
851.50	1084.60
851.81	1084.60
852.13	1089.05
852.44	1079.22
852.76	1079.92
853.07	1082.73
853.39	1080.63
853.70	1079.69
854.01	1080.39
854.33	1087.18
854.64	1087.88
854.96	1093.73
855.27	1098.41
855.59	1096.07
855.90	1091.39
856.22	1097.95
856.53	1082.73
856.84	1079.69
857.16	1084.37
857.47	1087.18
857.79	1078.28
858.10	1092.80
858.41	1085.31
858.73	1086.48
859.04	1072.43
859.36	1070.56
859.67	1064.01
859.98	1065.88
860.30	1060.26
860.61	1072.67
860.92	1076.41
861.24	1078.99
861.55	1077.11
861.87	1078.75
862.18	1080.63
862.49	1086.48
862.81	1087.18
863.12	1096.54
863.43	1101.46
863.74	1104.26
864.06	1098.88
864.37	1088.58
864.68	1085.07
865.00	1089.52
865.31	1087.41
865.62	1090.92
865.94	1096.07
866.25	1093.50
866.56	1089.05
866.87	1090.22
867.19	1082.26
867.50	1082.50
867.81	1078.28
868.12	1071.03
868.44	1068.92
868.75	1072.90
869.06	1071.50
869.37	1082.03
869.68	1095.37
870.00	1092.09
870.31	1091.86
870.62	1092.80
870.93	1091.63
871.24	1083.20
871.56	1086.94
871.87	1084.60
872.18	1089.52
872.49	1085.31
872.80	1091.39
873.12	1093.26
873.43	1097.24
873.74	1091.63
874.05	1087.41
874.36	1071.50
874.67	1067.99
874.98	1063.07
875.29	1061.67
875.61	1074.07
875.92	1081.80
876.23	1070.33
876.54	1071.73
876.85	1080.86
877.16	1080.39
877.47	1076.41
877.78	1090.22
878.09	1091.86
878.40	1099.58
878.72	1090.69
879.03	1091.16
879.34	1088.35
879.65	1095.60
879.96	1083.67
880.27	1082.26
880.58	1082.73
880.89	1076.41
881.20	1067.05
881.51	1073.14
881.82	1078.52
882.13	1090.22
882.44	1107.07
882.75	1109.41
883.06	1104.50
883.37	1104.97
883.68	1090.69
883.99	1079.92
884.30	1086.24
884.61	1093.50
884.92	1096.78
885.23	1110.82
885.54	1104.50
885.85	1098.41
886.16	1083.90
886.47	1076.65
886.78	1072.43
887.08	1077.11
887.39	1075.24
887.70	1082.73
888.01	1081.56
888.32	1082.97
888.63	1092.09
888.94	1082.97
889.25	1084.60
889.56	1084.60
889.87	1081.33
890.17	1080.39
890.48	1086.24
890.79	1074.77
891.10	1075.24
891.41	1066.82
891.72	1068.45
892.03	1068.69
892.34	1071.50
892.64	1076.65
892.95	1084.14
893.26	1072.20
893.57	1079.69
893.88	1097.71
894.18	1093.97
894.49	1095.60
894.80	1115.50
895.11	1114.56
895.42	1107.78
895.72	1106.61
896.03	1107.07
896.34	1088.35
896.65	1085.31
896.96	1091.63
897.26	1102.63
897.57	1101.92
897.88	1106.84
898.19	1104.03
898.49	1101.22
898.80	1086.24
899.11	1082.26
899.41	1083.20
899.72	1082.50
900.03	1075.24
900.34	1079.69
900.64	1082.50
900.95	1076.88
901.26	1075.71
901.56	1079.22
901.87	1078.28
902.18	1071.03
902.48	1081.80
902.79	1082.03
903.10	1075.01
903.40	1078.99
903.71	1082.73
904.02	1080.39
904.32	1079.69
904.63	1089.52
904.94	1091.86
905.24	1103.09
905.55	1099.12
905.85	1104.26
906.16	1088.35
906.47	1078.28
906.77	1070.56
907.08	1070.80
907.38	1069.86
907.69	1067.75
908.00	1074.31
908.30	1073.60
908.61	1066.58
908.91	1064.71
909.22	1067.75
909.52	1057.92
909.83	1059.09
910.14	1067.52
910.44	1067.28
910.75	1077.58
911.05	1078.99
911.36	1074.07
911.66	1069.16
911.97	1075.94
912.27	1084.84
912.58	1085.31
912.88	1088.35
913.19	1083.43
913.49	1084.14
913.80	1074.07
914.10	1086.71
914.41	1086.94
914.71	1097.95
915.01	1097.71
915.32	1093.97
915.62	1088.82
915.93	1094.43
916.23	1083.43
916.54	1083.20
916.84	1082.03
917.15	1078.99
917.45	1077.58
917.75	1088.35
918.06	1084.14
918.36	1080.86
918.67	1085.31
918.97	1083.67
919.27	1084.60
919.58	1092.56
919.88	1096.07
920.18	1095.14
920.49	1094.67
920.79	1083.90
921.10	1082.50
921.40	1086.48
921.70	1083.90
922.01	1073.14
922.31	1075.48
922.61	1073.14
922.92	1074.77
923.22	1075.71
923.52	1093.97
923.82	1106.37
924.13	1098.18
924.43	1097.24
924.73	1091.86
925.04	1087.65
925.34	1084.37
925.64	1084.60
925.94	1083.43
926.25	1085.07
926.55	1074.07
926.85	1076.65
927.15	1080.63
927.46	1069.62
927.76	1073.84
928.06	1084.60
928.36	1068.45
928.67	1074.07
928.97	1075.94
929.27	1072.90
929.57	1073.60
929.87	1078.52
930.18	1070.56
930.48	1084.60
930.78	1076.88
931.08	1066.35
931.38	1064.48
931.69	1068.45
931.99	1067.28
932.29	1073.14
932.59	1088.82
932.89	1103.09
933.19	1096.78
933.49	1085.54
933.80	1088.12
934.10	1083.67
934.40	1069.16
934.70	1069.39
935.00	1077.11
935.30	1071.03
935.60	1053.24
935.90	1059.33
936.20	1068.22
936.50	1068.92
936.81	1084.60
937.11	1094.43
937.41	1100.29
937.71	1106.61
938.01	1107.31
938.31	1104.73
938.61	1103.09
938.91	1090.22
939.21	1074.07
939.51	1075.48
939.81	1059.33
940.11	1060.50
940.41	1065.88
940.71	1073.14
941.01	1073.14
941.31	1082.73
941.61	1087.41
941.91	1093.26
942.21	1097.48
942.51	1095.37
942.81	1093.03
943.11	1094.20
943.41	1093.73
943.71	1087.18
944.01	1079.69
944.31	1082.03
944.61	1073.60
944.90	1063.31
945.20	1055.35
945.50	1062.84
945.80	1064.01
946.10	1062.37
946.40	1064.24
946.70	1067.75
947.00	1073.84
947.30	1069.39
947.60	1079.22
947.89	1083.43
948.19	1083.67
948.49	1073.37
948.79	1076.41
949.09	1077.82
949.39	1071.50
949.69	1081.09
949.98	1083.90
950.28	1087.65
950.58	1088.12
950.88	1089.52
951.18	1087.18
951.48	1087.88
951.77	1087.88
952.07	1079.46
952.37	1083.67
952.67	1091.16
952.97	1082.26
953.26	1075.01
953.56	1075.71
953.86	1070.09
954.16	1064.48
954.45	1068.22
954.75	1071.97
955.05	1066.58
955.35	1065.88
955.64	1060.26
955.94	1066.11
956.24	1075.24
956.54	1079.46
956.83	1086.94
957.13	1074.31
957.43	1080.63
957.72	1074.07
958.02	1076.18
958.32	1079.22
958.61	1099.12
958.91	1089.99
959.21	1094.90
959.50	1089.75
959.80	1077.35
960.10	1071.26
960.39	1067.99
960.69	1061.67
960.99	1065.41
961.28	1074.31
961.58	1076.18
961.87	1065.18
962.17	1059.79
962.47	1064.01
962.76	1060.03
963.06	1059.79
963.36	1068.69
963.65	1081.56
963.95	1070.33
964.24	1079.69
964.54	1079.46
964.83	1079.46
965.13	1072.20
965.42	1082.73
965.72	1077.35
966.02	1077.11
966.31	1090.92
966.61	1093.97
966.90	1094.20
967.20	1094.90
967.49	1093.03
967.79	1088.12
968.08	1085.54
968.38	1087.41
968.67	1092.56
968.97	1097.95
969.26	1093.26
969.56	1081.33
969.85	1073.37
970.15	1055.11
970.44	1056.28
970.74	1060.26
971.03	1072.67
971.32	1074.54
971.62	1087.18
971.91	1081.33
972.21	1085.54
972.50	1082.50
972.80	1088.35
973.09	1087.88
973.38	1095.37
973.68	1090.92
973.97	1088.12
974.27	1089.99
974.56	1088.58
974.85	1077.11
975.15	1078.75
975.44	1083.67
975.73	1069.86
976.03	1070.56
976.32	1080.39
976.61	1076.65
976.91	1076.18
977.20	1088.35
977.49	1093.26
977.79	1087.88
978.08	1099.58
978.37	1092.80
978.67	1082.26
978.96	1069.62
979.25	1072.20
979.55	1064.94
979.84	1063.54
980.13	1071.26
980.42	1069.86
980.72	1067.99
981.01	1067.52
981.30	1074.54
981.59	1066.82
981.89	1078.52
982.18	1079.69
982.47	1076.88
982.76	1078.75
983.06	1091.16
983.35	1087.41
983.64	1084.14
983.93	1090.92
984.22	1086.71
984.52	1093.73
984.81	1084.60
985.10	1077.35
985.39	1066.58
985.68	1065.41
985.97	1050.90
986.27	1061.20
986.56	1070.33
986.85	1077.35
987.14	1084.60
987.43	1087.41
987.72	1086.01
988.01	1075.94
988.31	1070.56
988.60	1067.52
988.89	1070.80
989.18	1067.28
989.47	1075.01
989.76	1074.07
990.05	1074.31
990.34	1059.33
990.63	1059.79
990.92	1070.56
991.21	1078.99
991.51	1090.46
991.80	1110.35
992.09	1112.22
992.38	1103.09
992.67	1098.18
992.96	1087.65
993.25	1077.11
993.54	1091.63
993.83	1091.86
994.12	1096.07
994.41	1093.03
994.70	1099.58
994.99	1087.18
995.28	1082.26
995.57	1082.73
995.86	1072.90
996.15	1067.75
996.44	1068.22
996.73	1072.20
997.02	1065.88
997.31	1078.28
997.59	1082.73
997.88	1075.01
998.17	1075.48
998.46	1078.05
998.75	1079.92
999.04	1079.92
999.33	1092.80
999.62	1095.37
999.91	1095.84
1000.20	1090.22
1000.49	1083.20
1000.77	1077.58
1001.06	1071.97
1001.35	1071.03
1001.64	1075.01
1001.93	1077.82
1002.22	1082.26
1002.51	1079.22
1002.79	1084.84
1003.08	1086.71
1003.37	1092.80
1003.66	1090.46
1003.95	1094.43
1004.23	1080.63
1004.52	1068.92
1004.81	1062.37
1005.10	1059.33
1005.39	1071.26
1005.67	1081.56
1005.96	1091.63
1006.25	1089.75
1006.54	1092.09
1006.83	1086.24
1007.11	1080.63
1007.40	1082.26
1007.69	1087.41
1007.97	1090.92
1008.26	1086.48
1008.55	1083.67
1008.84	1087.41
1009.12	1089.75
1009.41	1093.73
1009.70	1094.90
1009.98	1107.78
1010.27	1102.39
1010.56	1089.99
1010.85	1083.43
1011.13	1085.07
1011.42	1080.39
1011.71	1084.84
1011.99	1095.84
1012.28	1100.52
1012.56	1100.29
1012.85	1084.60
1013.14	1085.54
1013.42	1076.65
1013.71	1070.80
1014.00	1075.24
1014.28	1089.99
1014.57	1086.94
1014.85	1090.92
1015.14	1097.24
1015.43	1097.24
1015.71	1093.26
1016.00	1096.07
1016.28	1096.78
1016.57	1092.09
1016.85	1081.80
1017.14	1086.24
1017.43	1082.26
1017.71	1084.84
1018.00	1086.94
1018.28	1094.90
1018.57	1088.35
1018.85	1081.09
1019.14	1082.73
1019.42	1090.22
1019.71	1085.07
1019.99	1086.24
1020.28	1093.03
1020.56	1084.60
1020.85	1069.86
1021.13	1071.73
1021.42	1063.54
1021.70	1051.84
1021.99	1052.77
1022.27	1057.92
1022.55	1059.09
1022.84	1089.52
>>>>>End Processed Spectral Data<<<<<
