SpectraSuite Data File
++++++++++++++++++++++++++++++++++++
Date: Mon Aug 26 10:25:49 PDT 2019
User: corrico
Dark Spectrum Present: No
Reference Spectrum Present: No
Number of Sampled Component Spectra: 1
Spectrometers: USB2+H06089
Integration Time (usec): 10000 (USB2+H06089)
Spectra Averaged: 2 (USB2+H06089)
Boxcar Smoothing: 2 (USB2+H06089)
Correct for Electrical Dark: No (USB2+H06089)
Strobe/Lamp Enabled: No (USB2+H06089)
Correct for Detector Non-linearity: No (USB2+H06089)
Correct for Stray Light: No (USB2+H06089)
Number of Pixels in Processed Spectrum: 2048
>>>>>Begin Processed Spectral Data<<<<<
339.70	1046.22
340.07	1046.22
340.45	990.28
340.82	967.58
341.19	943.94
341.57	920.06
341.94	914.68
342.31	914.45
342.69	908.60
343.06	902.28
343.43	891.74
343.81	884.49
344.18	893.62
344.55	906.49
344.93	907.66
345.30	915.85
345.67	934.81
346.04	946.98
346.42	942.30
346.79	954.24
347.16	963.36
347.54	967.58
347.91	975.30
348.28	989.11
348.65	989.58
349.03	1000.11
349.40	1001.75
349.77	997.77
350.14	1001.75
350.52	1024.22
350.89	1042.47
351.26	1057.69
351.63	1061.67
352.01	1064.48
352.38	1056.05
352.75	1050.43
353.12	1049.50
353.50	1061.20
353.87	1061.67
354.24	1064.24
354.61	1070.09
354.98	1070.80
355.36	1072.90
355.73	1082.50
356.10	1085.77
356.47	1080.39
356.84	1075.71
357.22	1082.50
357.59	1088.58
357.96	1090.46
358.33	1089.05
358.70	1091.16
359.08	1086.71
359.45	1082.97
359.82	1089.99
360.19	1093.73
360.56	1103.80
360.94	1097.95
361.31	1095.84
361.68	1091.86
362.05	1092.56
362.42	1080.86
362.79	1078.52
363.16	1073.60
363.54	1067.52
363.91	1073.60
364.28	1082.50
364.65	1086.24
365.02	1086.94
365.39	1088.12
365.76	1076.41
366.14	1070.09
366.51	1060.03
366.88	1060.03
367.25	1069.39
367.62	1069.86
367.99	1073.60
368.36	1077.58
368.73	1078.52
369.10	1077.11
369.48	1076.18
369.85	1072.90
370.22	1074.77
370.59	1068.92
370.96	1055.11
371.33	1056.28
371.70	1055.58
372.07	1057.69
372.44	1060.50
372.81	1067.52
373.18	1058.86
373.55	1047.16
373.93	1047.39
374.30	1043.41
374.67	1051.37
375.04	1056.75
375.41	1065.88
375.78	1056.52
376.15	1068.22
376.52	1054.65
376.89	1056.99
377.26	1059.79
377.63	1067.75
378.00	1053.94
378.37	1062.84
378.74	1058.39
379.11	1063.31
379.48	1056.75
379.85	1062.37
380.22	1060.73
380.59	1059.79
380.96	1065.18
381.33	1067.28
381.70	1073.14
382.07	1072.43
382.44	1071.73
382.81	1069.39
383.18	1082.73
383.55	1078.05
383.92	1078.75
384.29	1082.03
384.66	1077.35
385.03	1067.28
385.40	1068.45
385.77	1067.28
386.14	1065.18
386.51	1067.75
386.88	1071.26
387.25	1056.75
387.62	1059.09
387.99	1062.84
388.36	1053.48
388.73	1056.05
389.10	1073.60
389.46	1070.80
389.83	1067.99
390.20	1074.77
390.57	1075.01
390.94	1069.39
391.31	1072.67
391.68	1074.07
392.05	1082.73
392.42	1073.14
392.79	1080.86
393.16	1072.67
393.53	1070.33
393.89	1066.58
394.26	1064.48
394.63	1056.52
395.00	1056.28
395.37	1060.73
395.74	1058.62
396.11	1058.86
396.48	1060.50
396.84	1068.22
397.21	1070.80
397.58	1066.82
397.95	1074.31
398.32	1074.07
398.69	1059.79
399.06	1047.16
399.42	1053.01
399.79	1055.11
400.16	1055.11
400.53	1064.94
400.90	1074.54
401.27	1065.41
401.64	1055.35
402.00	1059.79
402.37	1058.86
402.74	1066.58
403.11	1071.73
403.48	1075.01
403.84	1077.11
404.21	1089.75
404.58	1082.50
404.95	1077.58
405.32	1078.05
405.68	1072.90
406.05	1058.39
406.42	1065.18
406.79	1068.45
407.16	1076.18
407.52	1075.94
407.89	1084.14
408.26	1081.33
408.63	1077.11
408.99	1077.82
409.36	1077.82
409.73	1081.33
410.10	1075.48
410.47	1070.80
410.83	1071.03
411.20	1071.50
411.57	1066.58
411.94	1066.82
412.30	1069.39
412.67	1063.31
413.04	1058.39
413.40	1052.77
413.77	1060.50
414.14	1068.45
414.51	1077.58
414.87	1082.50
415.24	1086.01
415.61	1080.39
415.97	1077.11
416.34	1071.26
416.71	1070.80
417.08	1069.39
417.44	1073.14
417.81	1068.45
418.18	1065.88
418.54	1070.33
418.91	1071.73
419.28	1069.39
419.64	1074.07
420.01	1082.03
420.38	1078.28
420.74	1081.09
421.11	1081.80
421.48	1083.43
421.84	1074.77
422.21	1070.80
422.58	1070.09
422.94	1054.18
423.31	1049.73
423.68	1056.28
424.04	1065.65
424.41	1065.18
424.77	1089.52
425.14	1087.18
425.51	1084.14
425.87	1075.24
426.24	1080.63
426.61	1067.28
426.97	1078.52
427.34	1074.54
427.70	1081.56
428.07	1080.63
428.44	1084.84
428.80	1078.52
429.17	1090.69
429.53	1087.65
429.90	1093.03
430.27	1095.14
430.63	1102.16
431.00	1097.24
431.36	1090.92
431.73	1067.99
432.09	1064.94
432.46	1065.41
432.83	1064.01
433.19	1068.92
433.56	1078.28
433.92	1084.60
434.29	1085.77
434.65	1078.52
435.02	1075.71
435.38	1085.77
435.75	1077.11
436.11	1066.58
436.48	1069.62
436.84	1072.90
437.21	1073.37
437.57	1078.28
437.94	1073.60
438.30	1074.54
438.67	1079.22
439.03	1072.43
439.40	1078.05
439.76	1080.16
440.13	1079.46
440.49	1082.97
440.86	1094.43
441.22	1093.97
441.59	1104.50
441.95	1106.37
442.32	1101.46
442.68	1087.88
443.05	1087.41
443.41	1080.63
443.78	1084.84
444.14	1083.20
444.51	1075.71
444.87	1070.33
445.24	1066.35
445.60	1069.16
445.96	1069.86
446.33	1088.82
446.69	1082.97
447.06	1090.22
447.42	1087.88
447.79	1093.73
448.15	1075.71
448.51	1087.65
448.88	1087.65
449.24	1078.05
449.61	1063.31
449.97	1066.82
450.33	1061.20
450.70	1066.58
451.06	1077.82
451.43	1092.33
451.79	1096.54
452.15	1089.99
452.52	1085.07
452.88	1075.94
453.24	1060.26
453.61	1061.20
453.97	1076.65
454.34	1076.18
454.70	1079.69
455.06	1081.33
455.43	1070.33
455.79	1061.20
456.15	1062.84
456.52	1055.82
456.88	1064.71
457.24	1086.24
457.61	1079.92
457.97	1084.14
458.33	1097.48
458.70	1090.22
459.06	1088.35
459.42	1094.20
459.79	1100.29
460.15	1087.65
460.51	1095.14
460.88	1089.29
461.24	1087.65
461.60	1074.77
461.96	1079.69
462.33	1084.84
462.69	1085.54
463.05	1099.12
463.42	1100.99
463.78	1104.97
464.14	1091.86
464.50	1089.99
464.87	1074.54
465.23	1069.16
465.59	1064.48
465.95	1075.94
466.32	1068.22
466.68	1071.73
467.04	1070.80
467.40	1068.92
467.77	1067.05
468.13	1068.22
468.49	1069.39
468.85	1074.77
469.22	1072.43
469.58	1063.07
469.94	1076.88
470.30	1067.75
470.66	1064.01
471.03	1069.62
471.39	1077.35
471.75	1061.20
472.11	1064.24
472.47	1075.24
472.84	1079.69
473.20	1077.58
473.56	1090.22
473.92	1096.31
474.28	1089.99
474.65	1084.60
475.01	1083.43
475.37	1078.99
475.73	1080.86
476.09	1088.12
476.45	1092.33
476.81	1092.80
477.18	1092.80
477.54	1091.16
477.90	1078.99
478.26	1078.28
478.62	1081.33
478.98	1083.43
479.34	1086.94
479.71	1089.05
480.07	1090.92
480.43	1098.41
480.79	1086.24
481.15	1076.18
481.51	1074.31
481.87	1064.94
482.23	1059.79
482.59	1068.45
482.96	1071.26
483.32	1077.35
483.68	1080.63
484.04	1071.97
484.40	1073.14
484.76	1069.86
485.12	1072.43
485.48	1071.03
485.84	1068.92
486.20	1069.39
486.56	1082.97
486.92	1082.73
487.28	1086.24
487.64	1101.46
488.00	1102.63
488.37	1098.65
488.73	1085.54
489.09	1085.77
489.45	1074.77
489.81	1073.60
490.17	1079.22
490.53	1089.75
490.89	1096.54
491.25	1103.09
491.61	1100.29
491.97	1094.90
492.33	1093.26
492.69	1081.09
493.05	1067.75
493.41	1068.22
493.77	1071.03
494.13	1076.88
494.49	1071.03
494.85	1075.71
495.21	1078.52
495.57	1072.43
495.93	1070.09
496.29	1083.90
496.64	1090.22
497.00	1087.65
497.36	1085.77
497.72	1082.73
498.08	1072.67
498.44	1067.05
498.80	1066.35
499.16	1069.39
499.52	1066.11
499.88	1070.80
500.24	1075.71
500.60	1080.86
500.96	1077.35
501.32	1086.94
501.68	1099.12
502.03	1099.58
502.39	1092.33
502.75	1089.75
503.11	1087.41
503.47	1079.69
503.83	1075.48
504.19	1076.65
504.55	1085.07
504.91	1082.97
505.26	1077.82
505.62	1077.11
505.98	1082.26
506.34	1075.71
506.70	1074.54
507.06	1081.80
507.42	1082.50
507.78	1081.09
508.13	1081.56
508.49	1081.80
508.85	1080.63
509.21	1088.82
509.57	1090.46
509.93	1090.92
510.28	1090.92
510.64	1081.56
511.00	1077.58
511.36	1071.97
511.72	1069.16
512.07	1081.80
512.43	1087.88
512.79	1086.94
513.15	1093.97
513.51	1095.60
513.86	1078.75
514.22	1091.16
514.58	1094.90
514.94	1087.41
515.30	1096.31
515.65	1098.41
516.01	1089.29
516.37	1085.07
516.73	1091.16
517.08	1083.43
517.44	1093.26
517.80	1089.99
518.16	1090.92
518.51	1084.14
518.87	1081.80
519.23	1069.16
519.59	1077.82
519.94	1074.31
520.30	1085.54
520.66	1091.86
521.01	1099.58
521.37	1090.92
521.73	1095.60
522.09	1094.90
522.44	1089.99
522.80	1090.46
523.16	1094.67
523.51	1088.35
523.87	1083.90
524.23	1092.09
524.58	1093.97
524.94	1093.03
525.30	1096.54
525.65	1096.54
526.01	1087.41
526.37	1080.63
526.72	1081.09
527.08	1082.03
527.44	1086.48
527.79	1093.50
528.15	1103.09
528.51	1100.52
528.86	1097.48
529.22	1094.43
529.58	1094.90
529.93	1086.24
530.29	1082.50
530.65	1086.24
531.00	1090.46
531.36	1091.86
531.71	1094.67
532.07	1098.41
532.43	1096.54
532.78	1100.52
533.14	1094.20
533.49	1091.63
533.85	1090.92
534.21	1092.80
534.56	1085.54
534.92	1083.90
535.27	1085.07
535.63	1086.48
535.98	1083.90
536.34	1084.84
536.69	1093.50
537.05	1101.22
537.41	1104.26
537.76	1099.82
538.12	1095.84
538.47	1095.60
538.83	1080.39
539.18	1080.39
539.54	1080.39
539.89	1080.86
540.25	1074.54
540.60	1078.99
540.96	1078.99
541.31	1084.14
541.67	1083.67
542.02	1081.80
542.38	1085.77
542.73	1086.71
543.09	1091.39
543.44	1090.69
543.80	1095.84
544.15	1099.12
544.51	1093.03
544.86	1089.05
545.22	1096.07
545.57	1094.90
545.93	1084.37
546.28	1085.07
546.64	1086.24
546.99	1082.03
547.35	1092.09
547.70	1090.46
548.05	1083.67
548.41	1086.24
548.76	1088.12
549.12	1082.73
549.47	1093.73
549.83	1098.88
550.18	1090.92
550.53	1082.50
550.89	1078.75
551.24	1075.71
551.60	1079.22
551.95	1088.35
552.30	1091.86
552.66	1084.84
553.01	1090.69
553.37	1088.12
553.72	1084.37
554.07	1084.37
554.43	1082.03
554.78	1068.69
555.13	1073.60
555.49	1068.69
555.84	1065.65
556.19	1060.26
556.55	1063.31
556.90	1060.26
557.26	1068.92
557.61	1064.24
557.96	1075.01
558.32	1072.43
558.67	1078.05
559.02	1070.33
559.37	1085.31
559.73	1092.56
560.08	1108.48
560.43	1105.67
560.79	1092.33
561.14	1079.92
561.49	1072.43
561.85	1074.31
562.20	1077.11
562.55	1089.75
562.90	1093.97
563.26	1105.67
563.61	1090.69
563.96	1082.73
564.32	1082.50
564.67	1091.16
565.02	1083.43
565.37	1076.88
565.73	1079.92
566.08	1082.97
566.43	1075.71
566.78	1080.39
567.14	1093.50
567.49	1090.92
567.84	1092.09
568.19	1103.33
568.54	1100.29
568.90	1095.60
569.25	1107.78
569.60	1111.52
569.95	1099.58
570.31	1100.99
570.66	1099.58
571.01	1086.01
571.36	1081.56
571.71	1075.48
572.06	1064.24
572.42	1066.35
572.77	1063.77
573.12	1064.24
573.47	1067.28
573.82	1065.65
574.18	1053.24
574.53	1053.24
574.88	1048.33
575.23	1045.99
575.58	1056.75
575.93	1066.35
576.28	1064.24
576.64	1056.52
576.99	1058.86
577.34	1058.16
577.69	1063.77
578.04	1061.90
578.39	1067.52
578.74	1071.50
579.09	1070.56
579.44	1071.97
579.80	1085.77
580.15	1099.12
580.50	1098.18
580.85	1097.95
581.20	1096.54
581.55	1094.67
581.90	1084.37
582.25	1082.26
582.60	1084.60
582.95	1071.73
583.30	1078.05
583.65	1085.31
584.00	1094.20
584.35	1092.33
584.71	1106.14
585.06	1094.43
585.41	1088.58
585.76	1086.71
586.11	1088.12
586.46	1084.37
586.81	1086.71
587.16	1082.03
587.51	1074.31
587.86	1070.33
588.21	1068.92
588.56	1064.48
588.91	1071.50
589.26	1074.77
589.61	1075.71
589.96	1075.24
590.31	1074.77
590.66	1083.67
591.01	1086.94
591.36	1086.24
591.71	1084.84
592.06	1091.16
592.41	1088.35
592.76	1082.03
593.10	1082.50
593.45	1087.88
593.80	1085.54
594.15	1077.35
594.50	1089.52
594.85	1089.99
595.20	1082.97
595.55	1089.05
595.90	1082.97
596.25	1075.24
596.60	1070.56
596.95	1071.97
597.30	1070.33
597.64	1133.76
597.99	1137.27
598.34	1139.37
598.69	1143.35
599.04	1140.31
599.39	1080.16
599.74	1073.37
600.09	1070.09
600.44	1063.07
600.78	1054.41
601.13	1060.26
601.48	1063.07
601.83	1063.31
602.18	1073.84
602.53	1086.01
602.88	1082.97
603.22	1077.11
603.57	1085.77
603.92	1081.09
604.27	1081.09
604.62	1085.07
604.97	1091.86
605.31	1078.99
605.66	1083.20
606.01	1075.94
606.36	1081.33
606.71	1076.41
607.05	1086.48
607.40	1077.58
607.75	1078.05
608.10	1070.09
608.44	1071.26
608.79	1075.24
609.14	1082.26
609.49	1085.77
609.84	1083.90
610.18	1093.03
610.53	1089.75
610.88	1091.86
611.23	1096.78
611.57	1096.07
611.92	1095.14
612.27	1093.03
612.62	1086.01
612.96	1084.84
613.31	1079.46
613.66	1081.09
614.00	1086.01
614.35	1091.16
614.70	1086.71
615.05	1097.95
615.39	1087.65
615.74	1085.54
616.09	1085.07
616.43	1081.56
616.78	1059.09
617.13	1062.14
617.47	1060.96
617.82	1064.48
618.17	1067.52
618.51	1095.37
618.86	1086.24
619.21	1080.16
619.55	1069.86
619.90	1062.60
620.25	1055.82
620.59	1062.14
620.94	1066.82
621.29	1073.60
621.63	1080.16
621.98	1074.31
622.32	1080.86
622.67	1087.41
623.02	1089.29
623.36	1094.67
623.71	1099.12
624.05	1085.77
624.40	1081.56
624.75	1074.77
625.09	1073.37
625.44	1076.88
625.78	1098.41
626.13	1093.73
626.48	1105.67
626.82	1104.73
627.17	1099.58
627.51	1099.35
627.86	1110.35
628.20	1100.99
628.55	1101.92
628.89	1106.14
629.24	1097.48
629.58	1086.71
629.93	1088.58
630.28	1087.65
630.62	1099.82
630.97	1096.78
631.31	1097.48
631.66	1103.80
632.00	1105.44
632.35	1101.46
632.69	1102.16
633.04	1102.39
633.38	1094.43
633.73	1079.69
634.07	1073.37
634.42	1073.37
634.76	1073.84
635.11	1067.28
635.45	1075.71
635.79	1073.14
636.14	1079.92
636.48	1077.35
636.83	1082.03
637.17	1085.77
637.52	1078.05
637.86	1075.94
638.21	1079.46
638.55	1083.20
638.89	1082.50
639.24	1093.03
639.58	1088.12
639.93	1086.71
640.27	1081.09
640.61	1078.52
640.96	1072.90
641.30	1070.09
641.65	1082.73
641.99	1085.54
642.33	1087.65
642.68	1088.35
643.02	1097.24
643.37	1087.88
643.71	1101.22
644.05	1096.07
644.40	1108.01
644.74	1105.20
645.08	1111.75
645.43	1104.26
645.77	1110.82
646.11	1094.90
646.46	1092.33
646.80	1090.22
647.14	1089.75
647.49	1084.37
647.83	1086.48
648.17	1084.14
648.52	1071.50
648.86	1070.09
649.20	1080.39
649.55	1085.54
649.89	1077.11
650.23	1083.20
650.57	1074.54
650.92	1065.41
651.26	1063.54
651.60	1075.01
651.95	1069.86
652.29	1086.24
652.63	1085.07
652.97	1076.41
653.32	1073.60
653.66	1078.52
654.00	1070.33
654.34	1075.94
654.69	1077.58
655.03	1079.22
655.37	1085.54
655.71	1088.35
656.05	1083.90
656.40	1082.03
656.74	1076.65
657.08	1070.09
657.42	1075.24
657.76	1077.35
658.11	1082.97
658.45	1092.09
658.79	1091.16
659.13	1074.54
659.47	1068.22
659.82	1071.50
660.16	1065.41
660.50	1069.86
660.84	1083.20
661.18	1084.37
661.52	1077.58
661.87	1082.73
662.21	1089.52
662.55	1085.31
662.89	1090.46
663.23	1094.90
663.57	1089.99
663.91	1084.60
664.25	1087.88
664.60	1094.43
664.94	1093.97
665.28	1093.26
665.62	1090.46
665.96	1086.94
666.30	1077.35
666.64	1071.97
666.98	1070.56
667.32	1071.73
667.66	1066.35
668.01	1068.92
668.35	1075.48
668.69	1079.22
669.03	1074.77
669.37	1079.46
669.71	1080.16
670.05	1082.26
670.39	1078.28
670.73	1089.99
671.07	1084.84
671.41	1082.73
671.75	1076.88
672.09	1081.33
672.43	1071.26
672.77	1068.92
673.11	1069.39
673.45	1079.92
673.79	1077.11
674.13	1085.77
674.47	1097.01
674.81	1099.82
675.15	1093.03
675.49	1094.20
675.83	1082.03
676.17	1075.94
676.51	1077.58
676.85	1077.58
677.19	1082.50
677.53	1091.39
677.87	1090.46
678.21	1086.71
678.55	1089.05
678.89	1079.69
679.23	1064.94
679.57	1074.07
679.90	1075.48
680.24	1069.62
680.58	1083.43
680.92	1100.75
681.26	1088.58
681.60	1089.52
681.94	1082.97
682.28	1080.39
682.62	1076.41
682.96	1089.52
683.29	1088.12
683.63	1092.56
683.97	1084.14
684.31	1086.01
684.65	1072.90
684.99	1056.52
685.33	1062.60
685.67	1069.16
686.00	1069.39
686.34	1074.31
686.68	1092.09
687.02	1087.41
687.36	1080.86
687.70	1074.54
688.03	1077.35
688.37	1068.69
688.71	1082.03
689.05	1078.75
689.39	1088.35
689.72	1089.52
690.06	1099.35
690.40	1089.52
690.74	1095.84
691.08	1081.56
691.41	1072.20
691.75	1066.58
692.09	1070.56
692.43	1067.05
692.76	1069.16
693.10	1071.73
693.44	1076.18
693.78	1079.22
694.11	1083.67
694.45	1079.46
694.79	1077.11
695.13	1077.82
695.46	1061.90
695.80	1054.88
696.14	1071.50
696.48	1078.05
696.81	1076.41
697.15	1084.60
697.49	1086.01
697.82	1081.80
698.16	1074.31
698.50	1077.11
698.83	1075.24
699.17	1081.09
699.51	1077.82
699.84	1081.56
700.18	1073.37
700.52	1074.54
700.85	1075.01
701.19	1080.86
701.53	1079.92
701.86	1078.28
702.20	1088.12
702.54	1087.88
702.87	1081.09
703.21	1078.28
703.55	1086.01
703.88	1074.54
704.22	1074.77
704.55	1074.07
704.89	1075.01
705.23	1077.58
705.56	1077.35
705.90	1075.71
706.23	1073.37
706.57	1088.35
706.91	1085.77
707.24	1083.90
707.58	1077.11
707.91	1078.52
708.25	1077.11
708.58	1076.18
708.92	1079.46
709.26	1087.41
709.59	1090.46
709.93	1086.24
710.26	1086.94
710.60	1095.14
710.93	1090.22
711.27	1089.29
711.60	1086.48
711.94	1083.43
712.27	1075.94
712.61	1082.73
712.94	1084.14
713.28	1082.97
713.61	1081.56
713.95	1082.03
714.28	1082.03
714.62	1070.56
714.95	1063.77
715.29	1064.94
715.62	1064.94
715.96	1059.79
716.29	1067.28
716.63	1068.92
716.96	1075.01
717.29	1070.33
717.63	1074.07
717.96	1070.56
718.30	1068.45
718.63	1054.65
718.97	1056.52
719.30	1058.86
719.63	1064.94
719.97	1077.11
720.30	1084.14
720.64	1099.58
720.97	1081.09
721.30	1090.69
721.64	1082.97
721.97	1084.37
722.31	1078.52
722.64	1090.69
722.97	1082.97
723.31	1081.56
723.64	1082.97
723.97	1073.14
724.31	1080.63
724.64	1069.16
724.98	1064.01
725.31	1067.05
725.64	1075.01
725.98	1073.37
726.31	1071.26
726.64	1085.77
726.97	1081.33
727.31	1067.99
727.64	1063.77
727.97	1074.07
728.31	1066.58
728.64	1065.88
728.97	1085.77
729.31	1087.88
729.64	1088.12
729.97	1086.01
730.30	1089.29
730.64	1079.92
730.97	1070.56
731.30	1082.97
731.63	1086.01
731.97	1079.22
732.30	1077.58
732.63	1088.12
732.96	1076.65
733.30	1075.01
733.63	1074.07
733.96	1079.92
734.29	1073.84
734.63	1074.31
734.96	1080.16
735.29	1086.01
735.62	1088.82
735.95	1089.05
736.29	1075.48
736.62	1073.14
736.95	1076.65
737.28	1070.33
737.61	1072.43
737.94	1090.46
738.28	1080.39
738.61	1076.41
738.94	1080.63
739.27	1077.11
739.60	1077.35
739.93	1086.94
740.27	1091.39
740.60	1080.16
740.93	1076.18
741.26	1074.07
741.59	1068.92
741.92	1075.24
742.25	1076.18
742.58	1091.86
742.91	1086.24
743.25	1089.99
743.58	1075.01
743.91	1076.88
744.24	1069.86
744.57	1080.63
744.90	1082.50
745.23	1085.77
745.56	1090.46
745.89	1087.65
746.22	1089.52
746.55	1086.24
746.88	1086.24
747.21	1088.12
747.54	1090.46
747.87	1075.71
748.20	1076.41
748.53	1087.41
748.87	1082.73
749.20	1083.67
749.53	1083.67
749.86	1082.97
750.19	1072.67
750.52	1075.01
750.85	1073.84
751.18	1070.33
751.51	1071.97
751.84	1072.20
752.16	1068.69
752.49	1081.33
752.82	1087.18
753.15	1083.67
753.48	1076.65
753.81	1078.99
754.14	1066.11
754.47	1068.69
754.80	1070.56
755.13	1076.88
755.46	1075.71
755.79	1072.67
756.12	1075.01
756.45	1077.82
756.78	1076.88
757.11	1080.39
757.43	1081.33
757.76	1079.46
758.09	1075.48
758.42	1073.60
758.75	1066.82
759.08	1069.86
759.41	1066.11
759.74	1077.58
760.07	1088.12
760.39	1095.84
760.72	1101.46
761.05	1106.14
761.38	1097.95
761.71	1090.69
762.04	1082.03
762.36	1071.97
762.69	1067.75
763.02	1068.69
763.35	1073.14
763.68	1075.01
764.01	1083.20
764.33	1088.35
764.66	1089.29
764.99	1079.92
765.32	1085.07
765.65	1085.77
765.97	1082.26
766.30	1076.65
766.63	1081.80
766.96	1077.58
767.28	1068.92
767.61	1060.03
767.94	1065.65
768.27	1065.88
768.59	1069.16
768.92	1075.24
769.25	1081.56
769.58	1079.22
769.90	1080.39
770.23	1089.99
770.56	1086.71
770.89	1090.22
771.21	1093.26
771.54	1098.18
771.87	1090.22
772.19	1095.14
772.52	1084.60
772.85	1075.71
773.17	1067.52
773.50	1064.01
773.83	1066.58
774.15	1087.18
774.48	1101.22
774.81	1103.56
775.13	1102.39
775.46	1101.92
775.79	1089.52
776.11	1081.80
776.44	1088.82
776.77	1092.33
777.09	1082.50
777.42	1071.97
777.74	1073.60
778.07	1064.24
778.40	1056.99
778.72	1056.99
779.05	1068.22
779.37	1068.69
779.70	1080.63
780.03	1087.65
780.35	1082.50
780.68	1076.18
781.00	1078.99
781.33	1069.16
781.65	1064.71
781.98	1073.84
782.31	1075.24
782.63	1066.11
782.96	1069.39
783.28	1074.54
783.61	1080.63
783.93	1093.26
784.26	1096.78
784.58	1098.41
784.91	1102.86
785.23	1100.05
785.56	1091.63
785.88	1090.46
786.21	1076.65
786.53	1071.97
786.86	1071.73
787.18	1083.67
787.51	1089.29
787.83	1087.18
788.16	1087.65
788.48	1078.75
788.81	1071.03
789.13	1074.31
789.46	1092.80
789.78	1094.43
790.10	1096.07
790.43	1087.65
790.75	1084.60
791.08	1075.71
791.40	1072.67
791.73	1091.86
792.05	1113.63
792.37	1108.48
792.70	1106.14
793.02	1102.39
793.35	1085.54
793.67	1072.67
793.99	1075.24
794.32	1075.01
794.64	1085.77
794.96	1081.33
795.29	1073.84
795.61	1068.45
795.93	1072.20
796.26	1065.18
796.58	1068.92
796.91	1078.28
797.23	1081.09
797.55	1086.71
797.87	1088.82
798.20	1098.18
798.52	1097.71
798.84	1098.18
799.17	1097.24
799.49	1085.77
799.81	1075.48
800.14	1075.48
800.46	1077.58
800.78	1065.88
801.10	1075.94
801.43	1072.67
801.75	1071.50
802.07	1075.71
802.40	1083.67
802.72	1076.18
803.04	1085.54
803.36	1081.09
803.69	1076.18
804.01	1082.50
804.33	1089.05
804.65	1090.22
804.97	1096.78
805.30	1092.33
805.62	1092.09
805.94	1092.80
806.26	1086.48
806.58	1082.03
806.91	1090.22
807.23	1097.48
807.55	1100.05
807.87	1102.16
808.19	1098.18
808.52	1096.78
808.84	1086.48
809.16	1077.35
809.48	1079.46
809.80	1081.56
810.12	1072.20
810.44	1071.26
810.77	1082.26
811.09	1083.20
811.41	1086.01
811.73	1091.86
812.05	1087.41
812.37	1075.48
812.69	1065.18
813.01	1059.33
813.33	1067.52
813.66	1074.31
813.98	1084.84
814.30	1100.99
814.62	1101.69
814.94	1093.03
815.26	1085.07
815.58	1073.14
815.90	1065.65
816.22	1065.41
816.54	1061.20
816.86	1064.48
817.18	1075.24
817.50	1070.56
817.82	1085.07
818.14	1093.73
818.46	1093.26
818.78	1085.77
819.10	1095.14
819.42	1078.52
819.74	1081.33
820.06	1080.86
820.38	1082.97
820.70	1078.75
821.02	1091.63
821.34	1080.86
821.66	1087.65
821.98	1093.97
822.30	1097.48
822.62	1088.82
822.94	1096.54
823.26	1093.50
823.58	1080.16
823.90	1069.39
824.22	1066.82
824.54	1056.28
824.86	1058.39
825.18	1069.16
825.50	1072.90
825.81	1069.86
826.13	1075.48
826.45	1073.37
826.77	1076.41
827.09	1075.01
827.41	1078.05
827.73	1075.01
828.05	1072.43
828.36	1066.82
828.68	1067.99
829.00	1065.18
829.32	1073.37
829.64	1069.39
829.96	1067.99
830.28	1066.35
830.59	1073.14
830.91	1078.75
831.23	1085.54
831.55	1089.05
831.87	1090.92
832.19	1089.29
832.50	1086.94
832.82	1091.39
833.14	1095.37
833.46	1097.01
833.78	1103.80
834.09	1095.60
834.41	1089.75
834.73	1083.67
835.05	1081.80
835.36	1076.65
835.68	1083.43
836.00	1086.48
836.32	1083.20
836.63	1079.46
836.95	1076.88
837.27	1075.48
837.59	1075.24
837.90	1085.54
838.22	1089.75
838.54	1085.54
838.85	1071.50
839.17	1057.45
839.49	1062.14
839.80	1057.92
840.12	1054.88
840.44	1063.07
840.76	1065.88
841.07	1064.24
841.39	1073.14
841.71	1082.50
842.02	1083.43
842.34	1090.22
842.65	1084.14
842.97	1083.67
843.29	1077.11
843.60	1084.37
843.92	1083.20
844.24	1077.11
844.55	1075.24
844.87	1090.46
845.18	1082.26
845.50	1087.41
845.82	1086.01
846.13	1080.63
846.45	1072.20
846.76	1081.80
847.08	1084.37
847.40	1079.22
847.71	1083.20
848.03	1075.48
848.34	1067.99
848.66	1054.65
848.97	1068.69
849.29	1069.62
849.60	1075.48
849.92	1066.58
850.24	1060.50
850.55	1049.73
850.87	1045.05
851.18	1045.99
851.50	1048.09
851.81	1054.65
852.13	1059.79
852.44	1057.45
852.76	1059.09
853.07	1064.71
853.39	1075.48
853.70	1080.39
854.01	1078.99
854.33	1079.92
854.64	1074.31
854.96	1071.26
855.27	1057.22
855.59	1063.77
855.90	1070.09
856.22	1078.52
856.53	1079.46
856.84	1090.69
857.16	1085.31
857.47	1078.99
857.79	1078.05
858.10	1081.80
858.41	1085.54
858.73	1089.05
859.04	1083.90
859.36	1085.31
859.67	1076.41
859.98	1062.60
860.30	1057.92
860.61	1057.22
860.92	1052.30
861.24	1056.05
861.55	1067.28
861.87	1068.22
862.18	1076.18
862.49	1077.58
862.81	1081.56
863.12	1082.50
863.43	1086.48
863.74	1083.90
864.06	1086.94
864.37	1087.41
864.68	1078.28
865.00	1072.90
865.31	1069.16
865.62	1072.67
865.94	1072.90
866.25	1075.94
866.56	1078.75
866.87	1079.69
867.19	1070.09
867.50	1066.82
867.81	1070.80
868.12	1077.82
868.44	1079.69
868.75	1081.80
869.06	1079.46
869.37	1078.99
869.68	1073.84
870.00	1065.65
870.31	1063.54
870.62	1059.56
870.93	1061.90
871.24	1059.56
871.56	1077.35
871.87	1076.18
872.18	1086.94
872.49	1090.69
872.80	1095.84
873.12	1092.09
873.43	1104.03
873.74	1098.41
874.05	1085.31
874.36	1083.67
874.67	1078.75
874.98	1077.82
875.29	1073.14
875.61	1081.80
875.92	1081.09
876.23	1075.48
876.54	1070.80
876.85	1080.63
877.16	1079.22
877.47	1085.07
877.78	1084.84
878.09	1080.63
878.40	1064.71
878.72	1071.03
879.03	1063.07
879.34	1070.80
879.65	1066.58
879.96	1071.26
880.27	1068.22
880.58	1068.69
880.89	1066.11
881.20	1068.45
881.51	1074.31
881.82	1071.97
882.13	1076.65
882.44	1080.39
882.75	1086.24
883.06	1100.05
883.37	1101.46
883.68	1107.78
883.99	1105.44
884.30	1107.07
884.61	1086.94
884.92	1078.75
885.23	1063.54
885.54	1065.41
885.85	1067.99
886.16	1081.56
886.47	1093.73
886.78	1107.31
887.08	1110.58
887.39	1107.78
887.70	1100.52
888.01	1095.84
888.32	1096.78
888.63	1089.75
888.94	1091.86
889.25	1084.37
889.56	1087.41
889.87	1074.54
890.17	1080.63
890.48	1078.99
890.79	1086.71
891.10	1082.50
891.41	1085.07
891.72	1069.86
892.03	1076.88
892.34	1084.37
892.64	1089.05
892.95	1093.73
893.26	1108.48
893.57	1096.78
893.88	1076.41
894.18	1076.18
894.49	1079.92
894.80	1070.56
895.11	1080.86
895.42	1088.12
895.72	1079.92
896.03	1082.03
896.34	1094.43
896.65	1094.90
896.96	1098.18
897.26	1101.69
897.57	1104.50
897.88	1093.26
898.19	1092.33
898.49	1094.20
898.80	1090.22
899.11	1084.14
899.41	1079.22
899.72	1080.39
900.03	1085.54
900.34	1089.29
900.64	1088.82
900.95	1101.46
901.26	1093.97
901.56	1090.22
901.87	1089.75
902.18	1087.65
902.48	1073.37
902.79	1066.35
903.10	1056.99
903.40	1060.50
903.71	1060.50
904.02	1076.65
904.32	1080.63
904.63	1090.69
904.94	1085.54
905.24	1088.58
905.55	1082.73
905.85	1081.80
906.16	1079.46
906.47	1076.18
906.77	1069.62
907.08	1073.37
907.38	1071.26
907.69	1064.94
908.00	1064.48
908.30	1073.60
908.61	1062.84
908.91	1065.65
909.22	1075.71
909.52	1078.28
909.83	1077.58
910.14	1082.26
910.44	1076.18
910.75	1067.28
911.05	1065.65
911.36	1060.03
911.66	1062.14
911.97	1073.37
912.27	1076.41
912.58	1086.71
912.88	1088.12
913.19	1083.90
913.49	1080.16
913.80	1075.71
914.10	1052.77
914.41	1042.71
914.71	1038.26
915.01	1036.39
915.32	1044.58
915.62	1063.07
915.93	1071.26
916.23	1084.84
916.54	1090.69
916.84	1087.18
917.15	1086.24
917.45	1084.14
917.75	1083.20
918.06	1082.97
918.36	1081.09
918.67	1073.37
918.97	1072.43
919.27	1069.16
919.58	1075.24
919.88	1074.31
920.18	1083.20
920.49	1081.09
920.79	1076.18
921.10	1059.56
921.40	1062.84
921.70	1065.65
922.01	1067.28
922.31	1070.56
922.61	1080.39
922.92	1085.54
923.22	1079.92
923.52	1079.22
923.82	1082.50
924.13	1083.43
924.43	1083.20
924.73	1079.46
925.04	1071.73
925.34	1069.86
925.64	1066.11
925.94	1063.77
926.25	1067.52
926.55	1071.73
926.85	1068.92
927.15	1070.09
927.46	1072.67
927.76	1070.09
928.06	1078.05
928.36	1084.14
928.67	1086.48
928.97	1087.65
929.27	1094.67
929.57	1087.41
929.87	1090.92
930.18	1084.84
930.48	1066.11
930.78	1057.45
931.08	1070.56
931.38	1062.37
931.69	1058.16
931.99	1072.43
932.29	1078.75
932.59	1073.37
932.89	1077.11
933.19	1088.82
933.49	1094.43
933.80	1091.16
934.10	1095.60
934.40	1087.41
934.70	1080.63
935.00	1068.69
935.30	1079.92
935.60	1074.31
935.90	1064.48
936.20	1068.22
936.50	1069.39
936.81	1052.54
937.11	1059.33
937.41	1080.86
937.71	1083.67
938.01	1093.50
938.31	1104.97
938.61	1100.52
938.91	1090.46
939.21	1080.63
939.51	1078.99
939.81	1078.05
940.11	1083.90
940.41	1088.58
940.71	1089.52
941.01	1089.99
941.31	1085.77
941.61	1075.71
941.91	1073.14
942.21	1076.41
942.51	1069.62
942.81	1075.01
943.11	1078.75
943.41	1076.65
943.71	1073.84
944.01	1080.86
944.31	1066.35
944.61	1060.50
944.90	1068.45
945.20	1073.60
945.50	1071.97
945.80	1074.31
946.10	1072.43
946.40	1067.05
946.70	1064.48
947.00	1068.22
947.30	1068.69
947.60	1074.77
947.89	1075.94
948.19	1080.86
948.49	1071.50
948.79	1078.75
949.09	1080.39
949.39	1075.71
949.69	1070.09
949.98	1065.41
950.28	1066.11
950.58	1072.20
950.88	1073.14
951.18	1074.77
951.48	1085.77
951.77	1081.56
952.07	1080.86
952.37	1084.37
952.67	1085.77
952.97	1081.56
953.26	1079.46
953.56	1071.26
953.86	1073.84
954.16	1073.84
954.45	1074.31
954.75	1084.37
955.05	1086.94
955.35	1083.43
955.64	1077.11
955.94	1078.52
956.24	1070.09
956.54	1074.07
956.83	1081.09
957.13	1087.41
957.43	1085.54
957.72	1094.67
958.02	1086.01
958.32	1081.33
958.61	1083.90
958.91	1087.18
959.21	1089.99
959.50	1098.18
959.80	1099.82
960.10	1093.73
960.39	1087.88
960.69	1080.63
960.99	1071.50
961.28	1072.43
961.58	1071.97
961.87	1082.03
962.17	1078.75
962.47	1078.99
962.76	1070.09
963.06	1071.03
963.36	1071.26
963.65	1068.22
963.95	1071.26
964.24	1076.18
964.54	1085.31
964.83	1080.63
965.13	1083.20
965.42	1085.31
965.72	1085.77
966.02	1079.22
966.31	1074.54
966.61	1075.24
966.90	1071.50
967.20	1075.24
967.49	1080.86
967.79	1089.52
968.08	1097.95
968.38	1094.43
968.67	1086.48
968.97	1085.54
969.26	1075.01
969.56	1067.52
969.85	1075.24
970.15	1073.84
970.44	1068.69
970.74	1075.94
971.03	1075.71
971.32	1076.65
971.62	1078.52
971.91	1077.82
972.21	1078.28
972.50	1083.43
972.80	1091.86
973.09	1091.39
973.38	1090.92
973.68	1086.01
973.97	1082.03
974.27	1062.60
974.56	1068.69
974.85	1070.09
975.15	1072.43
975.44	1077.58
975.73	1092.33
976.03	1096.07
976.32	1091.16
976.61	1086.24
976.91	1084.60
977.20	1087.41
977.49	1091.39
977.79	1091.39
978.08	1090.69
978.37	1096.31
978.67	1085.54
978.96	1069.39
979.25	1076.65
979.55	1078.52
979.84	1073.14
980.13	1071.26
980.42	1081.80
980.72	1077.35
981.01	1079.46
981.30	1081.33
981.59	1080.86
981.89	1073.14
982.18	1075.24
982.47	1083.90
982.76	1077.35
983.06	1096.31
983.35	1097.48
983.64	1096.07
983.93	1088.82
984.22	1091.63
984.52	1064.48
984.81	1071.97
985.10	1067.52
985.39	1068.22
985.68	1068.69
985.97	1080.63
986.27	1077.11
986.56	1085.31
986.85	1083.67
987.14	1089.75
987.43	1097.71
987.72	1094.90
988.01	1100.52
988.31	1095.84
988.60	1087.65
988.89	1074.07
989.18	1075.01
989.47	1059.56
989.76	1065.88
990.05	1062.84
990.34	1072.67
990.63	1071.03
990.92	1080.86
991.21	1073.84
991.51	1072.90
991.80	1072.67
992.09	1073.37
992.38	1069.62
992.67	1077.35
992.96	1091.16
993.25	1086.01
993.54	1090.69
993.83	1090.69
994.12	1083.67
994.41	1070.09
994.70	1071.50
994.99	1065.18
995.28	1062.84
995.57	1070.09
995.86	1072.20
996.15	1065.41
996.44	1060.73
996.73	1056.28
997.02	1053.24
997.31	1060.73
997.59	1076.65
997.88	1081.80
998.17	1091.63
998.46	1092.80
998.75	1083.43
999.04	1074.07
999.33	1067.99
999.62	1060.26
999.91	1059.09
1000.20	1074.77
1000.49	1071.26
1000.77	1086.24
1001.06	1094.90
1001.35	1098.41
1001.64	1092.33
1001.93	1105.44
1002.22	1103.33
1002.51	1105.20
1002.79	1100.05
1003.08	1096.78
1003.37	1089.52
1003.66	1082.73
1003.95	1082.26
1004.23	1089.52
1004.52	1096.31
1004.81	1093.73
1005.10	1105.67
1005.39	1100.05
1005.67	1091.63
1005.96	1080.63
1006.25	1079.69
1006.54	1073.37
1006.83	1067.52
1007.11	1069.16
1007.40	1075.24
1007.69	1075.94
1007.97	1074.77
1008.26	1084.14
1008.55	1084.60
1008.84	1081.09
1009.12	1078.75
1009.41	1081.09
1009.70	1084.60
1009.98	1087.88
1010.27	1091.16
1010.56	1103.80
1010.85	1098.18
1011.13	1092.56
1011.42	1084.37
1011.71	1085.54
1011.99	1085.54
1012.28	1079.22
1012.56	1077.35
1012.85	1083.20
1013.14	1083.67
1013.42	1074.07
1013.71	1078.05
1014.00	1075.94
1014.28	1075.24
1014.57	1075.24
1014.85	1076.18
1015.14	1075.48
1015.43	1077.35
1015.71	1078.28
1016.00	1066.11
1016.28	1062.60
1016.57	1060.96
1016.85	1063.54
1017.14	1066.35
1017.43	1071.73
1017.71	1070.09
1018.00	1076.18
1018.28	1078.05
1018.57	1078.28
1018.85	1080.86
1019.14	1081.56
1019.42	1078.99
1019.71	1069.62
1019.99	1077.35
1020.28	1066.11
1020.56	1078.99
1020.85	1073.84
1021.13	1084.84
1021.42	1076.65
1021.70	1087.18
1021.99	1074.54
1022.27	1080.63
1022.55	1059.09
1022.84	1075.48
>>>>>End Processed Spectral Data<<<<<
