SpectraSuite Data File
++++++++++++++++++++++++++++++++++++
Date: Mon Aug 26 10:25:52 PDT 2019
User: corrico
Dark Spectrum Present: No
Reference Spectrum Present: No
Number of Sampled Component Spectra: 1
Spectrometers: USB2+H06089
Integration Time (usec): 10000 (USB2+H06089)
Spectra Averaged: 2 (USB2+H06089)
Boxcar Smoothing: 2 (USB2+H06089)
Correct for Electrical Dark: No (USB2+H06089)
Strobe/Lamp Enabled: No (USB2+H06089)
Correct for Detector Non-linearity: No (USB2+H06089)
Correct for Stray Light: No (USB2+H06089)
Number of Pixels in Processed Spectrum: 2048
>>>>>Begin Processed Spectral Data<<<<<
339.70	1020.47
340.07	1020.47
340.45	978.34
340.82	961.02
341.19	936.68
341.57	921.47
341.94	920.06
342.31	913.75
342.69	911.87
343.06	909.06
343.43	899.94
343.81	901.81
344.18	914.92
344.55	920.06
344.93	930.13
345.30	935.28
345.67	928.96
346.04	933.87
346.42	945.58
346.79	950.02
347.16	962.19
347.54	970.62
347.91	978.11
348.28	971.56
348.65	972.02
349.03	981.85
349.40	997.54
349.77	1005.73
350.14	1011.35
350.52	1019.54
350.89	1018.13
351.26	1020.47
351.63	1028.67
352.01	1042.71
352.38	1055.58
352.75	1065.65
353.12	1064.71
353.50	1071.50
353.87	1067.05
354.24	1056.05
354.61	1063.54
354.98	1075.48
355.36	1066.82
355.73	1078.28
356.10	1084.84
356.47	1078.52
356.84	1067.99
357.22	1071.03
357.59	1072.20
357.96	1081.80
358.33	1083.20
358.70	1087.41
359.08	1089.05
359.45	1081.33
359.82	1076.41
360.19	1071.97
360.56	1071.03
360.94	1068.22
361.31	1058.16
361.68	1055.58
362.05	1058.16
362.42	1065.65
362.79	1066.58
363.16	1077.58
363.54	1086.71
363.91	1075.24
364.28	1069.16
364.65	1056.75
365.02	1048.33
365.39	1041.07
365.76	1052.77
366.14	1056.05
366.51	1070.80
366.88	1076.18
367.25	1077.82
367.62	1077.82
367.99	1064.01
368.36	1056.05
368.73	1056.52
369.10	1052.77
369.48	1052.77
369.85	1064.48
370.22	1072.67
370.59	1070.33
370.96	1071.03
371.33	1064.94
371.70	1064.24
372.07	1059.56
372.44	1055.58
372.81	1056.52
373.18	1056.05
373.55	1051.84
373.93	1061.20
374.30	1067.28
374.67	1069.16
375.04	1072.43
375.41	1085.54
375.78	1071.50
376.15	1072.20
376.52	1080.16
376.89	1085.54
377.26	1069.62
377.63	1069.16
378.00	1069.86
378.37	1066.11
378.74	1057.45
379.11	1065.88
379.48	1068.69
379.85	1058.86
380.22	1048.79
380.59	1050.43
380.96	1054.18
381.33	1058.39
381.70	1069.16
382.07	1074.54
382.44	1066.58
382.81	1056.52
383.18	1057.22
383.55	1058.39
383.92	1059.33
384.29	1073.84
384.66	1076.88
385.03	1075.48
385.40	1069.86
385.77	1067.52
386.14	1060.03
386.51	1060.73
386.88	1064.01
387.25	1061.43
387.62	1062.60
387.99	1066.11
388.36	1070.09
388.73	1073.84
389.10	1076.41
389.46	1074.54
389.83	1070.80
390.20	1066.11
390.57	1062.37
390.94	1072.67
391.31	1081.80
391.68	1086.94
392.05	1082.26
392.42	1082.03
392.79	1073.60
393.16	1067.28
393.53	1067.52
393.89	1074.54
394.26	1075.24
394.63	1082.26
395.00	1084.14
395.37	1083.67
395.74	1087.41
396.11	1080.39
396.48	1080.39
396.84	1081.56
397.21	1078.28
397.58	1066.58
397.95	1064.71
398.32	1065.88
398.69	1063.07
399.06	1066.11
399.42	1068.22
399.79	1078.99
400.16	1075.71
400.53	1072.90
400.90	1064.24
401.27	1081.80
401.64	1075.94
402.00	1072.90
402.37	1076.18
402.74	1083.20
403.11	1074.77
403.48	1076.65
403.84	1075.71
404.21	1076.88
404.58	1080.16
404.95	1081.80
405.32	1081.80
405.68	1077.35
406.05	1079.92
406.42	1074.07
406.79	1062.14
407.16	1063.31
407.52	1067.05
407.89	1062.84
408.26	1061.90
408.63	1065.18
408.99	1063.31
409.36	1060.96
409.73	1060.26
410.10	1068.92
410.47	1068.92
410.83	1069.62
411.20	1077.11
411.57	1087.41
411.94	1080.16
412.30	1079.69
412.67	1077.35
413.04	1071.50
413.40	1059.33
413.77	1065.41
414.14	1072.43
414.51	1070.56
414.87	1073.84
415.24	1072.67
415.61	1077.11
415.97	1077.35
416.34	1082.03
416.71	1083.67
417.08	1090.92
417.44	1093.50
417.81	1094.90
418.18	1094.43
418.54	1090.46
418.91	1083.67
419.28	1070.09
419.64	1071.26
420.01	1068.69
420.38	1064.71
420.74	1065.41
421.11	1063.77
421.48	1048.09
421.84	1055.11
422.21	1065.65
422.58	1059.33
422.94	1064.24
423.31	1063.54
423.68	1061.67
424.04	1060.50
424.41	1073.37
424.77	1074.31
425.14	1087.18
425.51	1096.78
425.87	1091.39
426.24	1082.73
426.61	1083.67
426.97	1092.09
427.34	1073.14
427.70	1067.05
428.07	1079.46
428.44	1081.80
428.80	1076.88
429.17	1086.48
429.53	1099.35
429.90	1093.03
430.27	1087.65
430.63	1083.43
431.00	1088.82
431.36	1087.18
431.73	1085.07
432.09	1089.52
432.46	1089.52
432.83	1080.39
433.19	1082.97
433.56	1082.73
433.92	1077.11
434.29	1082.50
434.65	1090.22
435.02	1087.18
435.38	1093.26
435.75	1095.37
436.11	1087.65
436.48	1085.77
436.84	1086.01
437.21	1080.16
437.57	1080.16
437.94	1088.35
438.30	1080.63
438.67	1076.65
439.03	1093.50
439.40	1098.65
439.76	1090.92
440.13	1093.50
440.49	1099.12
440.86	1082.73
441.22	1073.84
441.59	1077.35
441.95	1076.41
442.32	1077.58
442.68	1083.90
443.05	1088.58
443.41	1090.46
443.78	1095.37
444.14	1093.03
444.51	1086.24
444.87	1081.33
445.24	1077.58
445.60	1067.05
445.96	1059.09
446.33	1064.94
446.69	1074.31
447.06	1077.82
447.42	1083.20
447.79	1085.77
448.15	1078.52
448.51	1066.58
448.88	1061.90
449.24	1054.65
449.61	1056.52
449.97	1059.33
450.33	1067.28
450.70	1066.11
451.06	1076.65
451.43	1076.88
451.79	1080.16
452.15	1084.84
452.52	1077.82
452.88	1080.86
453.24	1083.20
453.61	1071.50
453.97	1063.54
454.34	1063.54
454.70	1057.69
455.06	1052.54
455.43	1053.24
455.79	1056.52
456.15	1069.16
456.52	1075.71
456.88	1085.07
457.24	1098.41
457.61	1095.14
457.97	1096.78
458.33	1089.05
458.70	1089.52
459.06	1089.29
459.42	1092.80
459.79	1085.77
460.15	1093.03
460.51	1083.20
460.88	1090.46
461.24	1097.24
461.60	1100.75
461.96	1101.22
462.33	1111.52
462.69	1098.88
463.05	1098.41
463.42	1095.84
463.78	1084.14
464.14	1083.43
464.50	1084.60
464.87	1085.31
465.23	1080.86
465.59	1081.09
465.95	1075.94
466.32	1072.20
466.68	1070.80
467.04	1084.84
467.40	1088.35
467.77	1087.41
468.13	1089.52
468.49	1084.37
468.85	1078.52
469.22	1069.86
469.58	1060.03
469.94	1063.07
470.30	1072.43
470.66	1064.48
471.03	1078.28
471.39	1093.03
471.75	1100.29
472.11	1092.09
472.47	1100.75
472.84	1104.03
473.20	1103.56
473.56	1101.69
473.92	1095.84
474.28	1093.26
474.65	1082.50
475.01	1078.99
475.37	1075.01
475.73	1078.99
476.09	1074.07
476.45	1074.07
476.81	1070.33
477.18	1054.18
477.54	1057.22
477.90	1062.60
478.26	1062.84
478.62	1068.92
478.98	1087.88
479.34	1087.65
479.71	1082.73
480.07	1087.41
480.43	1087.41
480.79	1078.05
481.15	1071.50
481.51	1077.82
481.87	1077.35
482.23	1076.65
482.59	1081.56
482.96	1101.46
483.32	1096.54
483.68	1095.60
484.04	1094.20
484.40	1092.80
484.76	1081.33
485.12	1086.48
485.48	1088.58
485.84	1091.86
486.20	1098.18
486.56	1086.94
486.92	1078.99
487.28	1078.99
487.64	1075.71
488.00	1066.58
488.37	1066.82
488.73	1073.37
489.09	1068.92
489.45	1059.56
489.81	1066.35
490.17	1072.43
490.53	1071.03
490.89	1076.41
491.25	1083.90
491.61	1089.52
491.97	1084.84
492.33	1084.37
492.69	1088.82
493.05	1085.07
493.41	1068.45
493.77	1062.37
494.13	1060.50
494.49	1057.69
494.85	1060.26
495.21	1075.94
495.57	1095.60
495.93	1108.71
496.29	1113.39
496.64	1116.67
497.00	1098.88
497.36	1096.07
497.72	1086.94
498.08	1069.39
498.44	1068.45
498.80	1075.71
499.16	1073.84
499.52	1070.33
499.88	1081.33
500.24	1075.94
500.60	1088.35
500.96	1093.50
501.32	1091.86
501.68	1090.92
502.03	1082.26
502.39	1074.54
502.75	1059.33
503.11	1063.07
503.47	1067.52
503.83	1084.14
504.19	1083.67
504.55	1093.50
504.91	1090.92
505.26	1089.52
505.62	1082.03
505.98	1074.77
506.34	1069.39
506.70	1071.97
507.06	1070.33
507.42	1075.48
507.78	1086.01
508.13	1086.48
508.49	1091.16
508.85	1091.63
509.21	1093.73
509.57	1083.90
509.93	1091.86
510.28	1087.18
510.64	1089.99
511.00	1084.37
511.36	1097.95
511.72	1090.22
512.07	1094.90
512.43	1087.41
512.79	1093.26
513.15	1085.77
513.51	1098.88
513.86	1100.99
514.22	1110.12
514.58	1107.78
514.94	1104.97
515.30	1093.03
515.65	1080.86
516.01	1080.39
516.37	1088.58
516.73	1082.97
517.08	1082.73
517.44	1093.03
517.80	1090.22
518.16	1078.99
518.51	1086.71
518.87	1083.20
519.23	1080.63
519.59	1083.90
519.94	1083.43
520.30	1082.03
520.66	1085.31
521.01	1089.05
521.37	1084.14
521.73	1082.73
522.09	1088.82
522.44	1091.39
522.80	1095.37
523.16	1108.01
523.51	1118.54
523.87	1126.03
524.23	1121.58
524.58	1120.65
524.94	1110.58
525.30	1102.86
525.65	1088.35
526.01	1095.14
526.37	1088.35
526.72	1085.77
527.08	1092.09
527.44	1095.14
527.79	1087.18
528.15	1084.60
528.51	1092.56
528.86	1093.26
529.22	1081.09
529.58	1087.65
529.93	1090.22
530.29	1090.22
530.65	1087.88
531.00	1100.05
531.36	1099.58
531.71	1098.88
532.07	1093.03
532.43	1079.92
532.78	1077.11
533.14	1078.52
533.49	1074.54
533.85	1072.90
534.21	1093.26
534.56	1100.29
534.92	1102.86
535.27	1113.16
535.63	1110.58
535.98	1101.46
536.34	1097.95
536.69	1101.92
537.05	1097.24
537.41	1093.03
537.76	1097.71
538.12	1094.43
538.47	1086.48
538.83	1082.97
539.18	1080.63
539.54	1068.69
539.89	1069.86
540.25	1064.71
540.60	1077.35
540.96	1089.05
541.31	1099.12
541.67	1100.75
542.02	1105.20
542.38	1103.33
542.73	1105.20
543.09	1093.26
543.44	1095.37
543.80	1099.58
544.15	1089.75
544.51	1093.26
544.86	1105.20
545.22	1111.52
545.57	1108.01
545.93	1113.63
546.28	1106.61
546.64	1102.39
546.99	1100.99
547.35	1103.80
547.70	1102.39
548.05	1108.71
548.41	1102.39
548.76	1091.86
549.12	1088.82
549.47	1090.69
549.83	1078.52
550.18	1092.33
550.53	1097.48
550.89	1099.82
551.24	1106.14
551.60	1111.75
551.95	1104.50
552.30	1100.52
552.66	1095.37
553.01	1084.37
553.37	1084.84
553.72	1083.43
554.07	1085.07
554.43	1083.90
554.78	1077.58
555.13	1074.54
555.49	1075.01
555.84	1073.14
556.19	1077.58
556.55	1083.20
556.90	1075.71
557.26	1069.86
557.61	1068.92
557.96	1071.50
558.32	1075.71
558.67	1089.99
559.02	1093.26
559.37	1097.48
559.73	1096.54
560.08	1090.92
560.43	1075.71
560.79	1078.75
561.14	1080.86
561.49	1072.67
561.85	1081.56
562.20	1098.41
562.55	1099.12
562.90	1096.78
563.26	1108.48
563.61	1101.92
563.96	1100.52
564.32	1105.44
564.67	1095.84
565.02	1080.16
565.37	1080.39
565.73	1069.39
566.08	1068.92
566.43	1089.75
566.78	1095.37
567.14	1084.84
567.49	1091.86
567.84	1091.16
568.19	1081.56
568.54	1083.20
568.90	1090.22
569.25	1088.35
569.60	1084.37
569.95	1078.99
570.31	1088.58
570.66	1088.12
571.01	1095.37
571.36	1093.03
571.71	1091.63
572.06	1081.56
572.42	1083.90
572.77	1068.69
573.12	1074.54
573.47	1076.41
573.82	1071.97
574.18	1070.56
574.53	1078.52
574.88	1080.16
575.23	1075.24
575.58	1087.65
575.93	1085.07
576.28	1089.29
576.64	1082.03
576.99	1083.43
577.34	1076.65
577.69	1080.16
578.04	1082.26
578.39	1084.14
578.74	1085.31
579.09	1087.88
579.44	1084.37
579.80	1073.60
580.15	1069.62
580.50	1068.92
580.85	1056.05
581.20	1042.24
581.55	1043.18
581.90	1052.77
582.25	1052.54
582.60	1066.11
582.95	1081.33
583.30	1078.52
583.65	1069.16
584.00	1068.69
584.35	1062.84
584.71	1069.86
585.06	1067.75
585.41	1071.26
585.76	1073.37
586.11	1079.46
586.46	1078.75
586.81	1091.63
587.16	1095.14
587.51	1100.75
587.86	1095.84
588.21	1090.69
588.56	1087.18
588.91	1080.63
589.26	1079.92
589.61	1080.39
589.96	1085.54
590.31	1077.82
590.66	1081.33
591.01	1078.52
591.36	1078.75
591.71	1085.54
592.06	1093.50
592.41	1094.20
592.76	1095.84
593.10	1093.97
593.45	1084.84
593.80	1082.97
594.15	1094.20
594.50	1096.07
594.85	1091.86
595.20	1086.48
595.55	1094.67
595.90	1082.73
596.25	1081.56
596.60	1093.03
596.95	1097.01
597.30	1090.46
597.64	1143.12
597.99	1142.42
598.34	1157.86
598.69	1165.82
599.04	1156.69
599.39	1098.88
599.74	1100.52
600.09	1075.71
600.44	1061.90
600.78	1063.07
601.13	1065.41
601.48	1062.14
601.83	1069.39
602.18	1078.75
602.53	1080.16
602.88	1087.88
603.22	1086.48
603.57	1071.03
603.92	1070.09
604.27	1077.35
604.62	1078.75
604.97	1084.60
605.31	1102.63
605.66	1106.61
606.01	1111.52
606.36	1104.97
606.71	1110.12
607.05	1100.75
607.40	1090.92
607.75	1076.65
608.10	1075.94
608.44	1065.41
608.79	1077.11
609.14	1078.28
609.49	1089.75
609.84	1092.80
610.18	1093.97
610.53	1095.84
610.88	1098.65
611.23	1102.16
611.57	1108.48
611.92	1104.97
612.27	1086.71
612.62	1089.75
612.96	1084.37
613.31	1084.60
613.66	1093.50
614.00	1097.71
614.35	1100.75
614.70	1100.29
615.05	1087.18
615.39	1086.24
615.74	1090.46
616.09	1081.33
616.43	1084.60
616.78	1087.65
617.13	1081.33
617.47	1081.09
617.82	1090.22
618.17	1077.35
618.51	1075.24
618.86	1071.73
619.21	1073.37
619.55	1065.65
619.90	1074.07
620.25	1076.41
620.59	1087.65
620.94	1084.60
621.29	1092.33
621.63	1094.43
621.98	1102.63
622.32	1102.16
622.67	1104.73
623.02	1095.60
623.36	1094.43
623.71	1086.94
624.05	1070.33
624.40	1062.14
624.75	1058.62
625.09	1049.26
625.44	1045.52
625.78	1049.73
626.13	1066.35
626.48	1075.71
626.82	1085.77
627.17	1089.99
627.51	1101.69
627.86	1092.09
628.20	1082.03
628.55	1081.33
628.89	1087.65
629.24	1077.58
629.58	1080.39
629.93	1085.31
630.28	1082.03
630.62	1073.14
630.97	1084.37
631.31	1073.37
631.66	1071.97
632.00	1064.01
632.35	1065.41
632.69	1063.31
633.04	1082.50
633.38	1080.86
633.73	1081.80
634.07	1086.24
634.42	1083.20
634.76	1074.31
635.11	1078.28
635.45	1089.75
635.79	1083.90
636.14	1078.99
636.48	1075.24
636.83	1067.28
637.17	1073.84
637.52	1074.54
637.86	1072.90
638.21	1081.33
638.55	1086.01
638.89	1073.60
639.24	1083.67
639.58	1093.03
639.93	1084.14
640.27	1084.14
640.61	1092.09
640.96	1073.84
641.30	1073.60
641.65	1068.92
641.99	1069.62
642.33	1056.99
642.68	1057.69
643.02	1052.07
643.37	1056.28
643.71	1058.86
644.05	1064.01
644.40	1082.97
644.74	1085.31
645.08	1086.71
645.43	1078.28
645.77	1075.24
646.11	1057.92
646.46	1054.41
646.80	1062.60
647.14	1070.09
647.49	1067.99
647.83	1074.54
648.17	1075.01
648.52	1063.31
648.86	1067.75
649.20	1075.01
649.55	1086.94
649.89	1084.37
650.23	1087.88
650.57	1077.82
650.92	1071.03
651.26	1062.60
651.60	1072.67
651.95	1075.24
652.29	1086.94
652.63	1094.67
652.97	1088.58
653.32	1086.24
653.66	1095.84
654.00	1090.22
654.34	1085.77
654.69	1091.86
655.03	1087.88
655.37	1074.07
655.71	1069.39
656.05	1066.35
656.40	1063.31
656.74	1072.67
657.08	1070.09
657.42	1075.48
657.76	1084.84
658.11	1077.11
658.45	1072.20
658.79	1078.99
659.13	1079.22
659.47	1075.24
659.82	1084.60
660.16	1084.14
660.50	1078.99
660.84	1083.67
661.18	1088.35
661.52	1089.52
661.87	1089.52
662.21	1099.12
662.55	1097.95
662.89	1092.09
663.23	1090.22
663.57	1079.69
663.91	1078.05
664.25	1071.50
664.60	1073.37
664.94	1079.69
665.28	1084.14
665.62	1080.86
665.96	1088.12
666.30	1089.29
666.64	1084.60
666.98	1081.33
667.32	1081.09
667.66	1082.03
668.01	1082.26
668.35	1086.71
668.69	1101.22
669.03	1097.24
669.37	1098.18
669.71	1097.48
670.05	1099.58
670.39	1090.69
670.73	1091.16
671.07	1090.69
671.41	1083.20
671.75	1074.77
672.09	1075.24
672.43	1072.90
672.77	1069.16
673.11	1079.69
673.45	1080.86
673.79	1078.05
674.13	1085.07
674.47	1094.20
674.81	1097.01
675.15	1085.54
675.49	1098.88
675.83	1094.20
676.17	1078.99
676.51	1075.24
676.85	1088.58
677.19	1075.71
677.53	1078.99
677.87	1077.58
678.21	1076.88
678.55	1075.24
678.89	1086.24
679.23	1089.75
679.57	1093.26
679.90	1090.69
680.24	1087.88
680.58	1071.26
680.92	1067.05
681.26	1070.80
681.60	1076.65
681.94	1078.99
682.28	1091.63
682.62	1105.44
682.96	1097.24
683.29	1092.80
683.63	1089.75
683.97	1088.82
684.31	1078.75
684.65	1085.31
684.99	1084.84
685.33	1085.54
685.67	1083.20
686.00	1074.31
686.34	1065.88
686.68	1074.77
687.02	1065.41
687.36	1061.20
687.70	1073.14
688.03	1084.84
688.37	1077.35
688.71	1090.22
689.05	1089.75
689.39	1094.43
689.72	1083.67
690.06	1080.63
690.40	1069.62
690.74	1068.45
691.08	1061.43
691.41	1076.41
691.75	1077.35
692.09	1087.65
692.43	1096.54
692.76	1111.75
693.10	1110.82
693.44	1107.54
693.78	1106.14
694.11	1106.37
694.45	1087.88
694.79	1081.80
695.13	1082.26
695.46	1072.43
695.80	1068.45
696.14	1062.84
696.48	1058.62
696.81	1062.84
697.15	1073.37
697.49	1071.26
697.82	1074.77
698.16	1079.69
698.50	1077.35
698.83	1077.11
699.17	1078.75
699.51	1087.18
699.84	1094.90
700.18	1102.86
700.52	1104.26
700.85	1114.80
701.19	1119.01
701.53	1109.65
701.86	1102.16
702.20	1100.29
702.54	1091.16
702.87	1077.58
703.21	1072.67
703.55	1078.28
703.88	1076.18
704.22	1074.77
704.55	1069.39
704.89	1074.77
705.23	1065.41
705.56	1064.48
705.90	1060.26
706.23	1064.48
706.57	1055.35
706.91	1055.35
707.24	1056.75
707.58	1062.14
707.91	1064.71
708.25	1071.50
708.58	1080.63
708.92	1080.63
709.26	1087.18
709.59	1085.54
709.93	1086.48
710.26	1075.94
710.60	1072.67
710.93	1067.99
711.27	1064.48
711.60	1064.48
711.94	1063.07
712.27	1064.94
712.61	1067.75
712.94	1070.80
713.28	1074.31
713.61	1080.86
713.95	1088.12
714.28	1084.60
714.62	1083.90
714.95	1088.82
715.29	1096.07
715.62	1091.39
715.96	1094.67
716.29	1101.22
716.63	1095.60
716.96	1089.99
717.29	1094.90
717.63	1089.52
717.96	1081.56
718.30	1080.63
718.63	1083.90
718.97	1077.35
719.30	1074.07
719.63	1076.88
719.97	1077.58
720.30	1073.84
720.64	1075.01
720.97	1075.71
721.30	1080.16
721.64	1067.99
721.97	1070.33
722.31	1069.86
722.64	1076.41
722.97	1078.99
723.31	1082.97
723.64	1078.52
723.97	1078.99
724.31	1073.84
724.64	1073.60
724.98	1073.14
725.31	1078.28
725.64	1084.37
725.98	1092.80
726.31	1087.65
726.64	1095.14
726.97	1093.73
727.31	1091.86
727.64	1087.41
727.97	1094.20
728.31	1090.46
728.64	1093.97
728.97	1093.50
729.31	1082.50
729.64	1078.52
729.97	1080.63
730.30	1068.92
730.64	1057.69
730.97	1076.41
731.30	1078.99
731.63	1079.92
731.97	1084.84
732.30	1084.84
732.63	1081.80
732.96	1077.58
733.30	1077.82
733.63	1076.65
733.96	1078.28
734.29	1063.54
734.63	1057.92
734.96	1056.99
735.29	1059.09
735.62	1070.09
735.95	1082.26
736.29	1083.20
736.62	1087.88
736.95	1089.05
737.28	1084.14
737.61	1075.24
737.94	1079.92
738.28	1085.31
738.61	1085.31
738.94	1079.92
739.27	1083.43
739.60	1086.48
739.93	1078.28
740.27	1071.73
740.60	1071.50
740.93	1075.94
741.26	1077.82
741.59	1077.11
741.92	1084.60
742.25	1084.84
742.58	1075.48
742.91	1071.97
743.25	1077.58
743.58	1073.14
743.91	1080.39
744.24	1079.46
744.57	1079.22
744.90	1074.31
745.23	1076.18
745.56	1079.22
745.89	1083.67
746.22	1082.50
746.55	1078.52
746.88	1083.43
747.21	1076.88
747.54	1079.92
747.87	1070.09
748.20	1072.90
748.53	1077.35
748.87	1076.65
749.20	1078.05
749.53	1077.11
749.86	1075.94
750.19	1069.39
750.52	1072.90
750.85	1075.94
751.18	1089.05
751.51	1086.71
751.84	1086.71
752.16	1085.77
752.49	1079.22
752.82	1077.82
753.15	1086.24
753.48	1087.41
753.81	1089.75
754.14	1086.48
754.47	1089.99
754.80	1083.90
755.13	1081.56
755.46	1085.77
755.79	1089.05
756.12	1088.12
756.45	1086.94
756.78	1080.63
757.11	1066.58
757.43	1060.96
757.76	1052.54
758.09	1052.07
758.42	1056.05
758.75	1062.60
759.08	1069.86
759.41	1084.60
759.74	1084.14
760.07	1082.73
760.39	1080.16
760.72	1085.77
761.05	1065.18
761.38	1073.37
761.71	1070.33
762.04	1077.82
762.36	1075.24
762.69	1090.69
763.02	1084.37
763.35	1087.88
763.68	1083.43
764.01	1081.33
764.33	1070.33
764.66	1076.88
764.99	1085.07
765.32	1088.82
765.65	1088.12
765.97	1091.63
766.30	1087.18
766.63	1077.58
766.96	1079.69
767.28	1077.82
767.61	1081.56
767.94	1081.33
768.27	1088.82
768.59	1085.77
768.92	1096.31
769.25	1087.88
769.58	1084.14
769.90	1075.71
770.23	1073.84
770.56	1064.01
770.89	1063.07
771.21	1063.07
771.54	1068.69
771.87	1063.31
772.19	1059.33
772.52	1049.73
772.85	1052.30
773.17	1055.82
773.50	1051.13
773.83	1059.09
774.15	1077.11
774.48	1073.60
774.81	1072.20
775.13	1084.84
775.46	1088.12
775.79	1098.88
776.11	1102.86
776.44	1096.31
776.77	1079.92
777.09	1062.37
777.42	1046.92
777.74	1044.82
778.07	1044.58
778.40	1068.22
778.72	1081.80
779.05	1085.07
779.37	1086.48
779.70	1096.54
780.03	1091.86
780.35	1081.80
780.68	1078.75
781.00	1080.63
781.33	1078.99
781.65	1064.94
781.98	1075.24
782.31	1084.14
782.63	1090.22
782.96	1076.65
783.28	1078.52
783.61	1068.69
783.93	1064.94
784.26	1062.84
784.58	1074.54
784.91	1078.05
785.23	1089.52
785.56	1089.99
785.88	1089.29
786.21	1092.09
786.53	1090.92
786.86	1086.94
787.18	1087.41
787.51	1079.22
787.83	1077.58
788.16	1078.75
788.48	1076.88
788.81	1072.67
789.13	1079.22
789.46	1074.54
789.78	1074.31
790.10	1075.48
790.43	1086.71
790.75	1082.03
791.08	1089.29
791.40	1090.22
791.73	1100.99
792.05	1102.63
792.37	1107.78
792.70	1100.05
793.02	1104.26
793.35	1097.24
793.67	1086.01
793.99	1089.75
794.32	1091.39
794.64	1093.50
794.96	1092.56
795.29	1097.71
795.61	1095.60
795.93	1096.07
796.26	1092.33
796.58	1090.22
796.91	1080.63
797.23	1077.35
797.55	1075.24
797.87	1075.01
798.20	1078.75
798.52	1094.43
798.84	1091.86
799.17	1084.14
799.49	1082.73
799.81	1069.39
800.14	1065.88
800.46	1066.11
800.78	1070.09
801.10	1061.67
801.43	1069.39
801.75	1062.84
802.07	1057.92
802.40	1053.71
802.72	1058.39
803.04	1058.86
803.36	1065.41
803.69	1073.84
804.01	1087.88
804.33	1087.65
804.65	1088.12
804.97	1083.43
805.30	1078.52
805.62	1078.28
805.94	1085.77
806.26	1090.69
806.58	1089.05
806.91	1089.75
807.23	1085.54
807.55	1076.65
807.87	1070.33
808.19	1071.26
808.52	1072.67
808.84	1072.20
809.16	1076.65
809.48	1077.58
809.80	1071.73
810.12	1070.80
810.44	1069.62
810.77	1079.46
811.09	1078.28
811.41	1075.48
811.73	1078.28
812.05	1078.99
812.37	1070.09
812.69	1079.22
813.01	1090.92
813.33	1091.16
813.66	1092.56
813.98	1101.46
814.30	1094.90
814.62	1094.90
814.94	1095.60
815.26	1086.48
815.58	1073.14
815.90	1070.56
816.22	1068.22
816.54	1065.88
816.86	1073.60
817.18	1076.18
817.50	1072.90
817.82	1073.60
818.14	1073.37
818.46	1074.31
818.78	1073.60
819.10	1070.80
819.42	1071.03
819.74	1079.69
820.06	1082.50
820.38	1087.41
820.70	1097.01
821.02	1096.07
821.34	1079.22
821.66	1068.45
821.98	1064.01
822.30	1074.31
822.62	1075.48
822.94	1078.05
823.26	1079.22
823.58	1071.73
823.90	1051.37
824.22	1053.48
824.54	1063.07
824.86	1072.67
825.18	1089.05
825.50	1102.63
825.81	1100.29
826.13	1095.84
826.45	1093.26
826.77	1093.73
827.09	1093.50
827.41	1089.05
827.73	1097.48
828.05	1105.44
828.36	1093.26
828.68	1076.18
829.00	1080.16
829.32	1068.92
829.64	1053.01
829.96	1070.56
830.28	1083.67
830.59	1075.48
830.91	1080.16
831.23	1087.88
831.55	1078.75
831.87	1077.82
832.19	1084.84
832.50	1082.03
832.82	1086.01
833.14	1089.52
833.46	1095.37
833.78	1090.92
834.09	1089.99
834.41	1086.01
834.73	1076.41
835.05	1073.84
835.36	1078.05
835.68	1082.26
836.00	1080.39
836.32	1079.46
836.63	1072.67
836.95	1068.69
837.27	1065.88
837.59	1057.45
837.90	1066.58
838.22	1060.96
838.54	1065.41
838.85	1064.71
839.17	1074.54
839.49	1078.75
839.80	1087.41
840.12	1080.63
840.44	1075.48
840.76	1078.99
841.07	1076.65
841.39	1079.69
841.71	1087.65
842.02	1095.60
842.34	1088.35
842.65	1082.03
842.97	1079.92
843.29	1076.41
843.60	1077.11
843.92	1078.28
844.24	1082.26
844.55	1077.11
844.87	1074.31
845.18	1068.92
845.50	1066.35
845.82	1075.01
846.13	1076.65
846.45	1077.11
846.76	1074.07
847.08	1075.94
847.40	1061.90
847.71	1062.60
848.03	1064.94
848.34	1069.39
848.66	1070.80
848.97	1084.14
849.29	1086.48
849.60	1091.63
849.92	1097.24
850.24	1105.20
850.55	1090.22
850.87	1086.48
851.18	1078.75
851.50	1077.82
851.81	1075.01
852.13	1082.50
852.44	1085.07
852.76	1095.84
853.07	1098.65
853.39	1094.43
853.70	1089.05
854.01	1095.37
854.33	1090.22
854.64	1087.65
854.96	1088.82
855.27	1087.18
855.59	1081.33
855.90	1082.50
856.22	1075.71
856.53	1085.31
856.84	1089.52
857.16	1090.69
857.47	1085.31
857.79	1086.94
858.10	1070.80
858.41	1072.43
858.73	1086.94
859.04	1089.75
859.36	1092.56
859.67	1097.48
859.98	1096.07
860.30	1089.99
860.61	1095.14
860.92	1091.16
861.24	1086.01
861.55	1089.75
861.87	1073.60
862.18	1067.52
862.49	1073.37
862.81	1075.24
863.12	1060.26
863.43	1064.24
863.74	1064.94
864.06	1068.92
864.37	1076.18
864.68	1095.60
865.00	1098.65
865.31	1102.63
865.62	1096.07
865.94	1089.05
866.25	1073.60
866.56	1070.80
866.87	1072.43
867.19	1069.39
867.50	1072.67
867.81	1083.43
868.12	1086.71
868.44	1078.28
868.75	1077.11
869.06	1076.18
869.37	1076.88
869.68	1074.77
870.00	1070.80
870.31	1083.67
870.62	1082.50
870.93	1082.26
871.24	1087.65
871.56	1099.58
871.87	1090.69
872.18	1094.43
872.49	1083.90
872.80	1087.18
873.12	1081.80
873.43	1080.39
873.74	1078.28
874.05	1076.88
874.36	1073.37
874.67	1078.99
874.98	1086.24
875.29	1090.22
875.61	1103.80
875.92	1097.71
876.23	1092.09
876.54	1089.29
876.85	1089.99
877.16	1092.09
877.47	1093.03
877.78	1087.41
878.09	1081.33
878.40	1080.63
878.72	1075.24
879.03	1084.84
879.34	1088.82
879.65	1095.60
879.96	1090.22
880.27	1089.52
880.58	1085.07
880.89	1084.37
881.20	1084.14
881.51	1092.80
881.82	1083.20
882.13	1093.50
882.44	1095.14
882.75	1090.69
883.06	1090.22
883.37	1092.80
883.68	1083.20
883.99	1086.24
884.30	1088.35
884.61	1083.43
884.92	1096.78
885.23	1097.71
885.54	1098.65
885.85	1094.67
886.16	1096.54
886.47	1088.82
886.78	1078.75
887.08	1079.92
887.39	1091.39
887.70	1098.18
888.01	1106.14
888.32	1113.86
888.63	1111.52
888.94	1100.05
889.25	1093.73
889.56	1092.80
889.87	1080.86
890.17	1082.26
890.48	1090.22
890.79	1092.80
891.10	1090.69
891.41	1103.33
891.72	1102.16
892.03	1089.05
892.34	1092.56
892.64	1081.09
892.95	1080.39
893.26	1074.07
893.57	1082.73
893.88	1073.37
894.18	1078.28
894.49	1071.73
894.80	1073.37
895.11	1065.65
895.42	1068.45
895.72	1061.67
896.03	1057.45
896.34	1058.62
896.65	1066.11
896.96	1056.75
897.26	1066.11
897.57	1084.14
897.88	1084.14
898.19	1081.33
898.49	1089.99
898.80	1090.46
899.11	1070.56
899.41	1070.09
899.72	1071.50
900.03	1073.37
900.34	1068.22
900.64	1078.75
900.95	1073.84
901.26	1075.24
901.56	1065.65
901.87	1064.48
902.18	1066.11
902.48	1080.16
902.79	1078.75
903.10	1090.69
903.40	1093.03
903.71	1096.78
904.02	1090.22
904.32	1098.41
904.63	1093.97
904.94	1100.75
905.24	1100.75
905.55	1101.22
905.85	1100.29
906.16	1098.18
906.47	1089.75
906.77	1091.86
907.08	1086.94
907.38	1079.69
907.69	1084.37
908.00	1085.07
908.30	1075.71
908.61	1083.90
908.91	1082.26
909.22	1068.69
909.52	1063.07
909.83	1057.69
910.14	1052.07
910.44	1065.41
910.75	1075.48
911.05	1081.80
911.36	1082.97
911.66	1073.14
911.97	1061.67
912.27	1060.73
912.58	1066.58
912.88	1071.50
913.19	1089.05
913.49	1083.43
913.80	1077.58
914.10	1067.28
914.41	1073.14
914.71	1068.69
915.01	1076.18
915.32	1089.99
915.62	1097.01
915.93	1091.16
916.23	1080.63
916.54	1074.54
916.84	1061.67
917.15	1056.28
917.45	1057.22
917.75	1064.48
918.06	1078.99
918.36	1091.16
918.67	1100.05
918.97	1102.16
919.27	1106.84
919.58	1097.71
919.88	1094.90
920.18	1093.26
920.49	1088.82
920.79	1079.92
921.10	1074.77
921.40	1076.88
921.70	1070.33
922.01	1073.14
922.31	1076.41
922.61	1085.54
922.92	1090.69
923.22	1093.73
923.52	1089.75
923.82	1091.86
924.13	1089.52
924.43	1078.75
924.73	1083.90
925.04	1096.31
925.34	1100.52
925.64	1095.37
925.94	1093.97
926.25	1080.39
926.55	1071.97
926.85	1063.54
927.15	1062.37
927.46	1056.99
927.76	1066.11
928.06	1069.39
928.36	1082.26
928.67	1090.22
928.97	1097.71
929.27	1098.18
929.57	1101.46
929.87	1093.97
930.18	1095.84
930.48	1096.31
930.78	1099.12
931.08	1097.71
931.38	1103.80
931.69	1099.35
931.99	1093.03
932.29	1087.18
932.59	1083.20
932.89	1075.94
933.19	1075.94
933.49	1070.33
933.80	1073.37
934.10	1070.80
934.40	1066.11
934.70	1060.73
935.00	1065.18
935.30	1064.01
935.60	1064.01
935.90	1071.50
936.20	1082.26
936.50	1086.01
936.81	1093.03
937.11	1098.41
937.41	1096.07
937.71	1087.41
938.01	1087.41
938.31	1080.16
938.61	1082.50
938.91	1086.71
939.21	1089.52
939.51	1089.75
939.81	1082.50
940.11	1083.43
940.41	1079.22
940.71	1085.77
941.01	1084.84
941.31	1101.92
941.61	1103.56
941.91	1095.84
942.21	1087.18
942.51	1087.88
942.81	1074.07
943.11	1071.03
943.41	1075.01
943.71	1071.73
944.01	1081.80
944.31	1086.48
944.61	1073.37
944.90	1080.63
945.20	1091.63
945.50	1084.14
945.80	1084.37
946.10	1084.60
946.40	1078.75
946.70	1068.69
947.00	1069.16
947.30	1071.97
947.60	1076.88
947.89	1085.07
948.19	1089.75
948.49	1088.12
948.79	1078.99
949.09	1079.22
949.39	1071.50
949.69	1074.31
949.98	1066.35
950.28	1071.50
950.58	1066.11
950.88	1068.22
951.18	1059.33
951.48	1064.71
951.77	1072.20
952.07	1077.82
952.37	1082.73
952.67	1088.82
952.97	1094.90
953.26	1089.75
953.56	1082.73
953.86	1079.92
954.16	1070.09
954.45	1067.28
954.75	1060.50
955.05	1062.60
955.35	1057.22
955.64	1063.07
955.94	1061.20
956.24	1066.11
956.54	1078.05
956.83	1075.01
957.13	1083.43
957.43	1079.92
957.72	1080.16
958.02	1075.01
958.32	1076.41
958.61	1069.39
958.91	1070.56
959.21	1062.60
959.50	1055.58
959.80	1058.16
960.10	1059.09
960.39	1067.28
960.69	1070.09
960.99	1081.09
961.28	1079.22
961.58	1076.88
961.87	1062.60
962.17	1069.39
962.47	1060.26
962.76	1067.52
963.06	1077.11
963.36	1094.20
963.65	1093.73
963.95	1098.18
964.24	1098.65
964.54	1093.73
964.83	1097.01
965.13	1100.05
965.42	1107.78
965.72	1100.05
966.02	1097.48
966.31	1082.50
966.61	1081.56
966.90	1076.41
967.20	1072.90
967.49	1077.11
967.79	1076.65
968.08	1067.75
968.38	1066.11
968.67	1064.01
968.97	1055.11
969.26	1071.03
969.56	1084.37
969.85	1085.07
970.15	1089.99
970.44	1098.41
970.74	1084.14
971.03	1072.43
971.32	1071.50
971.62	1073.60
971.91	1071.26
972.21	1077.58
972.50	1084.37
972.80	1078.52
973.09	1086.01
973.38	1088.12
973.68	1089.52
973.97	1079.92
974.27	1077.11
974.56	1067.28
974.85	1062.37
975.15	1058.86
975.44	1066.58
975.73	1080.16
976.03	1081.09
976.32	1088.12
976.61	1089.52
976.91	1079.22
977.20	1070.56
977.49	1063.54
977.79	1054.18
978.08	1042.47
978.37	1050.43
978.67	1055.11
978.96	1061.20
979.25	1066.82
979.55	1080.86
979.84	1084.60
980.13	1082.73
980.42	1086.71
980.72	1094.20
981.01	1087.41
981.30	1079.92
981.59	1081.09
981.89	1073.84
982.18	1065.18
982.47	1058.16
982.76	1063.07
983.06	1063.31
983.35	1079.46
983.64	1070.80
983.93	1070.09
984.22	1082.50
984.52	1065.65
984.81	1063.07
985.10	1066.35
985.39	1072.90
985.68	1065.18
985.97	1084.84
986.27	1073.14
986.56	1079.69
986.85	1083.20
987.14	1081.80
987.43	1080.86
987.72	1091.16
988.01	1089.99
988.31	1092.09
988.60	1082.03
988.89	1079.46
989.18	1071.03
989.47	1064.48
989.76	1057.45
990.05	1077.35
990.34	1078.99
990.63	1081.80
990.92	1092.56
991.21	1096.31
991.51	1092.33
991.80	1091.16
992.09	1086.71
992.38	1080.86
992.67	1076.65
992.96	1063.07
993.25	1056.99
993.54	1056.52
993.83	1052.30
994.12	1059.56
994.41	1056.05
994.70	1059.79
994.99	1062.37
995.28	1072.90
995.57	1067.05
995.86	1074.54
996.15	1070.80
996.44	1081.56
996.73	1071.73
997.02	1077.82
997.31	1087.88
997.59	1093.73
997.88	1084.60
998.17	1092.56
998.46	1094.90
998.75	1082.26
999.04	1069.62
999.33	1072.43
999.62	1073.60
999.91	1071.26
1000.20	1070.33
1000.49	1089.75
1000.77	1088.12
1001.06	1089.52
1001.35	1092.09
1001.64	1101.92
1001.93	1095.84
1002.22	1088.12
1002.51	1083.20
1002.79	1075.71
1003.08	1065.65
1003.37	1057.92
1003.66	1067.28
1003.95	1071.03
1004.23	1070.80
1004.52	1070.80
1004.81	1076.41
1005.10	1072.20
1005.39	1072.20
1005.67	1080.39
1005.96	1082.50
1006.25	1087.41
1006.54	1088.82
1006.83	1086.71
1007.11	1075.48
1007.40	1074.31
1007.69	1075.94
1007.97	1087.41
1008.26	1078.75
1008.55	1080.16
1008.84	1089.99
1009.12	1082.03
1009.41	1073.60
1009.70	1077.82
1009.98	1077.82
1010.27	1069.39
1010.56	1076.65
1010.85	1076.65
1011.13	1082.26
1011.42	1084.14
1011.71	1090.22
1011.99	1085.54
1012.28	1086.24
1012.56	1083.20
1012.85	1095.14
1013.14	1097.48
1013.42	1095.60
1013.71	1099.12
1014.00	1100.75
1014.28	1084.37
1014.57	1078.05
1014.85	1082.03
1015.14	1073.60
1015.43	1071.73
1015.71	1076.88
1016.00	1075.01
1016.28	1071.73
1016.57	1067.99
1016.85	1071.26
1017.14	1070.56
1017.43	1072.90
1017.71	1075.94
1018.00	1082.73
1018.28	1083.20
1018.57	1086.48
1018.85	1091.63
1019.14	1083.90
1019.42	1086.01
1019.71	1076.41
1019.99	1079.69
1020.28	1074.77
1020.56	1078.05
1020.85	1075.48
1021.13	1078.75
1021.42	1075.24
1021.70	1074.54
1021.99	1082.50
1022.27	1091.39
1022.55	1108.24
1022.84	1124.63
>>>>>End Processed Spectral Data<<<<<
