SpectraSuite Data File
++++++++++++++++++++++++++++++++++++
Date: Mon Aug 26 10:25:53 PDT 2019
User: corrico
Dark Spectrum Present: No
Reference Spectrum Present: No
Number of Sampled Component Spectra: 1
Spectrometers: USB2+H06089
Integration Time (usec): 10000 (USB2+H06089)
Spectra Averaged: 2 (USB2+H06089)
Boxcar Smoothing: 2 (USB2+H06089)
Correct for Electrical Dark: No (USB2+H06089)
Strobe/Lamp Enabled: No (USB2+H06089)
Correct for Detector Non-linearity: No (USB2+H06089)
Correct for Stray Light: No (USB2+H06089)
Number of Pixels in Processed Spectrum: 2048
>>>>>Begin Processed Spectral Data<<<<<
339.70	1008.77
340.07	1008.77
340.45	984.66
340.82	972.96
341.19	953.07
341.57	933.41
341.94	927.55
342.31	918.43
342.69	905.55
343.06	898.06
343.43	899.23
343.81	896.43
344.18	895.25
344.55	895.49
344.93	907.66
345.30	911.17
345.67	926.15
346.04	948.62
346.42	956.34
346.79	962.43
347.16	975.30
347.54	978.34
347.91	975.77
348.28	991.45
348.65	1004.09
349.03	1002.69
349.40	1003.62
349.77	1021.88
350.14	1027.50
350.52	1025.39
350.89	1042.71
351.26	1049.03
351.63	1036.62
352.01	1039.67
352.38	1050.67
352.75	1051.37
353.12	1049.50
353.50	1058.39
353.87	1059.56
354.24	1056.05
354.61	1061.20
354.98	1068.22
355.36	1072.20
355.73	1075.94
356.10	1090.22
356.47	1085.77
356.84	1090.46
357.22	1089.52
357.59	1090.22
357.96	1078.28
358.33	1078.52
358.70	1078.05
359.08	1080.16
359.45	1086.48
359.82	1088.82
360.19	1083.43
360.56	1089.05
360.94	1082.97
361.31	1069.86
361.68	1070.33
362.05	1070.56
362.42	1066.82
362.79	1064.71
363.16	1078.05
363.54	1083.90
363.91	1075.71
364.28	1073.60
364.65	1078.75
365.02	1076.41
365.39	1072.20
365.76	1082.73
366.14	1080.39
366.51	1081.80
366.88	1064.48
367.25	1059.33
367.62	1066.82
367.99	1068.45
368.36	1065.41
368.73	1078.52
369.10	1079.92
369.48	1072.20
369.85	1068.69
370.22	1063.77
370.59	1066.11
370.96	1070.09
371.33	1067.52
371.70	1080.86
372.07	1091.16
372.44	1084.84
372.81	1077.35
373.18	1083.20
373.55	1066.35
373.93	1051.13
374.30	1060.50
374.67	1064.94
375.04	1062.60
375.41	1069.39
375.78	1077.11
376.15	1070.56
376.52	1071.26
376.89	1070.33
377.26	1074.54
377.63	1069.16
378.00	1078.05
378.37	1076.41
378.74	1068.45
379.11	1060.50
379.48	1061.90
379.85	1056.28
380.22	1054.65
380.59	1057.69
380.96	1058.86
381.33	1058.62
381.70	1059.79
382.07	1060.50
382.44	1061.67
382.81	1065.41
383.18	1067.05
383.55	1060.26
383.92	1060.96
384.29	1075.71
384.66	1086.01
385.03	1092.56
385.40	1095.14
385.77	1093.50
386.14	1081.80
386.51	1073.14
386.88	1069.86
387.25	1062.37
387.62	1066.82
387.99	1071.97
388.36	1057.69
388.73	1056.28
389.10	1065.18
389.46	1065.18
389.83	1071.50
390.20	1088.82
390.57	1084.60
390.94	1081.09
391.31	1085.07
391.68	1078.05
392.05	1067.75
392.42	1079.22
392.79	1083.20
393.16	1069.62
393.53	1071.03
393.89	1078.28
394.26	1071.50
394.63	1069.86
395.00	1079.22
395.37	1077.35
395.74	1081.09
396.11	1090.69
396.48	1093.03
396.84	1090.46
397.21	1087.88
397.58	1082.97
397.95	1066.11
398.32	1067.99
398.69	1070.80
399.06	1068.92
399.42	1064.48
399.79	1075.94
400.16	1069.86
400.53	1059.79
400.90	1057.22
401.27	1060.50
401.64	1065.65
402.00	1062.60
402.37	1062.14
402.74	1067.28
403.11	1067.52
403.48	1064.48
403.84	1064.48
404.21	1071.73
404.58	1073.14
404.95	1071.73
405.32	1070.56
405.68	1075.48
406.05	1082.03
406.42	1086.01
406.79	1090.46
407.16	1078.99
407.52	1070.33
407.89	1065.41
408.26	1057.69
408.63	1051.84
408.99	1058.86
409.36	1068.92
409.73	1064.48
410.10	1057.22
410.47	1058.62
410.83	1067.99
411.20	1069.16
411.57	1074.54
411.94	1083.43
412.30	1078.05
412.67	1075.48
413.04	1079.46
413.40	1076.65
413.77	1078.28
414.14	1087.65
414.51	1079.22
414.87	1086.94
415.24	1081.80
415.61	1076.88
415.97	1073.60
416.34	1086.71
416.71	1072.67
417.08	1075.94
417.44	1083.67
417.81	1084.37
418.18	1085.54
418.54	1086.94
418.91	1089.29
419.28	1084.37
419.64	1080.86
420.01	1071.97
420.38	1064.94
420.74	1062.60
421.11	1064.24
421.48	1071.26
421.84	1064.48
422.21	1069.86
422.58	1082.73
422.94	1088.12
423.31	1083.90
423.68	1085.31
424.04	1093.97
424.41	1088.82
424.77	1072.90
425.14	1069.86
425.51	1073.84
425.87	1060.73
426.24	1049.50
426.61	1055.82
426.97	1059.79
427.34	1056.75
427.70	1069.62
428.07	1073.37
428.44	1070.33
428.80	1072.67
429.17	1082.50
429.53	1077.82
429.90	1086.01
430.27	1087.18
430.63	1089.29
431.00	1080.63
431.36	1073.60
431.73	1065.88
432.09	1078.05
432.46	1079.22
432.83	1080.39
433.19	1088.35
433.56	1093.97
433.92	1086.71
434.29	1079.92
434.65	1075.71
435.02	1078.28
435.38	1082.03
435.75	1081.09
436.11	1079.92
436.48	1086.01
436.84	1083.20
437.21	1078.28
437.57	1072.67
437.94	1082.03
438.30	1076.18
438.67	1073.37
439.03	1068.92
439.40	1073.14
439.76	1065.18
440.13	1075.71
440.49	1071.97
440.86	1072.20
441.22	1075.01
441.59	1066.35
441.95	1060.96
442.32	1062.37
442.68	1073.14
443.05	1073.14
443.41	1085.07
443.78	1090.69
444.14	1101.69
444.51	1097.71
444.87	1102.63
445.24	1093.50
445.60	1095.37
445.96	1095.37
446.33	1092.56
446.69	1081.56
447.06	1082.73
447.42	1073.60
447.79	1064.01
448.15	1067.28
448.51	1075.71
448.88	1072.67
449.24	1073.84
449.61	1071.03
449.97	1063.54
450.33	1060.26
450.70	1064.01
451.06	1061.90
451.43	1055.11
451.79	1065.18
452.15	1077.35
452.52	1082.73
452.88	1089.29
453.24	1085.77
453.61	1073.37
453.97	1062.37
454.34	1064.94
454.70	1056.75
455.06	1069.86
455.43	1078.05
455.79	1079.46
456.15	1079.22
456.52	1076.65
456.88	1077.11
457.24	1073.37
457.61	1063.77
457.97	1053.71
458.33	1057.69
458.70	1060.96
459.06	1057.69
459.42	1067.05
459.79	1062.60
460.15	1067.28
460.51	1063.54
460.88	1065.88
461.24	1067.52
461.60	1080.63
461.96	1088.35
462.33	1087.88
462.69	1087.41
463.05	1086.71
463.42	1075.71
463.78	1062.60
464.14	1062.37
464.50	1062.37
464.87	1066.58
465.23	1076.88
465.59	1075.48
465.95	1078.99
466.32	1082.26
466.68	1076.65
467.04	1077.35
467.40	1081.56
467.77	1067.05
468.13	1064.48
468.49	1062.37
468.85	1059.79
469.22	1065.88
469.58	1082.50
469.94	1089.52
470.30	1088.35
470.66	1082.26
471.03	1078.75
471.39	1071.03
471.75	1064.01
472.11	1061.67
472.47	1069.62
472.84	1076.18
473.20	1081.33
473.56	1097.24
473.92	1105.90
474.28	1110.12
474.65	1105.20
475.01	1111.99
475.37	1100.99
475.73	1091.39
476.09	1076.65
476.45	1075.24
476.81	1069.86
477.18	1060.50
477.54	1058.39
477.90	1063.77
478.26	1063.54
478.62	1056.99
478.98	1054.88
479.34	1067.05
479.71	1067.52
480.07	1068.69
480.43	1076.41
480.79	1088.35
481.15	1085.31
481.51	1096.54
481.87	1090.46
482.23	1083.67
482.59	1085.77
482.96	1085.77
483.32	1075.71
483.68	1068.92
484.04	1077.11
484.40	1083.90
484.76	1084.37
485.12	1088.58
485.48	1089.99
485.84	1082.50
486.20	1075.01
486.56	1067.28
486.92	1058.39
487.28	1075.71
487.64	1075.24
488.00	1067.52
488.37	1068.69
488.73	1078.75
489.09	1068.92
489.45	1073.37
489.81	1066.11
490.17	1067.05
490.53	1060.50
490.89	1068.45
491.25	1069.86
491.61	1085.31
491.97	1091.63
492.33	1100.05
492.69	1091.86
493.05	1084.84
493.41	1074.54
493.77	1070.33
494.13	1065.65
494.49	1068.92
494.85	1064.71
495.21	1062.60
495.57	1061.67
495.93	1064.24
496.29	1067.75
496.64	1077.35
497.00	1088.35
497.36	1089.29
497.72	1084.37
498.08	1075.01
498.44	1071.50
498.80	1069.62
499.16	1073.84
499.52	1082.97
499.88	1090.22
500.24	1094.43
500.60	1093.50
500.96	1095.14
501.32	1095.37
501.68	1086.71
502.03	1085.54
502.39	1078.75
502.75	1084.60
503.11	1073.37
503.47	1075.94
503.83	1077.82
504.19	1076.18
504.55	1066.35
504.91	1071.50
505.26	1080.86
505.62	1071.50
505.98	1069.16
506.34	1065.41
506.70	1078.75
507.06	1074.07
507.42	1080.16
507.78	1095.84
508.13	1105.90
508.49	1093.50
508.85	1093.50
509.21	1095.60
509.57	1094.67
509.93	1089.99
510.28	1090.92
510.64	1089.05
511.00	1086.24
511.36	1076.88
511.72	1083.20
512.07	1082.50
512.43	1082.97
512.79	1075.01
513.15	1078.99
513.51	1074.77
513.86	1081.09
514.22	1083.43
514.58	1094.67
514.94	1087.41
515.30	1079.69
515.65	1073.60
516.01	1072.43
516.37	1075.71
516.73	1084.60
517.08	1089.75
517.44	1102.16
517.80	1103.09
518.16	1097.95
518.51	1101.46
518.87	1105.90
519.23	1103.56
519.59	1091.39
519.94	1086.94
520.30	1085.31
520.66	1084.37
521.01	1079.46
521.37	1087.65
521.73	1083.90
522.09	1084.84
522.44	1086.24
522.80	1080.63
523.16	1084.84
523.51	1096.07
523.87	1100.05
524.23	1098.65
524.58	1091.63
524.94	1099.82
525.30	1104.03
525.65	1099.35
526.01	1104.26
526.37	1107.78
526.72	1101.92
527.08	1089.99
527.44	1073.14
527.79	1062.37
528.15	1065.65
528.51	1071.26
528.86	1073.60
529.22	1095.14
529.58	1105.20
529.93	1100.05
530.29	1098.88
530.65	1100.05
531.00	1094.43
531.36	1085.07
531.71	1091.16
532.07	1091.39
532.43	1102.39
532.78	1111.75
533.14	1119.24
533.49	1115.50
533.85	1111.75
534.21	1103.33
534.56	1092.33
534.92	1090.22
535.27	1090.92
535.63	1082.97
535.98	1074.77
536.34	1082.03
536.69	1074.54
537.05	1075.01
537.41	1075.71
537.76	1082.03
538.12	1081.56
538.47	1093.26
538.83	1097.48
539.18	1100.29
539.54	1098.18
539.89	1096.54
540.25	1090.92
540.60	1086.24
540.96	1093.50
541.31	1100.29
541.67	1096.78
542.02	1094.20
542.38	1093.97
542.73	1086.71
543.09	1087.65
543.44	1082.50
543.80	1083.90
544.15	1098.65
544.51	1104.97
544.86	1100.05
545.22	1109.18
545.57	1106.84
545.93	1102.16
546.28	1095.60
546.64	1095.60
546.99	1094.67
547.35	1095.84
547.70	1087.18
548.05	1084.60
548.41	1086.94
548.76	1089.75
549.12	1088.58
549.47	1091.86
549.83	1088.58
550.18	1086.24
550.53	1076.65
550.89	1079.92
551.24	1075.24
551.60	1085.07
551.95	1081.09
552.30	1091.63
552.66	1093.03
553.01	1096.31
553.37	1104.73
553.72	1113.16
554.07	1104.73
554.43	1095.84
554.78	1096.54
555.13	1084.14
555.49	1082.97
555.84	1083.20
556.19	1091.39
556.55	1090.46
556.90	1098.41
557.26	1089.75
557.61	1084.60
557.96	1078.75
558.32	1080.86
558.67	1066.11
559.02	1067.99
559.37	1077.11
559.73	1085.31
560.08	1079.46
560.43	1085.07
560.79	1091.39
561.14	1083.90
561.49	1073.14
561.85	1067.52
562.20	1060.96
562.55	1057.45
562.90	1069.86
563.26	1069.86
563.61	1072.67
563.96	1081.56
564.32	1081.09
564.67	1065.88
565.02	1075.24
565.37	1089.75
565.73	1088.58
566.08	1088.82
566.43	1095.14
566.78	1100.75
567.14	1093.73
567.49	1093.50
567.84	1093.97
568.19	1088.58
568.54	1085.54
568.90	1079.22
569.25	1078.05
569.60	1075.01
569.95	1078.05
570.31	1064.24
570.66	1073.14
571.01	1071.97
571.36	1079.22
571.71	1079.92
572.06	1096.31
572.42	1092.09
572.77	1091.16
573.12	1083.20
573.47	1084.14
573.82	1075.48
574.18	1075.48
574.53	1083.67
574.88	1084.14
575.23	1084.14
575.58	1076.41
575.93	1078.75
576.28	1068.92
576.64	1071.97
576.99	1063.07
577.34	1074.54
577.69	1071.97
578.04	1084.37
578.39	1083.20
578.74	1088.12
579.09	1079.69
579.44	1082.97
579.80	1070.33
580.15	1069.86
580.50	1074.31
580.85	1070.56
581.20	1075.24
581.55	1078.28
581.90	1079.69
582.25	1077.35
582.60	1082.03
582.95	1076.41
583.30	1068.69
583.65	1072.20
584.00	1080.63
584.35	1074.31
584.71	1055.11
585.06	1060.96
585.41	1043.88
585.76	1036.39
586.11	1043.18
586.46	1046.92
586.81	1049.50
587.16	1069.39
587.51	1067.28
587.86	1074.77
588.21	1093.03
588.56	1092.33
588.91	1079.69
589.26	1084.14
589.61	1082.97
589.96	1071.26
590.31	1065.65
590.66	1074.07
591.01	1078.52
591.36	1066.35
591.71	1067.99
592.06	1075.24
592.41	1070.80
592.76	1065.41
593.10	1067.75
593.45	1067.52
593.80	1079.92
594.15	1077.35
594.50	1075.71
594.85	1079.69
595.20	1084.84
595.55	1073.60
595.90	1078.52
596.25	1085.54
596.60	1081.80
596.95	1073.14
597.30	1069.16
597.64	1122.05
597.99	1125.80
598.34	1128.37
598.69	1136.33
599.04	1128.37
599.39	1079.22
599.74	1074.07
600.09	1082.97
600.44	1086.24
600.78	1103.56
601.13	1108.01
601.48	1101.22
601.83	1105.90
602.18	1093.97
602.53	1084.14
602.88	1080.63
603.22	1082.73
603.57	1067.05
603.92	1081.33
604.27	1086.94
604.62	1083.20
604.97	1083.90
605.31	1091.16
605.66	1085.77
606.01	1084.60
606.36	1082.03
606.71	1078.52
607.05	1071.73
607.40	1066.58
607.75	1061.90
608.10	1067.99
608.44	1063.77
608.79	1061.67
609.14	1074.31
609.49	1087.65
609.84	1078.05
610.18	1090.46
610.53	1106.14
610.88	1104.73
611.23	1090.46
611.57	1101.46
611.92	1097.95
612.27	1100.05
612.62	1090.46
612.96	1094.67
613.31	1088.58
613.66	1082.73
614.00	1069.86
614.35	1066.58
614.70	1067.05
615.05	1072.90
615.39	1076.18
615.74	1082.26
616.09	1089.52
616.43	1079.46
616.78	1073.37
617.13	1079.46
617.47	1072.20
617.82	1071.50
618.17	1086.48
618.51	1083.43
618.86	1083.67
619.21	1086.94
619.55	1092.80
619.90	1086.01
620.25	1097.95
620.59	1101.92
620.94	1100.05
621.29	1105.20
621.63	1101.22
621.98	1097.95
622.32	1089.99
622.67	1088.12
623.02	1075.71
623.36	1083.20
623.71	1068.69
624.05	1067.75
624.40	1073.37
624.75	1077.35
625.09	1079.22
625.44	1086.24
625.78	1076.88
626.13	1073.14
626.48	1075.71
626.82	1073.14
627.17	1069.62
627.51	1073.84
627.86	1076.41
628.20	1062.37
628.55	1061.20
628.89	1065.18
629.24	1072.20
629.58	1073.60
629.93	1077.35
630.28	1069.62
630.62	1076.18
630.97	1078.52
631.31	1082.73
631.66	1089.75
632.00	1097.95
632.35	1085.77
632.69	1087.18
633.04	1091.16
633.38	1085.77
633.73	1079.92
634.07	1095.37
634.42	1099.82
634.76	1084.60
635.11	1084.84
635.45	1087.65
635.79	1085.77
636.14	1077.35
636.48	1080.16
636.83	1084.60
637.17	1086.24
637.52	1074.07
637.86	1076.88
638.21	1086.71
638.55	1083.90
638.89	1087.65
639.24	1090.69
639.58	1092.33
639.93	1086.48
640.27	1080.16
640.61	1074.07
640.96	1071.26
641.30	1070.56
641.65	1067.99
641.99	1074.77
642.33	1076.88
642.68	1080.63
643.02	1070.33
643.37	1074.54
643.71	1082.03
644.05	1080.39
644.40	1079.46
644.74	1073.14
645.08	1060.26
645.43	1055.58
645.77	1060.26
646.11	1061.67
646.46	1076.18
646.80	1086.94
647.14	1084.37
647.49	1075.94
647.83	1080.63
648.17	1074.77
648.52	1076.88
648.86	1074.54
649.20	1078.05
649.55	1080.39
649.89	1077.82
650.23	1078.99
650.57	1080.63
650.92	1083.43
651.26	1067.28
651.60	1066.82
651.95	1054.65
652.29	1061.20
652.63	1060.96
652.97	1072.43
653.32	1081.09
653.66	1082.73
654.00	1077.11
654.34	1078.05
654.69	1084.37
655.03	1084.37
655.37	1092.80
655.71	1096.54
656.05	1096.54
656.40	1084.37
656.74	1084.37
657.08	1080.16
657.42	1078.99
657.76	1081.56
658.11	1086.94
658.45	1081.09
658.79	1085.54
659.13	1087.18
659.47	1080.86
659.82	1076.41
660.16	1067.28
660.50	1072.90
660.84	1070.09
661.18	1065.18
661.52	1064.01
661.87	1073.60
662.21	1064.94
662.55	1078.05
662.89	1086.48
663.23	1094.90
663.57	1100.29
663.91	1105.67
664.25	1093.03
664.60	1098.65
664.94	1090.22
665.28	1089.75
665.62	1078.75
665.96	1078.52
666.30	1067.05
666.64	1067.52
666.98	1071.26
667.32	1084.60
667.66	1084.37
668.01	1090.22
668.35	1093.97
668.69	1076.88
669.03	1064.71
669.37	1069.62
669.71	1074.07
670.05	1079.22
670.39	1086.71
670.73	1093.50
671.07	1093.26
671.41	1094.90
671.75	1098.41
672.09	1108.24
672.43	1101.92
672.77	1094.90
673.11	1088.58
673.45	1071.50
673.79	1060.50
674.13	1064.94
674.47	1063.77
674.81	1071.73
675.15	1082.50
675.49	1092.56
675.83	1095.14
676.17	1097.71
676.51	1096.07
676.85	1101.92
677.19	1100.99
677.53	1084.37
677.87	1078.28
678.21	1071.50
678.55	1062.37
678.89	1053.71
679.23	1067.99
679.57	1075.01
679.90	1079.46
680.24	1080.63
680.58	1081.80
680.92	1085.31
681.26	1086.94
681.60	1080.39
681.94	1087.65
682.28	1089.99
682.62	1079.69
682.96	1077.11
683.29	1077.58
683.63	1077.35
683.97	1070.56
684.31	1081.33
684.65	1082.97
684.99	1091.86
685.33	1087.18
685.67	1092.09
686.00	1096.31
686.34	1098.88
686.68	1102.39
687.02	1099.58
687.36	1095.37
687.70	1088.58
688.03	1086.01
688.37	1069.86
688.71	1061.43
689.05	1063.07
689.39	1066.82
689.72	1065.88
690.06	1074.31
690.40	1085.07
690.74	1089.75
691.08	1080.63
691.41	1078.52
691.75	1070.33
692.09	1069.16
692.43	1064.94
692.76	1069.62
693.10	1061.20
693.44	1067.28
693.78	1065.88
694.11	1066.11
694.45	1066.35
694.79	1078.75
695.13	1081.09
695.46	1083.67
695.80	1087.65
696.14	1089.29
696.48	1087.41
696.81	1097.01
697.15	1105.67
697.49	1096.78
697.82	1091.86
698.16	1095.60
698.50	1078.99
698.83	1069.39
699.17	1082.26
699.51	1087.88
699.84	1085.07
700.18	1087.65
700.52	1093.50
700.85	1094.43
701.19	1084.37
701.53	1086.48
701.86	1086.01
702.20	1073.14
702.54	1061.43
702.87	1074.77
703.21	1072.67
703.55	1071.73
703.88	1081.56
704.22	1086.71
704.55	1079.92
704.89	1080.39
705.23	1079.22
705.56	1078.28
705.90	1080.16
706.23	1076.88
706.57	1068.45
706.91	1078.05
707.24	1078.05
707.58	1074.77
707.91	1078.99
708.25	1083.20
708.58	1082.50
708.92	1079.92
709.26	1085.31
709.59	1080.16
709.93	1075.71
710.26	1064.24
710.60	1067.28
710.93	1074.31
711.27	1080.86
711.60	1084.60
711.94	1088.58
712.27	1082.26
712.61	1067.05
712.94	1064.48
713.28	1072.43
713.61	1077.35
713.95	1086.94
714.28	1092.33
714.62	1090.22
714.95	1077.58
715.29	1076.41
715.62	1069.16
715.96	1065.65
716.29	1064.24
716.63	1065.41
716.96	1065.18
717.29	1063.07
717.63	1064.94
717.96	1066.35
718.30	1074.77
718.63	1079.22
718.97	1085.07
719.30	1082.50
719.63	1082.73
719.97	1075.71
720.30	1068.45
720.64	1062.60
720.97	1073.14
721.30	1075.71
721.64	1075.71
721.97	1078.52
722.31	1082.97
722.64	1077.11
722.97	1073.84
723.31	1067.28
723.64	1062.37
723.97	1059.09
724.31	1071.50
724.64	1081.56
724.98	1096.54
725.31	1101.46
725.64	1103.09
725.98	1091.86
726.31	1088.58
726.64	1078.28
726.97	1081.09
727.31	1083.20
727.64	1091.16
727.97	1093.73
728.31	1090.69
728.64	1080.16
728.97	1075.71
729.31	1067.28
729.64	1062.37
729.97	1072.20
730.30	1077.58
730.64	1086.24
730.97	1075.94
731.30	1071.73
731.63	1075.94
731.97	1071.97
732.30	1065.18
732.63	1074.77
732.96	1071.73
733.30	1063.31
733.63	1063.07
733.96	1067.52
734.29	1072.20
734.63	1080.63
734.96	1088.35
735.29	1090.92
735.62	1086.01
735.95	1078.99
736.29	1071.50
736.62	1069.62
736.95	1075.71
737.28	1077.82
737.61	1073.60
737.94	1078.28
738.28	1082.50
738.61	1075.01
738.94	1065.18
739.27	1067.28
739.60	1064.24
739.93	1058.16
740.27	1053.94
740.60	1067.05
740.93	1070.56
741.26	1077.35
741.59	1075.01
741.92	1080.39
742.25	1075.71
742.58	1077.35
742.91	1086.48
743.25	1082.50
743.58	1089.99
743.91	1098.18
744.24	1086.94
744.57	1071.73
744.90	1080.39
745.23	1079.69
745.56	1074.77
745.89	1084.37
746.22	1087.41
746.55	1085.54
746.88	1080.16
747.21	1082.97
747.54	1090.22
747.87	1084.84
748.20	1083.67
748.53	1091.63
748.87	1084.84
749.20	1080.63
749.53	1091.63
749.86	1088.58
750.19	1084.60
750.52	1083.43
750.85	1081.80
751.18	1072.43
751.51	1076.18
751.84	1066.35
752.16	1062.14
752.49	1066.58
752.82	1060.96
753.15	1069.16
753.48	1073.60
753.81	1078.75
754.14	1070.09
754.47	1074.54
754.80	1071.50
755.13	1088.35
755.46	1095.14
755.79	1100.75
756.12	1104.97
756.45	1096.07
756.78	1079.22
757.11	1076.88
757.43	1074.54
757.76	1079.92
758.09	1082.97
758.42	1083.20
758.75	1084.37
759.08	1083.20
759.41	1068.22
759.74	1064.94
760.07	1066.35
760.39	1061.20
760.72	1053.01
761.05	1056.52
761.38	1059.09
761.71	1060.50
762.04	1059.33
762.36	1065.41
762.69	1067.05
763.02	1078.05
763.35	1082.97
763.68	1088.35
764.01	1097.48
764.33	1098.88
764.66	1078.75
764.99	1074.54
765.32	1071.50
765.65	1063.07
765.97	1060.96
766.30	1081.09
766.63	1081.09
766.96	1084.37
767.28	1090.22
767.61	1096.54
767.94	1088.12
768.27	1089.52
768.59	1093.50
768.92	1092.56
769.25	1089.99
769.58	1091.86
769.90	1090.22
770.23	1096.78
770.56	1099.12
770.89	1106.84
771.21	1105.44
771.54	1105.90
771.87	1084.37
772.19	1077.11
772.52	1077.11
772.85	1084.84
773.17	1082.73
773.50	1091.63
773.83	1093.03
774.15	1088.12
774.48	1087.18
774.81	1095.14
775.13	1090.22
775.46	1089.29
775.79	1087.65
776.11	1078.52
776.44	1071.26
776.77	1073.37
777.09	1080.63
777.42	1077.58
777.74	1081.80
778.07	1086.71
778.40	1097.95
778.72	1095.14
779.05	1100.29
779.37	1096.07
779.70	1091.63
780.03	1080.16
780.35	1081.80
780.68	1072.67
781.00	1075.48
781.33	1077.82
781.65	1085.54
781.98	1082.03
782.31	1083.67
782.63	1083.20
782.96	1077.58
783.28	1075.48
783.61	1073.84
783.93	1079.92
784.26	1086.94
784.58	1090.22
784.91	1088.58
785.23	1091.39
785.56	1090.46
785.88	1079.22
786.21	1071.73
786.53	1070.09
786.86	1067.05
787.18	1062.60
787.51	1072.43
787.83	1068.92
788.16	1066.11
788.48	1060.03
788.81	1070.80
789.13	1055.11
789.46	1065.18
789.78	1066.11
790.10	1067.52
790.43	1064.71
790.75	1074.31
791.08	1076.65
791.40	1082.73
791.73	1096.07
792.05	1087.88
792.37	1095.14
792.70	1090.92
793.02	1081.56
793.35	1076.88
793.67	1081.80
793.99	1082.26
794.32	1081.09
794.64	1088.12
794.96	1084.84
795.29	1082.03
795.61	1076.18
795.93	1082.26
796.26	1071.97
796.58	1069.39
796.91	1071.26
797.23	1075.24
797.55	1078.28
797.87	1086.01
798.20	1092.33
798.52	1088.35
798.84	1089.52
799.17	1079.69
799.49	1081.56
799.81	1081.56
800.14	1089.29
800.46	1074.54
800.78	1073.14
801.10	1081.56
801.43	1072.43
801.75	1067.05
802.07	1072.67
802.40	1080.39
802.72	1070.33
803.04	1068.22
803.36	1064.94
803.69	1069.86
804.01	1069.39
804.33	1076.88
804.65	1085.07
804.97	1092.33
805.30	1083.90
805.62	1088.35
805.94	1082.50
806.26	1078.75
806.58	1064.71
806.91	1060.96
807.23	1055.82
807.55	1064.71
807.87	1063.31
808.19	1076.65
808.52	1082.26
808.84	1085.07
809.16	1078.05
809.48	1078.75
809.80	1085.77
810.12	1086.24
810.44	1082.26
810.77	1082.97
811.09	1089.29
811.41	1086.01
811.73	1089.05
812.05	1085.07
812.37	1084.14
812.69	1096.54
813.01	1092.33
813.33	1089.52
813.66	1092.56
813.98	1079.92
814.30	1066.11
814.62	1060.96
814.94	1058.16
815.26	1067.52
815.58	1084.37
815.90	1079.46
816.22	1090.92
816.54	1093.03
816.86	1090.69
817.18	1085.54
817.50	1097.24
817.82	1085.77
818.14	1082.03
818.46	1078.05
818.78	1071.97
819.10	1069.16
819.42	1076.88
819.74	1080.86
820.06	1077.58
820.38	1080.16
820.70	1080.39
821.02	1074.54
821.34	1090.22
821.66	1086.94
821.98	1081.80
822.30	1086.94
822.62	1080.86
822.94	1070.80
823.26	1080.63
823.58	1096.78
823.90	1088.35
824.22	1094.67
824.54	1092.56
824.86	1100.75
825.18	1096.07
825.50	1101.92
825.81	1104.03
826.13	1110.12
826.45	1097.95
826.77	1094.43
827.09	1090.22
827.41	1092.09
827.73	1094.90
828.05	1094.67
828.36	1086.24
828.68	1078.75
829.00	1074.31
829.32	1072.90
829.64	1067.75
829.96	1065.88
830.28	1081.56
830.59	1084.14
830.91	1082.03
831.23	1087.65
831.55	1092.56
831.87	1081.56
832.19	1083.20
832.50	1077.82
832.82	1084.60
833.14	1088.12
833.46	1090.46
833.78	1095.84
834.09	1089.99
834.41	1082.97
834.73	1086.01
835.05	1092.33
835.36	1088.35
835.68	1086.48
836.00	1082.26
836.32	1082.97
836.63	1075.48
836.95	1075.94
837.27	1088.82
837.59	1092.09
837.90	1086.01
838.22	1085.31
838.54	1081.56
838.85	1076.88
839.17	1086.01
839.49	1088.12
839.80	1092.09
840.12	1093.73
840.44	1097.01
840.76	1082.26
841.07	1085.31
841.39	1083.90
841.71	1079.46
842.02	1079.22
842.34	1084.60
842.65	1090.69
842.97	1087.65
843.29	1099.12
843.60	1095.14
843.92	1092.56
844.24	1088.35
844.55	1092.33
844.87	1098.88
845.18	1096.07
845.50	1106.84
845.82	1113.86
846.13	1108.24
846.45	1094.67
846.76	1090.69
847.08	1079.69
847.40	1067.75
847.71	1068.22
848.03	1075.01
848.34	1083.90
848.66	1082.03
848.97	1084.60
849.29	1086.71
849.60	1075.24
849.92	1071.50
850.24	1080.86
850.55	1078.99
850.87	1070.80
851.18	1063.54
851.50	1062.84
851.81	1053.01
852.13	1056.28
852.44	1063.54
852.76	1077.58
853.07	1076.18
853.39	1073.37
853.70	1062.14
854.01	1063.54
854.33	1065.88
854.64	1070.33
854.96	1076.65
855.27	1093.03
855.59	1096.31
855.90	1098.88
856.22	1099.12
856.53	1105.90
856.84	1103.56
857.16	1093.26
857.47	1086.94
857.79	1089.29
858.10	1086.48
858.41	1085.07
858.73	1097.95
859.04	1100.99
859.36	1096.54
859.67	1087.88
859.98	1081.33
860.30	1071.97
860.61	1069.62
860.92	1063.54
861.24	1068.92
861.55	1080.63
861.87	1078.75
862.18	1079.92
862.49	1089.75
862.81	1088.12
863.12	1070.33
863.43	1074.77
863.74	1065.18
864.06	1058.86
864.37	1064.94
864.68	1075.01
865.00	1069.39
865.31	1079.46
865.62	1088.35
865.94	1087.88
866.25	1093.26
866.56	1100.99
866.87	1100.52
867.19	1088.35
867.50	1091.86
867.81	1078.52
868.12	1077.11
868.44	1083.67
868.75	1085.54
869.06	1078.99
869.37	1090.92
869.68	1085.31
870.00	1072.67
870.31	1079.46
870.62	1082.03
870.93	1079.69
871.24	1086.01
871.56	1087.65
871.87	1091.63
872.18	1085.31
872.49	1082.50
872.80	1086.24
873.12	1086.94
873.43	1077.35
873.74	1072.67
874.05	1066.82
874.36	1055.82
874.67	1070.09
874.98	1076.88
875.29	1086.48
875.61	1093.03
875.92	1098.41
876.23	1083.43
876.54	1084.37
876.85	1085.31
877.16	1081.56
877.47	1082.50
877.78	1083.43
878.09	1085.07
878.40	1076.41
878.72	1074.77
879.03	1080.16
879.34	1074.77
879.65	1064.94
879.96	1070.09
880.27	1082.26
880.58	1079.92
880.89	1076.65
881.20	1081.09
881.51	1084.84
881.82	1078.99
882.13	1087.18
882.44	1095.60
882.75	1102.63
883.06	1104.73
883.37	1105.67
883.68	1086.48
883.99	1081.80
884.30	1070.56
884.61	1061.67
884.92	1054.88
885.23	1059.79
885.54	1067.75
885.85	1071.97
886.16	1082.03
886.47	1078.75
886.78	1080.63
887.08	1080.86
887.39	1079.92
887.70	1077.11
888.01	1089.29
888.32	1101.92
888.63	1099.82
888.94	1098.18
889.25	1086.24
889.56	1082.03
889.87	1074.07
890.17	1071.97
890.48	1073.14
890.79	1087.65
891.10	1086.71
891.41	1089.75
891.72	1094.43
892.03	1097.24
892.34	1090.92
892.64	1092.80
892.95	1085.77
893.26	1080.86
893.57	1083.67
893.88	1089.05
894.18	1088.58
894.49	1089.05
894.80	1097.24
895.11	1089.05
895.42	1081.33
895.72	1081.80
896.03	1081.09
896.34	1073.84
896.65	1077.11
896.96	1078.28
897.26	1070.80
897.57	1067.99
897.88	1065.65
898.19	1062.14
898.49	1066.82
898.80	1069.62
899.11	1069.86
899.41	1081.80
899.72	1085.31
900.03	1088.58
900.34	1084.60
900.64	1081.09
900.95	1066.35
901.26	1063.07
901.56	1051.60
901.87	1059.79
902.18	1063.31
902.48	1072.90
902.79	1078.99
903.10	1086.01
903.40	1086.01
903.71	1087.88
904.02	1086.24
904.32	1088.35
904.63	1087.88
904.94	1092.33
905.24	1097.48
905.55	1096.07
905.85	1089.05
906.16	1094.90
906.47	1099.12
906.77	1095.37
907.08	1095.14
907.38	1099.12
907.69	1100.29
908.00	1092.33
908.30	1102.39
908.61	1094.67
908.91	1091.16
909.22	1079.69
909.52	1072.90
909.83	1068.22
910.14	1067.05
910.44	1075.71
910.75	1080.39
911.05	1086.94
911.36	1080.63
911.66	1086.24
911.97	1074.07
912.27	1079.46
912.58	1079.46
912.88	1085.31
913.19	1089.52
913.49	1093.97
913.80	1086.71
914.10	1086.48
914.41	1086.01
914.71	1079.92
915.01	1079.92
915.32	1080.63
915.62	1071.97
915.93	1073.60
916.23	1083.90
916.54	1084.14
916.84	1083.20
917.15	1096.54
917.45	1087.41
917.75	1071.03
918.06	1075.48
918.36	1077.11
918.67	1068.92
918.97	1072.67
919.27	1082.03
919.58	1075.01
919.88	1067.52
920.18	1068.69
920.49	1061.67
920.79	1063.54
921.10	1064.94
921.40	1075.01
921.70	1078.28
922.01	1084.37
922.31	1077.11
922.61	1074.07
922.92	1071.03
923.22	1070.80
923.52	1070.09
923.82	1075.48
924.13	1080.86
924.43	1075.48
924.73	1076.41
925.04	1077.11
925.34	1072.90
925.64	1082.97
925.94	1088.58
926.25	1083.67
926.55	1081.56
926.85	1091.16
927.15	1077.58
927.46	1072.43
927.76	1079.46
928.06	1084.37
928.36	1085.54
928.67	1081.56
928.97	1090.92
929.27	1074.31
929.57	1067.52
929.87	1070.09
930.18	1082.73
930.48	1083.90
930.78	1090.92
931.08	1097.95
931.38	1089.52
931.69	1087.18
931.99	1075.48
932.29	1076.65
932.59	1071.26
932.89	1069.16
933.19	1061.90
933.49	1062.84
933.80	1068.22
934.10	1065.41
934.40	1066.11
934.70	1059.79
935.00	1066.58
935.30	1063.31
935.60	1070.09
935.90	1065.65
936.20	1082.26
936.50	1082.50
936.81	1080.86
937.11	1079.22
937.41	1088.35
937.71	1079.22
938.01	1077.11
938.31	1086.94
938.61	1084.60
938.91	1077.58
939.21	1078.05
939.51	1074.54
939.81	1066.11
940.11	1067.99
940.41	1069.16
940.71	1073.60
941.01	1080.39
941.31	1072.20
941.61	1078.99
941.91	1073.14
942.21	1073.84
942.51	1082.73
942.81	1098.18
943.11	1085.54
943.41	1094.67
943.71	1094.90
944.01	1082.73
944.31	1077.35
944.61	1088.35
944.90	1088.82
945.20	1084.84
945.50	1083.20
945.80	1073.84
946.10	1072.67
946.40	1066.11
946.70	1074.07
947.00	1073.60
947.30	1079.69
947.60	1074.31
947.89	1078.05
948.19	1078.28
948.49	1084.37
948.79	1081.80
949.09	1083.90
949.39	1081.56
949.69	1069.16
949.98	1064.01
950.28	1068.45
950.58	1067.75
950.88	1073.84
951.18	1073.84
951.48	1073.37
951.77	1079.22
952.07	1076.41
952.37	1069.86
952.67	1078.75
952.97	1082.97
953.26	1082.50
953.56	1083.90
953.86	1093.03
954.16	1095.84
954.45	1093.26
954.75	1092.56
955.05	1087.88
955.35	1081.09
955.64	1067.75
955.94	1077.82
956.24	1071.97
956.54	1071.73
956.83	1075.24
957.13	1075.48
957.43	1069.39
957.72	1070.56
958.02	1078.75
958.32	1079.92
958.61	1086.24
958.91	1081.80
959.21	1075.01
959.50	1077.35
959.80	1076.41
960.10	1076.41
960.39	1082.50
960.69	1094.90
960.99	1094.43
961.28	1103.09
961.58	1096.54
961.87	1094.43
962.17	1091.16
962.47	1084.14
962.76	1074.77
963.06	1083.43
963.36	1075.24
963.65	1071.03
963.95	1075.01
964.24	1081.56
964.54	1079.46
964.83	1086.94
965.13	1087.88
965.42	1083.90
965.72	1076.65
966.02	1070.80
966.31	1067.99
966.61	1068.45
966.90	1073.60
967.20	1068.69
967.49	1078.52
967.79	1073.37
968.08	1076.41
968.38	1074.77
968.67	1075.01
968.97	1077.58
969.26	1082.26
969.56	1087.88
969.85	1084.14
970.15	1085.07
970.44	1084.60
970.74	1076.88
971.03	1075.01
971.32	1080.39
971.62	1078.52
971.91	1062.60
972.21	1067.75
972.50	1055.82
972.80	1060.73
973.09	1066.35
973.38	1067.99
973.68	1067.75
973.97	1072.20
974.27	1072.67
974.56	1066.58
974.85	1083.90
975.15	1086.48
975.44	1091.16
975.73	1092.80
976.03	1101.92
976.32	1088.35
976.61	1095.37
976.91	1096.54
977.20	1090.46
977.49	1091.16
977.79	1099.12
978.08	1086.24
978.37	1080.86
978.67	1084.60
978.96	1089.29
979.25	1087.65
979.55	1099.12
979.84	1099.82
980.13	1085.77
980.42	1076.18
980.72	1081.80
981.01	1076.65
981.30	1078.28
981.59	1073.60
981.89	1073.84
982.18	1060.26
982.47	1053.94
982.76	1055.58
983.06	1071.97
983.35	1067.75
983.64	1067.28
983.93	1070.80
984.22	1076.18
984.52	1074.54
984.81	1076.88
985.10	1079.69
985.39	1080.16
985.68	1087.41
985.97	1088.82
986.27	1090.92
986.56	1100.99
986.85	1104.26
987.14	1095.14
987.43	1095.37
987.72	1102.86
988.01	1100.52
988.31	1099.12
988.60	1082.50
988.89	1070.33
989.18	1059.09
989.47	1057.45
989.76	1049.50
990.05	1059.56
990.34	1067.75
990.63	1070.33
990.92	1069.16
991.21	1081.56
991.51	1081.56
991.80	1083.90
992.09	1086.71
992.38	1074.07
992.67	1063.31
992.96	1065.41
993.25	1075.24
993.54	1075.48
993.83	1089.29
994.12	1089.05
994.41	1089.75
994.70	1081.09
994.99	1080.16
995.28	1081.80
995.57	1080.86
995.86	1079.69
996.15	1072.67
996.44	1064.01
996.73	1060.50
997.02	1067.52
997.31	1063.31
997.59	1072.90
997.88	1083.43
998.17	1082.03
998.46	1079.92
998.75	1088.58
999.04	1082.26
999.33	1083.43
999.62	1086.24
999.91	1095.37
1000.20	1089.75
1000.49	1087.65
1000.77	1083.20
1001.06	1086.48
1001.35	1084.60
1001.64	1086.24
1001.93	1085.54
1002.22	1078.99
1002.51	1074.77
1002.79	1065.41
1003.08	1066.35
1003.37	1062.37
1003.66	1063.77
1003.95	1059.33
1004.23	1065.88
1004.52	1058.62
1004.81	1056.99
1005.10	1062.37
1005.39	1066.35
1005.67	1068.45
1005.96	1064.24
1006.25	1064.24
1006.54	1071.03
1006.83	1067.05
1007.11	1054.65
1007.40	1060.26
1007.69	1065.65
1007.97	1057.45
1008.26	1058.16
1008.55	1063.77
1008.84	1070.09
1009.12	1067.99
1009.41	1077.35
1009.70	1081.56
1009.98	1084.14
1010.27	1082.26
1010.56	1083.20
1010.85	1076.65
1011.13	1069.62
1011.42	1070.80
1011.71	1061.90
1011.99	1063.77
1012.28	1058.62
1012.56	1064.71
1012.85	1071.73
1013.14	1084.84
1013.42	1086.24
1013.71	1091.86
1014.00	1093.97
1014.28	1084.84
1014.57	1078.75
1014.85	1078.99
1015.14	1075.48
1015.43	1072.43
1015.71	1069.86
1016.00	1072.67
1016.28	1074.77
1016.57	1082.26
1016.85	1087.88
1017.14	1095.37
1017.43	1092.56
1017.71	1097.01
1018.00	1097.71
1018.28	1091.16
1018.57	1083.43
1018.85	1075.01
1019.14	1071.26
1019.42	1073.14
1019.71	1072.90
1019.99	1078.52
1020.28	1091.86
1020.56	1103.56
1020.85	1088.35
1021.13	1093.03
1021.42	1100.99
1021.70	1095.60
1021.99	1080.63
1022.27	1095.60
1022.55	1071.97
1022.84	1116.44
>>>>>End Processed Spectral Data<<<<<
