SpectraSuite Data File
++++++++++++++++++++++++++++++++++++
Date: Mon Aug 26 10:25:50 PDT 2019
User: corrico
Dark Spectrum Present: No
Reference Spectrum Present: No
Number of Sampled Component Spectra: 1
Spectrometers: USB2+H06089
Integration Time (usec): 10000 (USB2+H06089)
Spectra Averaged: 2 (USB2+H06089)
Boxcar Smoothing: 2 (USB2+H06089)
Correct for Electrical Dark: No (USB2+H06089)
Strobe/Lamp Enabled: No (USB2+H06089)
Correct for Detector Non-linearity: No (USB2+H06089)
Correct for Stray Light: No (USB2+H06089)
Number of Pixels in Processed Spectrum: 2048
>>>>>Begin Processed Spectral Data<<<<<
339.70	1033.35
340.07	1033.35
340.45	1001.75
340.82	976.24
341.19	954.94
341.57	924.98
341.94	918.43
342.31	905.09
342.69	904.85
343.06	899.70
343.43	891.04
343.81	894.79
344.18	905.55
344.55	902.28
344.93	910.23
345.30	939.96
345.67	945.58
346.04	947.92
346.42	962.90
346.79	961.26
347.16	955.87
347.54	951.90
347.91	964.07
348.28	974.83
348.65	999.41
349.03	1008.77
349.40	1024.92
349.77	1038.03
350.14	1043.18
350.52	1036.86
350.89	1043.88
351.26	1047.62
351.63	1038.50
352.01	1037.79
352.38	1043.18
352.75	1046.69
353.12	1043.18
353.50	1048.56
353.87	1059.33
354.24	1060.73
354.61	1060.96
354.98	1064.94
355.36	1071.03
355.73	1061.67
356.10	1070.09
356.47	1077.35
356.84	1084.60
357.22	1085.77
357.59	1095.14
357.96	1096.78
358.33	1095.84
358.70	1084.14
359.08	1096.31
359.45	1095.84
359.82	1095.14
360.19	1079.92
360.56	1070.33
360.94	1052.07
361.31	1046.69
361.68	1044.35
362.05	1056.28
362.42	1072.67
362.79	1079.92
363.16	1081.33
363.54	1079.22
363.91	1075.48
364.28	1083.90
364.65	1083.43
365.02	1085.31
365.39	1086.48
365.76	1092.56
366.14	1084.37
366.51	1084.37
366.88	1078.28
367.25	1069.39
367.62	1063.77
367.99	1061.67
368.36	1060.03
368.73	1058.39
369.10	1066.11
369.48	1065.65
369.85	1063.54
370.22	1059.56
370.59	1063.31
370.96	1062.37
371.33	1065.18
371.70	1068.69
372.07	1064.94
372.44	1056.28
372.81	1053.01
373.18	1048.09
373.55	1045.05
373.93	1051.84
374.30	1055.11
374.67	1043.88
375.04	1049.96
375.41	1046.92
375.78	1055.11
376.15	1062.14
376.52	1082.50
376.89	1084.84
377.26	1079.22
377.63	1068.22
378.00	1070.80
378.37	1067.52
378.74	1061.67
379.11	1082.50
379.48	1079.22
379.85	1079.46
380.22	1077.35
380.59	1073.60
380.96	1064.48
381.33	1066.58
381.70	1060.26
382.07	1061.67
382.44	1063.07
382.81	1064.01
383.18	1064.01
383.55	1068.92
383.92	1063.54
384.29	1072.43
384.66	1086.24
385.03	1080.86
385.40	1078.99
385.77	1082.73
386.14	1080.86
386.51	1063.77
386.88	1066.82
387.25	1068.22
387.62	1068.69
387.99	1058.62
388.36	1066.58
388.73	1075.24
389.10	1079.46
389.46	1075.48
389.83	1088.12
390.20	1081.09
390.57	1070.09
390.94	1065.41
391.31	1073.60
391.68	1065.18
392.05	1075.71
392.42	1082.03
392.79	1090.46
393.16	1088.12
393.53	1085.07
393.89	1071.73
394.26	1079.22
394.63	1075.94
395.00	1077.58
395.37	1081.80
395.74	1086.48
396.11	1079.46
396.48	1078.75
396.84	1076.88
397.21	1069.62
397.58	1076.65
397.95	1077.11
398.32	1076.41
398.69	1071.26
399.06	1078.52
399.42	1067.99
399.79	1065.88
400.16	1053.24
400.53	1053.71
400.90	1052.54
401.27	1053.01
401.64	1052.07
402.00	1056.05
402.37	1059.09
402.74	1061.20
403.11	1064.94
403.48	1067.28
403.84	1082.26
404.21	1077.11
404.58	1075.48
404.95	1073.84
405.32	1078.28
405.68	1070.33
406.05	1070.56
406.42	1079.92
406.79	1086.71
407.16	1073.37
407.52	1069.62
407.89	1080.16
408.26	1078.05
408.63	1071.73
408.99	1085.31
409.36	1087.65
409.73	1080.63
410.10	1075.71
410.47	1069.39
410.83	1068.45
411.20	1072.20
411.57	1078.75
411.94	1077.11
412.30	1082.50
412.67	1083.90
413.04	1080.63
413.40	1071.97
413.77	1075.48
414.14	1079.92
414.51	1072.20
414.87	1072.43
415.24	1074.77
415.61	1063.77
415.97	1057.69
416.34	1066.82
416.71	1064.71
417.08	1063.07
417.44	1067.99
417.81	1065.65
418.18	1062.37
418.54	1056.99
418.91	1050.67
419.28	1060.03
419.64	1065.18
420.01	1071.03
420.38	1075.94
420.74	1084.37
421.11	1071.73
421.48	1069.39
421.84	1060.96
422.21	1055.82
422.58	1047.62
422.94	1062.60
423.31	1069.86
423.68	1070.56
424.04	1077.11
424.41	1084.37
424.77	1072.20
425.14	1072.43
425.51	1076.18
425.87	1076.41
426.24	1078.75
426.61	1082.97
426.97	1074.77
427.34	1077.82
427.70	1084.37
428.07	1075.24
428.44	1076.88
428.80	1078.99
429.17	1070.09
429.53	1063.77
429.90	1072.43
430.27	1071.03
430.63	1073.84
431.00	1067.75
431.36	1068.22
431.73	1056.99
432.09	1059.33
432.46	1060.50
432.83	1075.94
433.19	1082.50
433.56	1097.01
433.92	1100.99
434.29	1106.37
434.65	1103.56
435.02	1093.73
435.38	1090.22
435.75	1090.22
436.11	1078.99
436.48	1071.03
436.84	1074.54
437.21	1070.56
437.57	1064.24
437.94	1064.71
438.30	1063.31
438.67	1071.26
439.03	1069.62
439.40	1071.73
439.76	1074.31
440.13	1081.80
440.49	1068.45
440.86	1078.05
441.22	1081.09
441.59	1084.60
441.95	1074.07
442.32	1079.69
442.68	1081.33
443.05	1079.46
443.41	1080.63
443.78	1088.35
444.14	1084.84
444.51	1077.11
444.87	1073.14
445.24	1072.43
445.60	1078.28
445.96	1082.03
446.33	1084.84
446.69	1082.73
447.06	1078.05
447.42	1077.11
447.79	1074.54
448.15	1074.07
448.51	1078.28
448.88	1083.67
449.24	1072.43
449.61	1067.28
449.97	1065.65
450.33	1065.18
450.70	1065.65
451.06	1079.46
451.43	1081.33
451.79	1087.65
452.15	1086.24
452.52	1084.84
452.88	1075.71
453.24	1074.31
453.61	1064.71
453.97	1067.75
454.34	1068.45
454.70	1073.14
455.06	1085.07
455.43	1085.07
455.79	1086.01
456.15	1076.65
456.52	1077.58
456.88	1066.11
457.24	1069.86
457.61	1070.09
457.97	1078.99
458.33	1081.33
458.70	1083.90
459.06	1086.01
459.42	1087.88
459.79	1080.63
460.15	1078.75
460.51	1085.54
460.88	1079.69
461.24	1070.56
461.60	1072.67
461.96	1066.11
462.33	1057.45
462.69	1072.20
463.05	1079.69
463.42	1079.22
463.78	1087.18
464.14	1097.01
464.50	1080.86
464.87	1078.52
465.23	1077.82
465.59	1077.11
465.95	1075.24
466.32	1080.39
466.68	1093.26
467.04	1095.14
467.40	1086.01
467.77	1068.22
468.13	1062.37
468.49	1048.79
468.85	1042.24
469.22	1049.73
469.58	1064.24
469.94	1067.99
470.30	1071.73
470.66	1077.11
471.03	1077.58
471.39	1079.92
471.75	1088.58
472.11	1084.60
472.47	1082.50
472.84	1078.75
473.20	1074.54
473.56	1065.41
473.92	1064.71
474.28	1074.54
474.65	1076.88
475.01	1085.31
475.37	1089.52
475.73	1100.05
476.09	1096.31
476.45	1094.43
476.81	1085.77
477.18	1081.09
477.54	1075.24
477.90	1078.28
478.26	1081.80
478.62	1076.88
478.98	1077.82
479.34	1065.65
479.71	1057.45
480.07	1053.94
480.43	1067.75
480.79	1072.90
481.15	1071.50
481.51	1081.80
481.87	1083.67
482.23	1084.14
482.59	1078.05
482.96	1090.69
483.32	1096.31
483.68	1092.33
484.04	1090.46
484.40	1091.39
484.76	1090.92
485.12	1079.69
485.48	1078.75
485.84	1082.03
486.20	1085.07
486.56	1082.50
486.92	1080.86
487.28	1078.99
487.64	1072.67
488.00	1075.94
488.37	1067.05
488.73	1077.58
489.09	1086.71
489.45	1084.60
489.81	1072.20
490.17	1078.99
490.53	1069.39
490.89	1064.48
491.25	1068.69
491.61	1085.31
491.97	1081.09
492.33	1089.29
492.69	1083.20
493.05	1073.37
493.41	1065.41
493.77	1077.11
494.13	1067.52
494.49	1085.31
494.85	1091.39
495.21	1086.71
495.57	1086.48
495.93	1085.54
496.29	1075.24
496.64	1081.09
497.00	1083.43
497.36	1088.82
497.72	1090.92
498.08	1088.35
498.44	1078.28
498.80	1081.56
499.16	1070.09
499.52	1072.90
499.88	1071.50
500.24	1079.22
500.60	1068.45
500.96	1065.88
501.32	1066.11
501.68	1080.16
502.03	1080.63
502.39	1082.03
502.75	1085.31
503.11	1084.84
503.47	1069.62
503.83	1067.52
504.19	1077.82
504.55	1084.60
504.91	1088.82
505.26	1093.26
505.62	1093.50
505.98	1097.01
506.34	1099.82
506.70	1085.31
507.06	1094.20
507.42	1095.14
507.78	1089.75
508.13	1076.18
508.49	1081.09
508.85	1070.56
509.21	1073.84
509.57	1077.35
509.93	1081.33
510.28	1084.37
510.64	1092.33
511.00	1086.71
511.36	1084.37
511.72	1094.20
512.07	1100.99
512.43	1096.07
512.79	1098.18
513.15	1098.65
513.51	1089.75
513.86	1080.86
514.22	1077.35
514.58	1074.31
514.94	1073.84
515.30	1078.52
515.65	1083.43
516.01	1092.56
516.37	1096.07
516.73	1094.43
517.08	1091.39
517.44	1093.26
517.80	1082.50
518.16	1081.09
518.51	1077.11
518.87	1086.01
519.23	1081.09
519.59	1092.33
519.94	1092.80
520.30	1096.07
520.66	1086.94
521.01	1088.12
521.37	1090.92
521.73	1084.14
522.09	1099.35
522.44	1107.07
522.80	1102.86
523.16	1097.95
523.51	1100.05
523.87	1086.71
524.23	1080.16
524.58	1081.09
524.94	1073.37
525.30	1082.26
525.65	1080.63
526.01	1074.31
526.37	1081.80
526.72	1087.88
527.08	1086.24
527.44	1095.84
527.79	1108.01
528.15	1112.92
528.51	1110.82
528.86	1109.88
529.22	1101.92
529.58	1097.24
529.93	1094.90
530.29	1097.71
530.65	1105.90
531.00	1107.54
531.36	1097.71
531.71	1098.65
532.07	1096.07
532.43	1086.01
532.78	1083.90
533.14	1091.63
533.49	1088.12
533.85	1091.16
534.21	1087.65
534.56	1096.31
534.92	1096.07
535.27	1096.78
535.63	1093.26
535.98	1097.48
536.34	1086.94
536.69	1084.60
537.05	1086.48
537.41	1090.46
537.76	1093.03
538.12	1099.58
538.47	1101.46
538.83	1096.54
539.18	1092.09
539.54	1085.07
539.89	1075.01
540.25	1082.03
540.60	1080.63
540.96	1074.54
541.31	1083.90
541.67	1095.14
542.02	1083.20
542.38	1073.60
542.73	1078.75
543.09	1070.80
543.44	1062.14
543.80	1059.56
544.15	1066.58
544.51	1072.20
544.86	1077.11
545.22	1080.16
545.57	1091.39
545.93	1101.69
546.28	1105.20
546.64	1103.80
546.99	1111.05
547.35	1113.86
547.70	1105.67
548.05	1097.24
548.41	1093.73
548.76	1086.48
549.12	1080.39
549.47	1083.67
549.83	1085.07
550.18	1083.43
550.53	1087.65
550.89	1098.88
551.24	1090.46
551.60	1093.26
551.95	1107.31
552.30	1100.05
552.66	1089.99
553.01	1094.43
553.37	1092.09
553.72	1080.63
554.07	1083.67
554.43	1079.46
554.78	1082.26
555.13	1080.63
555.49	1082.26
555.84	1082.03
556.19	1090.22
556.55	1093.73
556.90	1094.67
557.26	1097.48
557.61	1089.52
557.96	1085.07
558.32	1087.41
558.67	1093.73
559.02	1084.60
559.37	1089.29
559.73	1087.41
560.08	1086.01
560.43	1075.94
560.79	1079.92
561.14	1080.39
561.49	1078.28
561.85	1072.43
562.20	1089.29
562.55	1095.60
562.90	1104.26
563.26	1106.61
563.61	1110.35
563.96	1094.90
564.32	1081.33
564.67	1070.09
565.02	1075.01
565.37	1069.39
565.73	1074.77
566.08	1087.65
566.43	1090.69
566.78	1088.82
567.14	1082.26
567.49	1082.73
567.84	1084.60
568.19	1081.09
568.54	1078.52
568.90	1089.52
569.25	1087.41
569.60	1082.73
569.95	1085.77
570.31	1095.60
570.66	1093.73
571.01	1090.92
571.36	1088.35
571.71	1091.63
572.06	1090.46
572.42	1082.50
572.77	1080.63
573.12	1082.03
573.47	1086.71
573.82	1072.43
574.18	1080.86
574.53	1095.84
574.88	1093.73
575.23	1094.67
575.58	1090.22
575.93	1086.01
576.28	1071.50
576.64	1071.50
576.99	1073.37
577.34	1085.07
577.69	1077.58
578.04	1078.99
578.39	1077.11
578.74	1064.01
579.09	1057.69
579.44	1070.33
579.80	1070.09
580.15	1072.90
580.50	1089.75
580.85	1094.43
581.20	1096.54
581.55	1089.05
581.90	1088.35
582.25	1072.67
582.60	1062.37
582.95	1054.18
583.30	1060.50
583.65	1060.03
584.00	1050.90
584.35	1061.20
584.71	1065.88
585.06	1077.58
585.41	1082.50
585.76	1100.75
586.11	1101.92
586.46	1098.65
586.81	1087.65
587.16	1082.50
587.51	1082.26
587.86	1081.09
588.21	1086.01
588.56	1091.63
588.91	1093.97
589.26	1082.26
589.61	1085.07
589.96	1083.20
590.31	1084.60
590.66	1085.54
591.01	1094.20
591.36	1090.46
591.71	1094.67
592.06	1088.35
592.41	1091.16
592.76	1090.92
593.10	1097.01
593.45	1094.67
593.80	1097.01
594.15	1090.92
594.50	1088.58
594.85	1084.37
595.20	1085.54
595.55	1084.60
595.90	1085.31
596.25	1093.73
596.60	1095.14
596.95	1088.58
597.30	1089.52
597.64	1148.27
597.99	1148.50
598.34	1150.14
598.69	1147.56
599.04	1139.61
599.39	1088.58
599.74	1074.54
600.09	1063.77
600.44	1076.65
600.78	1077.35
601.13	1078.52
601.48	1090.22
601.83	1099.12
602.18	1095.84
602.53	1099.12
602.88	1086.94
603.22	1083.43
603.57	1087.65
603.92	1078.28
604.27	1069.39
604.62	1071.73
604.97	1059.33
605.31	1054.65
605.66	1044.35
606.01	1053.01
606.36	1060.73
606.71	1070.33
607.05	1069.39
607.40	1086.01
607.75	1086.94
608.10	1079.92
608.44	1075.94
608.79	1075.94
609.14	1068.45
609.49	1066.35
609.84	1060.96
610.18	1075.48
610.53	1073.37
610.88	1089.99
611.23	1095.84
611.57	1106.61
611.92	1101.92
612.27	1104.97
612.62	1094.20
612.96	1088.58
613.31	1086.94
613.66	1082.03
614.00	1080.39
614.35	1071.50
614.70	1080.63
615.05	1079.22
615.39	1079.22
615.74	1078.75
616.09	1086.01
616.43	1077.11
616.78	1078.05
617.13	1079.22
617.47	1078.75
617.82	1094.20
618.17	1092.09
618.51	1083.20
618.86	1077.58
619.21	1078.28
619.55	1062.60
619.90	1068.69
620.25	1083.90
620.59	1096.54
620.94	1093.97
621.29	1094.43
621.63	1096.78
621.98	1081.56
622.32	1079.22
622.67	1080.63
623.02	1078.75
623.36	1071.03
623.71	1076.18
624.05	1067.52
624.40	1068.22
624.75	1070.09
625.09	1079.69
625.44	1082.26
625.78	1091.86
626.13	1098.41
626.48	1098.65
626.82	1092.80
627.17	1092.09
627.51	1075.01
627.86	1068.22
628.20	1068.45
628.55	1070.56
628.89	1072.43
629.24	1079.92
629.58	1085.07
629.93	1084.37
630.28	1076.41
630.62	1081.09
630.97	1081.80
631.31	1079.46
631.66	1075.71
632.00	1075.01
632.35	1066.58
632.69	1060.73
633.04	1061.20
633.38	1069.62
633.73	1076.41
634.07	1075.94
634.42	1078.52
634.76	1077.82
635.11	1080.86
635.45	1088.58
635.79	1083.43
636.14	1093.73
636.48	1085.31
636.83	1084.37
637.17	1076.65
637.52	1084.60
637.86	1084.14
638.21	1087.41
638.55	1081.33
638.89	1086.24
639.24	1089.29
639.58	1076.65
639.93	1077.82
640.27	1075.94
640.61	1076.88
640.96	1073.37
641.30	1082.26
641.65	1083.90
641.99	1090.69
642.33	1085.31
642.68	1079.22
643.02	1075.71
643.37	1067.52
643.71	1074.54
644.05	1073.84
644.40	1084.37
644.74	1086.94
645.08	1090.69
645.43	1081.33
645.77	1080.39
646.11	1078.75
646.46	1087.88
646.80	1089.99
647.14	1081.56
647.49	1083.90
647.83	1080.63
648.17	1074.07
648.52	1078.05
648.86	1086.01
649.20	1086.94
649.55	1086.48
649.89	1082.73
650.23	1082.03
650.57	1081.33
650.92	1078.75
651.26	1081.09
651.60	1080.86
651.95	1081.56
652.29	1079.92
652.63	1080.86
652.97	1085.54
653.32	1090.69
653.66	1098.41
654.00	1098.65
654.34	1104.50
654.69	1096.78
655.03	1100.99
655.37	1096.31
655.71	1095.37
656.05	1088.58
656.40	1090.92
656.74	1082.50
657.08	1079.22
657.42	1076.65
657.76	1082.97
658.11	1089.99
658.45	1093.97
658.79	1082.97
659.13	1084.84
659.47	1071.26
659.82	1065.18
660.16	1055.58
660.50	1062.84
660.84	1067.05
661.18	1067.52
661.52	1070.56
661.87	1082.73
662.21	1080.63
662.55	1078.05
662.89	1088.35
663.23	1086.48
663.57	1078.28
663.91	1089.52
664.25	1088.35
664.60	1085.07
664.94	1084.60
665.28	1088.82
665.62	1090.92
665.96	1097.71
666.30	1101.46
666.64	1093.03
666.98	1091.63
667.32	1079.22
667.66	1071.50
668.01	1077.82
668.35	1088.12
668.69	1086.94
669.03	1091.39
669.37	1090.46
669.71	1080.63
670.05	1082.03
670.39	1082.50
670.73	1090.46
671.07	1099.58
671.41	1104.50
671.75	1103.56
672.09	1104.73
672.43	1097.71
672.77	1098.88
673.11	1094.20
673.45	1085.77
673.79	1078.52
674.13	1079.46
674.47	1063.77
674.81	1060.26
675.15	1056.28
675.49	1064.94
675.83	1064.01
676.17	1075.71
676.51	1080.86
676.85	1085.31
677.19	1087.88
677.53	1086.24
677.87	1084.14
678.21	1076.41
678.55	1082.50
678.89	1077.82
679.23	1080.39
679.57	1080.63
679.90	1081.80
680.24	1080.16
680.58	1069.39
680.92	1069.16
681.26	1064.94
681.60	1068.92
681.94	1067.52
682.28	1075.94
682.62	1072.43
682.96	1077.35
683.29	1077.58
683.63	1079.22
683.97	1075.48
684.31	1076.18
684.65	1067.52
684.99	1069.62
685.33	1064.71
685.67	1070.80
686.00	1078.52
686.34	1087.88
686.68	1088.12
687.02	1085.77
687.36	1079.46
687.70	1077.82
688.03	1082.03
688.37	1082.73
688.71	1086.94
689.05	1094.67
689.39	1091.39
689.72	1090.69
690.06	1085.54
690.40	1087.65
690.74	1079.69
691.08	1080.63
691.41	1077.82
691.75	1079.69
692.09	1080.86
692.43	1083.90
692.76	1075.24
693.10	1072.67
693.44	1066.35
693.78	1066.11
694.11	1077.82
694.45	1082.50
694.79	1082.97
695.13	1087.65
695.46	1083.43
695.80	1072.90
696.14	1065.18
696.48	1065.88
696.81	1078.05
697.15	1075.48
697.49	1074.31
697.82	1078.75
698.16	1067.05
698.50	1056.99
698.83	1070.09
699.17	1072.90
699.51	1076.65
699.84	1092.33
700.18	1096.31
700.52	1091.63
700.85	1089.29
701.19	1092.09
701.53	1087.88
701.86	1075.94
702.20	1078.28
702.54	1086.94
702.87	1089.29
703.21	1090.22
703.55	1097.24
703.88	1096.07
704.22	1090.92
704.55	1078.05
704.89	1069.86
705.23	1073.84
705.56	1073.84
705.90	1073.14
706.23	1083.67
706.57	1083.20
706.91	1075.01
707.24	1076.41
707.58	1078.99
707.91	1076.88
708.25	1084.84
708.58	1092.80
708.92	1083.90
709.26	1082.97
709.59	1082.97
709.93	1079.22
710.26	1081.09
710.60	1086.01
710.93	1082.97
711.27	1087.65
711.60	1094.20
711.94	1092.80
712.27	1099.35
712.61	1097.24
712.94	1087.41
713.28	1084.84
713.61	1088.82
713.95	1080.86
714.28	1082.97
714.62	1089.05
714.95	1081.80
715.29	1071.03
715.62	1078.05
715.96	1079.22
716.29	1083.43
716.63	1092.56
716.96	1097.24
717.29	1083.20
717.63	1086.94
717.96	1076.88
718.30	1077.58
718.63	1076.65
718.97	1082.26
719.30	1072.20
719.63	1079.46
719.97	1063.07
720.30	1058.16
720.64	1057.92
720.97	1066.35
721.30	1057.22
721.64	1074.77
721.97	1079.92
722.31	1075.94
722.64	1074.77
722.97	1082.97
723.31	1083.43
723.64	1075.01
723.97	1082.73
724.31	1084.37
724.64	1078.99
724.98	1067.99
725.31	1071.73
725.64	1073.14
725.98	1072.43
726.31	1083.67
726.64	1098.88
726.97	1100.05
727.31	1094.20
727.64	1087.65
727.97	1073.60
728.31	1072.67
728.64	1075.01
728.97	1077.35
729.31	1075.24
729.64	1085.54
729.97	1075.01
730.30	1070.09
730.64	1066.35
730.97	1072.67
731.30	1066.35
731.63	1071.73
731.97	1076.18
732.30	1083.90
732.63	1089.29
732.96	1094.43
733.30	1088.82
733.63	1090.22
733.96	1080.39
734.29	1078.28
734.63	1076.65
734.96	1086.01
735.29	1083.20
735.62	1089.75
735.95	1089.99
736.29	1096.78
736.62	1086.48
736.95	1093.26
737.28	1092.09
737.61	1090.46
737.94	1084.60
738.28	1084.84
738.61	1073.14
738.94	1067.75
739.27	1063.54
739.60	1062.60
739.93	1060.50
740.27	1067.99
740.60	1077.11
740.93	1073.60
741.26	1071.97
741.59	1079.69
741.92	1073.60
742.25	1071.73
742.58	1077.82
742.91	1082.03
743.25	1078.99
743.58	1084.37
743.91	1084.60
744.24	1082.50
744.57	1082.26
744.90	1091.39
745.23	1089.52
745.56	1084.84
745.89	1086.71
746.22	1081.33
746.55	1076.88
746.88	1086.94
747.21	1081.33
747.54	1078.28
747.87	1088.82
748.20	1084.14
748.53	1083.90
748.87	1084.84
749.20	1091.63
749.53	1080.63
749.86	1078.99
750.19	1080.16
750.52	1083.90
750.85	1079.92
751.18	1092.09
751.51	1089.99
751.84	1083.20
752.16	1089.29
752.49	1082.50
752.82	1068.92
753.15	1070.80
753.48	1066.82
753.81	1069.62
754.14	1070.80
754.47	1086.71
754.80	1088.12
755.13	1097.01
755.46	1089.99
755.79	1094.43
756.12	1081.56
756.45	1077.58
756.78	1067.28
757.11	1061.90
757.43	1059.56
757.76	1061.20
758.09	1066.11
758.42	1068.92
758.75	1075.94
759.08	1087.88
759.41	1084.60
759.74	1081.80
760.07	1089.99
760.39	1084.84
760.72	1063.31
761.05	1065.18
761.38	1068.92
761.71	1066.35
762.04	1066.11
762.36	1079.92
762.69	1078.99
763.02	1069.16
763.35	1060.03
763.68	1071.03
764.01	1074.77
764.33	1085.07
764.66	1097.71
764.99	1100.52
765.32	1098.41
765.65	1087.88
765.97	1072.67
766.30	1058.86
766.63	1058.39
766.96	1057.69
767.28	1065.18
767.61	1074.31
767.94	1080.86
768.27	1080.63
768.59	1075.94
768.92	1075.48
769.25	1074.77
769.58	1070.09
769.90	1072.90
770.23	1066.35
770.56	1062.60
770.89	1056.99
771.21	1077.35
771.54	1074.77
771.87	1080.86
772.19	1089.29
772.52	1089.75
772.85	1078.28
773.17	1085.31
773.50	1088.82
773.83	1079.69
774.15	1071.73
774.48	1080.86
774.81	1062.37
775.13	1067.52
775.46	1075.01
775.79	1081.56
776.11	1074.54
776.44	1089.75
776.77	1082.03
777.09	1077.82
777.42	1082.26
777.74	1072.90
778.07	1072.67
778.40	1072.90
778.72	1068.92
779.05	1069.62
779.37	1072.90
779.70	1072.20
780.03	1069.39
780.35	1073.37
780.68	1075.24
781.00	1084.84
781.33	1088.58
781.65	1084.60
781.98	1078.75
782.31	1074.31
782.63	1067.28
782.96	1058.16
783.28	1065.41
783.61	1074.07
783.93	1071.73
784.26	1067.99
784.58	1069.62
784.91	1066.82
785.23	1068.92
785.56	1084.60
785.88	1086.48
786.21	1098.18
786.53	1102.86
786.86	1096.07
787.18	1092.09
787.51	1098.65
787.83	1096.31
788.16	1093.26
788.48	1097.95
788.81	1087.88
789.13	1088.12
789.46	1075.01
789.78	1074.07
790.10	1081.33
790.43	1081.33
790.75	1080.63
791.08	1092.09
791.40	1093.73
791.73	1095.84
792.05	1095.14
792.37	1093.50
792.70	1082.73
793.02	1092.33
793.35	1080.63
793.67	1093.03
793.99	1086.94
794.32	1094.43
794.64	1088.82
794.96	1094.20
795.29	1078.05
795.61	1082.97
795.93	1080.63
796.26	1082.26
796.58	1078.99
796.91	1091.63
797.23	1085.77
797.55	1087.41
797.87	1071.03
798.20	1071.03
798.52	1070.56
798.84	1081.09
799.17	1079.22
799.49	1100.05
799.81	1095.60
800.14	1083.43
800.46	1078.75
800.78	1080.39
801.10	1069.62
801.43	1067.05
801.75	1077.82
802.07	1078.05
802.40	1077.58
802.72	1077.82
803.04	1079.92
803.36	1079.92
803.69	1074.54
804.01	1071.03
804.33	1070.09
804.65	1067.28
804.97	1063.31
805.30	1078.28
805.62	1085.07
805.94	1082.26
806.26	1087.65
806.58	1087.88
806.91	1073.37
807.23	1075.94
807.55	1078.05
807.87	1073.84
808.19	1073.60
808.52	1075.24
808.84	1067.05
809.16	1069.62
809.48	1078.99
809.80	1081.33
810.12	1082.73
810.44	1088.58
810.77	1093.03
811.09	1097.95
811.41	1098.41
811.73	1092.09
812.05	1087.18
812.37	1084.84
812.69	1073.14
813.01	1060.73
813.33	1062.84
813.66	1062.37
813.98	1070.33
814.30	1078.52
814.62	1087.18
814.94	1086.48
815.26	1089.52
815.58	1075.48
815.90	1077.82
816.22	1081.56
816.54	1088.82
816.86	1084.60
817.18	1089.52
817.50	1083.90
817.82	1084.60
818.14	1083.20
818.46	1074.07
818.78	1060.50
819.10	1057.45
819.42	1060.73
819.74	1053.71
820.06	1062.14
820.38	1080.16
820.70	1089.52
821.02	1083.20
821.34	1099.58
821.66	1099.82
821.98	1103.80
822.30	1099.35
822.62	1101.69
822.94	1095.60
823.26	1100.99
823.58	1085.07
823.90	1082.50
824.22	1079.22
824.54	1068.22
824.86	1076.41
825.18	1078.75
825.50	1078.99
825.81	1080.86
826.13	1094.43
826.45	1080.39
826.77	1086.01
827.09	1077.82
827.41	1071.50
827.73	1061.90
828.05	1063.54
828.36	1061.90
828.68	1072.90
829.00	1083.67
829.32	1087.65
829.64	1098.41
829.96	1109.65
830.28	1104.50
830.59	1103.33
830.91	1100.99
831.23	1097.48
831.55	1081.80
831.87	1075.01
832.19	1073.60
832.50	1070.56
832.82	1064.71
833.14	1071.73
833.46	1080.86
833.78	1067.05
834.09	1068.22
834.41	1065.41
834.73	1059.79
835.05	1059.79
835.36	1078.99
835.68	1079.92
836.00	1084.60
836.32	1080.39
836.63	1072.90
836.95	1059.79
837.27	1063.07
837.59	1062.14
837.90	1067.52
838.22	1078.52
838.54	1089.05
838.85	1090.22
839.17	1092.33
839.49	1098.41
839.80	1091.63
840.12	1088.12
840.44	1083.43
840.76	1078.28
841.07	1079.22
841.39	1072.90
841.71	1071.26
842.02	1073.14
842.34	1078.75
842.65	1071.50
842.97	1082.73
843.29	1073.84
843.60	1071.50
843.92	1067.05
844.24	1078.05
844.55	1075.48
844.87	1092.09
845.18	1097.95
845.50	1102.39
845.82	1086.94
846.13	1087.18
846.45	1074.54
846.76	1066.35
847.08	1067.28
847.40	1077.35
847.71	1070.80
848.03	1068.69
848.34	1081.33
848.66	1078.28
848.97	1079.22
849.29	1090.46
849.60	1097.24
849.92	1084.60
850.24	1080.39
850.55	1072.90
850.87	1062.37
851.18	1058.86
851.50	1064.24
851.81	1067.99
852.13	1077.35
852.44	1077.11
852.76	1077.58
853.07	1067.05
853.39	1061.43
853.70	1053.48
854.01	1048.79
854.33	1051.60
854.64	1063.07
854.96	1058.39
855.27	1065.88
855.59	1079.69
855.90	1069.86
856.22	1071.03
856.53	1078.28
856.84	1067.75
857.16	1065.41
857.47	1074.07
857.79	1073.37
858.10	1079.46
858.41	1090.46
858.73	1085.77
859.04	1092.80
859.36	1102.39
859.67	1100.05
859.98	1099.12
860.30	1103.80
860.61	1100.75
860.92	1092.33
861.24	1096.31
861.55	1095.60
861.87	1097.48
862.18	1100.75
862.49	1107.31
862.81	1101.69
863.12	1098.88
863.43	1097.71
863.74	1093.26
864.06	1089.05
864.37	1086.01
864.68	1083.20
865.00	1074.77
865.31	1073.84
865.62	1066.35
865.94	1063.77
866.25	1070.33
866.56	1076.88
866.87	1066.35
867.19	1070.09
867.50	1077.11
867.81	1069.62
868.12	1057.92
868.44	1068.45
868.75	1074.07
869.06	1072.90
869.37	1070.80
869.68	1089.29
870.00	1089.05
870.31	1075.94
870.62	1070.33
870.93	1082.50
871.24	1079.69
871.56	1081.33
871.87	1094.20
872.18	1107.78
872.49	1097.01
872.80	1093.03
873.12	1090.46
873.43	1080.16
873.74	1078.05
874.05	1077.58
874.36	1074.07
874.67	1079.22
874.98	1076.41
875.29	1073.84
875.61	1067.99
875.92	1062.84
876.23	1056.75
876.54	1067.75
876.85	1070.33
877.16	1079.92
877.47	1084.14
877.78	1080.39
878.09	1072.20
878.40	1073.37
878.72	1072.90
879.03	1072.67
879.34	1079.22
879.65	1082.03
879.96	1073.60
880.27	1080.16
880.58	1076.88
880.89	1077.11
881.20	1084.60
881.51	1094.67
881.82	1093.73
882.13	1097.95
882.44	1101.69
882.75	1100.52
883.06	1087.18
883.37	1079.46
883.68	1084.14
883.99	1082.26
884.30	1077.58
884.61	1088.35
884.92	1086.48
885.23	1088.58
885.54	1084.84
885.85	1089.75
886.16	1087.18
886.47	1086.94
886.78	1088.12
887.08	1083.20
887.39	1078.75
887.70	1079.69
888.01	1084.37
888.32	1077.11
888.63	1083.67
888.94	1073.84
889.25	1069.16
889.56	1064.94
889.87	1066.11
890.17	1062.84
890.48	1067.99
890.79	1071.73
891.10	1078.99
891.41	1080.63
891.72	1080.16
892.03	1088.35
892.34	1082.03
892.64	1085.07
892.95	1082.97
893.26	1080.16
893.57	1074.54
893.88	1072.20
894.18	1063.54
894.49	1059.79
894.80	1061.43
895.11	1062.37
895.42	1064.71
895.72	1068.69
896.03	1071.50
896.34	1072.67
896.65	1075.71
896.96	1078.99
897.26	1064.94
897.57	1073.37
897.88	1080.16
898.19	1074.31
898.49	1075.24
898.80	1091.16
899.11	1088.35
899.41	1082.50
899.72	1077.82
900.03	1075.94
900.34	1078.99
900.64	1084.37
900.95	1082.50
901.26	1084.14
901.56	1085.07
901.87	1073.37
902.18	1066.82
902.48	1070.33
902.79	1084.84
903.10	1078.05
903.40	1087.88
903.71	1084.14
904.02	1080.39
904.32	1062.84
904.63	1070.09
904.94	1077.82
905.24	1091.39
905.55	1100.99
905.85	1115.97
906.16	1114.80
906.47	1099.58
906.77	1086.48
907.08	1080.63
907.38	1077.11
907.69	1079.46
908.00	1083.20
908.30	1083.20
908.61	1077.35
908.91	1066.82
909.22	1072.43
909.52	1070.09
909.83	1070.09
910.14	1073.60
910.44	1076.65
910.75	1060.50
911.05	1062.14
911.36	1065.41
911.66	1073.60
911.97	1085.77
912.27	1097.95
912.58	1100.52
912.88	1099.12
913.19	1083.43
913.49	1073.14
913.80	1052.07
914.10	1051.60
914.41	1045.99
914.71	1061.20
915.01	1065.88
915.32	1084.84
915.62	1086.48
915.93	1078.75
916.23	1065.41
916.54	1053.94
916.84	1057.22
917.15	1059.79
917.45	1077.82
917.75	1087.41
918.06	1093.26
918.36	1094.20
918.67	1091.16
918.97	1085.31
919.27	1080.39
919.58	1086.94
919.88	1090.46
920.18	1081.09
920.49	1074.54
920.79	1084.14
921.10	1088.35
921.40	1078.75
921.70	1078.52
922.01	1087.65
922.31	1083.90
922.61	1082.97
922.92	1093.73
923.22	1099.35
923.52	1101.92
923.82	1104.03
924.13	1094.90
924.43	1091.63
924.73	1089.29
925.04	1088.58
925.34	1080.86
925.64	1079.69
925.94	1084.60
926.25	1082.26
926.55	1073.84
926.85	1074.77
927.15	1069.62
927.46	1053.71
927.76	1055.11
928.06	1052.54
928.36	1058.39
928.67	1067.28
928.97	1069.86
929.27	1062.84
929.57	1073.14
929.87	1070.09
930.18	1067.99
930.48	1073.84
930.78	1085.07
931.08	1077.35
931.38	1070.80
931.69	1068.45
931.99	1070.33
932.29	1077.82
932.59	1092.56
932.89	1103.80
933.19	1115.97
933.49	1111.05
933.80	1110.12
934.10	1095.84
934.40	1091.63
934.70	1083.90
935.00	1075.01
935.30	1075.71
935.60	1086.01
935.90	1092.56
936.20	1091.39
936.50	1094.20
936.81	1095.14
937.11	1083.90
937.41	1078.05
937.71	1080.39
938.01	1087.41
938.31	1093.73
938.61	1100.05
938.91	1098.18
939.21	1095.14
939.51	1094.67
939.81	1077.35
940.11	1079.22
940.41	1074.07
940.71	1074.77
941.01	1071.97
941.31	1071.73
941.61	1067.99
941.91	1075.24
942.21	1084.14
942.51	1072.90
942.81	1070.56
943.11	1070.80
943.41	1072.20
943.71	1068.69
944.01	1083.20
944.31	1091.63
944.61	1097.48
944.90	1100.29
945.20	1097.01
945.50	1097.24
945.80	1092.56
946.10	1086.24
946.40	1079.46
946.70	1076.18
947.00	1077.35
947.30	1079.46
947.60	1081.09
947.89	1076.18
948.19	1070.80
948.49	1067.28
948.79	1066.82
949.09	1059.79
949.39	1065.18
949.69	1070.56
949.98	1075.48
950.28	1083.43
950.58	1086.71
950.88	1088.58
951.18	1089.99
951.48	1089.29
951.77	1081.56
952.07	1083.20
952.37	1075.94
952.67	1061.90
952.97	1062.14
953.26	1067.75
953.56	1070.33
953.86	1071.26
954.16	1095.37
954.45	1096.78
954.75	1098.88
955.05	1097.24
955.35	1102.16
955.64	1083.20
955.94	1078.28
956.24	1074.07
956.54	1078.99
956.83	1079.22
957.13	1092.56
957.43	1095.14
957.72	1087.65
958.02	1082.97
958.32	1084.60
958.61	1090.46
958.91	1084.60
959.21	1084.37
959.50	1076.88
959.80	1071.50
960.10	1063.77
960.39	1066.82
960.69	1069.62
960.99	1081.33
961.28	1089.75
961.58	1093.97
961.87	1093.50
962.17	1090.92
962.47	1093.26
962.76	1095.37
963.06	1089.29
963.36	1091.16
963.65	1093.03
963.95	1083.67
964.24	1077.58
964.54	1080.16
964.83	1082.03
965.13	1082.73
965.42	1082.03
965.72	1077.11
966.02	1085.77
966.31	1085.31
966.61	1091.63
966.90	1098.18
967.20	1104.50
967.49	1091.63
967.79	1077.58
968.08	1081.09
968.38	1081.09
968.67	1077.82
968.97	1084.84
969.26	1088.82
969.56	1082.03
969.85	1082.73
970.15	1092.80
970.44	1100.05
970.74	1104.26
971.03	1105.90
971.32	1104.50
971.62	1097.95
971.91	1086.24
972.21	1092.33
972.50	1093.50
972.80	1081.33
973.09	1072.67
973.38	1076.65
973.68	1068.22
973.97	1059.33
974.27	1068.69
974.56	1074.31
974.85	1066.58
975.15	1074.07
975.44	1082.26
975.73	1080.86
976.03	1078.28
976.32	1079.22
976.61	1073.60
976.91	1077.35
977.20	1086.71
977.49	1082.26
977.79	1080.63
978.08	1085.07
978.37	1082.03
978.67	1082.26
978.96	1083.90
979.25	1086.48
979.55	1077.35
979.84	1079.92
980.13	1058.86
980.42	1053.24
980.72	1053.48
981.01	1060.03
981.30	1043.88
981.59	1056.99
981.89	1069.16
982.18	1073.37
982.47	1074.54
982.76	1075.71
983.06	1080.39
983.35	1075.48
983.64	1075.94
983.93	1078.28
984.22	1080.63
984.52	1082.50
984.81	1095.60
985.10	1088.12
985.39	1086.48
985.68	1098.65
985.97	1091.39
986.27	1080.16
986.56	1086.71
986.85	1095.37
987.14	1086.24
987.43	1078.28
987.72	1079.46
988.01	1076.88
988.31	1061.20
988.60	1060.26
988.89	1065.41
989.18	1062.14
989.47	1060.03
989.76	1059.09
990.05	1061.90
990.34	1068.92
990.63	1080.86
990.92	1082.97
991.21	1090.92
991.51	1091.86
991.80	1081.33
992.09	1072.43
992.38	1074.07
992.67	1077.35
992.96	1079.69
993.25	1083.67
993.54	1078.05
993.83	1075.71
994.12	1073.60
994.41	1055.35
994.70	1064.71
994.99	1070.80
995.28	1071.73
995.57	1072.67
995.86	1085.77
996.15	1076.65
996.44	1081.09
996.73	1071.97
997.02	1070.56
997.31	1070.56
997.59	1067.75
997.88	1060.73
998.17	1060.96
998.46	1057.22
998.75	1057.69
999.04	1064.01
999.33	1072.67
999.62	1083.43
999.91	1096.31
1000.20	1100.99
1000.49	1111.52
1000.77	1107.54
1001.06	1101.22
1001.35	1089.05
1001.64	1091.86
1001.93	1076.88
1002.22	1069.39
1002.51	1076.18
1002.79	1078.99
1003.08	1071.50
1003.37	1082.97
1003.66	1085.77
1003.95	1085.31
1004.23	1089.52
1004.52	1084.37
1004.81	1070.33
1005.10	1077.35
1005.39	1065.18
1005.67	1056.52
1005.96	1067.75
1006.25	1067.28
1006.54	1059.09
1006.83	1072.90
1007.11	1082.97
1007.40	1076.88
1007.69	1083.90
1007.97	1086.01
1008.26	1073.37
1008.55	1063.31
1008.84	1067.05
1009.12	1070.56
1009.41	1078.75
1009.70	1086.24
1009.98	1088.35
1010.27	1082.26
1010.56	1078.28
1010.85	1072.20
1011.13	1083.20
1011.42	1081.56
1011.71	1088.58
1011.99	1090.46
1012.28	1086.48
1012.56	1071.03
1012.85	1081.33
1013.14	1073.37
1013.42	1073.14
1013.71	1072.20
1014.00	1079.92
1014.28	1078.05
1014.57	1082.50
1014.85	1081.80
1015.14	1081.56
1015.43	1077.11
1015.71	1079.92
1016.00	1076.65
1016.28	1075.71
1016.57	1089.99
1016.85	1089.52
1017.14	1078.99
1017.43	1083.20
1017.71	1084.60
1018.00	1078.28
1018.28	1077.82
1018.57	1076.88
1018.85	1075.94
1019.14	1078.05
1019.42	1080.63
1019.71	1090.22
1019.99	1085.07
1020.28	1087.65
1020.56	1082.50
1020.85	1075.94
1021.13	1063.77
1021.42	1078.52
1021.70	1075.71
1021.99	1077.82
1022.27	1082.73
1022.55	1080.16
1022.84	1098.88
>>>>>End Processed Spectral Data<<<<<
