SpectraSuite Data File
++++++++++++++++++++++++++++++++++++
Date: Mon Aug 26 10:25:52 PDT 2019
User: corrico
Dark Spectrum Present: No
Reference Spectrum Present: No
Number of Sampled Component Spectra: 1
Spectrometers: USB2+H06089
Integration Time (usec): 10000 (USB2+H06089)
Spectra Averaged: 2 (USB2+H06089)
Boxcar Smoothing: 2 (USB2+H06089)
Correct for Electrical Dark: No (USB2+H06089)
Strobe/Lamp Enabled: No (USB2+H06089)
Correct for Detector Non-linearity: No (USB2+H06089)
Correct for Stray Light: No (USB2+H06089)
Number of Pixels in Processed Spectrum: 2048
>>>>>Begin Processed Spectral Data<<<<<
339.70	1049.73
340.07	1049.73
340.45	1016.03
340.82	991.68
341.19	967.34
341.57	941.36
341.94	930.36
342.31	926.85
342.69	913.75
343.06	906.26
343.43	908.36
343.81	902.28
344.18	905.09
344.55	913.98
344.93	915.15
345.30	912.81
345.67	922.87
346.04	930.60
346.42	937.15
346.79	960.79
347.16	981.62
347.54	981.85
347.91	986.54
348.28	1002.69
348.65	998.47
349.03	998.24
349.40	1010.64
349.77	1020.47
350.14	1022.35
350.52	1035.69
350.89	1033.11
351.26	1036.16
351.63	1044.58
352.01	1056.75
352.38	1055.35
352.75	1074.07
353.12	1080.63
353.50	1074.31
353.87	1072.67
354.24	1063.54
354.61	1058.62
354.98	1055.11
355.36	1062.37
355.73	1061.90
356.10	1077.11
356.47	1077.82
356.84	1075.48
357.22	1073.37
357.59	1073.14
357.96	1075.71
358.33	1075.48
358.70	1072.67
359.08	1074.07
359.45	1072.90
359.82	1068.45
360.19	1065.88
360.56	1078.75
360.94	1083.67
361.31	1081.33
361.68	1087.88
362.05	1090.92
362.42	1095.84
362.79	1093.73
363.16	1098.88
363.54	1089.99
363.91	1094.43
364.28	1093.97
364.65	1093.03
365.02	1086.48
365.39	1089.99
365.76	1081.80
366.14	1069.39
366.51	1064.94
366.88	1067.05
367.25	1063.07
367.62	1058.62
367.99	1063.54
368.36	1062.14
368.73	1059.09
369.10	1063.77
369.48	1066.11
369.85	1057.45
370.22	1064.71
370.59	1078.05
370.96	1071.97
371.33	1074.77
371.70	1081.80
372.07	1076.18
372.44	1062.14
372.81	1058.16
373.18	1057.45
373.55	1062.60
373.93	1067.75
374.30	1062.84
374.67	1076.88
375.04	1085.54
375.41	1067.99
375.78	1062.60
376.15	1081.33
376.52	1073.60
376.89	1060.96
377.26	1075.94
377.63	1079.46
378.00	1065.88
378.37	1063.54
378.74	1062.14
379.11	1062.60
379.48	1067.52
379.85	1071.97
380.22	1076.88
380.59	1088.82
380.96	1086.01
381.33	1083.90
381.70	1083.67
382.07	1077.58
382.44	1063.54
382.81	1066.11
383.18	1053.94
383.55	1047.86
383.92	1056.05
384.29	1067.28
384.66	1062.60
385.03	1062.14
385.40	1064.48
385.77	1054.41
386.14	1043.64
386.51	1043.41
386.88	1055.35
387.25	1059.79
387.62	1072.20
387.99	1093.03
388.36	1097.01
388.73	1085.31
389.10	1085.31
389.46	1083.67
389.83	1072.43
390.20	1067.05
390.57	1070.80
390.94	1078.05
391.31	1081.80
391.68	1075.71
392.05	1073.14
392.42	1073.60
392.79	1065.41
393.16	1058.39
393.53	1052.30
393.89	1058.86
394.26	1061.43
394.63	1057.45
395.00	1050.67
395.37	1068.45
395.74	1055.58
396.11	1048.56
396.48	1048.79
396.84	1055.58
397.21	1051.13
397.58	1059.33
397.95	1063.77
398.32	1071.50
398.69	1071.97
399.06	1070.80
399.42	1085.77
399.79	1092.56
400.16	1089.75
400.53	1079.46
400.90	1079.22
401.27	1075.94
401.64	1073.14
402.00	1075.01
402.37	1084.60
402.74	1092.80
403.11	1090.69
403.48	1078.99
403.84	1071.26
404.21	1060.03
404.58	1053.24
404.95	1044.35
405.32	1053.94
405.68	1055.82
406.05	1073.14
406.42	1073.60
406.79	1079.22
407.16	1080.63
407.52	1081.80
407.89	1073.84
408.26	1067.05
408.63	1060.96
408.99	1060.03
409.36	1053.94
409.73	1056.05
410.10	1067.05
410.47	1069.16
410.83	1074.77
411.20	1083.67
411.57	1082.97
411.94	1080.16
412.30	1074.31
412.67	1058.62
413.04	1071.50
413.40	1068.45
413.77	1068.22
414.14	1071.50
414.51	1080.16
414.87	1071.73
415.24	1076.18
415.61	1068.22
415.97	1076.88
416.34	1077.82
416.71	1071.03
417.08	1073.14
417.44	1079.22
417.81	1072.20
418.18	1072.67
418.54	1080.63
418.91	1082.50
419.28	1077.11
419.64	1079.46
420.01	1081.33
420.38	1073.60
420.74	1073.37
421.11	1069.62
421.48	1075.71
421.84	1066.11
422.21	1060.73
422.58	1059.79
422.94	1069.16
423.31	1061.20
423.68	1056.99
424.04	1067.05
424.41	1072.90
424.77	1075.48
425.14	1082.50
425.51	1097.71
425.87	1094.67
426.24	1092.33
426.61	1089.75
426.97	1093.50
427.34	1089.05
427.70	1089.99
428.07	1087.88
428.44	1084.14
428.80	1080.16
429.17	1078.75
429.53	1084.84
429.90	1089.29
430.27	1090.92
430.63	1093.03
431.00	1094.20
431.36	1091.86
431.73	1084.84
432.09	1077.82
432.46	1062.84
432.83	1063.54
433.19	1056.52
433.56	1057.69
433.92	1063.31
434.29	1071.73
434.65	1075.94
435.02	1085.07
435.38	1079.92
435.75	1075.24
436.11	1082.50
436.48	1077.35
436.84	1076.18
437.21	1088.58
437.57	1094.67
437.94	1091.63
438.30	1103.33
438.67	1103.80
439.03	1089.75
439.40	1094.90
439.76	1089.75
440.13	1083.20
440.49	1073.37
440.86	1071.03
441.22	1062.37
441.59	1067.05
441.95	1063.77
442.32	1063.77
442.68	1067.05
443.05	1080.16
443.41	1080.39
443.78	1079.46
444.14	1087.65
444.51	1102.39
444.87	1095.84
445.24	1088.58
445.60	1094.20
445.96	1097.48
446.33	1085.07
446.69	1087.88
447.06	1092.09
447.42	1083.90
447.79	1079.22
448.15	1079.22
448.51	1069.86
448.88	1068.69
449.24	1068.92
449.61	1072.43
449.97	1081.56
450.33	1096.31
450.70	1095.84
451.06	1104.97
451.43	1098.18
451.79	1089.75
452.15	1077.35
452.52	1073.60
452.88	1076.41
453.24	1082.97
453.61	1078.99
453.97	1081.56
454.34	1092.56
454.70	1082.03
455.06	1066.35
455.43	1072.43
455.79	1060.50
456.15	1056.52
456.52	1053.94
456.88	1062.84
457.24	1065.88
457.61	1079.46
457.97	1078.05
458.33	1090.46
458.70	1098.88
459.06	1096.07
459.42	1096.07
459.79	1087.88
460.15	1083.43
460.51	1071.50
460.88	1066.58
461.24	1063.07
461.60	1071.97
461.96	1077.11
462.33	1080.16
462.69	1070.80
463.05	1071.03
463.42	1070.80
463.78	1064.24
464.14	1070.80
464.50	1087.88
464.87	1081.33
465.23	1072.20
465.59	1063.31
465.95	1062.37
466.32	1060.73
466.68	1069.62
467.04	1076.18
467.40	1077.11
467.77	1076.65
468.13	1073.60
468.49	1075.71
468.85	1068.92
469.22	1067.75
469.58	1066.82
469.94	1064.24
470.30	1060.50
470.66	1059.56
471.03	1070.80
471.39	1073.14
471.75	1070.09
472.11	1062.37
472.47	1069.62
472.84	1059.09
473.20	1061.43
473.56	1063.54
473.92	1073.84
474.28	1079.92
474.65	1083.90
475.01	1076.65
475.37	1073.37
475.73	1070.80
476.09	1060.50
476.45	1060.73
476.81	1072.43
477.18	1068.69
477.54	1072.43
477.90	1086.94
478.26	1090.22
478.62	1080.86
478.98	1091.86
479.34	1096.54
479.71	1098.65
480.07	1100.05
480.43	1099.58
480.79	1097.95
481.15	1091.86
481.51	1077.82
481.87	1068.69
482.23	1073.37
482.59	1077.58
482.96	1073.37
483.32	1086.24
483.68	1088.58
484.04	1077.35
484.40	1075.01
484.76	1080.16
485.12	1077.82
485.48	1087.65
485.84	1090.69
486.20	1083.43
486.56	1072.67
486.92	1070.09
487.28	1060.73
487.64	1065.65
488.00	1074.31
488.37	1086.24
488.73	1086.71
489.09	1096.78
489.45	1102.86
489.81	1094.20
490.17	1101.22
490.53	1095.84
490.89	1086.48
491.25	1072.90
491.61	1082.03
491.97	1077.11
492.33	1078.28
492.69	1083.20
493.05	1081.33
493.41	1080.16
493.77	1078.05
494.13	1079.69
494.49	1079.46
494.85	1083.67
495.21	1080.63
495.57	1083.20
495.93	1078.05
496.29	1081.56
496.64	1087.18
497.00	1091.16
497.36	1086.71
497.72	1092.09
498.08	1092.33
498.44	1098.65
498.80	1100.52
499.16	1092.09
499.52	1085.77
499.88	1089.75
500.24	1075.48
500.60	1067.52
500.96	1078.28
501.32	1086.94
501.68	1078.75
502.03	1086.71
502.39	1085.77
502.75	1084.60
503.11	1088.58
503.47	1091.39
503.83	1093.26
504.19	1098.65
504.55	1096.07
504.91	1091.86
505.26	1090.46
505.62	1085.31
505.98	1086.94
506.34	1081.33
506.70	1078.75
507.06	1078.52
507.42	1073.84
507.78	1073.14
508.13	1083.43
508.49	1082.73
508.85	1082.50
509.21	1088.58
509.57	1085.77
509.93	1077.35
510.28	1076.88
510.64	1077.35
511.00	1081.56
511.36	1086.24
511.72	1097.48
512.07	1090.69
512.43	1085.31
512.79	1078.75
513.15	1082.26
513.51	1068.69
513.86	1074.54
514.22	1072.20
514.58	1070.33
514.94	1060.03
515.30	1070.80
515.65	1069.16
516.01	1078.75
516.37	1079.92
516.73	1097.95
517.08	1084.14
517.44	1089.75
517.80	1085.77
518.16	1091.16
518.51	1079.69
518.87	1079.46
519.23	1086.48
519.59	1089.52
519.94	1094.67
520.30	1093.26
520.66	1105.44
521.01	1096.78
521.37	1104.03
521.73	1096.78
522.09	1092.56
522.44	1094.20
522.80	1090.92
523.16	1087.41
523.51	1095.14
523.87	1097.01
524.23	1096.54
524.58	1102.16
524.94	1099.82
525.30	1092.33
525.65	1096.07
526.01	1093.26
526.37	1091.39
526.72	1086.48
527.08	1082.03
527.44	1071.97
527.79	1065.88
528.15	1062.37
528.51	1060.73
528.86	1058.86
529.22	1072.67
529.58	1089.52
529.93	1096.07
530.29	1102.39
530.65	1119.48
531.00	1115.97
531.36	1111.75
531.71	1110.35
532.07	1105.44
532.43	1096.31
532.78	1098.88
533.14	1095.37
533.49	1093.73
533.85	1102.86
534.21	1112.46
534.56	1105.20
534.92	1101.46
535.27	1097.71
535.63	1085.54
535.98	1077.11
536.34	1075.01
536.69	1074.77
537.05	1069.62
537.41	1073.14
537.76	1070.33
538.12	1069.16
538.47	1063.54
538.83	1069.62
539.18	1074.77
539.54	1071.73
539.89	1080.86
540.25	1089.05
540.60	1091.39
540.96	1092.09
541.31	1094.90
541.67	1099.35
542.02	1106.61
542.38	1103.80
542.73	1097.01
543.09	1103.80
543.44	1093.73
543.80	1084.60
544.15	1082.73
544.51	1086.71
544.86	1088.58
545.22	1099.35
545.57	1099.82
545.93	1102.39
546.28	1102.63
546.64	1087.18
546.99	1074.07
547.35	1074.54
547.70	1079.46
548.05	1077.35
548.41	1083.20
548.76	1086.94
549.12	1084.84
549.47	1082.73
549.83	1087.41
550.18	1080.63
550.53	1078.99
550.89	1083.67
551.24	1074.54
551.60	1074.31
551.95	1086.71
552.30	1094.90
552.66	1097.71
553.01	1100.75
553.37	1104.73
553.72	1101.22
554.07	1099.58
554.43	1090.69
554.78	1099.35
555.13	1092.09
555.49	1085.54
555.84	1082.73
556.19	1079.22
556.55	1069.16
556.90	1071.26
557.26	1067.05
557.61	1065.88
557.96	1063.54
558.32	1065.18
558.67	1065.41
559.02	1068.69
559.37	1069.16
559.73	1074.31
560.08	1081.33
560.43	1076.18
560.79	1082.50
561.14	1078.52
561.49	1078.05
561.85	1071.26
562.20	1075.01
562.55	1071.73
562.90	1069.86
563.26	1074.31
563.61	1083.67
563.96	1078.99
564.32	1089.05
564.67	1088.12
565.02	1085.77
565.37	1079.22
565.73	1078.05
566.08	1074.31
566.43	1078.05
566.78	1080.39
567.14	1080.63
567.49	1091.86
567.84	1088.12
568.19	1091.39
568.54	1091.86
568.90	1086.71
569.25	1079.69
569.60	1080.86
569.95	1079.92
570.31	1076.18
570.66	1083.20
571.01	1086.24
571.36	1081.80
571.71	1086.01
572.06	1092.09
572.42	1087.65
572.77	1090.22
573.12	1102.16
573.47	1095.37
573.82	1101.46
574.18	1109.18
574.53	1101.69
574.88	1093.26
575.23	1095.14
575.58	1093.50
575.93	1096.07
576.28	1100.75
576.64	1092.09
576.99	1088.58
577.34	1077.35
577.69	1064.48
578.04	1067.05
578.39	1061.90
578.74	1066.82
579.09	1071.03
579.44	1080.86
579.80	1074.77
580.15	1089.29
580.50	1090.22
580.85	1088.35
581.20	1079.69
581.55	1075.24
581.90	1070.80
582.25	1061.90
582.60	1057.69
582.95	1060.03
583.30	1066.11
583.65	1070.09
584.00	1072.43
584.35	1075.48
584.71	1080.63
585.06	1076.18
585.41	1070.80
585.76	1068.45
586.11	1071.03
586.46	1069.39
586.81	1072.67
587.16	1079.22
587.51	1083.90
587.86	1075.71
588.21	1074.54
588.56	1080.86
588.91	1075.01
589.26	1073.60
589.61	1070.33
589.96	1067.75
590.31	1070.33
590.66	1082.26
591.01	1086.24
591.36	1100.52
591.71	1115.03
592.06	1101.69
592.41	1087.18
592.76	1088.35
593.10	1079.69
593.45	1074.07
593.80	1085.07
594.15	1093.97
594.50	1097.71
594.85	1109.41
595.20	1094.67
595.55	1097.24
595.90	1102.16
596.25	1099.82
596.60	1099.12
596.95	1106.84
597.30	1102.39
597.64	1156.46
597.99	1151.31
598.34	1139.14
598.69	1136.10
599.04	1135.63
599.39	1078.28
599.74	1073.60
600.09	1069.39
600.44	1066.58
600.78	1063.07
601.13	1054.88
601.48	1060.96
601.83	1071.97
602.18	1072.43
602.53	1074.31
602.88	1071.26
603.22	1068.92
603.57	1072.43
603.92	1080.86
604.27	1076.88
604.62	1080.16
604.97	1079.22
605.31	1071.73
605.66	1073.84
606.01	1071.26
606.36	1081.80
606.71	1087.18
607.05	1091.86
607.40	1093.97
607.75	1103.33
608.10	1098.65
608.44	1098.65
608.79	1093.50
609.14	1088.82
609.49	1087.88
609.84	1087.65
610.18	1074.07
610.53	1075.94
610.88	1071.26
611.23	1063.54
611.57	1059.33
611.92	1069.39
612.27	1072.20
612.62	1073.37
612.96	1078.05
613.31	1074.54
613.66	1079.69
614.00	1083.43
614.35	1084.60
614.70	1085.31
615.05	1087.65
615.39	1083.20
615.74	1082.03
616.09	1086.48
616.43	1092.09
616.78	1098.65
617.13	1097.01
617.47	1093.50
617.82	1099.58
618.17	1092.80
618.51	1091.39
618.86	1096.78
619.21	1102.16
619.55	1085.07
619.90	1081.56
620.25	1076.41
620.59	1069.16
620.94	1059.33
621.29	1066.35
621.63	1069.16
621.98	1079.69
622.32	1081.33
622.67	1083.20
623.02	1083.67
623.36	1083.90
623.71	1075.48
624.05	1081.80
624.40	1097.48
624.75	1107.78
625.09	1102.63
625.44	1101.46
625.78	1100.29
626.13	1084.84
626.48	1075.48
626.82	1074.54
627.17	1082.97
627.51	1078.99
627.86	1080.39
628.20	1077.58
628.55	1076.88
628.89	1077.11
629.24	1081.56
629.58	1079.69
629.93	1085.77
630.28	1093.50
630.62	1090.69
630.97	1092.80
631.31	1090.92
631.66	1087.65
632.00	1083.67
632.35	1075.94
632.69	1073.60
633.04	1085.77
633.38	1081.56
633.73	1085.54
634.07	1086.48
634.42	1078.28
634.76	1065.41
635.11	1063.31
635.45	1069.39
635.79	1063.77
636.14	1075.71
636.48	1079.92
636.83	1087.18
637.17	1081.56
637.52	1080.39
637.86	1082.97
638.21	1080.86
638.55	1073.37
638.89	1063.54
639.24	1079.22
639.58	1067.52
639.93	1078.05
640.27	1075.01
640.61	1081.56
640.96	1080.39
641.30	1084.37
641.65	1076.41
641.99	1080.39
642.33	1070.56
642.68	1067.75
643.02	1069.86
643.37	1056.52
643.71	1054.65
644.05	1068.69
644.40	1064.71
644.74	1059.56
645.08	1079.69
645.43	1079.22
645.77	1084.60
646.11	1090.69
646.46	1089.99
646.80	1086.71
647.14	1098.88
647.49	1089.99
647.83	1093.03
648.17	1089.99
648.52	1089.75
648.86	1082.50
649.20	1093.03
649.55	1090.46
649.89	1088.12
650.23	1080.16
650.57	1085.31
650.92	1077.35
651.26	1082.97
651.60	1092.09
651.95	1098.18
652.29	1105.67
652.63	1109.41
652.97	1116.20
653.32	1111.99
653.66	1109.18
654.00	1104.26
654.34	1100.75
654.69	1074.07
655.03	1079.92
655.37	1077.35
655.71	1058.86
656.05	1057.22
656.40	1066.11
656.74	1064.01
657.08	1064.01
657.42	1082.97
657.76	1085.31
658.11	1091.39
658.45	1096.31
658.79	1096.54
659.13	1092.33
659.47	1084.60
659.82	1081.09
660.16	1073.37
660.50	1073.60
660.84	1071.26
661.18	1082.03
661.52	1080.86
661.87	1079.92
662.21	1088.35
662.55	1090.69
662.89	1077.82
663.23	1078.28
663.57	1077.11
663.91	1074.77
664.25	1071.26
664.60	1079.92
664.94	1081.56
665.28	1087.41
665.62	1088.35
665.96	1091.16
666.30	1088.58
666.64	1082.73
666.98	1085.07
667.32	1079.92
667.66	1063.54
668.01	1054.88
668.35	1057.45
668.69	1053.01
669.03	1053.01
669.37	1067.05
669.71	1070.80
670.05	1079.46
670.39	1083.67
670.73	1088.35
671.07	1084.84
671.41	1093.50
671.75	1082.50
672.09	1074.54
672.43	1071.03
672.77	1075.48
673.11	1067.75
673.45	1069.62
673.79	1077.35
674.13	1080.39
674.47	1076.88
674.81	1086.48
675.15	1086.48
675.49	1078.05
675.83	1069.62
676.17	1077.35
676.51	1074.54
676.85	1077.35
677.19	1080.86
677.53	1089.05
677.87	1093.50
678.21	1095.84
678.55	1088.58
678.89	1090.69
679.23	1086.24
679.57	1082.50
679.90	1084.60
680.24	1093.73
680.58	1100.52
680.92	1104.26
681.26	1088.12
681.60	1071.50
681.94	1064.94
682.28	1060.26
682.62	1052.07
682.96	1070.56
683.29	1082.97
683.63	1089.29
683.97	1093.97
684.31	1099.12
684.65	1084.84
684.99	1087.65
685.33	1083.90
685.67	1069.62
686.00	1073.84
686.34	1082.03
686.68	1076.65
687.02	1081.33
687.36	1086.48
687.70	1087.41
688.03	1087.65
688.37	1083.67
688.71	1074.07
689.05	1076.41
689.39	1073.60
689.72	1072.20
690.06	1076.65
690.40	1085.54
690.74	1084.84
691.08	1086.01
691.41	1091.63
691.75	1097.48
692.09	1098.88
692.43	1096.31
692.76	1097.24
693.10	1093.50
693.44	1089.99
693.78	1086.94
694.11	1081.33
694.45	1083.20
694.79	1081.80
695.13	1076.18
695.46	1071.50
695.80	1085.31
696.14	1078.28
696.48	1071.50
696.81	1083.20
697.15	1088.12
697.49	1078.75
697.82	1070.80
698.16	1075.48
698.50	1064.71
698.83	1063.54
699.17	1068.92
699.51	1081.09
699.84	1080.63
700.18	1076.41
700.52	1084.84
700.85	1081.09
701.19	1073.37
701.53	1067.75
701.86	1074.77
702.20	1068.45
702.54	1068.92
702.87	1072.43
703.21	1079.69
703.55	1078.75
703.88	1071.50
704.22	1070.56
704.55	1079.69
704.89	1082.26
705.23	1078.52
705.56	1073.60
705.90	1084.84
706.23	1079.69
706.57	1074.31
706.91	1075.01
707.24	1082.26
707.58	1075.01
707.91	1065.41
708.25	1067.75
708.58	1081.80
708.92	1081.80
709.26	1073.37
709.59	1091.16
709.93	1095.37
710.26	1082.73
710.60	1080.39
710.93	1089.99
711.27	1078.05
711.60	1075.94
711.94	1077.35
712.27	1084.14
712.61	1085.31
712.94	1092.80
713.28	1093.26
713.61	1090.92
713.95	1098.88
714.28	1089.52
714.62	1088.58
714.95	1086.94
715.29	1094.20
715.62	1078.99
715.96	1084.84
716.29	1078.75
716.63	1078.99
716.96	1081.56
717.29	1092.33
717.63	1089.75
717.96	1094.67
718.30	1089.52
718.63	1093.50
718.97	1088.35
719.30	1090.46
719.63	1093.97
719.97	1103.33
720.30	1102.39
720.64	1103.09
720.97	1101.69
721.30	1090.46
721.64	1084.37
721.97	1070.09
722.31	1080.39
722.64	1088.58
722.97	1094.67
723.31	1091.16
723.64	1101.92
723.97	1089.99
724.31	1081.56
724.64	1085.07
724.98	1088.12
725.31	1083.43
725.64	1082.03
725.98	1087.18
726.31	1087.88
726.64	1098.88
726.97	1084.37
727.31	1087.88
727.64	1084.84
727.97	1076.88
728.31	1066.35
728.64	1068.45
728.97	1072.20
729.31	1074.07
729.64	1086.01
729.97	1090.22
730.30	1100.52
730.64	1107.07
730.97	1103.56
731.30	1094.90
731.63	1090.69
731.97	1087.41
732.30	1074.31
732.63	1065.18
732.96	1063.54
733.30	1065.18
733.63	1068.22
733.96	1064.24
734.29	1075.71
734.63	1065.18
734.96	1073.60
735.29	1074.77
735.62	1081.09
735.95	1075.24
736.29	1089.29
736.62	1071.97
736.95	1076.65
737.28	1074.31
737.61	1076.65
737.94	1074.54
738.28	1083.67
738.61	1076.88
738.94	1077.58
739.27	1074.31
739.60	1081.33
739.93	1075.01
740.27	1074.77
740.60	1078.28
740.93	1077.58
741.26	1065.88
741.59	1066.82
741.92	1068.69
742.25	1077.35
742.58	1082.50
742.91	1094.43
743.25	1102.39
743.58	1108.48
743.91	1093.03
744.24	1086.71
744.57	1088.82
744.90	1076.41
745.23	1063.31
745.56	1066.58
745.89	1074.77
746.22	1066.35
746.55	1079.22
746.88	1078.52
747.21	1093.26
747.54	1094.20
747.87	1085.54
748.20	1082.26
748.53	1089.99
748.87	1076.18
749.20	1068.92
749.53	1084.14
749.86	1082.73
750.19	1078.75
750.52	1087.18
750.85	1097.48
751.18	1081.33
751.51	1081.56
751.84	1082.03
752.16	1075.71
752.49	1071.26
752.82	1075.94
753.15	1073.14
753.48	1073.37
753.81	1073.60
754.14	1064.71
754.47	1074.54
754.80	1077.35
755.13	1081.56
755.46	1074.31
755.79	1087.65
756.12	1089.75
756.45	1094.20
756.78	1100.99
757.11	1101.46
757.43	1097.48
757.76	1086.94
758.09	1081.09
758.42	1071.97
758.75	1080.16
759.08	1080.63
759.41	1086.48
759.74	1091.39
760.07	1096.54
760.39	1093.03
760.72	1082.97
761.05	1091.63
761.38	1092.33
761.71	1093.97
762.04	1078.05
762.36	1083.43
762.69	1067.99
763.02	1061.43
763.35	1051.84
763.68	1070.09
764.01	1077.82
764.33	1079.46
764.66	1084.14
764.99	1087.88
765.32	1083.43
765.65	1080.16
765.97	1081.09
766.30	1086.71
766.63	1087.41
766.96	1091.63
767.28	1092.09
767.61	1081.80
767.94	1066.11
768.27	1071.97
768.59	1071.03
768.92	1071.26
769.25	1081.56
769.58	1083.67
769.90	1073.84
770.23	1070.09
770.56	1059.33
770.89	1060.26
771.21	1068.69
771.54	1079.69
771.87	1078.99
772.19	1085.31
772.52	1080.39
772.85	1079.92
773.17	1074.07
773.50	1069.86
773.83	1070.56
774.15	1073.84
774.48	1073.14
774.81	1065.65
775.13	1072.20
775.46	1073.37
775.79	1068.92
776.11	1069.16
776.44	1072.90
776.77	1078.05
777.09	1078.75
777.42	1078.05
777.74	1070.33
778.07	1075.94
778.40	1070.80
778.72	1069.16
779.05	1067.52
779.37	1076.41
779.70	1077.11
780.03	1079.92
780.35	1084.84
780.68	1086.94
781.00	1076.88
781.33	1073.14
781.65	1075.24
781.98	1067.28
782.31	1077.82
782.63	1084.84
782.96	1079.22
783.28	1076.18
783.61	1081.56
783.93	1076.18
784.26	1077.82
784.58	1082.50
784.91	1086.48
785.23	1091.16
785.56	1090.46
785.88	1098.65
786.21	1114.33
786.53	1106.84
786.86	1094.43
787.18	1095.60
787.51	1085.77
787.83	1065.65
788.16	1061.20
788.48	1062.37
788.81	1060.50
789.13	1059.09
789.46	1072.43
789.78	1076.65
790.10	1085.77
790.43	1077.82
790.75	1069.62
791.08	1054.65
791.40	1051.60
791.73	1055.82
792.05	1067.52
792.37	1086.71
792.70	1101.69
793.02	1111.29
793.35	1107.78
793.67	1103.33
793.99	1096.07
794.32	1087.18
794.64	1078.75
794.96	1070.56
795.29	1071.03
795.61	1074.77
795.93	1075.94
796.26	1084.14
796.58	1088.82
796.91	1094.20
797.23	1075.01
797.55	1063.54
797.87	1050.20
798.20	1040.60
798.52	1037.79
798.84	1057.45
799.17	1069.62
799.49	1076.41
799.81	1085.77
800.14	1076.41
800.46	1071.97
800.78	1064.01
801.10	1064.94
801.43	1061.67
801.75	1069.62
802.07	1063.54
802.40	1076.88
802.72	1081.09
803.04	1080.63
803.36	1081.56
803.69	1081.09
804.01	1068.92
804.33	1059.56
804.65	1062.14
804.97	1053.01
805.30	1061.67
805.62	1064.48
805.94	1071.03
806.26	1072.43
806.58	1078.99
806.91	1072.90
807.23	1070.56
807.55	1068.69
807.87	1064.48
808.19	1068.69
808.52	1069.16
808.84	1069.62
809.16	1065.41
809.48	1069.16
809.80	1063.77
810.12	1065.41
810.44	1073.84
810.77	1080.63
811.09	1077.82
811.41	1079.46
811.73	1084.84
812.05	1075.24
812.37	1068.69
812.69	1058.39
813.01	1064.01
813.33	1060.50
813.66	1070.09
813.98	1084.60
814.30	1099.58
814.62	1097.95
814.94	1097.48
815.26	1093.03
815.58	1079.46
815.90	1071.03
816.22	1067.75
816.54	1065.65
816.86	1064.94
817.18	1066.11
817.50	1065.18
817.82	1066.82
818.14	1068.22
818.46	1068.22
818.78	1079.46
819.10	1082.73
819.42	1078.05
819.74	1076.88
820.06	1082.26
820.38	1074.54
820.70	1078.05
821.02	1083.67
821.34	1086.94
821.66	1085.07
821.98	1086.71
822.30	1087.65
822.62	1073.60
822.94	1071.73
823.26	1070.56
823.58	1066.58
823.90	1058.16
824.22	1067.52
824.54	1073.37
824.86	1071.03
825.18	1067.99
825.50	1077.82
825.81	1077.82
826.13	1073.60
826.45	1078.99
826.77	1081.09
827.09	1080.39
827.41	1077.58
827.73	1081.80
828.05	1071.50
828.36	1068.45
828.68	1066.11
829.00	1069.39
829.32	1063.07
829.64	1066.11
829.96	1072.67
830.28	1075.24
830.59	1076.65
830.91	1067.99
831.23	1062.14
831.55	1060.50
831.87	1056.99
832.19	1060.03
832.50	1067.05
832.82	1083.43
833.14	1084.14
833.46	1088.12
833.78	1087.18
834.09	1101.46
834.41	1099.58
834.73	1110.12
835.05	1108.48
835.36	1108.95
835.68	1096.31
836.00	1092.80
836.32	1080.16
836.63	1075.48
836.95	1068.69
837.27	1066.82
837.59	1065.41
837.90	1067.28
838.22	1079.46
838.54	1083.20
838.85	1084.60
839.17	1088.58
839.49	1088.58
839.80	1083.43
840.12	1090.92
840.44	1087.18
840.76	1085.77
841.07	1082.26
841.39	1072.67
841.71	1073.37
842.02	1083.90
842.34	1077.82
842.65	1080.86
842.97	1091.86
843.29	1088.35
843.60	1079.92
843.92	1082.50
844.24	1079.92
844.55	1074.77
844.87	1069.62
845.18	1063.77
845.50	1059.79
845.82	1063.07
846.13	1057.92
846.45	1067.05
846.76	1077.11
847.08	1077.35
847.40	1076.41
847.71	1079.92
848.03	1066.11
848.34	1060.26
848.66	1057.92
848.97	1059.33
849.29	1070.09
849.60	1074.54
849.92	1076.18
850.24	1081.33
850.55	1075.24
850.87	1070.56
851.18	1077.82
851.50	1077.35
851.81	1072.67
852.13	1076.88
852.44	1074.54
852.76	1062.14
853.07	1067.75
853.39	1077.11
853.70	1082.26
854.01	1081.33
854.33	1090.46
854.64	1091.16
854.96	1088.35
855.27	1076.88
855.59	1081.80
855.90	1080.63
856.22	1075.71
856.53	1074.77
856.84	1086.48
857.16	1085.54
857.47	1087.41
857.79	1085.77
858.10	1088.12
858.41	1080.39
858.73	1078.99
859.04	1077.35
859.36	1076.41
859.67	1069.16
859.98	1078.52
860.30	1073.60
860.61	1066.35
860.92	1072.20
861.24	1068.45
861.55	1058.16
861.87	1060.73
862.18	1075.01
862.49	1077.35
862.81	1078.99
863.12	1083.20
863.43	1078.75
863.74	1063.54
864.06	1058.62
864.37	1060.03
864.68	1062.84
865.00	1076.65
865.31	1075.24
865.62	1073.60
865.94	1082.26
866.25	1086.94
866.56	1081.56
866.87	1084.14
867.19	1082.26
867.50	1084.37
867.81	1075.94
868.12	1062.84
868.44	1065.88
868.75	1076.65
869.06	1071.50
869.37	1069.39
869.68	1084.14
870.00	1086.48
870.31	1079.92
870.62	1078.99
870.93	1077.58
871.24	1083.20
871.56	1073.60
871.87	1068.92
872.18	1064.48
872.49	1070.09
872.80	1059.79
873.12	1062.84
873.43	1073.84
873.74	1085.54
874.05	1087.65
874.36	1083.67
874.67	1096.31
874.98	1089.99
875.29	1081.09
875.61	1078.52
875.92	1084.60
876.23	1074.07
876.54	1079.46
876.85	1085.31
877.16	1084.37
877.47	1071.73
877.78	1081.33
878.09	1073.60
878.40	1073.14
878.72	1076.41
879.03	1083.67
879.34	1075.01
879.65	1081.09
879.96	1076.41
880.27	1074.54
880.58	1077.58
880.89	1074.54
881.20	1066.82
881.51	1071.03
881.82	1064.48
882.13	1065.88
882.44	1086.24
882.75	1096.78
883.06	1093.97
883.37	1098.18
883.68	1088.12
883.99	1078.05
884.30	1067.75
884.61	1059.79
884.92	1067.75
885.23	1082.03
885.54	1085.31
885.85	1091.86
886.16	1097.95
886.47	1086.01
886.78	1072.20
887.08	1066.82
887.39	1061.20
887.70	1060.50
888.01	1064.01
888.32	1073.60
888.63	1072.90
888.94	1072.43
889.25	1075.94
889.56	1077.82
889.87	1074.07
890.17	1073.60
890.48	1064.48
890.79	1062.37
891.10	1065.88
891.41	1062.37
891.72	1057.22
892.03	1071.26
892.34	1068.69
892.64	1064.94
892.95	1072.20
893.26	1073.84
893.57	1069.39
893.88	1071.73
894.18	1079.46
894.49	1083.43
894.80	1081.09
895.11	1089.75
895.42	1097.71
895.72	1096.07
896.03	1084.84
896.34	1089.05
896.65	1082.50
896.96	1079.22
897.26	1070.80
897.57	1078.05
897.88	1078.05
898.19	1063.77
898.49	1066.58
898.80	1066.58
899.11	1074.31
899.41	1075.48
899.72	1094.67
900.03	1085.31
900.34	1090.69
900.64	1080.86
900.95	1080.86
901.26	1068.92
901.56	1074.07
901.87	1065.41
902.18	1054.18
902.48	1060.26
902.79	1068.92
903.10	1068.69
903.40	1079.92
903.71	1091.86
904.02	1086.01
904.32	1085.31
904.63	1075.48
904.94	1068.22
905.24	1077.58
905.55	1077.58
905.85	1075.94
906.16	1078.05
906.47	1083.90
906.77	1075.24
907.08	1070.33
907.38	1062.84
907.69	1068.92
908.00	1075.71
908.30	1074.07
908.61	1089.29
908.91	1098.18
909.22	1094.43
909.52	1085.07
909.83	1082.26
910.14	1066.35
910.44	1059.33
910.75	1070.09
911.05	1078.52
911.36	1083.20
911.66	1091.39
911.97	1098.65
912.27	1089.75
912.58	1077.82
912.88	1073.37
913.19	1064.01
913.49	1053.48
913.80	1051.60
914.10	1044.82
914.41	1043.88
914.71	1045.05
915.01	1051.60
915.32	1050.90
915.62	1060.50
915.93	1073.14
916.23	1087.65
916.54	1088.12
916.84	1097.71
917.15	1096.31
917.45	1084.84
917.75	1075.24
918.06	1077.58
918.36	1073.84
918.67	1070.09
918.97	1075.01
919.27	1075.94
919.58	1082.73
919.88	1084.60
920.18	1083.43
920.49	1075.24
920.79	1081.56
921.10	1066.11
921.40	1059.33
921.70	1066.82
922.01	1060.50
922.31	1056.05
922.61	1071.73
922.92	1076.65
923.22	1080.86
923.52	1091.86
923.82	1090.46
924.13	1080.39
924.43	1079.92
924.73	1082.03
925.04	1090.69
925.34	1077.82
925.64	1082.03
925.94	1081.56
926.25	1068.22
926.55	1057.22
926.85	1070.33
927.15	1074.31
927.46	1067.99
927.76	1083.67
928.06	1085.77
928.36	1081.56
928.67	1079.69
928.97	1082.73
929.27	1075.24
929.57	1080.16
929.87	1089.99
930.18	1087.88
930.48	1090.22
930.78	1093.50
931.08	1097.95
931.38	1088.82
931.69	1096.54
931.99	1103.33
932.29	1100.05
932.59	1089.99
932.89	1088.12
933.19	1082.03
933.49	1073.60
933.80	1063.77
934.10	1060.50
934.40	1068.92
934.70	1066.35
935.00	1064.01
935.30	1076.41
935.60	1073.84
935.90	1064.01
936.20	1061.67
936.50	1070.09
936.81	1060.96
937.11	1066.35
937.41	1074.31
937.71	1083.67
938.01	1075.94
938.31	1074.77
938.61	1077.11
938.91	1075.01
939.21	1065.65
939.51	1073.14
939.81	1078.05
940.11	1080.39
940.41	1078.28
940.71	1085.31
941.01	1081.56
941.31	1079.92
941.61	1074.54
941.91	1075.94
942.21	1068.69
942.51	1069.39
942.81	1070.09
943.11	1070.80
943.41	1070.33
943.71	1073.84
944.01	1084.84
944.31	1079.69
944.61	1089.05
944.90	1095.84
945.20	1101.92
945.50	1093.73
945.80	1092.33
946.10	1086.24
946.40	1080.86
946.70	1074.07
947.00	1070.80
947.30	1079.46
947.60	1080.16
947.89	1075.71
948.19	1079.69
948.49	1080.16
948.79	1080.63
949.09	1075.24
949.39	1072.90
949.69	1064.24
949.98	1070.56
950.28	1071.50
950.58	1072.43
950.88	1087.41
951.18	1090.46
951.48	1083.90
951.77	1082.26
952.07	1077.35
952.37	1072.20
952.67	1085.07
952.97	1091.16
953.26	1083.20
953.56	1085.31
953.86	1075.48
954.16	1064.71
954.45	1052.54
954.75	1050.67
955.05	1060.26
955.35	1068.22
955.64	1059.33
955.94	1056.05
956.24	1071.03
956.54	1060.50
956.83	1061.90
957.13	1063.31
957.43	1071.26
957.72	1068.45
958.02	1073.14
958.32	1077.82
958.61	1088.35
958.91	1097.95
959.21	1096.54
959.50	1095.84
959.80	1089.99
960.10	1094.67
960.39	1083.90
960.69	1081.09
960.99	1085.31
961.28	1088.58
961.58	1078.99
961.87	1083.90
962.17	1090.92
962.47	1090.46
962.76	1095.84
963.06	1097.48
963.36	1099.12
963.65	1100.52
963.95	1093.97
964.24	1086.71
964.54	1089.75
964.83	1093.03
965.13	1086.01
965.42	1087.65
965.72	1080.39
966.02	1088.58
966.31	1081.33
966.61	1089.05
966.90	1093.97
967.20	1100.05
967.49	1097.24
967.79	1093.50
968.08	1087.18
968.38	1089.99
968.67	1089.75
968.97	1080.39
969.26	1079.46
969.56	1087.18
969.85	1089.99
970.15	1088.58
970.44	1090.46
970.74	1100.29
971.03	1084.60
971.32	1077.11
971.62	1085.77
971.91	1082.97
972.21	1078.28
972.50	1091.16
972.80	1086.01
973.09	1078.05
973.38	1088.12
973.68	1090.46
973.97	1082.50
974.27	1086.71
974.56	1086.24
974.85	1083.90
975.15	1082.73
975.44	1083.20
975.73	1091.16
976.03	1093.50
976.32	1088.58
976.61	1090.69
976.91	1090.46
977.20	1076.88
977.49	1077.82
977.79	1075.94
978.08	1077.35
978.37	1068.69
978.67	1081.33
978.96	1074.07
979.25	1086.01
979.55	1080.63
979.84	1089.05
980.13	1087.18
980.42	1084.60
980.72	1074.31
981.01	1073.60
981.30	1072.43
981.59	1067.28
981.89	1072.20
982.18	1078.05
982.47	1091.39
982.76	1096.31
983.06	1099.82
983.35	1100.99
983.64	1094.20
983.93	1084.37
984.22	1082.73
984.52	1079.69
984.81	1077.35
985.10	1075.71
985.39	1067.75
985.68	1077.35
985.97	1087.88
986.27	1093.73
986.56	1092.09
986.85	1099.35
987.14	1083.43
987.43	1071.50
987.72	1068.69
988.01	1071.97
988.31	1081.80
988.60	1086.71
988.89	1086.71
989.18	1093.26
989.47	1093.50
989.76	1076.41
990.05	1077.82
990.34	1079.46
990.63	1068.69
990.92	1061.20
991.21	1067.99
991.51	1073.14
991.80	1078.52
992.09	1085.07
992.38	1089.05
992.67	1083.20
992.96	1081.09
993.25	1082.50
993.54	1079.46
993.83	1085.77
994.12	1093.50
994.41	1090.92
994.70	1082.50
994.99	1082.03
995.28	1077.58
995.57	1067.05
995.86	1067.05
996.15	1071.03
996.44	1073.60
996.73	1078.28
997.02	1078.28
997.31	1075.48
997.59	1071.73
997.88	1069.39
998.17	1067.05
998.46	1071.50
998.75	1082.03
999.04	1082.73
999.33	1088.12
999.62	1082.97
999.91	1082.73
1000.20	1078.99
1000.49	1075.48
1000.77	1069.39
1001.06	1067.75
1001.35	1069.39
1001.64	1067.75
1001.93	1067.99
1002.22	1068.45
1002.51	1073.84
1002.79	1070.80
1003.08	1066.11
1003.37	1073.60
1003.66	1078.28
1003.95	1073.37
1004.23	1074.07
1004.52	1075.71
1004.81	1072.67
1005.10	1070.56
1005.39	1076.41
1005.67	1081.09
1005.96	1085.77
1006.25	1085.07
1006.54	1092.09
1006.83	1093.97
1007.11	1094.67
1007.40	1086.48
1007.69	1085.77
1007.97	1069.62
1008.26	1056.75
1008.55	1048.56
1008.84	1044.82
1009.12	1053.71
1009.41	1051.84
1009.70	1061.67
1009.98	1062.14
1010.27	1073.37
1010.56	1069.86
1010.85	1084.60
1011.13	1087.18
1011.42	1084.37
1011.71	1076.18
1011.99	1062.84
1012.28	1059.33
1012.56	1059.33
1012.85	1071.26
1013.14	1072.43
1013.42	1076.41
1013.71	1083.67
1014.00	1084.84
1014.28	1087.88
1014.57	1093.73
1014.85	1109.41
1015.14	1100.99
1015.43	1100.05
1015.71	1096.07
1016.00	1104.26
1016.28	1095.60
1016.57	1097.48
1016.85	1105.44
1017.14	1095.84
1017.43	1080.86
1017.71	1090.69
1018.00	1093.97
1018.28	1095.84
1018.57	1095.84
1018.85	1100.75
1019.14	1092.33
1019.42	1089.29
1019.71	1074.31
1019.99	1082.03
1020.28	1088.82
1020.56	1085.07
1020.85	1082.97
1021.13	1086.01
1021.42	1080.63
1021.70	1078.05
1021.99	1082.03
1022.27	1077.11
1022.55	1093.03
1022.84	1056.75
>>>>>End Processed Spectral Data<<<<<
