SpectraSuite Data File
++++++++++++++++++++++++++++++++++++
Date: Mon Aug 26 10:25:50 PDT 2019
User: corrico
Dark Spectrum Present: No
Reference Spectrum Present: No
Number of Sampled Component Spectra: 1
Spectrometers: USB2+H06089
Integration Time (usec): 10000 (USB2+H06089)
Spectra Averaged: 2 (USB2+H06089)
Boxcar Smoothing: 2 (USB2+H06089)
Correct for Electrical Dark: No (USB2+H06089)
Strobe/Lamp Enabled: No (USB2+H06089)
Correct for Detector Non-linearity: No (USB2+H06089)
Correct for Stray Light: No (USB2+H06089)
Number of Pixels in Processed Spectrum: 2048
>>>>>Begin Processed Spectral Data<<<<<
339.70	1068.45
340.07	1068.45
340.45	1019.07
340.82	999.64
341.19	972.96
341.57	941.36
341.94	936.92
342.31	923.81
342.69	902.98
343.06	884.72
343.43	877.23
343.81	884.96
344.18	894.79
344.55	906.96
344.93	927.79
345.30	939.26
345.67	933.87
346.04	948.15
346.42	953.07
346.79	957.28
347.16	976.71
347.54	979.75
347.91	968.98
348.28	983.02
348.65	996.83
349.03	997.30
349.40	1007.13
349.77	1022.58
350.14	1026.79
350.52	1031.94
350.89	1033.35
351.26	1045.99
351.63	1060.73
352.01	1069.62
352.38	1067.75
352.75	1078.99
353.12	1085.07
353.50	1086.71
353.87	1093.50
354.24	1098.18
354.61	1096.07
354.98	1096.31
355.36	1098.41
355.73	1085.77
356.10	1083.43
356.47	1087.41
356.84	1086.48
357.22	1077.11
357.59	1082.73
357.96	1089.29
358.33	1083.90
358.70	1084.37
359.08	1087.41
359.45	1083.43
359.82	1086.01
360.19	1086.48
360.56	1083.90
360.94	1087.65
361.31	1085.07
361.68	1086.48
362.05	1084.14
362.42	1089.29
362.79	1076.88
363.16	1073.37
363.54	1069.62
363.91	1075.94
364.28	1064.71
364.65	1075.71
365.02	1081.33
365.39	1073.14
365.76	1061.67
366.14	1057.22
366.51	1068.69
366.88	1066.58
367.25	1075.24
367.62	1089.05
367.99	1094.43
368.36	1081.09
368.73	1081.80
369.10	1075.24
369.48	1075.48
369.85	1074.77
370.22	1069.39
370.59	1075.01
370.96	1073.37
371.33	1065.65
371.70	1065.88
372.07	1071.50
372.44	1070.80
372.81	1062.37
373.18	1055.58
373.55	1054.88
373.93	1042.01
374.30	1039.90
374.67	1049.03
375.04	1053.71
375.41	1064.48
375.78	1070.09
376.15	1071.97
376.52	1082.97
376.89	1092.56
377.26	1085.31
377.63	1096.54
378.00	1093.73
378.37	1084.60
378.74	1078.28
379.11	1077.58
379.48	1074.07
379.85	1069.16
380.22	1075.48
380.59	1072.67
380.96	1072.67
381.33	1075.01
381.70	1082.97
382.07	1074.31
382.44	1074.07
382.81	1065.65
383.18	1053.94
383.55	1052.77
383.92	1056.99
384.29	1052.54
384.66	1057.92
385.03	1070.33
385.40	1076.41
385.77	1063.31
386.14	1064.71
386.51	1069.86
386.88	1065.41
387.25	1059.09
387.62	1066.58
387.99	1071.50
388.36	1062.37
388.73	1062.14
389.10	1059.79
389.46	1067.28
389.83	1067.75
390.20	1070.56
390.57	1066.11
390.94	1077.11
391.31	1077.35
391.68	1077.58
392.05	1080.16
392.42	1078.52
392.79	1066.11
393.16	1062.14
393.53	1064.71
393.89	1072.20
394.26	1078.28
394.63	1086.01
395.00	1084.84
395.37	1083.67
395.74	1083.90
396.11	1083.67
396.48	1079.92
396.84	1085.07
397.21	1088.82
397.58	1084.60
397.95	1080.63
398.32	1078.75
398.69	1079.46
399.06	1078.28
399.42	1068.22
399.79	1068.92
400.16	1067.75
400.53	1062.37
400.90	1058.86
401.27	1064.71
401.64	1071.73
402.00	1076.41
402.37	1075.71
402.74	1065.88
403.11	1071.73
403.48	1069.62
403.84	1061.90
404.21	1072.90
404.58	1076.18
404.95	1075.48
405.32	1074.54
405.68	1085.07
406.05	1070.80
406.42	1071.73
406.79	1073.84
407.16	1073.84
407.52	1068.69
407.89	1070.09
408.26	1079.46
408.63	1077.82
408.99	1078.52
409.36	1076.88
409.73	1080.39
410.10	1078.05
410.47	1076.65
410.83	1076.65
411.20	1079.46
411.57	1070.80
411.94	1066.82
412.30	1065.88
412.67	1062.84
413.04	1064.01
413.40	1069.39
413.77	1074.77
414.14	1070.56
414.51	1075.94
414.87	1075.71
415.24	1075.71
415.61	1078.52
415.97	1085.07
416.34	1078.52
416.71	1078.05
417.08	1075.24
417.44	1074.54
417.81	1070.33
418.18	1078.99
418.54	1085.77
418.91	1087.18
419.28	1077.82
419.64	1084.60
420.01	1081.56
420.38	1067.99
420.74	1069.39
421.11	1069.86
421.48	1063.77
421.84	1060.50
422.21	1065.18
422.58	1061.43
422.94	1066.82
423.31	1066.82
423.68	1061.90
424.04	1062.14
424.41	1071.97
424.77	1071.50
425.14	1079.46
425.51	1092.33
425.87	1078.05
426.24	1073.14
426.61	1073.84
426.97	1072.43
427.34	1061.20
427.70	1078.05
428.07	1074.54
428.44	1076.18
428.80	1073.37
429.17	1081.09
429.53	1094.43
429.90	1105.90
430.27	1112.69
430.63	1111.29
431.00	1114.10
431.36	1100.99
431.73	1086.94
432.09	1068.22
432.46	1063.31
432.83	1065.65
433.19	1065.41
433.56	1069.39
433.92	1073.60
434.29	1087.65
434.65	1085.77
435.02	1086.71
435.38	1097.95
435.75	1105.90
436.11	1100.29
436.48	1090.69
436.84	1083.67
437.21	1083.90
437.57	1074.31
437.94	1061.43
438.30	1061.90
438.67	1063.07
439.03	1060.73
439.40	1069.86
439.76	1080.86
440.13	1080.86
440.49	1092.56
440.86	1092.33
441.22	1086.01
441.59	1088.35
441.95	1094.67
442.32	1083.90
442.68	1083.67
443.05	1093.26
443.41	1093.97
443.78	1086.01
444.14	1089.52
444.51	1085.07
444.87	1081.56
445.24	1085.54
445.60	1081.33
445.96	1081.80
446.33	1086.94
446.69	1091.86
447.06	1091.86
447.42	1106.37
447.79	1119.01
448.15	1115.73
448.51	1113.86
448.88	1105.67
449.24	1094.90
449.61	1079.69
449.97	1072.67
450.33	1058.62
450.70	1061.67
451.06	1071.26
451.43	1085.07
451.79	1098.18
452.15	1106.37
452.52	1099.35
452.88	1089.05
453.24	1073.84
453.61	1065.65
453.97	1075.01
454.34	1091.86
454.70	1107.31
455.06	1117.84
455.43	1113.63
455.79	1102.86
456.15	1090.46
456.52	1077.82
456.88	1078.05
457.24	1082.26
457.61	1080.86
457.97	1081.80
458.33	1083.20
458.70	1071.03
459.06	1067.75
459.42	1067.75
459.79	1070.56
460.15	1076.88
460.51	1080.86
460.88	1069.39
461.24	1068.45
461.60	1058.16
461.96	1056.75
462.33	1066.35
462.69	1082.73
463.05	1084.14
463.42	1087.88
463.78	1093.03
464.14	1080.16
464.50	1073.14
464.87	1080.16
465.23	1080.63
465.59	1070.09
465.95	1079.22
466.32	1089.99
466.68	1081.56
467.04	1079.92
467.40	1081.56
467.77	1072.43
468.13	1073.37
468.49	1077.35
468.85	1075.94
469.22	1084.84
469.58	1096.07
469.94	1088.12
470.30	1088.12
470.66	1103.80
471.03	1090.69
471.39	1089.05
471.75	1091.86
472.11	1087.18
472.47	1079.46
472.84	1082.26
473.20	1074.54
473.56	1073.37
473.92	1079.22
474.28	1072.67
474.65	1077.11
475.01	1074.54
475.37	1074.07
475.73	1072.43
476.09	1075.71
476.45	1067.52
476.81	1069.39
477.18	1067.28
477.54	1074.07
477.90	1084.37
478.26	1094.67
478.62	1088.82
478.98	1092.09
479.34	1081.09
479.71	1072.20
480.07	1077.35
480.43	1084.37
480.79	1086.48
481.15	1088.82
481.51	1085.31
481.87	1067.28
482.23	1063.77
482.59	1060.50
482.96	1065.65
483.32	1064.24
483.68	1074.07
484.04	1077.58
484.40	1077.35
484.76	1079.92
485.12	1086.94
485.48	1082.97
485.84	1076.65
486.20	1075.48
486.56	1063.07
486.92	1057.22
487.28	1062.14
487.64	1067.28
488.00	1069.16
488.37	1078.05
488.73	1081.80
489.09	1082.73
489.45	1082.73
489.81	1084.37
490.17	1082.97
490.53	1077.82
490.89	1069.16
491.25	1079.69
491.61	1079.92
491.97	1084.84
492.33	1089.29
492.69	1087.88
493.05	1077.11
493.41	1080.63
493.77	1086.48
494.13	1087.18
494.49	1097.24
494.85	1098.65
495.21	1095.14
495.57	1087.41
495.93	1089.29
496.29	1088.12
496.64	1090.46
497.00	1094.20
497.36	1090.22
497.72	1085.77
498.08	1081.33
498.44	1066.58
498.80	1050.43
499.16	1049.26
499.52	1052.54
499.88	1047.16
500.24	1070.33
500.60	1080.16
500.96	1086.94
501.32	1085.77
501.68	1091.86
502.03	1085.54
502.39	1091.86
502.75	1081.33
503.11	1083.20
503.47	1096.07
503.83	1094.43
504.19	1083.67
504.55	1087.88
504.91	1085.77
505.26	1078.05
505.62	1075.71
505.98	1083.20
506.34	1089.99
506.70	1081.33
507.06	1083.20
507.42	1077.11
507.78	1085.77
508.13	1077.58
508.49	1086.01
508.85	1084.14
509.21	1096.07
509.57	1091.39
509.93	1098.41
510.28	1100.99
510.64	1095.60
511.00	1089.29
511.36	1089.99
511.72	1082.50
512.07	1078.99
512.43	1090.69
512.79	1089.05
513.15	1081.56
513.51	1086.24
513.86	1090.92
514.22	1075.71
514.58	1075.24
514.94	1086.24
515.30	1084.60
515.65	1084.84
516.01	1093.50
516.37	1099.82
516.73	1092.56
517.08	1100.52
517.44	1085.07
517.80	1074.31
518.16	1077.58
518.51	1064.48
518.87	1066.58
519.23	1083.20
519.59	1091.63
519.94	1085.31
520.30	1109.41
520.66	1100.29
521.01	1093.26
521.37	1101.46
521.73	1100.99
522.09	1092.80
522.44	1092.09
522.80	1094.67
523.16	1089.29
523.51	1100.99
523.87	1100.99
524.23	1105.20
524.58	1103.09
524.94	1102.16
525.30	1096.78
525.65	1089.75
526.01	1081.33
526.37	1083.67
526.72	1082.26
527.08	1083.43
527.44	1088.58
527.79	1099.58
528.15	1099.35
528.51	1100.05
528.86	1093.73
529.22	1097.48
529.58	1084.84
529.93	1085.77
530.29	1091.63
530.65	1098.88
531.00	1087.88
531.36	1096.54
531.71	1095.84
532.07	1086.01
532.43	1073.84
532.78	1070.33
533.14	1071.97
533.49	1076.88
533.85	1083.20
534.21	1085.31
534.56	1091.39
534.92	1096.78
535.27	1095.60
535.63	1089.29
535.98	1085.31
536.34	1091.16
536.69	1085.54
537.05	1091.63
537.41	1101.92
537.76	1115.97
538.12	1119.01
538.47	1121.58
538.83	1116.67
539.18	1111.52
539.54	1104.50
539.89	1103.33
540.25	1101.46
540.60	1101.92
540.96	1099.12
541.31	1104.73
541.67	1095.84
542.02	1106.37
542.38	1102.39
542.73	1099.35
543.09	1099.82
543.44	1103.56
543.80	1090.22
544.15	1090.46
544.51	1105.20
544.86	1104.03
545.22	1096.31
545.57	1093.50
545.93	1089.29
546.28	1072.90
546.64	1070.33
546.99	1079.22
547.35	1087.18
547.70	1092.80
548.05	1116.90
548.41	1115.27
548.76	1119.48
549.12	1112.92
549.47	1114.09
549.83	1093.97
550.18	1084.14
550.53	1072.67
550.89	1062.60
551.24	1054.18
551.60	1053.24
551.95	1048.09
552.30	1059.33
552.66	1075.48
553.01	1076.65
553.37	1079.92
553.72	1095.37
554.07	1087.65
554.43	1075.94
554.78	1080.86
555.13	1078.75
555.49	1071.73
555.84	1078.99
556.19	1088.12
556.55	1088.35
556.90	1086.71
557.26	1086.71
557.61	1077.58
557.96	1069.16
558.32	1064.48
558.67	1064.24
559.02	1068.22
559.37	1072.20
559.73	1076.18
560.08	1082.03
560.43	1077.82
560.79	1082.73
561.14	1081.56
561.49	1074.07
561.85	1073.37
562.20	1079.92
562.55	1079.46
562.90	1075.24
563.26	1087.18
563.61	1093.50
563.96	1095.37
564.32	1093.97
564.67	1096.78
565.02	1091.39
565.37	1076.65
565.73	1070.33
566.08	1076.88
566.43	1076.88
566.78	1075.71
567.14	1086.94
567.49	1092.09
567.84	1081.33
568.19	1086.24
568.54	1087.65
568.90	1078.05
569.25	1078.99
569.60	1082.03
569.95	1075.01
570.31	1080.86
570.66	1083.67
571.01	1081.33
571.36	1077.82
571.71	1090.69
572.06	1085.07
572.42	1089.29
572.77	1077.35
573.12	1082.97
573.47	1076.88
573.82	1071.97
574.18	1067.99
574.53	1084.60
574.88	1082.97
575.23	1081.56
575.58	1088.82
575.93	1091.63
576.28	1083.90
576.64	1079.69
576.99	1076.41
577.34	1077.58
577.69	1068.69
578.04	1072.67
578.39	1072.43
578.74	1074.07
579.09	1071.26
579.44	1072.90
579.80	1071.26
580.15	1081.80
580.50	1082.03
580.85	1081.09
581.20	1095.37
581.55	1097.24
581.90	1088.12
582.25	1083.90
582.60	1085.77
582.95	1075.48
583.30	1077.11
583.65	1073.37
584.00	1078.05
584.35	1081.33
584.71	1079.92
585.06	1071.03
585.41	1080.39
585.76	1081.56
586.11	1079.69
586.46	1079.22
586.81	1081.56
587.16	1074.07
587.51	1075.48
587.86	1065.88
588.21	1074.07
588.56	1078.52
588.91	1088.12
589.26	1089.52
589.61	1105.44
589.96	1105.90
590.31	1114.56
590.66	1107.07
591.01	1100.99
591.36	1080.39
591.71	1069.16
592.06	1051.37
592.41	1050.67
592.76	1055.82
593.10	1073.84
593.45	1088.12
593.80	1095.14
594.15	1093.26
594.50	1090.92
594.85	1079.69
595.20	1072.43
595.55	1076.88
595.90	1081.09
596.25	1078.52
596.60	1083.67
596.95	1073.37
597.30	1073.60
597.64	1130.24
597.99	1130.24
598.34	1134.22
598.69	1143.82
599.04	1148.27
599.39	1082.73
599.74	1080.39
600.09	1070.33
600.44	1062.84
600.78	1055.35
601.13	1069.86
601.48	1068.92
601.83	1079.22
602.18	1082.26
602.53	1085.77
602.88	1075.01
603.22	1071.97
603.57	1059.79
603.92	1064.48
604.27	1063.54
604.62	1064.94
604.97	1076.88
605.31	1082.97
605.66	1078.52
606.01	1072.90
606.36	1072.20
606.71	1067.05
607.05	1066.35
607.40	1064.01
607.75	1072.20
608.10	1075.01
608.44	1080.39
608.79	1080.63
609.14	1086.71
609.49	1092.80
609.84	1094.67
610.18	1086.48
610.53	1091.86
610.88	1104.03
611.23	1091.63
611.57	1101.69
611.92	1104.03
612.27	1103.56
612.62	1095.60
612.96	1096.31
613.31	1094.20
613.66	1108.24
614.00	1108.95
614.35	1111.29
614.70	1120.41
615.05	1115.97
615.39	1104.97
615.74	1098.65
616.09	1097.01
616.43	1086.71
616.78	1081.80
617.13	1071.97
617.47	1073.84
617.82	1058.86
618.17	1067.75
618.51	1069.62
618.86	1075.24
619.21	1080.16
619.55	1092.56
619.90	1082.73
620.25	1081.80
620.59	1078.75
620.94	1076.88
621.29	1089.52
621.63	1093.26
621.98	1092.80
622.32	1101.22
622.67	1100.99
623.02	1087.88
623.36	1094.43
623.71	1093.97
624.05	1090.69
624.40	1084.84
624.75	1090.22
625.09	1085.31
625.44	1089.52
625.78	1090.46
626.13	1097.01
626.48	1090.69
626.82	1087.41
627.17	1088.12
627.51	1096.54
627.86	1084.14
628.20	1085.07
628.55	1088.12
628.89	1084.60
629.24	1070.09
629.58	1084.14
629.93	1086.01
630.28	1079.22
630.62	1082.73
630.97	1092.09
631.31	1091.86
631.66	1080.86
632.00	1084.84
632.35	1085.77
632.69	1081.80
633.04	1076.88
633.38	1090.46
633.73	1087.41
634.07	1083.67
634.42	1089.29
634.76	1085.77
635.11	1071.50
635.45	1074.54
635.79	1068.92
636.14	1059.33
636.48	1064.48
636.83	1072.43
637.17	1068.45
637.52	1071.50
637.86	1069.16
638.21	1062.84
638.55	1054.18
638.89	1056.28
639.24	1062.60
639.58	1072.90
639.93	1074.31
640.27	1078.28
640.61	1075.94
640.96	1074.54
641.30	1061.20
641.65	1068.45
641.99	1067.99
642.33	1070.56
642.68	1063.31
643.02	1070.56
643.37	1063.54
643.71	1069.62
644.05	1067.99
644.40	1071.73
644.74	1069.39
645.08	1073.84
645.43	1069.62
645.77	1066.35
646.11	1064.48
646.46	1071.03
646.80	1063.31
647.14	1073.37
647.49	1078.75
647.83	1075.71
648.17	1079.92
648.52	1077.58
648.86	1073.37
649.20	1077.82
649.55	1082.97
649.89	1078.99
650.23	1093.50
650.57	1078.05
650.92	1069.86
651.26	1064.48
651.60	1060.73
651.95	1049.96
652.29	1069.16
652.63	1074.31
652.97	1074.07
653.32	1082.73
653.66	1098.88
654.00	1094.43
654.34	1100.75
654.69	1108.01
655.03	1105.44
655.37	1099.35
655.71	1086.48
656.05	1081.80
656.40	1088.12
656.74	1083.43
657.08	1081.33
657.42	1091.63
657.76	1093.03
658.11	1081.80
658.45	1079.92
658.79	1077.11
659.13	1078.05
659.47	1074.31
659.82	1082.50
660.16	1093.03
660.50	1093.26
660.84	1093.73
661.18	1096.31
661.52	1088.58
661.87	1088.82
662.21	1089.75
662.55	1089.52
662.89	1076.41
663.23	1071.50
663.57	1064.24
663.91	1060.26
664.25	1061.43
664.60	1083.43
664.94	1094.90
665.28	1091.63
665.62	1098.41
665.96	1100.75
666.30	1088.12
666.64	1084.60
666.98	1101.92
667.32	1111.52
667.66	1102.16
668.01	1105.67
668.35	1102.63
668.69	1081.80
669.03	1067.99
669.37	1069.62
669.71	1073.14
670.05	1073.37
670.39	1084.84
670.73	1080.39
671.07	1080.86
671.41	1076.65
671.75	1082.73
672.09	1076.41
672.43	1079.22
672.77	1078.75
673.11	1072.90
673.45	1079.69
673.79	1081.56
674.13	1087.41
674.47	1087.65
674.81	1093.73
675.15	1071.50
675.49	1061.90
675.83	1058.16
676.17	1060.50
676.51	1060.96
676.85	1069.62
677.19	1080.63
677.53	1089.99
677.87	1095.14
678.21	1096.54
678.55	1093.03
678.89	1086.94
679.23	1085.31
679.57	1082.97
679.90	1083.90
680.24	1083.90
680.58	1081.33
680.92	1069.39
681.26	1065.65
681.60	1057.22
681.94	1054.65
682.28	1063.54
682.62	1071.03
682.96	1072.90
683.29	1079.22
683.63	1093.97
683.97	1093.97
684.31	1093.50
684.65	1094.67
684.99	1093.03
685.33	1092.56
685.67	1085.31
686.00	1081.33
686.34	1082.26
686.68	1074.77
687.02	1063.31
687.36	1068.69
687.70	1071.97
688.03	1063.07
688.37	1065.18
688.71	1064.94
689.05	1059.79
689.39	1066.58
689.72	1077.58
690.06	1082.03
690.40	1091.39
690.74	1104.73
691.08	1093.50
691.41	1090.92
691.75	1082.97
692.09	1071.26
692.43	1060.50
692.76	1060.03
693.10	1059.33
693.44	1077.35
693.78	1079.92
694.11	1080.63
694.45	1079.22
694.79	1072.67
695.13	1066.35
695.46	1073.14
695.80	1073.37
696.14	1072.43
696.48	1075.48
696.81	1071.03
697.15	1069.86
697.49	1064.24
697.82	1062.60
698.16	1062.60
698.50	1065.41
698.83	1067.99
699.17	1070.80
699.51	1078.05
699.84	1082.73
700.18	1089.52
700.52	1077.35
700.85	1074.31
701.19	1086.71
701.53	1084.14
701.86	1077.35
702.20	1078.99
702.54	1084.14
702.87	1075.48
703.21	1076.88
703.55	1073.60
703.88	1072.90
704.22	1074.31
704.55	1076.88
704.89	1077.82
705.23	1086.24
705.56	1094.43
705.90	1097.71
706.23	1087.88
706.57	1082.97
706.91	1072.67
707.24	1079.69
707.58	1076.65
707.91	1082.26
708.25	1086.71
708.58	1084.84
708.92	1066.58
709.26	1056.75
709.59	1058.16
709.93	1055.58
710.26	1064.48
710.60	1075.94
710.93	1087.18
711.27	1082.26
711.60	1086.71
711.94	1081.09
712.27	1080.16
712.61	1075.24
712.94	1078.99
713.28	1081.33
713.61	1079.92
713.95	1082.97
714.28	1094.43
714.62	1086.48
714.95	1068.22
715.29	1060.50
715.62	1067.52
715.96	1061.43
716.29	1071.50
716.63	1089.99
716.96	1109.88
717.29	1104.73
717.63	1099.58
717.96	1082.26
718.30	1078.52
718.63	1065.65
718.97	1064.94
719.30	1069.86
719.63	1077.82
719.97	1081.80
720.30	1081.09
720.64	1084.60
720.97	1078.28
721.30	1086.24
721.64	1070.80
721.97	1075.24
722.31	1071.26
722.64	1066.11
722.97	1067.99
723.31	1076.65
723.64	1073.60
723.97	1068.69
724.31	1076.88
724.64	1071.73
724.98	1070.09
725.31	1072.20
725.64	1063.77
725.98	1063.77
726.31	1063.54
726.64	1065.41
726.97	1066.82
727.31	1076.88
727.64	1078.05
727.97	1082.03
728.31	1093.50
728.64	1091.86
728.97	1087.18
729.31	1082.03
729.64	1073.14
729.97	1061.90
730.30	1067.75
730.64	1073.84
730.97	1077.11
731.30	1082.26
731.63	1082.26
731.97	1073.60
732.30	1072.90
732.63	1071.50
732.96	1076.65
733.30	1075.24
733.63	1068.69
733.96	1069.39
734.29	1074.31
734.63	1074.54
734.96	1070.56
735.29	1087.88
735.62	1082.73
735.95	1082.26
736.29	1078.05
736.62	1090.92
736.95	1080.86
737.28	1085.07
737.61	1078.05
737.94	1084.84
738.28	1070.09
738.61	1081.09
738.94	1078.52
739.27	1075.48
739.60	1067.05
739.93	1072.67
740.27	1073.14
740.60	1077.82
740.93	1086.24
741.26	1091.86
741.59	1101.69
741.92	1095.37
742.25	1104.73
742.58	1110.58
742.91	1103.09
743.25	1096.78
743.58	1096.07
743.91	1089.05
744.24	1080.16
744.57	1083.20
744.90	1081.56
745.23	1068.92
745.56	1063.77
745.89	1064.01
746.22	1055.35
746.55	1058.39
746.88	1069.62
747.21	1071.73
747.54	1074.54
747.87	1086.48
748.20	1070.33
748.53	1076.41
748.87	1076.18
749.20	1074.31
749.53	1072.67
749.86	1082.26
750.19	1078.99
750.52	1072.20
750.85	1071.97
751.18	1067.52
751.51	1070.33
751.84	1064.24
752.16	1071.26
752.49	1077.35
752.82	1080.63
753.15	1086.71
753.48	1094.90
753.81	1101.22
754.14	1097.01
754.47	1090.46
754.80	1091.16
755.13	1089.75
755.46	1087.41
755.79	1086.94
756.12	1092.80
756.45	1085.77
756.78	1079.22
757.11	1068.69
757.43	1066.35
757.76	1060.96
758.09	1060.03
758.42	1063.77
758.75	1060.03
759.08	1058.39
759.41	1071.03
759.74	1070.56
760.07	1069.16
760.39	1082.97
760.72	1085.31
761.05	1079.92
761.38	1086.48
761.71	1087.88
762.04	1086.48
762.36	1102.39
762.69	1094.67
763.02	1097.24
763.35	1099.12
763.68	1106.61
764.01	1095.37
764.33	1105.44
764.66	1099.58
764.99	1094.67
765.32	1088.82
765.65	1086.48
765.97	1081.56
766.30	1072.90
766.63	1075.48
766.96	1072.43
767.28	1064.71
767.61	1067.52
767.94	1078.05
768.27	1075.48
768.59	1072.67
768.92	1082.26
769.25	1078.99
769.58	1080.63
769.90	1083.20
770.23	1076.18
770.56	1083.90
770.89	1095.84
771.21	1095.14
771.54	1087.41
771.87	1101.92
772.19	1099.35
772.52	1090.69
772.85	1085.07
773.17	1091.16
773.50	1089.05
773.83	1077.11
774.15	1070.09
774.48	1070.33
774.81	1081.56
775.13	1083.67
775.46	1086.71
775.79	1098.88
776.11	1101.69
776.44	1087.18
776.77	1086.24
777.09	1078.99
777.42	1067.05
777.74	1067.99
778.07	1065.41
778.40	1062.14
778.72	1069.62
779.05	1077.82
779.37	1073.14
779.70	1080.16
780.03	1081.56
780.35	1089.75
780.68	1084.60
781.00	1087.88
781.33	1088.82
781.65	1082.26
781.98	1070.80
782.31	1067.75
782.63	1059.33
782.96	1052.30
783.28	1063.07
783.61	1069.62
783.93	1076.41
784.26	1078.28
784.58	1078.52
784.91	1071.26
785.23	1071.26
785.56	1063.07
785.88	1072.20
786.21	1073.14
786.53	1068.22
786.86	1068.45
787.18	1072.90
787.51	1072.43
787.83	1079.22
788.16	1083.90
788.48	1084.14
788.81	1087.65
789.13	1085.07
789.46	1092.09
789.78	1098.41
790.10	1086.94
790.43	1089.52
790.75	1093.97
791.08	1082.97
791.40	1075.94
791.73	1086.94
792.05	1087.65
792.37	1080.16
792.70	1073.37
793.02	1073.14
793.35	1074.31
793.67	1076.18
793.99	1081.33
794.32	1091.86
794.64	1096.78
794.96	1095.37
795.29	1091.63
795.61	1090.69
795.93	1095.84
796.26	1087.41
796.58	1085.77
796.91	1074.54
797.23	1065.88
797.55	1055.58
797.87	1069.16
798.20	1072.90
798.52	1085.07
798.84	1088.58
799.17	1103.09
799.49	1097.01
799.81	1097.71
800.14	1092.56
800.46	1097.71
800.78	1089.05
801.10	1078.99
801.43	1066.11
801.75	1070.80
802.07	1068.92
802.40	1063.07
802.72	1078.52
803.04	1085.31
803.36	1084.14
803.69	1069.39
804.01	1073.37
804.33	1059.09
804.65	1064.71
804.97	1053.01
805.30	1070.33
805.62	1075.94
805.94	1076.41
806.26	1081.56
806.58	1095.84
806.91	1086.71
807.23	1077.11
807.55	1084.60
807.87	1077.11
808.19	1065.41
808.52	1080.39
808.84	1091.63
809.16	1089.29
809.48	1087.88
809.80	1086.24
810.12	1070.80
810.44	1065.18
810.77	1067.99
811.09	1074.31
811.41	1087.65
811.73	1089.05
812.05	1092.09
812.37	1085.31
812.69	1080.63
813.01	1076.65
813.33	1082.50
813.66	1078.75
813.98	1083.20
814.30	1080.39
814.62	1083.43
814.94	1087.41
815.26	1085.31
815.58	1085.54
815.90	1086.24
816.22	1083.20
816.54	1075.94
816.86	1076.88
817.18	1070.80
817.50	1078.28
817.82	1067.99
818.14	1070.80
818.46	1068.22
818.78	1071.50
819.10	1060.73
819.42	1069.86
819.74	1062.84
820.06	1066.35
820.38	1075.24
820.70	1085.07
821.02	1085.77
821.34	1086.71
821.66	1088.58
821.98	1077.58
822.30	1065.65
822.62	1066.11
822.94	1074.31
823.26	1060.96
823.58	1060.50
823.90	1070.33
824.22	1074.77
824.54	1073.37
824.86	1079.69
825.18	1082.26
825.50	1085.07
825.81	1074.54
826.13	1073.14
826.45	1079.69
826.77	1081.09
827.09	1073.37
827.41	1080.16
827.73	1084.60
828.05	1082.73
828.36	1088.12
828.68	1089.75
829.00	1083.20
829.32	1079.22
829.64	1088.12
829.96	1077.35
830.28	1080.86
830.59	1078.05
830.91	1067.05
831.23	1065.65
831.55	1072.67
831.87	1061.67
832.19	1078.05
832.50	1091.63
832.82	1087.18
833.14	1085.07
833.46	1084.84
833.78	1074.31
834.09	1075.48
834.41	1072.43
834.73	1075.71
835.05	1087.88
835.36	1089.29
835.68	1087.88
836.00	1084.37
836.32	1075.71
836.63	1074.31
836.95	1081.09
837.27	1076.88
837.59	1073.60
837.90	1079.69
838.22	1071.73
838.54	1054.18
838.85	1049.73
839.17	1060.26
839.49	1067.75
839.80	1074.77
840.12	1086.24
840.44	1100.75
840.76	1104.26
841.07	1095.14
841.39	1095.14
841.71	1096.78
842.02	1087.88
842.34	1078.99
842.65	1082.03
842.97	1085.54
843.29	1076.65
843.60	1072.90
843.92	1070.33
844.24	1073.14
844.55	1064.01
844.87	1075.01
845.18	1079.92
845.50	1089.29
845.82	1088.35
846.13	1087.18
846.45	1085.07
846.76	1084.37
847.08	1081.09
847.40	1076.18
847.71	1080.16
848.03	1080.39
848.34	1081.33
848.66	1083.90
848.97	1092.56
849.29	1099.35
849.60	1100.29
849.92	1094.67
850.24	1097.95
850.55	1094.43
850.87	1087.88
851.18	1091.39
851.50	1101.22
851.81	1089.75
852.13	1092.09
852.44	1088.35
852.76	1079.46
853.07	1083.67
853.39	1086.01
853.70	1081.09
854.01	1081.56
854.33	1077.11
854.64	1076.88
854.96	1080.86
855.27	1084.14
855.59	1089.52
855.90	1093.97
856.22	1080.86
856.53	1081.33
856.84	1074.77
857.16	1073.14
857.47	1078.99
857.79	1079.46
858.10	1075.24
858.41	1079.22
858.73	1082.50
859.04	1073.84
859.36	1078.05
859.67	1078.99
859.98	1075.71
860.30	1075.94
860.61	1078.75
860.92	1083.90
861.24	1079.69
861.55	1074.54
861.87	1074.54
862.18	1078.05
862.49	1068.45
862.81	1077.11
863.12	1079.46
863.43	1071.26
863.74	1073.14
864.06	1079.69
864.37	1079.46
864.68	1075.94
865.00	1082.03
865.31	1082.97
865.62	1078.52
865.94	1072.20
866.25	1085.31
866.56	1084.84
866.87	1076.65
867.19	1075.24
867.50	1072.67
867.81	1065.18
868.12	1068.45
868.44	1071.03
868.75	1071.50
869.06	1077.11
869.37	1080.86
869.68	1078.28
870.00	1084.60
870.31	1090.92
870.62	1097.48
870.93	1101.46
871.24	1094.20
871.56	1088.82
871.87	1082.26
872.18	1069.86
872.49	1065.41
872.80	1071.26
873.12	1066.58
873.43	1067.28
873.74	1063.31
874.05	1059.79
874.36	1057.45
874.67	1067.28
874.98	1065.18
875.29	1069.86
875.61	1065.41
875.92	1071.73
876.23	1062.60
876.54	1066.82
876.85	1069.62
877.16	1083.43
877.47	1082.50
877.78	1083.67
878.09	1085.77
878.40	1093.73
878.72	1083.90
879.03	1079.69
879.34	1076.88
879.65	1073.14
879.96	1065.41
880.27	1071.03
880.58	1067.75
880.89	1074.31
881.20	1068.45
881.51	1069.39
881.82	1066.11
882.13	1074.77
882.44	1082.73
882.75	1099.82
883.06	1101.46
883.37	1107.31
883.68	1097.95
883.99	1083.20
884.30	1078.28
884.61	1081.09
884.92	1083.90
885.23	1094.20
885.54	1100.75
885.85	1104.03
886.16	1089.99
886.47	1078.05
886.78	1076.41
887.08	1073.60
887.39	1065.88
887.70	1074.77
888.01	1084.37
888.32	1080.39
888.63	1077.58
888.94	1077.58
889.25	1074.54
889.56	1075.24
889.87	1079.22
890.17	1082.26
890.48	1084.14
890.79	1090.46
891.10	1094.20
891.41	1086.94
891.72	1097.48
892.03	1094.67
892.34	1097.48
892.64	1090.22
892.95	1083.43
893.26	1078.28
893.57	1071.03
893.88	1065.18
894.18	1062.37
894.49	1082.03
894.80	1086.94
895.11	1096.07
895.42	1097.71
895.72	1100.75
896.03	1098.18
896.34	1087.65
896.65	1080.63
896.96	1082.73
897.26	1089.05
897.57	1081.33
897.88	1080.16
898.19	1086.71
898.49	1085.07
898.80	1074.77
899.11	1075.01
899.41	1071.97
899.72	1067.28
900.03	1066.82
900.34	1075.01
900.64	1085.54
900.95	1087.41
901.26	1091.16
901.56	1088.12
901.87	1079.92
902.18	1071.03
902.48	1080.39
902.79	1084.84
903.10	1082.26
903.40	1086.94
903.71	1091.86
904.02	1088.58
904.32	1089.52
904.63	1104.26
904.94	1100.29
905.24	1094.43
905.55	1093.97
905.85	1081.33
906.16	1070.56
906.47	1067.75
906.77	1071.50
907.08	1071.73
907.38	1073.60
907.69	1071.26
908.00	1069.16
908.30	1071.50
908.61	1074.54
908.91	1076.18
909.22	1079.22
909.52	1089.75
909.83	1091.63
910.14	1082.73
910.44	1084.60
910.75	1079.69
911.05	1075.71
911.36	1067.05
911.66	1071.73
911.97	1073.60
912.27	1081.56
912.58	1081.56
912.88	1086.24
913.19	1088.58
913.49	1101.46
913.80	1092.80
914.10	1093.50
914.41	1091.39
914.71	1076.41
915.01	1067.75
915.32	1072.43
915.62	1068.92
915.93	1073.37
916.23	1085.54
916.54	1075.48
916.84	1081.33
917.15	1093.03
917.45	1092.09
917.75	1095.84
918.06	1098.18
918.36	1095.37
918.67	1083.20
918.97	1070.33
919.27	1074.31
919.58	1079.22
919.88	1076.65
920.18	1088.82
920.49	1093.50
920.79	1089.52
921.10	1097.71
921.40	1101.46
921.70	1088.82
922.01	1091.39
922.31	1084.37
922.61	1073.37
922.92	1068.22
923.22	1076.65
923.52	1067.52
923.82	1078.52
924.13	1078.52
924.43	1063.54
924.73	1060.26
925.04	1064.24
925.34	1054.65
925.64	1046.69
925.94	1067.52
926.25	1062.84
926.55	1074.77
926.85	1074.07
927.15	1089.52
927.46	1080.86
927.76	1084.84
928.06	1083.90
928.36	1097.95
928.67	1091.63
928.97	1097.01
929.27	1098.65
929.57	1093.26
929.87	1089.05
930.18	1089.05
930.48	1084.60
930.78	1091.39
931.08	1096.31
931.38	1089.29
931.69	1079.22
931.99	1084.84
932.29	1078.52
932.59	1070.80
932.89	1068.92
933.19	1081.56
933.49	1075.94
933.80	1070.56
934.10	1066.11
934.40	1068.69
934.70	1061.67
935.00	1065.88
935.30	1062.84
935.60	1068.22
935.90	1075.48
936.20	1074.77
936.50	1071.50
936.81	1078.99
937.11	1079.92
937.41	1076.65
937.71	1089.99
938.01	1102.16
938.31	1106.84
938.61	1107.07
938.91	1108.24
939.21	1093.26
939.51	1087.18
939.81	1084.37
940.11	1083.20
940.41	1076.65
940.71	1083.67
941.01	1089.05
941.31	1080.39
941.61	1082.03
941.91	1082.50
942.21	1087.41
942.51	1073.84
942.81	1076.65
943.11	1075.48
943.41	1076.18
943.71	1066.58
944.01	1069.39
944.31	1080.63
944.61	1080.86
944.90	1086.01
945.20	1088.35
945.50	1087.41
945.80	1073.14
946.10	1087.18
946.40	1078.28
946.70	1081.33
947.00	1089.05
947.30	1096.31
947.60	1075.48
947.89	1082.73
948.19	1083.67
948.49	1067.28
948.79	1066.58
949.09	1078.05
949.39	1076.88
949.69	1075.01
949.98	1083.43
950.28	1080.16
950.58	1074.31
950.88	1070.33
951.18	1076.65
951.48	1082.97
951.77	1088.12
952.07	1086.48
952.37	1082.03
952.67	1082.97
952.97	1078.05
953.26	1083.43
953.56	1079.46
953.86	1081.09
954.16	1081.33
954.45	1088.82
954.75	1074.54
955.05	1083.20
955.35	1086.01
955.64	1078.52
955.94	1063.77
956.24	1069.39
956.54	1066.35
956.83	1070.56
957.13	1072.43
957.43	1074.77
957.72	1074.07
958.02	1071.26
958.32	1074.77
958.61	1062.14
958.91	1072.67
959.21	1075.48
959.50	1075.48
959.80	1070.56
960.10	1074.31
960.39	1068.45
960.69	1067.28
960.99	1082.03
961.28	1084.14
961.58	1086.71
961.87	1090.69
962.17	1090.46
962.47	1072.20
962.76	1073.60
963.06	1077.35
963.36	1068.22
963.65	1060.50
963.95	1072.90
964.24	1065.41
964.54	1067.05
964.83	1068.69
965.13	1071.03
965.42	1066.11
965.72	1072.20
966.02	1083.43
966.31	1086.24
966.61	1095.14
966.90	1093.73
967.20	1086.71
967.49	1079.46
967.79	1085.07
968.08	1074.54
968.38	1067.99
968.67	1070.80
968.97	1062.60
969.26	1058.62
969.56	1064.71
969.85	1074.07
970.15	1075.94
970.44	1084.60
970.74	1086.48
971.03	1093.97
971.32	1093.03
971.62	1097.01
971.91	1092.80
972.21	1088.82
972.50	1082.97
972.80	1087.88
973.09	1088.58
973.38	1084.14
973.68	1096.78
973.97	1086.71
974.27	1085.77
974.56	1080.63
974.85	1082.50
975.15	1078.52
975.44	1089.29
975.73	1085.31
976.03	1089.05
976.32	1094.43
976.61	1085.07
976.91	1079.22
977.20	1063.07
977.49	1049.03
977.79	1043.88
978.08	1048.33
978.37	1054.65
978.67	1073.37
978.96	1083.20
979.25	1076.65
979.55	1074.31
979.84	1068.45
980.13	1065.41
980.42	1060.73
980.72	1066.35
981.01	1066.58
981.30	1075.71
981.59	1077.58
981.89	1085.77
982.18	1084.14
982.47	1082.26
982.76	1083.20
983.06	1083.90
983.35	1080.86
983.64	1080.86
983.93	1082.26
984.22	1068.69
984.52	1065.65
984.81	1061.20
985.10	1066.82
985.39	1063.31
985.68	1072.90
985.97	1074.77
986.27	1082.73
986.56	1084.14
986.85	1082.50
987.14	1076.41
987.43	1056.52
987.72	1057.69
988.01	1049.26
988.31	1046.92
988.60	1050.20
988.89	1073.37
989.18	1066.58
989.47	1073.37
989.76	1084.84
990.05	1089.99
990.34	1080.63
990.63	1080.86
990.92	1081.56
991.21	1081.33
991.51	1076.18
991.80	1081.80
992.09	1083.43
992.38	1080.86
992.67	1073.60
992.96	1077.11
993.25	1081.09
993.54	1082.50
993.83	1076.18
994.12	1085.77
994.41	1082.73
994.70	1078.75
994.99	1071.73
995.28	1081.56
995.57	1089.29
995.86	1092.33
996.15	1096.78
996.44	1101.92
996.73	1103.33
997.02	1091.86
997.31	1093.03
997.59	1094.67
997.88	1092.80
998.17	1082.97
998.46	1087.18
998.75	1076.18
999.04	1067.05
999.33	1071.97
999.62	1079.69
999.91	1075.94
1000.20	1076.65
1000.49	1075.94
1000.77	1072.67
1001.06	1070.33
1001.35	1076.88
1001.64	1084.14
1001.93	1084.14
1002.22	1085.54
1002.51	1088.82
1002.79	1082.03
1003.08	1077.82
1003.37	1075.01
1003.66	1068.45
1003.95	1066.11
1004.23	1075.01
1004.52	1070.56
1004.81	1079.46
1005.10	1090.22
1005.39	1086.71
1005.67	1083.43
1005.96	1086.24
1006.25	1084.14
1006.54	1077.35
1006.83	1091.39
1007.11	1076.18
1007.40	1077.58
1007.69	1081.56
1007.97	1088.35
1008.26	1065.18
1008.55	1070.56
1008.84	1072.43
1009.12	1070.09
1009.41	1071.03
1009.70	1078.28
1009.98	1090.46
1010.27	1098.41
1010.56	1092.80
1010.85	1091.63
1011.13	1092.56
1011.42	1081.09
1011.71	1075.71
1011.99	1089.29
1012.28	1089.29
1012.56	1093.50
1012.85	1100.52
1013.14	1095.37
1013.42	1083.43
1013.71	1082.26
1014.00	1078.52
1014.28	1078.05
1014.57	1074.77
1014.85	1078.75
1015.14	1080.16
1015.43	1086.71
1015.71	1082.26
1016.00	1085.31
1016.28	1076.41
1016.57	1073.14
1016.85	1057.92
1017.14	1056.52
1017.43	1061.20
1017.71	1071.03
1018.00	1072.90
1018.28	1079.69
1018.57	1085.31
1018.85	1080.39
1019.14	1073.14
1019.42	1067.75
1019.71	1081.09
1019.99	1074.07
1020.28	1077.35
1020.56	1072.43
1020.85	1074.07
1021.13	1071.97
1021.42	1071.26
1021.70	1073.14
1021.99	1080.63
1022.27	1075.24
1022.55	1071.97
1022.84	1053.24
>>>>>End Processed Spectral Data<<<<<
