SpectraSuite Data File
++++++++++++++++++++++++++++++++++++
Date: Mon Aug 26 10:25:51 PDT 2019
User: corrico
Dark Spectrum Present: No
Reference Spectrum Present: No
Number of Sampled Component Spectra: 1
Spectrometers: USB2+H06089
Integration Time (usec): 10000 (USB2+H06089)
Spectra Averaged: 2 (USB2+H06089)
Boxcar Smoothing: 2 (USB2+H06089)
Correct for Electrical Dark: No (USB2+H06089)
Strobe/Lamp Enabled: No (USB2+H06089)
Correct for Detector Non-linearity: No (USB2+H06089)
Correct for Stray Light: No (USB2+H06089)
Number of Pixels in Processed Spectrum: 2048
>>>>>Begin Processed Spectral Data<<<<<
339.70	1035.69
340.07	1035.69
340.45	996.83
340.82	982.09
341.19	953.30
341.57	930.60
341.94	928.49
342.31	924.04
342.69	913.28
343.06	913.04
343.43	900.40
343.81	895.72
344.18	888.70
344.55	887.77
344.93	904.62
345.30	910.47
345.67	915.15
346.04	926.85
346.42	936.68
346.79	932.70
347.16	942.53
347.54	947.21
347.91	953.53
348.28	965.94
348.65	978.58
349.03	1001.52
349.40	1020.24
349.77	1027.03
350.14	1033.35
350.52	1031.47
350.89	1037.09
351.26	1039.43
351.63	1047.16
352.01	1040.13
352.38	1057.22
352.75	1059.33
353.12	1058.16
353.50	1066.11
353.87	1081.09
354.24	1078.05
354.61	1071.26
354.98	1075.01
355.36	1076.88
355.73	1070.09
356.10	1077.11
356.47	1084.60
356.84	1098.65
357.22	1094.43
357.59	1100.29
357.96	1098.41
358.33	1103.09
358.70	1093.26
359.08	1101.22
359.45	1101.69
359.82	1097.24
360.19	1085.77
360.56	1087.65
360.94	1080.63
361.31	1085.54
361.68	1089.05
362.05	1077.35
362.42	1065.41
362.79	1062.37
363.16	1056.52
363.54	1045.99
363.91	1072.43
364.28	1074.31
364.65	1075.71
365.02	1077.35
365.39	1083.90
365.76	1072.20
366.14	1078.75
366.51	1076.41
366.88	1072.67
367.25	1064.01
367.62	1063.07
367.99	1062.84
368.36	1073.14
368.73	1077.58
369.10	1078.28
369.48	1077.82
369.85	1079.22
370.22	1064.94
370.59	1064.24
370.96	1077.35
371.33	1080.16
371.70	1071.26
372.07	1067.99
372.44	1056.28
372.81	1051.60
373.18	1048.79
373.55	1050.67
373.93	1057.22
374.30	1067.99
374.67	1063.77
375.04	1054.65
375.41	1062.84
375.78	1069.62
376.15	1069.39
376.52	1078.28
376.89	1090.92
377.26	1090.22
377.63	1087.41
378.00	1083.90
378.37	1072.90
378.74	1071.03
379.11	1072.20
379.48	1076.41
379.85	1078.28
380.22	1080.86
380.59	1079.22
380.96	1076.88
381.33	1075.48
381.70	1075.24
382.07	1075.48
382.44	1079.22
382.81	1067.75
383.18	1068.45
383.55	1063.31
383.92	1063.07
384.29	1056.05
384.66	1067.99
385.03	1071.26
385.40	1078.28
385.77	1080.39
386.14	1079.46
386.51	1078.99
386.88	1068.22
387.25	1063.77
387.62	1054.18
387.99	1061.90
388.36	1051.84
388.73	1048.79
389.10	1059.33
389.46	1076.88
389.83	1067.52
390.20	1072.90
390.57	1077.35
390.94	1069.62
391.31	1058.39
391.68	1067.05
392.05	1063.77
392.42	1062.37
392.79	1063.07
393.16	1067.05
393.53	1068.92
393.89	1067.05
394.26	1068.22
394.63	1063.77
395.00	1068.22
395.37	1062.84
395.74	1072.43
396.11	1067.05
396.48	1078.52
396.84	1065.65
397.21	1078.52
397.58	1077.82
397.95	1076.88
398.32	1066.82
398.69	1060.26
399.06	1044.11
399.42	1038.50
399.79	1041.77
400.16	1045.99
400.53	1054.88
400.90	1061.43
401.27	1063.77
401.64	1061.67
402.00	1054.88
402.37	1062.37
402.74	1062.60
403.11	1058.86
403.48	1055.82
403.84	1066.82
404.21	1064.94
404.58	1063.77
404.95	1069.86
405.32	1089.99
405.68	1087.88
406.05	1082.50
406.42	1078.28
406.79	1078.05
407.16	1069.62
407.52	1070.33
407.89	1083.67
408.26	1089.29
408.63	1092.80
408.99	1091.39
409.36	1086.94
409.73	1079.22
410.10	1088.35
410.47	1090.22
410.83	1096.54
411.20	1100.52
411.57	1094.90
411.94	1084.60
412.30	1079.22
412.67	1077.11
413.04	1079.69
413.40	1088.58
413.77	1082.73
414.14	1082.97
414.51	1076.18
414.87	1063.77
415.24	1060.96
415.61	1067.52
415.97	1067.52
416.34	1067.75
416.71	1069.62
417.08	1065.88
417.44	1059.33
417.81	1074.07
418.18	1077.35
418.54	1082.03
418.91	1077.11
419.28	1078.75
419.64	1059.33
420.01	1061.43
420.38	1058.62
420.74	1057.22
421.11	1057.92
421.48	1070.09
421.84	1064.01
422.21	1066.35
422.58	1070.33
422.94	1067.05
423.31	1061.90
423.68	1065.41
424.04	1059.33
424.41	1062.37
424.77	1073.84
425.14	1071.73
425.51	1070.09
425.87	1077.35
426.24	1084.14
426.61	1079.92
426.97	1082.26
427.34	1076.41
427.70	1070.80
428.07	1058.62
428.44	1058.86
428.80	1059.09
429.17	1062.37
429.53	1060.03
429.90	1070.33
430.27	1059.79
430.63	1050.90
431.00	1052.30
431.36	1055.82
431.73	1044.35
432.09	1058.62
432.46	1068.22
432.83	1071.73
433.19	1078.28
433.56	1087.88
433.92	1084.84
434.29	1082.26
434.65	1083.43
435.02	1082.97
435.38	1084.37
435.75	1082.97
436.11	1079.46
436.48	1087.41
436.84	1080.63
437.21	1072.20
437.57	1065.65
437.94	1063.54
438.30	1056.28
438.67	1056.75
439.03	1069.16
439.40	1070.09
439.76	1076.65
440.13	1077.35
440.49	1089.05
440.86	1084.37
441.22	1094.67
441.59	1102.86
441.95	1102.39
442.32	1088.35
442.68	1088.58
443.05	1081.56
443.41	1074.07
443.78	1071.50
444.14	1081.09
444.51	1078.52
444.87	1079.92
445.24	1080.16
445.60	1082.73
445.96	1074.77
446.33	1075.48
446.69	1077.11
447.06	1066.35
447.42	1066.35
447.79	1073.60
448.15	1073.84
448.51	1075.24
448.88	1083.20
449.24	1082.26
449.61	1085.54
449.97	1079.22
450.33	1078.05
450.70	1087.18
451.06	1084.60
451.43	1072.20
451.79	1074.77
452.15	1063.77
452.52	1050.20
452.88	1049.03
453.24	1054.88
453.61	1058.39
453.97	1066.11
454.34	1067.05
454.70	1073.14
455.06	1070.33
455.43	1067.05
455.79	1071.26
456.15	1074.77
456.52	1073.37
456.88	1076.65
457.24	1079.92
457.61	1084.37
457.97	1088.35
458.33	1082.26
458.70	1084.14
459.06	1089.75
459.42	1081.80
459.79	1088.35
460.15	1097.01
460.51	1098.65
460.88	1089.99
461.24	1094.90
461.60	1086.24
461.96	1078.28
462.33	1081.09
462.69	1084.37
463.05	1088.12
463.42	1088.12
463.78	1092.80
464.14	1091.63
464.50	1095.37
464.87	1092.80
465.23	1100.05
465.59	1107.54
465.95	1111.52
466.32	1103.09
466.68	1096.07
467.04	1094.67
467.40	1081.80
467.77	1077.35
468.13	1085.77
468.49	1085.31
468.85	1074.07
469.22	1085.07
469.58	1086.71
469.94	1084.37
470.30	1081.56
470.66	1096.07
471.03	1088.58
471.39	1084.37
471.75	1081.56
472.11	1084.14
472.47	1075.24
472.84	1073.84
473.20	1071.50
473.56	1079.69
473.92	1081.80
474.28	1089.52
474.65	1088.58
475.01	1087.65
475.37	1081.33
475.73	1077.58
476.09	1075.48
476.45	1081.33
476.81	1086.48
477.18	1082.50
477.54	1091.39
477.90	1090.69
478.26	1089.29
478.62	1086.24
478.98	1092.33
479.34	1093.03
479.71	1079.22
480.07	1082.50
480.43	1086.48
480.79	1082.26
481.15	1078.75
481.51	1091.63
481.87	1082.97
482.23	1072.90
482.59	1077.82
482.96	1073.84
483.32	1054.88
483.68	1055.58
484.04	1060.96
484.40	1054.41
484.76	1062.84
485.12	1080.86
485.48	1080.39
485.84	1081.80
486.20	1084.37
486.56	1082.97
486.92	1078.05
487.28	1089.05
487.64	1089.05
488.00	1093.50
488.37	1090.92
488.73	1094.67
489.09	1096.31
489.45	1091.86
489.81	1093.97
490.17	1093.03
490.53	1098.18
490.89	1089.52
491.25	1091.86
491.61	1101.22
491.97	1094.90
492.33	1090.69
492.69	1089.29
493.05	1090.22
493.41	1077.58
493.77	1086.71
494.13	1081.33
494.49	1083.20
494.85	1076.88
495.21	1069.16
495.57	1068.45
495.93	1073.14
496.29	1071.97
496.64	1082.26
497.00	1094.90
497.36	1092.33
497.72	1097.71
498.08	1094.20
498.44	1097.71
498.80	1093.73
499.16	1087.18
499.52	1079.22
499.88	1085.31
500.24	1076.41
500.60	1070.80
500.96	1072.43
501.32	1078.28
501.68	1069.39
502.03	1068.45
502.39	1072.67
502.75	1075.48
503.11	1069.39
503.47	1076.18
503.83	1082.50
504.19	1085.07
504.55	1090.69
504.91	1096.07
505.26	1102.16
505.62	1097.71
505.98	1082.03
506.34	1081.09
506.70	1076.18
507.06	1080.16
507.42	1080.16
507.78	1092.09
508.13	1093.97
508.49	1104.03
508.85	1086.94
509.21	1080.86
509.57	1078.52
509.93	1070.80
510.28	1067.28
510.64	1080.39
511.00	1092.33
511.36	1100.52
511.72	1108.71
512.07	1104.97
512.43	1108.01
512.79	1103.56
513.15	1096.07
513.51	1092.09
513.86	1096.78
514.22	1096.07
514.58	1096.78
514.94	1100.75
515.30	1098.18
515.65	1086.24
516.01	1076.88
516.37	1083.67
516.73	1080.86
517.08	1083.67
517.44	1090.92
517.80	1093.97
518.16	1090.22
518.51	1088.82
518.87	1089.75
519.23	1081.09
519.59	1081.56
519.94	1080.16
520.30	1090.22
520.66	1087.41
521.01	1096.31
521.37	1097.01
521.73	1093.03
522.09	1086.71
522.44	1097.71
522.80	1102.16
523.16	1100.29
523.51	1106.61
523.87	1111.99
524.23	1109.18
524.58	1107.07
524.94	1107.54
525.30	1104.73
525.65	1101.69
526.01	1093.50
526.37	1088.58
526.72	1095.60
527.08	1094.90
527.44	1094.90
527.79	1098.88
528.15	1100.75
528.51	1093.97
528.86	1093.50
529.22	1089.75
529.58	1074.77
529.93	1069.62
530.29	1064.24
530.65	1066.11
531.00	1071.26
531.36	1081.33
531.71	1088.82
532.07	1092.80
532.43	1085.54
532.78	1082.26
533.14	1088.58
533.49	1092.56
533.85	1095.14
534.21	1112.22
534.56	1111.99
534.92	1111.29
535.27	1098.18
535.63	1097.71
535.98	1086.48
536.34	1089.29
536.69	1090.22
537.05	1093.73
537.41	1082.03
537.76	1074.31
538.12	1062.84
538.47	1049.73
538.83	1053.94
539.18	1063.07
539.54	1078.05
539.89	1084.84
540.25	1092.33
540.60	1094.67
540.96	1089.05
541.31	1084.84
541.67	1085.31
542.02	1079.46
542.38	1081.09
542.73	1094.67
543.09	1086.94
543.44	1092.09
543.80	1107.31
544.15	1099.58
544.51	1086.71
544.86	1083.43
545.22	1081.80
545.57	1077.11
545.93	1077.58
546.28	1089.75
546.64	1096.54
546.99	1096.78
547.35	1089.05
547.70	1097.95
548.05	1100.75
548.41	1097.95
548.76	1089.99
549.12	1095.60
549.47	1087.18
549.83	1067.52
550.18	1066.11
550.53	1076.65
550.89	1075.24
551.24	1074.31
551.60	1075.48
551.95	1072.43
552.30	1067.28
552.66	1070.56
553.01	1074.31
553.37	1086.71
553.72	1088.12
554.07	1092.56
554.43	1087.41
554.78	1085.54
555.13	1083.90
555.49	1092.56
555.84	1087.65
556.19	1089.75
556.55	1083.90
556.90	1082.26
557.26	1084.37
557.61	1086.94
557.96	1095.37
558.32	1097.01
558.67	1090.22
559.02	1078.05
559.37	1071.26
559.73	1068.69
560.08	1075.24
560.43	1088.35
560.79	1098.88
561.14	1098.41
561.49	1090.92
561.85	1089.75
562.20	1076.41
562.55	1076.41
562.90	1086.24
563.26	1085.31
563.61	1074.77
563.96	1084.60
564.32	1085.77
564.67	1076.41
565.02	1079.69
565.37	1086.71
565.73	1069.39
566.08	1057.45
566.43	1066.35
566.78	1066.58
567.14	1065.65
567.49	1079.69
567.84	1086.01
568.19	1080.86
568.54	1070.80
568.90	1070.56
569.25	1062.14
569.60	1060.96
569.95	1060.73
570.31	1079.22
570.66	1082.26
571.01	1093.26
571.36	1105.90
571.71	1101.22
572.06	1103.33
572.42	1097.95
572.77	1096.07
573.12	1094.43
573.47	1102.86
573.82	1086.24
574.18	1097.01
574.53	1102.86
574.88	1095.37
575.23	1091.39
575.58	1090.22
575.93	1083.20
576.28	1078.05
576.64	1079.69
576.99	1084.60
577.34	1094.67
577.69	1100.99
578.04	1105.90
578.39	1112.22
578.74	1107.07
579.09	1108.95
579.44	1106.14
579.80	1093.97
580.15	1089.75
580.50	1091.63
580.85	1084.84
581.20	1080.63
581.55	1090.46
581.90	1077.82
582.25	1064.94
582.60	1067.28
582.95	1068.69
583.30	1070.56
583.65	1073.84
584.00	1088.58
584.35	1088.35
584.71	1102.16
585.06	1093.26
585.41	1099.35
585.76	1096.07
586.11	1098.18
586.46	1077.11
586.81	1083.43
587.16	1073.14
587.51	1072.20
587.86	1071.03
588.21	1081.33
588.56	1070.56
588.91	1082.73
589.26	1073.60
589.61	1068.92
589.96	1060.73
590.31	1077.11
590.66	1074.31
591.01	1087.88
591.36	1096.07
591.71	1101.92
592.06	1087.18
592.41	1092.56
592.76	1086.71
593.10	1085.31
593.45	1075.48
593.80	1079.22
594.15	1073.14
594.50	1071.97
594.85	1061.43
595.20	1069.39
595.55	1078.28
595.90	1082.50
596.25	1078.05
596.60	1076.88
596.95	1068.92
597.30	1055.58
597.64	1095.60
597.99	1106.14
598.34	1116.67
598.69	1120.65
599.04	1129.31
599.39	1083.67
599.74	1080.39
600.09	1080.86
600.44	1088.12
600.78	1087.65
601.13	1093.26
601.48	1098.18
601.83	1092.09
602.18	1090.46
602.53	1088.58
602.88	1081.09
603.22	1082.03
603.57	1090.22
603.92	1089.99
604.27	1092.56
604.62	1097.24
604.97	1087.18
605.31	1079.92
605.66	1066.11
606.01	1066.35
606.36	1067.28
606.71	1076.65
607.05	1079.46
607.40	1095.37
607.75	1099.82
608.10	1104.73
608.44	1096.78
608.79	1094.90
609.14	1090.46
609.49	1088.82
609.84	1079.69
610.18	1078.05
610.53	1076.18
610.88	1088.12
611.23	1077.58
611.57	1085.07
611.92	1089.75
612.27	1093.26
612.62	1080.39
612.96	1078.52
613.31	1082.03
613.66	1080.63
614.00	1073.84
614.35	1076.18
614.70	1090.92
615.05	1084.37
615.39	1077.11
615.74	1085.31
616.09	1081.80
616.43	1076.41
616.78	1066.35
617.13	1073.84
617.47	1063.54
617.82	1065.65
618.17	1054.41
618.51	1060.50
618.86	1057.69
619.21	1062.60
619.55	1059.09
619.90	1063.07
620.25	1064.01
620.59	1068.69
620.94	1065.41
621.29	1070.09
621.63	1083.43
621.98	1085.31
622.32	1080.86
622.67	1085.31
623.02	1086.24
623.36	1078.52
623.71	1075.94
624.05	1082.26
624.40	1085.54
624.75	1090.69
625.09	1079.92
625.44	1075.01
625.78	1073.60
626.13	1071.03
626.48	1065.18
626.82	1070.80
627.17	1085.31
627.51	1090.46
627.86	1090.22
628.20	1092.33
628.55	1099.82
628.89	1088.35
629.24	1081.56
629.58	1093.73
629.93	1086.01
630.28	1083.20
630.62	1088.58
630.97	1090.46
631.31	1071.03
631.66	1074.54
632.00	1077.35
632.35	1076.65
632.69	1073.84
633.04	1088.35
633.38	1082.73
633.73	1074.54
634.07	1077.11
634.42	1075.48
634.76	1069.62
635.11	1073.84
635.45	1075.94
635.79	1067.05
636.14	1076.65
636.48	1072.20
636.83	1079.92
637.17	1086.24
637.52	1093.73
637.86	1089.75
638.21	1094.20
638.55	1087.88
638.89	1083.67
639.24	1077.11
639.58	1075.48
639.93	1072.67
640.27	1075.94
640.61	1081.09
640.96	1087.88
641.30	1095.60
641.65	1104.26
641.99	1099.35
642.33	1092.33
642.68	1090.69
643.02	1088.58
643.37	1090.69
643.71	1091.63
644.05	1091.86
644.40	1095.84
644.74	1088.12
645.08	1077.82
645.43	1074.07
645.77	1077.35
646.11	1076.65
646.46	1085.07
646.80	1090.22
647.14	1094.90
647.49	1107.31
647.83	1109.18
648.17	1098.18
648.52	1097.01
648.86	1101.92
649.20	1092.56
649.55	1087.88
649.89	1087.41
650.23	1073.37
650.57	1069.62
650.92	1061.67
651.26	1061.43
651.60	1066.82
651.95	1088.82
652.29	1086.94
652.63	1089.75
652.97	1094.20
653.32	1087.88
653.66	1075.94
654.00	1088.35
654.34	1087.88
654.69	1090.92
655.03	1097.01
655.37	1104.03
655.71	1091.63
656.05	1092.33
656.40	1081.09
656.74	1084.84
657.08	1082.03
657.42	1085.54
657.76	1077.35
658.11	1080.39
658.45	1074.77
658.79	1059.79
659.13	1062.37
659.47	1075.94
659.82	1074.31
660.16	1078.75
660.50	1086.24
660.84	1081.33
661.18	1086.71
661.52	1082.97
661.87	1079.46
662.21	1087.41
662.55	1087.41
662.89	1079.22
663.23	1084.14
663.57	1089.29
663.91	1089.99
664.25	1097.71
664.60	1096.54
664.94	1091.63
665.28	1081.33
665.62	1079.22
665.96	1077.58
666.30	1070.56
666.64	1070.56
666.98	1071.03
667.32	1061.90
667.66	1064.01
668.01	1071.26
668.35	1067.99
668.69	1075.71
669.03	1070.80
669.37	1067.99
669.71	1061.43
670.05	1067.99
670.39	1062.37
670.73	1075.01
671.07	1067.05
671.41	1070.09
671.75	1069.86
672.09	1072.67
672.43	1071.73
672.77	1085.07
673.11	1086.48
673.45	1089.05
673.79	1084.84
674.13	1082.26
674.47	1079.92
674.81	1077.82
675.15	1074.07
675.49	1075.94
675.83	1081.56
676.17	1067.28
676.51	1071.50
676.85	1073.84
677.19	1076.41
677.53	1066.82
677.87	1079.22
678.21	1083.67
678.55	1091.16
678.89	1093.03
679.23	1100.29
679.57	1090.92
679.90	1090.69
680.24	1077.58
680.58	1075.01
680.92	1065.88
681.26	1074.77
681.60	1071.97
681.94	1077.82
682.28	1079.69
682.62	1091.86
682.96	1075.48
683.29	1074.31
683.63	1069.39
683.97	1069.62
684.31	1076.41
684.65	1084.37
684.99	1081.56
685.33	1081.80
685.67	1079.46
686.00	1064.24
686.34	1071.03
686.68	1071.73
687.02	1071.50
687.36	1066.11
687.70	1071.97
688.03	1068.69
688.37	1064.01
688.71	1071.50
689.05	1078.75
689.39	1087.88
689.72	1084.14
690.06	1097.95
690.40	1096.07
690.74	1101.22
691.08	1086.94
691.41	1088.35
691.75	1086.01
692.09	1088.58
692.43	1085.77
692.76	1090.22
693.10	1096.54
693.44	1094.90
693.78	1091.16
694.11	1080.63
694.45	1080.39
694.79	1072.43
695.13	1074.77
695.46	1071.50
695.80	1087.41
696.14	1098.18
696.48	1100.52
696.81	1093.50
697.15	1087.65
697.49	1077.82
697.82	1068.92
698.16	1076.65
698.50	1077.35
698.83	1081.56
699.17	1089.52
699.51	1097.01
699.84	1095.37
700.18	1093.50
700.52	1101.46
700.85	1089.52
701.19	1084.37
701.53	1071.03
701.86	1081.09
702.20	1077.11
702.54	1074.54
702.87	1073.84
703.21	1085.77
703.55	1077.11
703.88	1081.33
704.22	1084.84
704.55	1084.84
704.89	1084.60
705.23	1082.50
705.56	1088.12
705.90	1083.67
706.23	1072.43
706.57	1075.01
706.91	1081.56
707.24	1064.01
707.58	1071.50
707.91	1083.43
708.25	1073.37
708.58	1071.73
708.92	1075.48
709.26	1074.07
709.59	1073.37
709.93	1073.84
710.26	1078.52
710.60	1080.39
710.93	1076.18
711.27	1069.39
711.60	1074.07
711.94	1072.20
712.27	1078.99
712.61	1083.43
712.94	1091.16
713.28	1089.75
713.61	1089.05
713.95	1093.73
714.28	1103.09
714.62	1104.97
714.95	1108.71
715.29	1107.31
715.62	1094.67
715.96	1085.31
716.29	1077.82
716.63	1070.33
716.96	1055.58
717.29	1060.96
717.63	1065.88
717.96	1070.33
718.30	1071.73
718.63	1079.22
718.97	1078.99
719.30	1078.05
719.63	1074.31
719.97	1078.28
720.30	1085.07
720.64	1082.50
720.97	1086.24
721.30	1088.12
721.64	1085.77
721.97	1086.24
722.31	1088.35
722.64	1080.39
722.97	1092.33
723.31	1094.43
723.64	1101.22
723.97	1102.16
724.31	1106.84
724.64	1094.20
724.98	1086.71
725.31	1074.31
725.64	1087.41
725.98	1086.24
726.31	1085.54
726.64	1092.33
726.97	1097.95
727.31	1085.07
727.64	1082.50
727.97	1086.48
728.31	1078.28
728.64	1068.22
728.97	1067.05
729.31	1069.62
729.64	1063.31
729.97	1077.35
730.30	1088.58
730.64	1083.67
730.97	1083.20
731.30	1082.73
731.63	1083.20
731.97	1082.26
732.30	1092.56
732.63	1081.09
732.96	1093.03
733.30	1091.86
733.63	1081.09
733.96	1065.65
734.29	1081.56
734.63	1073.60
734.96	1076.65
735.29	1079.69
735.62	1092.09
735.95	1080.16
736.29	1075.94
736.62	1058.16
736.95	1061.90
737.28	1057.45
737.61	1066.11
737.94	1069.62
738.28	1082.26
738.61	1077.58
738.94	1084.84
739.27	1084.84
739.60	1087.18
739.93	1090.46
740.27	1092.56
740.60	1086.01
740.93	1085.77
741.26	1081.56
741.59	1071.50
741.92	1074.54
742.25	1080.39
742.58	1073.60
742.91	1068.92
743.25	1071.26
743.58	1070.80
743.91	1071.97
744.24	1069.62
744.57	1079.46
744.90	1086.71
745.23	1092.56
745.56	1085.31
745.89	1097.01
746.22	1108.71
746.55	1109.88
746.88	1106.84
747.21	1104.03
747.54	1102.16
747.87	1088.58
748.20	1074.31
748.53	1078.52
748.87	1074.07
749.20	1077.82
749.53	1080.86
749.86	1093.50
750.19	1098.88
750.52	1114.80
750.85	1111.29
751.18	1103.33
751.51	1098.88
751.84	1082.50
752.16	1078.05
752.49	1071.03
752.82	1069.16
753.15	1065.18
753.48	1073.14
753.81	1073.60
754.14	1072.43
754.47	1074.07
754.80	1073.37
755.13	1074.31
755.46	1069.16
755.79	1069.39
756.12	1082.97
756.45	1090.22
756.78	1089.99
757.11	1091.39
757.43	1096.31
757.76	1083.90
758.09	1085.07
758.42	1077.82
758.75	1087.18
759.08	1085.07
759.41	1079.92
759.74	1078.99
760.07	1075.94
760.39	1066.35
760.72	1067.28
761.05	1072.43
761.38	1058.86
761.71	1051.13
762.04	1055.11
762.36	1051.37
762.69	1058.62
763.02	1062.84
763.35	1074.07
763.68	1067.28
764.01	1080.16
764.33	1071.03
764.66	1079.92
764.99	1090.92
765.32	1101.69
765.65	1095.60
765.97	1096.78
766.30	1093.73
766.63	1089.99
766.96	1083.20
767.28	1082.50
767.61	1095.14
767.94	1080.86
768.27	1078.52
768.59	1072.90
768.92	1063.77
769.25	1054.18
769.58	1067.75
769.90	1062.14
770.23	1065.88
770.56	1069.62
770.89	1070.33
771.21	1071.03
771.54	1074.77
771.87	1078.75
772.19	1084.14
772.52	1078.75
772.85	1074.31
773.17	1077.82
773.50	1075.71
773.83	1077.82
774.15	1082.97
774.48	1085.77
774.81	1092.09
775.13	1085.54
775.46	1079.69
775.79	1086.48
776.11	1081.80
776.44	1071.26
776.77	1064.71
777.09	1064.01
777.42	1054.88
777.74	1060.73
778.07	1054.18
778.40	1065.18
778.72	1069.86
779.05	1070.56
779.37	1072.43
779.70	1084.14
780.03	1087.88
780.35	1089.29
780.68	1091.16
781.00	1087.65
781.33	1088.82
781.65	1095.37
781.98	1101.46
782.31	1093.50
782.63	1093.03
782.96	1082.26
783.28	1073.37
783.61	1061.43
783.93	1072.20
784.26	1068.92
784.58	1064.48
784.91	1063.07
785.23	1067.75
785.56	1060.03
785.88	1068.22
786.21	1078.99
786.53	1075.94
786.86	1072.20
787.18	1082.03
787.51	1084.14
787.83	1087.41
788.16	1094.67
788.48	1100.05
788.81	1092.09
789.13	1086.24
789.46	1080.39
789.78	1067.28
790.10	1070.09
790.43	1074.77
790.75	1072.67
791.08	1071.26
791.40	1088.82
791.73	1092.80
792.05	1088.82
792.37	1095.84
792.70	1103.33
793.02	1097.71
793.35	1082.73
793.67	1087.41
793.99	1082.50
794.32	1081.09
794.64	1073.60
794.96	1079.69
795.29	1088.12
795.61	1090.69
795.93	1089.52
796.26	1100.75
796.58	1099.35
796.91	1088.35
797.23	1093.73
797.55	1102.39
797.87	1102.16
798.20	1104.26
798.52	1114.80
798.84	1106.14
799.17	1096.78
799.49	1093.26
799.81	1086.71
800.14	1087.88
800.46	1093.97
800.78	1093.50
801.10	1088.35
801.43	1099.35
801.75	1092.33
802.07	1079.69
802.40	1085.31
802.72	1092.80
803.04	1081.56
803.36	1072.67
803.69	1077.11
804.01	1070.80
804.33	1065.18
804.65	1069.16
804.97	1067.52
805.30	1078.05
805.62	1075.94
805.94	1078.28
806.26	1082.97
806.58	1087.65
806.91	1078.05
807.23	1075.48
807.55	1086.24
807.87	1076.18
808.19	1071.73
808.52	1075.48
808.84	1074.54
809.16	1059.33
809.48	1064.94
809.80	1083.43
810.12	1084.60
810.44	1095.84
810.77	1105.44
811.09	1109.41
811.41	1094.90
811.73	1095.37
812.05	1084.14
812.37	1077.11
812.69	1067.05
813.01	1075.01
813.33	1070.56
813.66	1071.26
813.98	1071.50
814.30	1080.63
814.62	1068.22
814.94	1074.77
815.26	1078.75
815.58	1076.18
815.90	1071.03
816.22	1077.35
816.54	1076.18
816.86	1076.88
817.18	1088.12
817.50	1089.99
817.82	1090.92
818.14	1083.43
818.46	1086.01
818.78	1072.67
819.10	1075.94
819.42	1082.26
819.74	1083.90
820.06	1069.86
820.38	1068.22
820.70	1062.37
821.02	1056.05
821.34	1056.52
821.66	1067.75
821.98	1067.28
822.30	1071.97
822.62	1067.52
822.94	1074.31
823.26	1078.52
823.58	1085.31
823.90	1083.43
824.22	1087.88
824.54	1080.63
824.86	1078.28
825.18	1069.39
825.50	1072.20
825.81	1063.31
826.13	1065.88
826.45	1057.45
826.77	1061.90
827.09	1060.96
827.41	1068.92
827.73	1064.94
828.05	1077.35
828.36	1090.22
828.68	1088.35
829.00	1088.82
829.32	1093.03
829.64	1086.94
829.96	1075.94
830.28	1076.18
830.59	1076.65
830.91	1075.01
831.23	1072.43
831.55	1075.71
831.87	1075.01
832.19	1071.97
832.50	1065.41
832.82	1054.65
833.14	1053.94
833.46	1048.79
833.78	1059.09
834.09	1066.58
834.41	1081.80
834.73	1087.88
835.05	1096.54
835.36	1089.05
835.68	1085.54
836.00	1086.94
836.32	1071.73
836.63	1072.43
836.95	1066.11
837.27	1072.43
837.59	1070.33
837.90	1074.77
838.22	1065.18
838.54	1078.28
838.85	1072.90
839.17	1070.33
839.49	1069.86
839.80	1077.35
840.12	1064.71
840.44	1067.99
840.76	1066.11
841.07	1077.58
841.39	1074.07
841.71	1075.71
842.02	1077.82
842.34	1079.46
842.65	1073.60
842.97	1071.73
843.29	1087.88
843.60	1086.94
843.92	1092.33
844.24	1099.12
844.55	1103.33
844.87	1089.75
845.18	1078.75
845.50	1068.92
845.82	1055.58
846.13	1056.75
846.45	1058.39
846.76	1067.05
847.08	1074.07
847.40	1080.16
847.71	1071.03
848.03	1069.16
848.34	1074.07
848.66	1078.52
848.97	1076.88
849.29	1078.28
849.60	1080.86
849.92	1074.07
850.24	1071.73
850.55	1077.11
850.87	1083.43
851.18	1082.50
851.50	1089.99
851.81	1082.03
852.13	1073.84
852.44	1070.33
852.76	1077.58
853.07	1072.20
853.39	1078.52
853.70	1078.75
854.01	1078.05
854.33	1061.20
854.64	1061.43
854.96	1065.41
855.27	1075.24
855.59	1085.07
855.90	1095.84
856.22	1097.01
856.53	1096.07
856.84	1082.73
857.16	1070.56
857.47	1073.60
857.79	1075.24
858.10	1084.37
858.41	1092.09
858.73	1101.22
859.04	1095.84
859.36	1091.16
859.67	1077.82
859.98	1074.54
860.30	1074.31
860.61	1068.92
860.92	1062.37
861.24	1060.50
861.55	1059.56
861.87	1054.18
862.18	1059.09
862.49	1065.18
862.81	1067.75
863.12	1067.05
863.43	1072.67
863.74	1075.94
864.06	1085.54
864.37	1085.31
864.68	1102.86
865.00	1098.88
865.31	1093.97
865.62	1087.41
865.94	1081.33
866.25	1068.45
866.56	1067.99
866.87	1069.62
867.19	1067.05
867.50	1073.60
867.81	1079.92
868.12	1081.09
868.44	1081.80
868.75	1091.16
869.06	1091.63
869.37	1084.60
869.68	1091.63
870.00	1086.01
870.31	1071.97
870.62	1061.67
870.93	1060.73
871.24	1051.60
871.56	1059.56
871.87	1076.65
872.18	1085.31
872.49	1092.80
872.80	1097.01
873.12	1101.46
873.43	1092.56
873.74	1097.48
874.05	1086.01
874.36	1085.77
874.67	1079.22
874.98	1077.35
875.29	1071.03
875.61	1074.07
875.92	1063.54
876.23	1062.60
876.54	1063.31
876.85	1061.43
877.16	1056.52
877.47	1062.14
877.78	1061.43
878.09	1059.33
878.40	1065.18
878.72	1073.84
879.03	1080.63
879.34	1086.01
879.65	1093.03
879.96	1090.22
880.27	1095.37
880.58	1089.52
880.89	1090.46
881.20	1089.52
881.51	1095.14
881.82	1103.56
882.13	1106.14
882.44	1093.03
882.75	1092.80
883.06	1081.09
883.37	1058.39
883.68	1055.82
883.99	1070.09
884.30	1064.48
884.61	1069.86
884.92	1076.41
885.23	1074.54
885.54	1065.18
885.85	1073.84
886.16	1070.56
886.47	1083.43
886.78	1086.94
887.08	1089.52
887.39	1081.09
887.70	1084.37
888.01	1060.73
888.32	1056.75
888.63	1050.20
888.94	1061.90
889.25	1062.84
889.56	1080.39
889.87	1096.31
890.17	1106.14
890.48	1097.48
890.79	1089.52
891.10	1082.26
891.41	1080.16
891.72	1083.20
892.03	1078.05
892.34	1074.77
892.64	1067.75
892.95	1051.37
893.26	1037.33
893.57	1036.39
893.88	1050.67
894.18	1056.05
894.49	1062.37
894.80	1077.11
895.11	1080.16
895.42	1079.92
895.72	1083.43
896.03	1084.14
896.34	1074.54
896.65	1080.39
896.96	1081.56
897.26	1085.54
897.57	1083.90
897.88	1088.35
898.19	1084.84
898.49	1081.80
898.80	1083.67
899.11	1075.94
899.41	1078.28
899.72	1076.65
900.03	1071.97
900.34	1064.94
900.64	1082.03
900.95	1082.73
901.26	1089.75
901.56	1098.18
901.87	1103.56
902.18	1091.63
902.48	1086.94
902.79	1087.65
903.10	1088.82
903.40	1095.37
903.71	1093.97
904.02	1092.80
904.32	1087.41
904.63	1084.84
904.94	1079.22
905.24	1083.43
905.55	1085.77
905.85	1083.20
906.16	1087.41
906.47	1083.20
906.77	1086.24
907.08	1089.99
907.38	1092.56
907.69	1084.14
908.00	1079.92
908.30	1079.46
908.61	1078.52
908.91	1078.05
909.22	1079.69
909.52	1080.39
909.83	1089.05
910.14	1068.69
910.44	1068.69
910.75	1068.69
911.05	1064.94
911.36	1057.92
911.66	1072.43
911.97	1066.11
912.27	1070.80
912.58	1080.39
912.88	1080.39
913.19	1076.88
913.49	1079.92
913.80	1069.39
914.10	1069.62
914.41	1069.16
914.71	1070.56
915.01	1068.45
915.32	1075.94
915.62	1075.71
915.93	1065.41
916.23	1075.48
916.54	1085.54
916.84	1086.48
917.15	1090.69
917.45	1096.31
917.75	1086.24
918.06	1083.67
918.36	1082.97
918.67	1068.45
918.97	1061.43
919.27	1069.86
919.58	1063.31
919.88	1064.01
920.18	1075.01
920.49	1081.09
920.79	1075.01
921.10	1083.43
921.40	1083.20
921.70	1092.56
922.01	1093.50
922.31	1099.35
922.61	1094.67
922.92	1087.41
923.22	1075.94
923.52	1088.58
923.82	1088.82
924.13	1088.12
924.43	1094.67
924.73	1093.26
925.04	1082.03
925.34	1079.69
925.64	1084.60
925.94	1075.71
926.25	1081.56
926.55	1089.99
926.85	1086.01
927.15	1078.28
927.46	1085.31
927.76	1077.82
928.06	1067.05
928.36	1066.58
928.67	1070.56
928.97	1065.65
929.27	1068.92
929.57	1077.11
929.87	1084.60
930.18	1082.03
930.48	1086.94
930.78	1079.22
931.08	1072.90
931.38	1071.03
931.69	1071.97
931.99	1065.65
932.29	1068.92
932.59	1080.39
932.89	1078.52
933.19	1082.50
933.49	1086.48
933.80	1097.24
934.10	1090.69
934.40	1088.82
934.70	1089.75
935.00	1090.69
935.30	1084.84
935.60	1082.03
935.90	1076.41
936.20	1067.05
936.50	1065.18
936.81	1063.77
937.11	1070.56
937.41	1076.88
937.71	1082.50
938.01	1091.39
938.31	1099.35
938.61	1094.20
938.91	1089.99
939.21	1091.86
939.51	1088.82
939.81	1083.43
940.11	1082.03
940.41	1087.65
940.71	1088.82
941.01	1080.63
941.31	1083.90
941.61	1086.01
941.91	1082.03
942.21	1081.80
942.51	1095.84
942.81	1100.52
943.11	1094.90
943.41	1099.35
943.71	1106.14
944.01	1096.07
944.31	1083.67
944.61	1086.94
944.90	1085.77
945.20	1068.92
945.50	1076.18
945.80	1079.46
946.10	1089.52
946.40	1090.92
946.70	1092.09
947.00	1084.14
947.30	1082.97
947.60	1067.28
947.89	1071.03
948.19	1072.67
948.49	1074.77
948.79	1080.63
949.09	1086.71
949.39	1091.39
949.69	1092.09
949.98	1089.75
950.28	1083.20
950.58	1075.94
950.88	1065.65
951.18	1073.37
951.48	1073.14
951.77	1067.99
952.07	1078.28
952.37	1075.48
952.67	1080.63
952.97	1094.67
953.26	1106.61
953.56	1101.22
953.86	1107.54
954.16	1109.65
954.45	1100.05
954.75	1092.56
955.05	1089.52
955.35	1086.71
955.64	1072.67
955.94	1077.35
956.24	1083.90
956.54	1084.37
956.83	1078.05
957.13	1087.65
957.43	1087.65
957.72	1085.31
958.02	1088.12
958.32	1092.56
958.61	1081.80
958.91	1073.37
959.21	1069.86
959.50	1065.65
959.80	1071.26
960.10	1076.18
960.39	1072.90
960.69	1072.67
960.99	1082.03
961.28	1080.63
961.58	1069.86
961.87	1075.01
962.17	1077.11
962.47	1073.84
962.76	1075.71
963.06	1081.80
963.36	1077.35
963.65	1071.97
963.95	1075.94
964.24	1069.62
964.54	1070.80
964.83	1067.99
965.13	1075.24
965.42	1066.82
965.72	1073.37
966.02	1082.50
966.31	1089.99
966.61	1083.43
966.90	1081.09
967.20	1075.01
967.49	1071.03
967.79	1072.90
968.08	1077.11
968.38	1082.26
968.67	1088.35
968.97	1087.88
969.26	1093.97
969.56	1089.29
969.85	1092.80
970.15	1087.65
970.44	1088.58
970.74	1086.24
971.03	1095.84
971.32	1102.63
971.62	1100.99
971.91	1088.58
972.21	1083.90
972.50	1082.26
972.80	1069.86
973.09	1076.88
973.38	1086.48
973.68	1086.24
973.97	1081.80
974.27	1078.28
974.56	1078.75
974.85	1086.24
975.15	1099.35
975.44	1102.86
975.73	1107.54
976.03	1099.82
976.32	1096.78
976.61	1086.01
976.91	1080.39
977.20	1084.14
977.49	1083.67
977.79	1075.71
978.08	1071.73
978.37	1081.80
978.67	1082.50
978.96	1091.39
979.25	1091.63
979.55	1087.18
979.84	1082.97
980.13	1083.67
980.42	1084.14
980.72	1087.88
981.01	1090.22
981.30	1085.31
981.59	1093.50
981.89	1097.48
982.18	1096.54
982.47	1098.41
982.76	1092.09
983.06	1083.67
983.35	1064.48
983.64	1064.01
983.93	1067.28
984.22	1072.20
984.52	1073.60
984.81	1081.56
985.10	1079.46
985.39	1072.67
985.68	1065.88
985.97	1050.67
986.27	1055.82
986.56	1052.30
986.85	1054.18
987.14	1065.88
987.43	1077.82
987.72	1078.05
988.01	1081.56
988.31	1079.46
988.60	1075.94
988.89	1081.80
989.18	1076.65
989.47	1085.07
989.76	1091.86
990.05	1088.35
990.34	1083.20
990.63	1092.80
990.92	1085.77
991.21	1086.01
991.51	1094.43
991.80	1095.37
992.09	1081.56
992.38	1088.35
992.67	1091.63
992.96	1092.33
993.25	1082.26
993.54	1089.75
993.83	1082.50
994.12	1067.99
994.41	1063.07
994.70	1073.37
994.99	1073.84
995.28	1069.86
995.57	1077.35
995.86	1081.33
996.15	1078.28
996.44	1065.88
996.73	1077.35
997.02	1077.11
997.31	1078.52
997.59	1081.80
997.88	1090.46
998.17	1089.75
998.46	1085.31
998.75	1071.26
999.04	1067.52
999.33	1071.97
999.62	1074.77
999.91	1075.71
1000.20	1080.63
1000.49	1076.18
1000.77	1076.65
1001.06	1066.35
1001.35	1065.41
1001.64	1067.28
1001.93	1076.65
1002.22	1070.56
1002.51	1077.11
1002.79	1088.82
1003.08	1083.43
1003.37	1079.69
1003.66	1077.82
1003.95	1069.16
1004.23	1060.03
1004.52	1065.18
1004.81	1065.88
1005.10	1067.52
1005.39	1068.69
1005.67	1069.39
1005.96	1075.48
1006.25	1075.94
1006.54	1078.05
1006.83	1079.92
1007.11	1082.50
1007.40	1076.41
1007.69	1073.37
1007.97	1062.60
1008.26	1071.97
1008.55	1071.73
1008.84	1075.94
1009.12	1087.88
1009.41	1094.20
1009.70	1082.50
1009.98	1095.84
1010.27	1099.58
1010.56	1090.69
1010.85	1102.16
1011.13	1098.18
1011.42	1086.48
1011.71	1074.31
1011.99	1072.43
1012.28	1060.96
1012.56	1063.07
1012.85	1058.62
1013.14	1058.16
1013.42	1049.03
1013.71	1053.24
1014.00	1062.14
1014.28	1069.39
1014.57	1076.65
1014.85	1099.58
1015.14	1093.97
1015.43	1094.20
1015.71	1091.16
1016.00	1088.35
1016.28	1076.88
1016.57	1082.73
1016.85	1075.48
1017.14	1069.62
1017.43	1068.69
1017.71	1067.05
1018.00	1066.82
1018.28	1064.48
1018.57	1071.73
1018.85	1075.48
1019.14	1084.84
1019.42	1091.39
1019.71	1105.20
1019.99	1105.67
1020.28	1101.69
1020.56	1085.07
1020.85	1077.35
1021.13	1072.20
1021.42	1069.86
1021.70	1078.05
1021.99	1087.41
1022.27	1079.69
1022.55	1089.52
1022.84	1035.69
>>>>>End Processed Spectral Data<<<<<
