SpectraSuite Data File
++++++++++++++++++++++++++++++++++++
Date: Mon Aug 26 10:25:52 PDT 2019
User: corrico
Dark Spectrum Present: No
Reference Spectrum Present: No
Number of Sampled Component Spectra: 1
Spectrometers: USB2+H06089
Integration Time (usec): 10000 (USB2+H06089)
Spectra Averaged: 2 (USB2+H06089)
Boxcar Smoothing: 2 (USB2+H06089)
Correct for Electrical Dark: No (USB2+H06089)
Strobe/Lamp Enabled: No (USB2+H06089)
Correct for Detector Non-linearity: No (USB2+H06089)
Correct for Stray Light: No (USB2+H06089)
Number of Pixels in Processed Spectrum: 2048
>>>>>Begin Processed Spectral Data<<<<<
339.70	1012.28
340.07	1012.28
340.45	993.79
340.82	972.49
341.19	957.51
341.57	929.19
341.94	915.15
342.31	893.85
342.69	894.55
343.06	891.74
343.43	896.89
343.81	902.28
344.18	909.30
344.55	913.51
344.93	914.68
345.30	929.19
345.67	946.51
346.04	955.64
346.42	950.26
346.79	958.22
347.16	952.83
347.54	948.62
347.91	965.71
348.28	989.11
348.65	991.45
349.03	1004.09
349.40	1016.03
349.77	1019.77
350.14	1019.30
350.52	1031.94
350.89	1040.60
351.26	1042.94
351.63	1042.24
352.01	1048.79
352.38	1050.90
352.75	1045.75
353.12	1044.82
353.50	1042.47
353.87	1043.41
354.24	1045.28
354.61	1049.96
354.98	1071.50
355.36	1079.92
355.73	1083.67
356.10	1091.16
356.47	1106.37
356.84	1098.18
357.22	1091.39
357.59	1095.60
357.96	1092.33
358.33	1079.22
358.70	1071.97
359.08	1068.45
359.45	1066.35
359.82	1060.50
360.19	1066.35
360.56	1059.09
360.94	1070.33
361.31	1072.20
361.68	1080.39
362.05	1083.90
362.42	1092.33
362.79	1096.78
363.16	1092.33
363.54	1083.90
363.91	1073.37
364.28	1063.54
364.65	1049.26
365.02	1049.96
365.39	1050.20
365.76	1051.84
366.14	1048.79
366.51	1049.26
366.88	1046.92
367.25	1048.79
367.62	1043.64
367.99	1050.43
368.36	1065.41
368.73	1069.86
369.10	1068.22
369.48	1072.67
369.85	1081.56
370.22	1062.14
370.59	1057.69
370.96	1055.35
371.33	1054.41
371.70	1049.03
372.07	1070.80
372.44	1078.28
372.81	1078.75
373.18	1076.18
373.55	1076.65
373.93	1069.86
374.30	1062.84
374.67	1068.92
375.04	1072.90
375.41	1074.31
375.78	1068.45
376.15	1070.33
376.52	1071.26
376.89	1076.18
377.26	1081.56
377.63	1075.71
378.00	1073.60
378.37	1062.60
378.74	1060.03
379.11	1055.58
379.48	1060.26
379.85	1061.43
380.22	1067.75
380.59	1065.41
380.96	1067.75
381.33	1071.73
381.70	1073.60
382.07	1075.71
382.44	1076.65
382.81	1070.33
383.18	1065.41
383.55	1064.94
383.92	1068.92
384.29	1070.80
384.66	1074.54
385.03	1076.18
385.40	1070.09
385.77	1063.54
386.14	1061.20
386.51	1061.67
386.88	1060.96
387.25	1071.03
387.62	1077.35
387.99	1079.22
388.36	1076.41
388.73	1083.43
389.10	1085.07
389.46	1090.46
389.83	1084.14
390.20	1086.71
390.57	1078.28
390.94	1070.33
391.31	1058.86
391.68	1071.73
392.05	1077.58
392.42	1082.50
392.79	1080.63
393.16	1084.60
393.53	1080.63
393.89	1069.16
394.26	1073.60
394.63	1072.67
395.00	1073.14
395.37	1076.65
395.74	1079.92
396.11	1076.65
396.48	1084.84
396.84	1085.54
397.21	1080.63
397.58	1081.56
397.95	1085.54
398.32	1080.63
398.69	1068.69
399.06	1064.94
399.42	1073.37
399.79	1076.65
400.16	1074.31
400.53	1084.84
400.90	1091.39
401.27	1083.90
401.64	1077.35
402.00	1081.80
402.37	1088.58
402.74	1084.84
403.11	1088.58
403.48	1080.16
403.84	1082.03
404.21	1076.18
404.58	1083.67
404.95	1082.03
405.32	1088.12
405.68	1086.94
406.05	1085.54
406.42	1081.80
406.79	1072.90
407.16	1066.11
407.52	1065.88
407.89	1064.48
408.26	1062.84
408.63	1076.41
408.99	1089.75
409.36	1092.56
409.73	1096.54
410.10	1095.37
410.47	1081.33
410.83	1072.20
411.20	1066.58
411.57	1062.37
411.94	1055.58
412.30	1063.07
412.67	1067.75
413.04	1074.77
413.40	1069.16
413.77	1082.03
414.14	1078.75
414.51	1077.35
414.87	1066.35
415.24	1078.05
415.61	1069.39
415.97	1075.48
416.34	1071.26
416.71	1075.24
417.08	1064.71
417.44	1070.56
417.81	1066.35
418.18	1063.77
418.54	1063.77
418.91	1071.73
419.28	1071.73
419.64	1081.33
420.01	1085.54
420.38	1092.33
420.74	1096.78
421.11	1103.33
421.48	1089.75
421.84	1088.35
422.21	1078.75
422.58	1072.90
422.94	1057.92
423.31	1069.16
423.68	1069.16
424.04	1081.33
424.41	1084.14
424.77	1079.69
425.14	1073.14
425.51	1081.80
425.87	1072.20
426.24	1069.16
426.61	1081.80
426.97	1089.52
427.34	1080.63
427.70	1076.18
428.07	1079.22
428.44	1083.67
428.80	1076.65
429.17	1078.75
429.53	1090.69
429.90	1089.52
430.27	1085.54
430.63	1092.80
431.00	1090.92
431.36	1077.11
431.73	1074.77
432.09	1063.31
432.46	1049.26
432.83	1053.94
433.19	1061.90
433.56	1063.07
433.92	1073.60
434.29	1070.56
434.65	1072.90
435.02	1072.43
435.38	1076.41
435.75	1081.09
436.11	1090.69
436.48	1092.56
436.84	1092.56
437.21	1090.46
437.57	1089.05
437.94	1090.22
438.30	1081.33
438.67	1081.33
439.03	1082.97
439.40	1077.82
439.76	1071.73
440.13	1069.16
440.49	1067.05
440.86	1065.18
441.22	1061.90
441.59	1079.46
441.95	1096.54
442.32	1098.88
442.68	1100.05
443.05	1108.71
443.41	1099.35
443.78	1086.94
444.14	1082.50
444.51	1081.33
444.87	1078.52
445.24	1070.56
445.60	1070.33
445.96	1080.86
446.33	1078.99
446.69	1073.60
447.06	1081.56
447.42	1079.22
447.79	1077.35
448.15	1082.97
448.51	1083.43
448.88	1079.92
449.24	1085.77
449.61	1089.05
449.97	1081.80
450.33	1082.73
450.70	1082.26
451.06	1082.50
451.43	1079.92
451.79	1081.80
452.15	1081.80
452.52	1086.94
452.88	1083.43
453.24	1073.60
453.61	1067.52
453.97	1062.14
454.34	1056.05
454.70	1057.69
455.06	1058.86
455.43	1063.77
455.79	1073.14
456.15	1073.14
456.52	1075.24
456.88	1087.18
457.24	1088.58
457.61	1086.48
457.97	1093.26
458.33	1090.69
458.70	1084.14
459.06	1084.84
459.42	1078.99
459.79	1065.41
460.15	1061.67
460.51	1071.97
460.88	1078.75
461.24	1078.05
461.60	1086.48
461.96	1090.69
462.33	1080.86
462.69	1080.39
463.05	1079.92
463.42	1076.88
463.78	1081.33
464.14	1077.35
464.50	1062.37
464.87	1073.14
465.23	1081.33
465.59	1072.43
465.95	1077.11
466.32	1082.97
466.68	1085.54
467.04	1068.22
467.40	1065.88
467.77	1062.84
468.13	1057.22
468.49	1048.09
468.85	1068.69
469.22	1073.60
469.58	1071.50
469.94	1088.12
470.30	1092.09
470.66	1089.75
471.03	1086.24
471.39	1091.63
471.75	1083.20
472.11	1083.67
472.47	1081.09
472.84	1083.20
473.20	1077.35
473.56	1084.37
473.92	1082.26
474.28	1076.18
474.65	1077.11
475.01	1079.92
475.37	1074.31
475.73	1075.24
476.09	1080.39
476.45	1090.22
476.81	1095.37
477.18	1087.65
477.54	1092.56
477.90	1081.80
478.26	1079.92
478.62	1068.92
478.98	1071.03
479.34	1061.43
479.71	1069.16
480.07	1067.52
480.43	1081.33
480.79	1080.39
481.15	1090.69
481.51	1085.07
481.87	1082.26
482.23	1077.11
482.59	1081.80
482.96	1070.80
483.32	1069.39
483.68	1069.86
484.04	1065.88
484.40	1074.07
484.76	1084.37
485.12	1089.29
485.48	1094.20
485.84	1098.18
486.20	1090.22
486.56	1079.22
486.92	1074.54
487.28	1061.67
487.64	1057.69
488.00	1054.18
488.37	1059.09
488.73	1057.22
489.09	1069.86
489.45	1070.56
489.81	1069.62
490.17	1079.22
490.53	1090.69
490.89	1089.52
491.25	1091.39
491.61	1090.46
491.97	1086.01
492.33	1082.50
492.69	1069.16
493.05	1067.99
493.41	1068.45
493.77	1066.11
494.13	1070.09
494.49	1077.11
494.85	1071.03
495.21	1071.97
495.57	1070.09
495.93	1067.52
496.29	1056.99
496.64	1062.84
497.00	1066.35
497.36	1074.31
497.72	1068.45
498.08	1080.39
498.44	1084.60
498.80	1087.88
499.16	1075.01
499.52	1074.77
499.88	1066.11
500.24	1060.03
500.60	1057.92
500.96	1064.01
501.32	1065.18
501.68	1065.65
502.03	1070.09
502.39	1061.20
502.75	1059.56
503.11	1068.45
503.47	1078.75
503.83	1071.03
504.19	1072.90
504.55	1084.60
504.91	1077.82
505.26	1072.20
505.62	1077.82
505.98	1088.58
506.34	1082.26
506.70	1091.39
507.06	1102.16
507.42	1096.07
507.78	1083.90
508.13	1067.52
508.49	1071.26
508.85	1062.37
509.21	1077.82
509.57	1089.05
509.93	1091.63
510.28	1081.09
510.64	1093.26
511.00	1084.14
511.36	1079.69
511.72	1089.52
512.07	1093.03
512.43	1077.35
512.79	1085.77
513.15	1088.35
513.51	1082.03
513.86	1080.39
514.22	1095.60
514.58	1090.46
514.94	1093.73
515.30	1093.26
515.65	1089.05
516.01	1079.92
516.37	1072.67
516.73	1069.62
517.08	1081.56
517.44	1090.92
517.80	1085.07
518.16	1090.92
518.51	1089.75
518.87	1089.75
519.23	1084.37
519.59	1090.69
519.94	1089.52
520.30	1084.84
520.66	1090.46
521.01	1093.26
521.37	1101.92
521.73	1103.33
522.09	1112.46
522.44	1110.12
522.80	1114.56
523.16	1103.56
523.51	1097.48
523.87	1093.73
524.23	1088.12
524.58	1092.80
524.94	1104.26
525.30	1109.88
525.65	1114.10
526.01	1113.16
526.37	1101.46
526.72	1090.22
527.08	1088.82
527.44	1079.69
527.79	1073.84
528.15	1076.65
528.51	1082.97
528.86	1082.97
529.22	1097.95
529.58	1104.97
529.93	1102.63
530.29	1103.80
530.65	1110.82
531.00	1101.92
531.36	1097.95
531.71	1101.92
532.07	1094.20
532.43	1090.22
532.78	1093.73
533.14	1080.63
533.49	1079.22
533.85	1077.82
534.21	1079.92
534.56	1072.90
534.92	1089.05
535.27	1090.69
535.63	1091.86
535.98	1084.14
536.34	1082.03
536.69	1078.99
537.05	1074.07
537.41	1079.69
537.76	1083.43
538.12	1078.52
538.47	1075.24
538.83	1071.03
539.18	1067.75
539.54	1065.65
539.89	1067.75
540.25	1073.84
540.60	1083.43
540.96	1086.01
541.31	1079.92
541.67	1088.35
542.02	1083.90
542.38	1081.33
542.73	1074.07
543.09	1078.99
543.44	1072.20
543.80	1071.97
544.15	1069.39
544.51	1072.90
544.86	1072.67
545.22	1078.28
545.57	1080.16
545.93	1079.46
546.28	1082.26
546.64	1093.26
546.99	1098.18
547.35	1100.05
547.70	1104.97
548.05	1100.75
548.41	1090.69
548.76	1089.52
549.12	1086.01
549.47	1084.84
549.83	1085.54
550.18	1086.94
550.53	1085.77
550.89	1086.71
551.24	1082.50
551.60	1093.26
551.95	1092.80
552.30	1084.14
552.66	1077.11
553.01	1078.75
553.37	1074.54
553.72	1076.65
554.07	1080.16
554.43	1086.71
554.78	1092.56
555.13	1082.03
555.49	1070.33
555.84	1071.50
556.19	1068.45
556.55	1057.69
556.90	1064.01
557.26	1089.29
557.61	1083.43
557.96	1090.69
558.32	1099.35
558.67	1095.60
559.02	1083.90
559.37	1095.37
559.73	1093.03
560.08	1085.54
560.43	1084.37
560.79	1077.58
561.14	1062.60
561.49	1058.16
561.85	1057.69
562.20	1058.62
562.55	1058.62
562.90	1058.86
563.26	1065.88
563.61	1063.54
563.96	1067.52
564.32	1074.07
564.67	1076.41
565.02	1070.56
565.37	1066.82
565.73	1061.43
566.08	1059.33
566.43	1068.45
566.78	1067.05
567.14	1071.26
567.49	1078.52
567.84	1075.24
568.19	1068.45
568.54	1066.58
568.90	1073.37
569.25	1080.16
569.60	1094.20
569.95	1101.92
570.31	1097.24
570.66	1098.88
571.01	1077.58
571.36	1065.41
571.71	1067.05
572.06	1076.41
572.42	1079.69
572.77	1096.54
573.12	1102.16
573.47	1107.07
573.82	1111.75
574.18	1099.35
574.53	1090.69
574.88	1088.35
575.23	1080.86
575.58	1081.33
575.93	1084.37
576.28	1090.69
576.64	1083.90
576.99	1073.37
577.34	1069.62
577.69	1080.63
578.04	1077.35
578.39	1080.16
578.74	1092.09
579.09	1099.12
579.44	1089.29
579.80	1090.22
580.15	1091.63
580.50	1095.84
580.85	1095.14
581.20	1101.22
581.55	1096.78
581.90	1093.97
582.25	1075.24
582.60	1074.54
582.95	1060.26
583.30	1073.14
583.65	1072.67
584.00	1087.65
584.35	1085.77
584.71	1101.46
585.06	1099.35
585.41	1108.01
585.76	1100.52
586.11	1093.50
586.46	1085.07
586.81	1082.03
587.16	1081.56
587.51	1077.82
587.86	1079.46
588.21	1085.07
588.56	1082.97
588.91	1088.35
589.26	1093.03
589.61	1089.99
589.96	1085.07
590.31	1085.07
590.66	1072.90
591.01	1073.60
591.36	1076.88
591.71	1069.62
592.06	1070.56
592.41	1084.14
592.76	1087.18
593.10	1093.03
593.45	1108.71
593.80	1108.01
594.15	1098.41
594.50	1101.69
594.85	1103.80
595.20	1104.97
595.55	1112.46
595.90	1114.80
596.25	1116.67
596.60	1111.52
596.95	1103.09
597.30	1084.14
597.64	1149.67
597.99	1157.86
598.34	1159.74
598.69	1163.25
599.04	1179.16
599.39	1101.92
599.74	1085.77
600.09	1087.88
600.44	1081.80
600.78	1077.11
601.13	1082.73
601.48	1086.71
601.83	1083.67
602.18	1092.33
602.53	1089.52
602.88	1091.39
603.22	1093.03
603.57	1089.52
603.92	1084.60
604.27	1093.97
604.62	1097.71
604.97	1092.56
605.31	1091.16
605.66	1085.77
606.01	1080.63
606.36	1077.35
606.71	1076.65
607.05	1080.63
607.40	1091.63
607.75	1087.65
608.10	1084.14
608.44	1090.46
608.79	1099.82
609.14	1101.69
609.49	1100.29
609.84	1108.71
610.18	1106.84
610.53	1091.16
610.88	1087.18
611.23	1087.65
611.57	1088.35
611.92	1089.52
612.27	1100.75
612.62	1088.12
612.96	1090.69
613.31	1078.28
613.66	1070.56
614.00	1064.71
614.35	1079.22
614.70	1079.69
615.05	1089.99
615.39	1093.73
615.74	1092.80
616.09	1082.50
616.43	1085.07
616.78	1079.22
617.13	1082.26
617.47	1079.46
617.82	1084.60
618.17	1076.88
618.51	1079.69
618.86	1072.20
619.21	1074.54
619.55	1078.75
619.90	1070.56
620.25	1067.75
620.59	1073.60
620.94	1076.88
621.29	1065.88
621.63	1076.18
621.98	1084.60
622.32	1078.05
622.67	1082.50
623.02	1088.58
623.36	1093.26
623.71	1083.43
624.05	1082.50
624.40	1073.84
624.75	1069.39
625.09	1071.26
625.44	1076.88
625.78	1078.75
626.13	1073.60
626.48	1078.05
626.82	1070.56
627.17	1074.31
627.51	1075.48
627.86	1078.75
628.20	1081.33
628.55	1081.80
628.89	1088.12
629.24	1090.92
629.58	1087.18
629.93	1089.05
630.28	1091.16
630.62	1076.65
630.97	1077.11
631.31	1085.77
631.66	1089.29
632.00	1086.71
632.35	1079.46
632.69	1082.50
633.04	1081.56
633.38	1066.11
633.73	1068.22
634.07	1079.92
634.42	1078.99
634.76	1071.50
635.11	1079.92
635.45	1079.46
635.79	1072.90
636.14	1067.99
636.48	1075.94
636.83	1073.37
637.17	1067.52
637.52	1070.56
637.86	1067.05
638.21	1063.07
638.55	1066.58
638.89	1081.33
639.24	1087.41
639.58	1092.33
639.93	1096.31
640.27	1093.26
640.61	1085.07
640.96	1079.69
641.30	1083.43
641.65	1086.01
641.99	1085.77
642.33	1087.41
642.68	1089.75
643.02	1081.33
643.37	1068.92
643.71	1063.54
644.05	1058.62
644.40	1049.03
644.74	1060.73
645.08	1064.71
645.43	1072.67
645.77	1074.77
646.11	1072.90
646.46	1062.37
646.80	1071.50
647.14	1063.54
647.49	1070.09
647.83	1080.63
648.17	1084.60
648.52	1078.75
648.86	1089.29
649.20	1083.43
649.55	1078.28
649.89	1082.97
650.23	1077.35
650.57	1072.20
650.92	1067.05
651.26	1070.80
651.60	1070.33
651.95	1082.03
652.29	1086.94
652.63	1089.75
652.97	1093.26
653.32	1093.97
653.66	1083.67
654.00	1082.73
654.34	1086.01
654.69	1089.05
655.03	1087.65
655.37	1092.33
655.71	1088.58
656.05	1082.03
656.40	1073.84
656.74	1071.73
657.08	1078.99
657.42	1085.31
657.76	1093.97
658.11	1094.90
658.45	1093.26
658.79	1086.48
659.13	1079.22
659.47	1079.69
659.82	1074.07
660.16	1078.99
660.50	1078.05
660.84	1075.94
661.18	1075.48
661.52	1092.80
661.87	1091.39
662.21	1093.03
662.55	1097.95
662.89	1091.86
663.23	1074.07
663.57	1077.35
663.91	1079.69
664.25	1075.71
664.60	1084.37
664.94	1086.24
665.28	1076.65
665.62	1079.22
665.96	1078.05
666.30	1073.14
666.64	1070.56
666.98	1083.43
667.32	1073.14
667.66	1076.18
668.01	1077.35
668.35	1090.46
668.69	1071.50
669.03	1076.88
669.37	1075.01
669.71	1067.75
670.05	1067.99
670.39	1065.41
670.73	1073.14
671.07	1066.35
671.41	1075.71
671.75	1074.07
672.09	1088.58
672.43	1082.97
672.77	1096.54
673.11	1088.58
673.45	1088.58
673.79	1093.03
674.13	1087.41
674.47	1083.20
674.81	1081.33
675.15	1076.65
675.49	1063.54
675.83	1071.97
676.17	1069.86
676.51	1072.67
676.85	1068.22
677.19	1074.07
677.53	1069.86
677.87	1069.62
678.21	1079.22
678.55	1077.82
678.89	1086.48
679.23	1090.69
679.57	1093.50
679.90	1085.07
680.24	1088.35
680.58	1083.90
680.92	1077.11
681.26	1086.01
681.60	1085.77
681.94	1085.54
682.28	1082.73
682.62	1089.52
682.96	1087.88
683.29	1084.14
683.63	1087.41
683.97	1085.31
684.31	1083.20
684.65	1070.09
684.99	1075.71
685.33	1086.01
685.67	1082.97
686.00	1068.92
686.34	1074.77
686.68	1077.11
687.02	1071.73
687.36	1072.43
687.70	1086.48
688.03	1085.07
688.37	1077.58
688.71	1071.26
689.05	1074.54
689.39	1067.75
689.72	1068.22
690.06	1071.73
690.40	1070.80
690.74	1062.60
691.08	1073.60
691.41	1072.43
691.75	1074.54
692.09	1072.20
692.43	1080.39
692.76	1073.14
693.10	1076.88
693.44	1083.90
693.78	1091.16
694.11	1090.46
694.45	1088.35
694.79	1082.03
695.13	1077.35
695.46	1073.60
695.80	1076.88
696.14	1080.39
696.48	1080.86
696.81	1076.18
697.15	1075.01
697.49	1073.14
697.82	1073.84
698.16	1078.28
698.50	1078.75
698.83	1069.39
699.17	1070.56
699.51	1063.31
699.84	1061.90
700.18	1067.75
700.52	1081.33
700.85	1082.26
701.19	1088.12
701.53	1092.56
701.86	1092.09
702.20	1094.20
702.54	1094.67
702.87	1090.69
703.21	1082.97
703.55	1079.92
703.88	1078.99
704.22	1080.16
704.55	1087.88
704.89	1092.09
705.23	1089.29
705.56	1082.50
705.90	1082.97
706.23	1079.22
706.57	1072.20
706.91	1077.58
707.24	1093.26
707.58	1082.50
707.91	1086.01
708.25	1100.75
708.58	1094.43
708.92	1078.99
709.26	1077.58
709.59	1071.50
709.93	1068.22
710.26	1075.01
710.60	1086.48
710.93	1091.63
711.27	1097.24
711.60	1094.20
711.94	1094.90
712.27	1084.84
712.61	1079.22
712.94	1077.11
713.28	1071.03
713.61	1067.05
713.95	1076.18
714.28	1082.97
714.62	1083.43
714.95	1084.14
715.29	1085.54
715.62	1078.28
715.96	1087.18
716.29	1085.54
716.63	1084.84
716.96	1084.14
717.29	1082.03
717.63	1074.31
717.96	1083.20
718.30	1078.05
718.63	1083.43
718.97	1086.24
719.30	1093.03
719.63	1079.46
719.97	1093.73
720.30	1087.18
720.64	1079.46
720.97	1072.67
721.30	1073.84
721.64	1061.67
721.97	1062.37
722.31	1067.05
722.64	1061.20
722.97	1059.09
723.31	1063.31
723.64	1064.01
723.97	1066.11
724.31	1064.24
724.64	1063.31
724.98	1064.48
725.31	1062.84
725.64	1064.01
725.98	1068.69
726.31	1074.77
726.64	1084.84
726.97	1085.31
727.31	1079.46
727.64	1089.75
727.97	1090.92
728.31	1081.09
728.64	1084.84
728.97	1086.71
729.31	1077.82
729.64	1079.22
729.97	1077.82
730.30	1071.03
730.64	1079.22
730.97	1082.73
731.30	1064.24
731.63	1071.97
731.97	1071.26
732.30	1066.58
732.63	1060.73
732.96	1082.50
733.30	1077.35
733.63	1081.80
733.96	1083.67
734.29	1078.28
734.63	1071.50
734.96	1074.07
735.29	1076.41
735.62	1084.37
735.95	1095.60
736.29	1095.14
736.62	1099.58
736.95	1100.75
737.28	1094.67
737.61	1093.26
737.94	1094.20
738.28	1093.73
738.61	1094.67
738.94	1093.50
739.27	1093.97
739.60	1091.63
739.93	1087.41
740.27	1084.84
740.60	1080.86
740.93	1082.97
741.26	1083.20
741.59	1084.60
741.92	1080.39
742.25	1087.18
742.58	1099.58
742.91	1104.50
743.25	1103.56
743.58	1108.01
743.91	1093.50
744.24	1078.99
744.57	1080.86
744.90	1078.75
745.23	1084.84
745.56	1091.16
745.89	1090.22
746.22	1088.35
746.55	1085.54
746.88	1085.31
747.21	1093.97
747.54	1091.63
747.87	1101.92
748.20	1101.92
748.53	1084.60
748.87	1079.46
749.20	1079.69
749.53	1063.77
749.86	1072.67
750.19	1079.92
750.52	1079.69
750.85	1076.65
751.18	1075.94
751.51	1069.16
751.84	1058.62
752.16	1057.92
752.49	1053.94
752.82	1054.65
753.15	1050.67
753.48	1067.05
753.81	1064.01
754.14	1076.88
754.47	1082.97
754.80	1092.33
755.13	1090.92
755.46	1089.75
755.79	1087.41
756.12	1094.20
756.45	1086.24
756.78	1079.92
757.11	1082.50
757.43	1078.75
757.76	1080.16
758.09	1077.82
758.42	1084.37
758.75	1076.41
759.08	1073.37
759.41	1067.05
759.74	1082.97
760.07	1085.31
760.39	1096.31
760.72	1099.58
761.05	1095.37
761.38	1083.90
761.71	1074.54
762.04	1075.48
762.36	1082.50
762.69	1087.41
763.02	1089.52
763.35	1090.92
763.68	1079.46
764.01	1068.45
764.33	1063.54
764.66	1063.54
764.99	1067.52
765.32	1074.77
765.65	1075.01
765.97	1068.22
766.30	1069.39
766.63	1069.62
766.96	1067.75
767.28	1068.69
767.61	1067.28
767.94	1059.33
768.27	1056.99
768.59	1079.22
768.92	1077.35
769.25	1088.12
769.58	1091.39
769.90	1092.80
770.23	1082.73
770.56	1086.01
770.89	1088.12
771.21	1087.41
771.54	1089.05
771.87	1085.54
772.19	1097.95
772.52	1097.95
772.85	1105.90
773.17	1111.75
773.50	1117.14
773.83	1116.67
774.15	1116.67
774.48	1114.80
774.81	1101.92
775.13	1091.39
775.46	1076.18
775.79	1073.84
776.11	1070.09
776.44	1068.22
776.77	1065.65
777.09	1074.54
777.42	1086.71
777.74	1086.48
778.07	1103.80
778.40	1117.84
778.72	1123.46
779.05	1104.97
779.37	1103.09
779.70	1091.86
780.03	1087.41
780.35	1083.67
780.68	1083.67
781.00	1087.65
781.33	1080.63
781.65	1070.09
781.98	1070.33
782.31	1072.90
782.63	1075.24
782.96	1089.52
783.28	1091.63
783.61	1083.20
783.93	1085.07
784.26	1087.18
784.58	1082.97
784.91	1083.67
785.23	1084.60
785.56	1070.33
785.88	1070.33
786.21	1073.84
786.53	1075.48
786.86	1076.88
787.18	1094.67
787.51	1084.60
787.83	1072.67
788.16	1053.71
788.48	1049.50
788.81	1048.56
789.13	1057.45
789.46	1068.69
789.78	1089.52
790.10	1093.03
790.43	1092.80
790.75	1087.88
791.08	1078.28
791.40	1078.05
791.73	1085.31
792.05	1089.05
792.37	1092.80
792.70	1098.18
793.02	1088.12
793.35	1087.18
793.67	1074.54
793.99	1078.52
794.32	1072.20
794.64	1076.88
794.96	1064.94
795.29	1064.24
795.61	1057.92
795.93	1065.41
796.26	1074.54
796.58	1081.09
796.91	1092.56
797.23	1095.84
797.55	1095.14
797.87	1086.94
798.20	1085.31
798.52	1077.82
798.84	1073.37
799.17	1077.35
799.49	1081.56
799.81	1092.56
800.14	1096.07
800.46	1094.43
800.78	1084.14
801.10	1078.28
801.43	1067.05
801.75	1065.88
802.07	1066.11
802.40	1077.11
802.72	1083.90
803.04	1078.52
803.36	1074.77
803.69	1073.60
804.01	1070.33
804.33	1072.67
804.65	1079.92
804.97	1082.03
805.30	1084.60
805.62	1077.35
805.94	1082.26
806.26	1083.90
806.58	1094.90
806.91	1095.84
807.23	1093.26
807.55	1083.90
807.87	1091.39
808.19	1078.99
808.52	1078.05
808.84	1089.05
809.16	1089.29
809.48	1076.88
809.80	1082.50
810.12	1092.09
810.44	1087.65
810.77	1093.26
811.09	1090.22
811.41	1093.03
811.73	1084.84
812.05	1082.73
812.37	1081.09
812.69	1090.92
813.01	1079.22
813.33	1077.82
813.66	1082.97
813.98	1075.71
814.30	1071.97
814.62	1074.31
814.94	1082.03
815.26	1074.07
815.58	1080.86
815.90	1074.54
816.22	1077.82
816.54	1078.52
816.86	1087.88
817.18	1080.39
817.50	1088.35
817.82	1083.20
818.14	1072.67
818.46	1067.99
818.78	1073.84
819.10	1071.50
819.42	1084.60
819.74	1082.03
820.06	1082.97
820.38	1078.75
820.70	1082.03
821.02	1077.11
821.34	1076.18
821.66	1078.52
821.98	1082.97
822.30	1077.11
822.62	1081.33
822.94	1092.80
823.26	1088.82
823.58	1081.09
823.90	1086.01
824.22	1085.07
824.54	1075.94
824.86	1078.99
825.18	1086.71
825.50	1085.77
825.81	1081.80
826.13	1076.41
826.45	1069.39
826.77	1064.48
827.09	1062.84
827.41	1060.96
827.73	1066.11
828.05	1074.54
828.36	1073.14
828.68	1069.86
829.00	1066.11
829.32	1071.03
829.64	1070.56
829.96	1074.54
830.28	1080.86
830.59	1077.58
830.91	1078.52
831.23	1072.90
831.55	1064.24
831.87	1066.35
832.19	1077.58
832.50	1076.88
832.82	1083.67
833.14	1093.50
833.46	1089.99
833.78	1085.54
834.09	1083.20
834.41	1078.52
834.73	1082.97
835.05	1079.92
835.36	1077.82
835.68	1077.11
836.00	1077.11
836.32	1076.18
836.63	1084.37
836.95	1083.20
837.27	1083.67
837.59	1078.75
837.90	1069.62
838.22	1065.41
838.54	1063.54
838.85	1059.79
839.17	1060.50
839.49	1054.18
839.80	1054.18
840.12	1056.99
840.44	1068.69
840.76	1068.69
841.07	1076.41
841.39	1079.46
841.71	1087.88
842.02	1090.69
842.34	1095.60
842.65	1093.73
842.97	1093.03
843.29	1086.24
843.60	1074.54
843.92	1077.35
844.24	1087.41
844.55	1090.69
844.87	1093.03
845.18	1086.24
845.50	1081.33
845.82	1071.73
846.13	1066.35
846.45	1057.69
846.76	1068.22
847.08	1073.37
847.40	1072.67
847.71	1068.22
848.03	1075.94
848.34	1073.14
848.66	1073.84
848.97	1076.41
849.29	1076.88
849.60	1075.24
849.92	1080.39
850.24	1068.92
850.55	1064.48
850.87	1063.07
851.18	1066.82
851.50	1061.67
851.81	1076.18
852.13	1078.99
852.44	1074.31
852.76	1066.58
853.07	1064.94
853.39	1061.43
853.70	1077.11
854.01	1092.80
854.33	1094.90
854.64	1105.44
854.96	1106.61
855.27	1089.52
855.59	1085.77
855.90	1088.82
856.22	1094.90
856.53	1089.29
856.84	1094.43
857.16	1097.71
857.47	1102.16
857.79	1081.09
858.10	1084.14
858.41	1076.88
858.73	1076.41
859.04	1072.90
859.36	1087.41
859.67	1089.52
859.98	1091.16
860.30	1084.14
860.61	1085.77
860.92	1076.88
861.24	1072.67
861.55	1072.67
861.87	1077.35
862.18	1075.24
862.49	1075.71
862.81	1074.54
863.12	1078.99
863.43	1067.75
863.74	1070.56
864.06	1075.48
864.37	1082.73
864.68	1081.33
865.00	1094.67
865.31	1099.12
865.62	1103.56
865.94	1095.14
866.25	1092.80
866.56	1085.77
866.87	1070.80
867.19	1060.96
867.50	1069.62
867.81	1071.26
868.12	1071.97
868.44	1068.69
868.75	1076.18
869.06	1070.33
869.37	1071.73
869.68	1074.77
870.00	1086.24
870.31	1081.33
870.62	1071.97
870.93	1080.16
871.24	1080.86
871.56	1078.28
871.87	1083.67
872.18	1088.58
872.49	1080.16
872.80	1082.26
873.12	1076.18
873.43	1066.35
873.74	1065.88
874.05	1067.28
874.36	1059.09
874.67	1065.65
874.98	1056.75
875.29	1067.75
875.61	1066.58
875.92	1067.28
876.23	1064.24
876.54	1085.31
876.85	1077.35
877.16	1071.73
877.47	1066.82
877.78	1067.52
878.09	1050.20
878.40	1048.09
878.72	1055.58
879.03	1064.94
879.34	1064.01
879.65	1071.73
879.96	1083.43
880.27	1082.97
880.58	1086.48
880.89	1091.39
881.20	1093.26
881.51	1088.12
881.82	1091.63
882.13	1089.05
882.44	1090.22
882.75	1091.16
883.06	1090.22
883.37	1091.39
883.68	1082.26
883.99	1085.77
884.30	1083.43
884.61	1085.31
884.92	1083.67
885.23	1088.58
885.54	1084.60
885.85	1077.58
886.16	1070.80
886.47	1055.11
886.78	1059.33
887.08	1063.31
887.39	1077.11
887.70	1078.28
888.01	1089.99
888.32	1094.20
888.63	1093.03
888.94	1081.09
889.25	1097.48
889.56	1100.99
889.87	1104.50
890.17	1098.18
890.48	1104.03
890.79	1087.41
891.10	1081.56
891.41	1076.65
891.72	1087.41
892.03	1093.03
892.34	1093.26
892.64	1096.31
892.95	1088.82
893.26	1075.71
893.57	1075.71
893.88	1084.37
894.18	1082.50
894.49	1086.48
894.80	1088.35
895.11	1081.56
895.42	1077.82
895.72	1078.52
896.03	1073.84
896.34	1079.46
896.65	1075.71
896.96	1068.22
897.26	1067.75
897.57	1068.45
897.88	1069.39
898.19	1077.11
898.49	1082.97
898.80	1090.22
899.11	1097.95
899.41	1097.01
899.72	1090.69
900.03	1088.12
900.34	1083.43
900.64	1079.69
900.95	1075.48
901.26	1076.18
901.56	1075.24
901.87	1074.77
902.18	1071.97
902.48	1067.28
902.79	1067.52
903.10	1060.73
903.40	1059.56
903.71	1064.94
904.02	1064.01
904.32	1075.94
904.63	1081.80
904.94	1081.09
905.24	1078.05
905.55	1090.92
905.85	1081.09
906.16	1090.92
906.47	1091.86
906.77	1091.39
907.08	1081.09
907.38	1085.77
907.69	1072.90
908.00	1073.37
908.30	1067.52
908.61	1079.46
908.91	1084.60
909.22	1085.77
909.52	1086.71
909.83	1102.63
910.14	1099.58
910.44	1094.43
910.75	1106.37
911.05	1103.33
911.36	1089.52
911.66	1092.56
911.97	1085.31
912.27	1078.05
912.58	1076.88
912.88	1082.73
913.19	1081.09
913.49	1081.56
913.80	1089.75
914.10	1084.60
914.41	1086.71
914.71	1090.92
915.01	1094.20
915.32	1089.52
915.62	1109.18
915.93	1092.56
916.23	1085.77
916.54	1081.80
916.84	1076.41
917.15	1066.58
917.45	1075.48
917.75	1065.65
918.06	1066.11
918.36	1066.58
918.67	1063.77
918.97	1067.52
919.27	1078.75
919.58	1087.18
919.88	1079.69
920.18	1088.58
920.49	1086.24
920.79	1080.39
921.10	1076.65
921.40	1093.97
921.70	1086.71
922.01	1088.82
922.31	1089.52
922.61	1085.54
922.92	1075.48
923.22	1075.24
923.52	1088.12
923.82	1094.20
924.13	1101.46
924.43	1103.09
924.73	1105.90
925.04	1086.24
925.34	1085.07
925.64	1087.18
925.94	1087.65
926.25	1089.52
926.55	1096.54
926.85	1096.54
927.15	1093.97
927.46	1087.41
927.76	1078.75
928.06	1072.90
928.36	1064.48
928.67	1056.52
928.97	1056.75
929.27	1063.54
929.57	1071.50
929.87	1072.43
930.18	1070.80
930.48	1075.24
930.78	1074.07
931.08	1074.54
931.38	1073.60
931.69	1082.26
931.99	1078.05
932.29	1077.58
932.59	1075.48
932.89	1078.99
933.19	1073.14
933.49	1070.33
933.80	1065.88
934.10	1057.45
934.40	1052.30
934.70	1051.37
935.00	1058.62
935.30	1064.01
935.60	1067.52
935.90	1078.52
936.20	1087.18
936.50	1095.14
936.81	1093.97
937.11	1101.69
937.41	1086.48
937.71	1086.71
938.01	1089.52
938.31	1086.94
938.61	1087.65
938.91	1101.22
939.21	1095.60
939.51	1082.73
939.81	1085.31
940.11	1085.54
940.41	1076.41
940.71	1075.48
941.01	1081.09
941.31	1078.99
941.61	1077.35
941.91	1079.92
942.21	1084.60
942.51	1080.63
942.81	1088.58
943.11	1086.71
943.41	1098.41
943.71	1089.05
944.01	1083.67
944.31	1077.11
944.61	1090.46
944.90	1087.65
945.20	1096.07
945.50	1115.50
945.80	1120.88
946.10	1103.33
946.40	1098.65
946.70	1098.41
947.00	1081.80
947.30	1077.58
947.60	1078.52
947.89	1073.84
948.19	1075.01
948.49	1077.11
948.79	1075.71
949.09	1086.24
949.39	1097.71
949.69	1102.63
949.98	1103.56
950.28	1100.99
950.58	1089.29
950.88	1078.05
951.18	1074.54
951.48	1074.07
951.77	1072.90
952.07	1076.41
952.37	1078.99
952.67	1076.65
952.97	1084.84
953.26	1084.60
953.56	1074.31
953.86	1075.94
954.16	1068.92
954.45	1064.24
954.75	1065.18
955.05	1072.43
955.35	1072.67
955.64	1083.90
955.94	1080.39
956.24	1077.35
956.54	1075.71
956.83	1071.26
957.13	1063.31
957.43	1070.56
957.72	1080.39
958.02	1083.20
958.32	1089.99
958.61	1091.16
958.91	1097.24
959.21	1097.24
959.50	1101.69
959.80	1093.50
960.10	1095.60
960.39	1080.16
960.69	1081.80
960.99	1078.28
961.28	1081.80
961.58	1081.09
961.87	1086.01
962.17	1083.20
962.47	1098.88
962.76	1107.54
963.06	1105.44
963.36	1100.05
963.65	1093.50
963.95	1073.14
964.24	1063.31
964.54	1062.37
964.83	1067.28
965.13	1065.88
965.42	1067.52
965.72	1066.35
966.02	1068.22
966.31	1065.88
966.61	1071.50
966.90	1082.03
967.20	1093.26
967.49	1097.24
967.79	1094.67
968.08	1096.07
968.38	1091.86
968.67	1083.20
968.97	1084.14
969.26	1093.26
969.56	1096.07
969.85	1089.52
970.15	1092.09
970.44	1089.99
970.74	1085.31
971.03	1079.46
971.32	1099.35
971.62	1098.88
971.91	1100.52
972.21	1088.58
972.50	1090.69
972.80	1074.07
973.09	1077.82
973.38	1067.05
973.68	1086.48
973.97	1085.07
974.27	1089.52
974.56	1078.75
974.85	1085.07
975.15	1078.52
975.44	1088.12
975.73	1087.18
976.03	1085.77
976.32	1090.22
976.61	1089.99
976.91	1079.69
977.20	1072.67
977.49	1073.60
977.79	1062.37
978.08	1052.54
978.37	1055.82
978.67	1059.33
978.96	1072.20
979.25	1079.46
979.55	1089.75
979.84	1094.20
980.13	1093.26
980.42	1085.07
980.72	1094.20
981.01	1092.09
981.30	1086.71
981.59	1095.14
981.89	1094.43
982.18	1093.26
982.47	1091.63
982.76	1090.46
983.06	1079.22
983.35	1084.84
983.64	1078.99
983.93	1080.86
984.22	1081.33
984.52	1083.20
984.81	1081.33
985.10	1078.75
985.39	1076.18
985.68	1085.77
985.97	1094.20
986.27	1094.90
986.56	1096.54
986.85	1106.37
987.14	1093.73
987.43	1088.35
987.72	1086.24
988.01	1086.48
988.31	1070.80
988.60	1072.43
988.89	1067.28
989.18	1068.45
989.47	1067.99
989.76	1072.67
990.05	1069.16
990.34	1078.99
990.63	1074.77
990.92	1069.86
991.21	1075.94
991.51	1083.43
991.80	1086.24
992.09	1080.16
992.38	1079.69
992.67	1076.65
992.96	1073.84
993.25	1058.62
993.54	1063.77
993.83	1058.86
994.12	1055.82
994.41	1063.54
994.70	1068.45
994.99	1072.67
995.28	1076.88
995.57	1075.01
995.86	1070.56
996.15	1081.56
996.44	1078.52
996.73	1080.16
997.02	1090.22
997.31	1080.16
997.59	1066.58
997.88	1073.84
998.17	1078.52
998.46	1072.20
998.75	1071.26
999.04	1076.65
999.33	1071.73
999.62	1074.54
999.91	1075.01
1000.20	1090.46
1000.49	1096.07
1000.77	1093.50
1001.06	1092.09
1001.35	1102.63
1001.64	1089.99
1001.93	1086.24
1002.22	1094.67
1002.51	1082.97
1002.79	1073.14
1003.08	1082.26
1003.37	1083.43
1003.66	1073.37
1003.95	1075.24
1004.23	1074.77
1004.52	1068.92
1004.81	1072.90
1005.10	1075.71
1005.39	1082.73
1005.67	1087.65
1005.96	1100.29
1006.25	1088.82
1006.54	1086.24
1006.83	1080.86
1007.11	1077.11
1007.40	1074.54
1007.69	1078.52
1007.97	1089.75
1008.26	1094.20
1008.55	1091.86
1008.84	1082.03
1009.12	1078.99
1009.41	1067.99
1009.70	1071.50
1009.98	1072.90
1010.27	1068.22
1010.56	1074.54
1010.85	1075.94
1011.13	1081.09
1011.42	1083.67
1011.71	1090.92
1011.99	1089.99
1012.28	1100.75
1012.56	1097.48
1012.85	1100.52
1013.14	1099.12
1013.42	1097.71
1013.71	1094.20
1014.00	1091.16
1014.28	1087.18
1014.57	1082.26
1014.85	1080.86
1015.14	1079.46
1015.43	1085.77
1015.71	1086.94
1016.00	1090.69
1016.28	1086.01
1016.57	1081.09
1016.85	1069.16
1017.14	1068.69
1017.43	1075.71
1017.71	1081.56
1018.00	1075.48
1018.28	1081.56
1018.57	1074.07
1018.85	1069.39
1019.14	1067.05
1019.42	1076.88
1019.71	1079.22
1019.99	1086.71
1020.28	1089.75
1020.56	1088.58
1020.85	1085.77
1021.13	1078.99
1021.42	1075.71
1021.70	1067.28
1021.99	1063.77
1022.27	1059.79
1022.55	1048.56
1022.84	1056.75
>>>>>End Processed Spectral Data<<<<<
