SpectraSuite Data File
++++++++++++++++++++++++++++++++++++
Date: Mon Aug 26 10:25:51 PDT 2019
User: corrico
Dark Spectrum Present: No
Reference Spectrum Present: No
Number of Sampled Component Spectra: 1
Spectrometers: USB2+H06089
Integration Time (usec): 10000 (USB2+H06089)
Spectra Averaged: 2 (USB2+H06089)
Boxcar Smoothing: 2 (USB2+H06089)
Correct for Electrical Dark: No (USB2+H06089)
Strobe/Lamp Enabled: No (USB2+H06089)
Correct for Detector Non-linearity: No (USB2+H06089)
Correct for Stray Light: No (USB2+H06089)
Number of Pixels in Processed Spectrum: 2048
>>>>>Begin Processed Spectral Data<<<<<
339.70	1067.28
340.07	1067.28
340.45	1021.18
340.82	990.51
341.19	964.53
341.57	938.32
341.94	939.49
342.31	917.72
342.69	909.53
343.06	904.38
343.43	897.83
343.81	886.59
344.18	904.85
344.55	916.79
344.93	923.11
345.30	937.62
345.67	950.26
346.04	948.85
346.42	946.75
346.79	946.28
347.16	946.75
347.54	948.15
347.91	957.98
348.28	974.13
348.65	990.05
349.03	998.94
349.40	1018.13
349.77	1026.09
350.14	1034.75
350.52	1036.86
350.89	1038.73
351.26	1046.69
351.63	1049.50
352.01	1058.62
352.38	1071.50
352.75	1073.84
353.12	1077.11
353.50	1076.41
353.87	1071.26
354.24	1066.82
354.61	1069.86
354.98	1065.18
355.36	1073.37
355.73	1082.50
356.10	1089.29
356.47	1085.54
356.84	1085.77
357.22	1080.39
357.59	1074.54
357.96	1067.99
358.33	1080.86
358.70	1083.43
359.08	1081.09
359.45	1078.28
359.82	1082.97
360.19	1073.37
360.56	1073.37
360.94	1073.60
361.31	1076.88
361.68	1074.07
362.05	1075.94
362.42	1069.39
362.79	1079.69
363.16	1075.48
363.54	1075.24
363.91	1083.20
364.28	1085.07
364.65	1075.94
365.02	1067.99
365.39	1061.43
365.76	1049.73
366.14	1050.43
366.51	1056.99
366.88	1056.75
367.25	1055.35
367.62	1057.22
367.99	1063.54
368.36	1047.16
368.73	1052.07
369.10	1062.60
369.48	1071.26
369.85	1077.35
370.22	1089.05
370.59	1102.63
370.96	1088.12
371.33	1086.01
371.70	1077.11
372.07	1075.48
372.44	1062.37
372.81	1080.86
373.18	1075.48
373.55	1071.97
373.93	1078.99
374.30	1081.09
374.67	1070.09
375.04	1067.99
375.41	1061.67
375.78	1054.88
376.15	1057.45
376.52	1067.05
376.89	1073.37
377.26	1076.65
377.63	1079.69
378.00	1085.07
378.37	1085.07
378.74	1088.82
379.11	1092.56
379.48	1091.16
379.85	1085.54
380.22	1082.97
380.59	1081.56
380.96	1090.22
381.33	1086.94
381.70	1084.60
382.07	1082.97
382.44	1077.35
382.81	1075.71
383.18	1080.63
383.55	1094.20
383.92	1095.37
384.29	1101.69
384.66	1088.35
385.03	1082.73
385.40	1073.37
385.77	1065.18
386.14	1061.90
386.51	1071.26
386.88	1068.69
387.25	1060.73
387.62	1061.43
387.99	1058.16
388.36	1049.50
388.73	1058.86
389.10	1068.69
389.46	1078.05
389.83	1084.37
390.20	1095.37
390.57	1097.48
390.94	1095.37
391.31	1087.18
391.68	1079.69
392.05	1073.60
392.42	1066.82
392.79	1070.80
393.16	1070.80
393.53	1068.69
393.89	1078.28
394.26	1079.46
394.63	1077.58
395.00	1077.58
395.37	1078.52
395.74	1071.03
396.11	1065.65
396.48	1056.52
396.84	1054.18
397.21	1058.86
397.58	1059.56
397.95	1065.88
398.32	1076.65
398.69	1079.46
399.06	1081.09
399.42	1075.71
399.79	1073.84
400.16	1072.43
400.53	1079.69
400.90	1075.01
401.27	1082.73
401.64	1095.37
402.00	1095.84
402.37	1089.05
402.74	1097.71
403.11	1093.26
403.48	1079.92
403.84	1077.35
404.21	1081.80
404.58	1074.31
404.95	1075.24
405.32	1081.56
405.68	1081.80
406.05	1082.03
406.42	1086.48
406.79	1094.90
407.16	1082.03
407.52	1072.20
407.89	1077.35
408.26	1085.54
408.63	1076.88
408.99	1094.90
409.36	1099.82
409.73	1084.14
410.10	1073.60
410.47	1075.48
410.83	1060.03
411.20	1063.77
411.57	1070.80
411.94	1072.67
412.30	1083.43
412.67	1084.60
413.04	1088.35
413.40	1094.43
413.77	1092.80
414.14	1085.31
414.51	1085.77
414.87	1082.97
415.24	1085.31
415.61	1086.01
415.97	1080.16
416.34	1086.01
416.71	1083.90
417.08	1075.01
417.44	1075.94
417.81	1074.54
418.18	1081.33
418.54	1084.84
418.91	1089.52
419.28	1076.41
419.64	1082.26
420.01	1076.88
420.38	1083.43
420.74	1075.48
421.11	1083.67
421.48	1081.09
421.84	1078.75
422.21	1074.54
422.58	1077.82
422.94	1078.75
423.31	1083.43
423.68	1086.94
424.04	1087.65
424.41	1089.29
424.77	1086.94
425.14	1089.29
425.51	1089.05
425.87	1079.69
426.24	1077.58
426.61	1092.33
426.97	1091.63
427.34	1089.75
427.70	1097.01
428.07	1090.46
428.44	1072.20
428.80	1068.69
429.17	1057.92
429.53	1062.60
429.90	1064.48
430.27	1063.54
430.63	1056.75
431.00	1059.79
431.36	1051.37
431.73	1049.03
432.09	1052.07
432.46	1055.82
432.83	1062.60
433.19	1055.35
433.56	1064.48
433.92	1066.82
434.29	1072.90
434.65	1081.33
435.02	1093.73
435.38	1091.86
435.75	1103.80
436.11	1097.71
436.48	1082.97
436.84	1076.88
437.21	1085.54
437.57	1075.48
437.94	1073.37
438.30	1070.33
438.67	1068.92
439.03	1062.60
439.40	1060.03
439.76	1063.07
440.13	1076.18
440.49	1070.56
440.86	1064.94
441.22	1078.75
441.59	1073.84
441.95	1065.18
442.32	1070.09
442.68	1075.71
443.05	1069.62
443.41	1089.29
443.78	1091.86
444.14	1090.92
444.51	1089.99
444.87	1088.35
445.24	1069.86
445.60	1067.52
445.96	1070.56
446.33	1072.67
446.69	1069.39
447.06	1072.90
447.42	1071.50
447.79	1080.63
448.15	1082.03
448.51	1078.05
448.88	1075.94
449.24	1078.28
449.61	1075.71
449.97	1075.94
450.33	1087.41
450.70	1094.67
451.06	1098.18
451.43	1097.01
451.79	1087.18
452.15	1089.99
452.52	1086.48
452.88	1090.69
453.24	1090.46
453.61	1100.05
453.97	1090.46
454.34	1081.33
454.70	1072.67
455.06	1075.71
455.43	1063.07
455.79	1063.54
456.15	1075.71
456.52	1079.92
456.88	1076.65
457.24	1092.56
457.61	1097.48
457.97	1086.48
458.33	1090.92
458.70	1093.73
459.06	1086.48
459.42	1079.46
459.79	1086.01
460.15	1081.80
460.51	1071.97
460.88	1080.16
461.24	1082.26
461.60	1085.54
461.96	1085.77
462.33	1091.63
462.69	1081.56
463.05	1072.67
463.42	1073.84
463.78	1077.58
464.14	1078.05
464.50	1081.09
464.87	1086.48
465.23	1089.05
465.59	1082.26
465.95	1082.97
466.32	1090.46
466.68	1094.67
467.04	1083.20
467.40	1082.73
467.77	1082.73
468.13	1072.67
468.49	1075.01
468.85	1073.60
469.22	1083.43
469.58	1079.22
469.94	1091.16
470.30	1097.95
470.66	1108.48
471.03	1105.90
471.39	1105.20
471.75	1098.88
472.11	1091.39
472.47	1079.46
472.84	1074.31
473.20	1074.54
473.56	1070.56
473.92	1067.99
474.28	1076.41
474.65	1080.16
475.01	1081.33
475.37	1084.37
475.73	1080.63
476.09	1073.84
476.45	1077.82
476.81	1083.20
477.18	1074.31
477.54	1079.46
477.90	1084.14
478.26	1077.35
478.62	1074.07
478.98	1082.97
479.34	1097.01
479.71	1096.07
480.07	1103.56
480.43	1107.54
480.79	1107.54
481.15	1085.54
481.51	1090.46
481.87	1082.03
482.23	1068.69
482.59	1062.84
482.96	1072.67
483.32	1065.18
483.68	1060.73
484.04	1070.56
484.40	1068.69
484.76	1059.79
485.12	1067.05
485.48	1070.80
485.84	1072.67
486.20	1079.22
486.56	1089.29
486.92	1076.65
487.28	1084.37
487.64	1072.90
488.00	1076.41
488.37	1071.50
488.73	1081.80
489.09	1072.43
489.45	1083.90
489.81	1073.14
490.17	1072.67
490.53	1071.73
490.89	1068.92
491.25	1069.62
491.61	1077.82
491.97	1078.28
492.33	1091.63
492.69	1094.90
493.05	1101.46
493.41	1107.31
493.77	1115.73
494.13	1106.37
494.49	1108.48
494.85	1089.75
495.21	1082.97
495.57	1071.03
495.93	1074.07
496.29	1071.73
496.64	1075.48
497.00	1072.43
497.36	1075.01
497.72	1070.09
498.08	1069.86
498.44	1071.50
498.80	1064.48
499.16	1067.28
499.52	1072.20
499.88	1080.63
500.24	1084.37
500.60	1089.75
500.96	1084.37
501.32	1082.26
501.68	1073.14
502.03	1076.18
502.39	1079.46
502.75	1085.07
503.11	1084.14
503.47	1092.09
503.83	1082.50
504.19	1077.11
504.55	1068.69
504.91	1067.05
505.26	1066.58
505.62	1066.82
505.98	1071.73
506.34	1075.48
506.70	1078.75
507.06	1082.50
507.42	1087.18
507.78	1085.77
508.13	1081.09
508.49	1069.16
508.85	1075.01
509.21	1077.82
509.57	1082.26
509.93	1088.58
510.28	1102.39
510.64	1093.26
511.00	1097.24
511.36	1088.12
511.72	1088.12
512.07	1084.84
512.43	1081.80
512.79	1078.28
513.15	1086.71
513.51	1087.41
513.86	1089.99
514.22	1091.63
514.58	1088.12
514.94	1086.94
515.30	1097.48
515.65	1096.78
516.01	1105.20
516.37	1106.61
516.73	1098.88
517.08	1092.80
517.44	1090.69
517.80	1080.86
518.16	1084.84
518.51	1089.52
518.87	1086.24
519.23	1087.41
519.59	1093.03
519.94	1094.43
520.30	1099.12
520.66	1107.78
521.01	1105.44
521.37	1097.71
521.73	1096.07
522.09	1092.80
522.44	1090.46
522.80	1090.69
523.16	1087.88
523.51	1081.56
523.87	1087.41
524.23	1079.69
524.58	1074.77
524.94	1082.50
525.30	1081.09
525.65	1079.69
526.01	1084.84
526.37	1083.43
526.72	1088.82
527.08	1086.94
527.44	1083.67
527.79	1082.73
528.15	1089.99
528.51	1088.58
528.86	1098.65
529.22	1104.03
529.58	1113.16
529.93	1119.95
530.29	1114.56
530.65	1115.03
531.00	1111.05
531.36	1092.33
531.71	1092.09
532.07	1100.52
532.43	1096.78
532.78	1100.29
533.14	1102.86
533.49	1099.58
533.85	1091.16
534.21	1091.86
534.56	1082.50
534.92	1097.24
535.27	1094.43
535.63	1092.56
535.98	1091.63
536.34	1100.99
536.69	1099.35
537.05	1096.54
537.41	1109.88
537.76	1111.75
538.12	1107.54
538.47	1100.05
538.83	1101.69
539.18	1087.41
539.54	1086.71
539.89	1089.05
540.25	1077.58
540.60	1078.28
540.96	1074.54
541.31	1073.60
541.67	1071.03
542.02	1080.86
542.38	1087.88
542.73	1090.92
543.09	1093.73
543.44	1091.63
543.80	1089.52
544.15	1083.20
544.51	1084.14
544.86	1077.35
545.22	1082.97
545.57	1091.39
545.93	1085.07
546.28	1088.12
546.64	1083.67
546.99	1087.41
547.35	1087.88
547.70	1090.69
548.05	1090.69
548.41	1103.33
548.76	1098.41
549.12	1095.84
549.47	1093.73
549.83	1088.82
550.18	1079.46
550.53	1075.24
550.89	1082.26
551.24	1088.58
551.60	1094.67
551.95	1107.07
552.30	1110.12
552.66	1092.80
553.01	1093.03
553.37	1085.77
553.72	1071.50
554.07	1067.52
554.43	1067.99
554.78	1058.62
555.13	1065.88
555.49	1078.05
555.84	1078.52
556.19	1095.37
556.55	1103.80
556.90	1094.67
557.26	1086.48
557.61	1088.82
557.96	1072.67
558.32	1067.99
558.67	1076.18
559.02	1087.88
559.37	1094.67
559.73	1097.71
560.08	1091.39
560.43	1080.39
560.79	1071.73
561.14	1070.80
561.49	1075.01
561.85	1082.03
562.20	1094.43
562.55	1099.12
562.90	1089.05
563.26	1083.90
563.61	1071.97
563.96	1070.09
564.32	1061.20
564.67	1061.67
565.02	1061.90
565.37	1073.84
565.73	1063.07
566.08	1063.77
566.43	1071.50
566.78	1078.75
567.14	1080.39
567.49	1085.31
567.84	1089.99
568.19	1082.73
568.54	1079.69
568.90	1082.97
569.25	1082.97
569.60	1086.71
569.95	1088.35
570.31	1082.03
570.66	1080.63
571.01	1084.60
571.36	1067.75
571.71	1066.58
572.06	1071.97
572.42	1064.94
572.77	1073.84
573.12	1089.05
573.47	1093.26
573.82	1098.18
574.18	1096.54
574.53	1089.75
574.88	1081.80
575.23	1084.14
575.58	1071.26
575.93	1080.16
576.28	1082.97
576.64	1084.60
576.99	1077.58
577.34	1089.99
577.69	1081.33
578.04	1077.11
578.39	1085.77
578.74	1093.73
579.09	1091.39
579.44	1097.95
579.80	1092.09
580.15	1082.03
580.50	1075.94
580.85	1070.56
581.20	1071.50
581.55	1075.94
581.90	1075.71
582.25	1077.82
582.60	1070.80
582.95	1070.56
583.30	1078.28
583.65	1079.46
584.00	1079.46
584.35	1089.52
584.71	1090.22
585.06	1073.84
585.41	1064.24
585.76	1066.11
586.11	1065.65
586.46	1059.33
586.81	1063.31
587.16	1075.48
587.51	1064.71
587.86	1069.86
588.21	1063.31
588.56	1061.90
588.91	1057.92
589.26	1074.77
589.61	1074.54
589.96	1093.50
590.31	1094.90
590.66	1096.31
591.01	1085.07
591.36	1084.60
591.71	1074.07
592.06	1074.77
592.41	1078.99
592.76	1078.05
593.10	1070.09
593.45	1061.20
593.80	1071.26
594.15	1063.31
594.50	1071.50
594.85	1084.14
595.20	1095.37
595.55	1086.48
595.90	1094.90
596.25	1093.26
596.60	1090.69
596.95	1086.71
597.30	1088.58
597.64	1137.03
597.99	1145.22
598.34	1133.99
598.69	1126.50
599.04	1118.07
599.39	1069.16
599.74	1063.07
600.09	1067.75
600.44	1086.48
600.78	1100.29
601.13	1106.61
601.48	1102.39
601.83	1101.46
602.18	1103.80
602.53	1102.63
602.88	1089.52
603.22	1090.92
603.57	1082.73
603.92	1071.50
604.27	1066.58
604.62	1068.45
604.97	1063.54
605.31	1069.39
605.66	1074.07
606.01	1075.94
606.36	1070.56
606.71	1076.88
607.05	1083.67
607.40	1086.71
607.75	1078.28
608.10	1083.43
608.44	1074.77
608.79	1076.65
609.14	1066.35
609.49	1078.05
609.84	1088.82
610.18	1100.99
610.53	1101.46
610.88	1118.54
611.23	1109.18
611.57	1103.33
611.92	1092.09
612.27	1090.22
612.62	1089.29
612.96	1094.90
613.31	1085.07
613.66	1093.26
614.00	1096.78
614.35	1077.58
614.70	1079.92
615.05	1096.78
615.39	1095.14
615.74	1089.75
616.09	1092.56
616.43	1084.60
616.78	1081.56
617.13	1078.99
617.47	1076.18
617.82	1082.73
618.17	1082.03
618.51	1075.48
618.86	1077.11
619.21	1080.86
619.55	1077.35
619.90	1086.48
620.25	1089.29
620.59	1092.33
620.94	1088.12
621.29	1087.41
621.63	1082.03
621.98	1079.69
622.32	1080.16
622.67	1084.14
623.02	1083.90
623.36	1083.90
623.71	1088.58
624.05	1080.16
624.40	1074.77
624.75	1073.84
625.09	1080.16
625.44	1077.82
625.78	1082.03
626.13	1087.41
626.48	1090.92
626.82	1088.35
627.17	1082.73
627.51	1087.88
627.86	1082.50
628.20	1083.43
628.55	1087.41
628.89	1094.90
629.24	1098.18
629.58	1093.03
629.93	1085.31
630.28	1085.07
630.62	1081.80
630.97	1084.84
631.31	1097.24
631.66	1102.63
632.00	1097.71
632.35	1094.90
632.69	1087.41
633.04	1091.39
633.38	1089.52
633.73	1093.50
634.07	1097.95
634.42	1084.60
634.76	1077.35
635.11	1078.99
635.45	1074.31
635.79	1066.82
636.14	1065.41
636.48	1059.09
636.83	1062.84
637.17	1068.22
637.52	1072.67
637.86	1075.94
638.21	1081.33
638.55	1091.39
638.89	1082.03
639.24	1084.37
639.58	1098.18
639.93	1092.33
640.27	1076.65
640.61	1082.26
640.96	1078.28
641.30	1074.31
641.65	1074.77
641.99	1073.84
642.33	1069.39
642.68	1068.22
643.02	1076.88
643.37	1079.92
643.71	1088.58
644.05	1082.97
644.40	1088.58
644.74	1070.80
645.08	1072.43
645.43	1067.52
645.77	1066.35
646.11	1064.01
646.46	1070.80
646.80	1068.69
647.14	1071.97
647.49	1077.82
647.83	1075.71
648.17	1074.07
648.52	1082.26
648.86	1087.41
649.20	1093.50
649.55	1089.05
649.89	1089.05
650.23	1089.29
650.57	1080.39
650.92	1077.11
651.26	1082.26
651.60	1083.43
651.95	1077.58
652.29	1081.56
652.63	1077.58
652.97	1088.35
653.32	1089.99
653.66	1081.09
654.00	1081.33
654.34	1079.46
654.69	1064.71
655.03	1054.88
655.37	1061.67
655.71	1061.90
656.05	1068.92
656.40	1070.56
656.74	1075.01
657.08	1078.28
657.42	1073.14
657.76	1082.73
658.11	1084.14
658.45	1088.58
658.79	1091.39
659.13	1093.03
659.47	1081.33
659.82	1087.18
660.16	1081.80
660.50	1091.16
660.84	1082.03
661.18	1078.99
661.52	1069.86
661.87	1075.94
662.21	1072.20
662.55	1077.35
662.89	1085.07
663.23	1083.67
663.57	1080.16
663.91	1072.43
664.25	1074.54
664.60	1073.84
664.94	1078.99
665.28	1087.18
665.62	1084.37
665.96	1087.18
666.30	1085.77
666.64	1088.12
666.98	1086.71
667.32	1088.35
667.66	1086.71
668.01	1085.54
668.35	1090.92
668.69	1090.46
669.03	1082.26
669.37	1074.07
669.71	1071.97
670.05	1070.56
670.39	1070.09
670.73	1076.41
671.07	1089.05
671.41	1089.99
671.75	1084.60
672.09	1079.69
672.43	1088.82
672.77	1088.58
673.11	1086.01
673.45	1088.35
673.79	1096.31
674.13	1082.73
674.47	1077.58
674.81	1080.63
675.15	1071.50
675.49	1064.94
675.83	1063.31
676.17	1056.05
676.51	1059.09
676.85	1064.71
677.19	1063.77
677.53	1066.11
677.87	1075.48
678.21	1067.99
678.55	1072.67
678.89	1072.90
679.23	1078.28
679.57	1070.56
679.90	1081.09
680.24	1076.18
680.58	1064.94
680.92	1075.01
681.26	1084.37
681.60	1079.92
681.94	1093.73
682.28	1103.09
682.62	1082.26
682.96	1087.65
683.29	1086.24
683.63	1078.52
683.97	1072.43
684.31	1081.09
684.65	1065.88
684.99	1068.22
685.33	1067.28
685.67	1079.69
686.00	1084.37
686.34	1091.16
686.68	1089.99
687.02	1095.37
687.36	1099.12
687.70	1089.52
688.03	1096.31
688.37	1092.09
688.71	1080.86
689.05	1076.65
689.39	1084.60
689.72	1089.52
690.06	1089.05
690.40	1094.43
690.74	1083.90
691.08	1078.75
691.41	1068.22
691.75	1071.97
692.09	1070.56
692.43	1080.63
692.76	1086.71
693.10	1089.05
693.44	1090.69
693.78	1086.71
694.11	1077.58
694.45	1080.63
694.79	1075.94
695.13	1071.50
695.46	1071.97
695.80	1071.97
696.14	1060.50
696.48	1068.92
696.81	1084.14
697.15	1086.24
697.49	1087.18
697.82	1101.92
698.16	1089.52
698.50	1082.26
698.83	1085.31
699.17	1094.67
699.51	1085.77
699.84	1100.75
700.18	1096.31
700.52	1091.63
700.85	1097.48
701.19	1103.33
701.53	1097.48
701.86	1092.33
702.20	1102.86
702.54	1087.88
702.87	1082.73
703.21	1081.09
703.55	1085.31
703.88	1078.75
704.22	1074.77
704.55	1075.01
704.89	1075.71
705.23	1066.35
705.56	1055.35
705.90	1063.54
706.23	1061.20
706.57	1057.45
706.91	1065.18
707.24	1072.20
707.58	1068.45
707.91	1074.54
708.25	1074.77
708.58	1065.88
708.92	1070.33
709.26	1075.94
709.59	1072.90
709.93	1078.28
710.26	1093.97
710.60	1087.18
710.93	1086.71
711.27	1082.03
711.60	1081.33
711.94	1079.69
712.27	1085.77
712.61	1080.63
712.94	1080.63
713.28	1081.09
713.61	1074.77
713.95	1076.41
714.28	1078.05
714.62	1077.82
714.95	1071.50
715.29	1076.88
715.62	1075.01
715.96	1082.26
716.29	1084.60
716.63	1084.37
716.96	1086.24
717.29	1080.63
717.63	1082.97
717.96	1079.22
718.30	1084.84
718.63	1082.26
718.97	1084.84
719.30	1077.35
719.63	1077.35
719.97	1071.73
720.30	1070.33
720.64	1069.39
720.97	1070.80
721.30	1085.07
721.64	1085.07
721.97	1085.07
722.31	1087.18
722.64	1091.63
722.97	1076.41
723.31	1082.97
723.64	1079.69
723.97	1090.22
724.31	1084.84
724.64	1089.29
724.98	1080.63
725.31	1092.80
725.64	1085.31
725.98	1090.69
726.31	1095.84
726.64	1100.99
726.97	1098.65
727.31	1092.80
727.64	1091.39
727.97	1095.14
728.31	1089.05
728.64	1080.39
728.97	1079.22
729.31	1087.41
729.64	1083.90
729.97	1096.31
730.30	1100.52
730.64	1113.16
730.97	1103.56
731.30	1101.22
731.63	1093.03
731.97	1088.12
732.30	1076.18
732.63	1082.03
732.96	1082.97
733.30	1084.14
733.63	1086.24
733.96	1093.26
734.29	1083.43
734.63	1085.77
734.96	1079.46
735.29	1083.20
735.62	1080.16
735.95	1082.26
736.29	1083.67
736.62	1087.18
736.95	1090.69
737.28	1088.82
737.61	1077.35
737.94	1067.05
738.28	1070.80
738.61	1064.48
738.94	1061.67
739.27	1067.99
739.60	1071.73
739.93	1073.14
740.27	1078.75
740.60	1087.65
740.93	1090.22
741.26	1095.14
741.59	1089.05
741.92	1092.80
742.25	1093.26
742.58	1093.97
742.91	1091.86
743.25	1092.09
743.58	1078.99
743.91	1074.77
744.24	1075.24
744.57	1076.65
744.90	1082.50
745.23	1083.43
745.56	1081.80
745.89	1078.99
746.22	1072.90
746.55	1080.39
746.88	1088.12
747.21	1085.07
747.54	1091.16
747.87	1090.46
748.20	1088.35
748.53	1078.52
748.87	1078.52
749.20	1076.88
749.53	1078.52
749.86	1070.09
750.19	1081.80
750.52	1085.31
750.85	1080.63
751.18	1077.58
751.51	1078.28
751.84	1072.67
752.16	1069.39
752.49	1074.31
752.82	1075.24
753.15	1075.01
753.48	1072.20
753.81	1071.73
754.14	1070.56
754.47	1069.62
754.80	1072.43
755.13	1082.73
755.46	1085.31
755.79	1091.63
756.12	1099.12
756.45	1098.41
756.78	1095.37
757.11	1097.48
757.43	1092.33
757.76	1089.05
758.09	1086.24
758.42	1082.26
758.75	1078.75
759.08	1071.97
759.41	1077.58
759.74	1083.20
760.07	1081.56
760.39	1086.48
760.72	1089.75
761.05	1085.54
761.38	1080.86
761.71	1081.56
762.04	1071.26
762.36	1075.01
762.69	1079.92
763.02	1078.75
763.35	1080.63
763.68	1083.90
764.01	1083.43
764.33	1070.09
764.66	1073.14
764.99	1081.09
765.32	1084.37
765.65	1084.37
765.97	1098.18
766.30	1089.52
766.63	1081.33
766.96	1086.24
767.28	1083.20
767.61	1078.05
767.94	1080.39
768.27	1078.28
768.59	1068.69
768.92	1083.67
769.25	1077.58
769.58	1069.16
769.90	1070.80
770.23	1085.54
770.56	1069.86
770.89	1076.18
771.21	1087.18
771.54	1086.94
771.87	1086.71
772.19	1082.97
772.52	1080.39
772.85	1082.50
773.17	1081.09
773.50	1064.01
773.83	1073.60
774.15	1072.43
774.48	1077.35
774.81	1073.84
775.13	1078.05
775.46	1069.39
775.79	1063.54
776.11	1068.69
776.44	1074.77
776.77	1082.73
777.09	1089.05
777.42	1092.33
777.74	1079.69
778.07	1076.65
778.40	1080.16
778.72	1076.65
779.05	1073.37
779.37	1071.73
779.70	1071.50
780.03	1062.84
780.35	1060.50
780.68	1073.60
781.00	1079.69
781.33	1079.46
781.65	1089.05
781.98	1090.92
782.31	1082.97
782.63	1080.86
782.96	1083.43
783.28	1071.50
783.61	1071.73
783.93	1074.07
784.26	1068.22
784.58	1073.84
784.91	1080.63
785.23	1083.43
785.56	1096.07
785.88	1100.05
786.21	1094.43
786.53	1096.31
786.86	1091.86
787.18	1086.01
787.51	1086.48
787.83	1093.03
788.16	1088.35
788.48	1096.78
788.81	1084.60
789.13	1082.03
789.46	1069.86
789.78	1071.03
790.10	1060.50
790.43	1060.73
790.75	1067.28
791.08	1075.48
791.40	1080.86
791.73	1096.78
792.05	1106.37
792.37	1100.52
792.70	1096.31
793.02	1097.95
793.35	1088.12
793.67	1077.35
793.99	1085.77
794.32	1088.58
794.64	1079.92
794.96	1075.01
795.29	1090.69
795.61	1082.73
795.93	1080.39
796.26	1073.14
796.58	1068.45
796.91	1075.48
797.23	1080.63
797.55	1094.20
797.87	1097.95
798.20	1116.20
798.52	1102.63
798.84	1100.99
799.17	1080.86
799.49	1087.41
799.81	1092.80
800.14	1094.90
800.46	1098.88
800.78	1098.41
801.10	1090.69
801.43	1072.43
801.75	1075.48
802.07	1071.03
802.40	1078.75
802.72	1080.86
803.04	1086.01
803.36	1071.26
803.69	1064.71
804.01	1063.31
804.33	1062.84
804.65	1066.35
804.97	1077.58
805.30	1096.54
805.62	1097.24
805.94	1091.39
806.26	1090.46
806.58	1087.41
806.91	1072.67
807.23	1075.48
807.55	1081.56
807.87	1080.63
808.19	1092.09
808.52	1093.03
808.84	1091.86
809.16	1100.29
809.48	1096.07
809.80	1084.37
810.12	1091.39
810.44	1082.97
810.77	1080.86
811.09	1083.67
811.41	1081.80
811.73	1075.24
812.05	1080.63
812.37	1075.01
812.69	1078.28
813.01	1079.22
813.33	1071.50
813.66	1072.43
813.98	1074.31
814.30	1077.82
814.62	1074.77
814.94	1077.82
815.26	1077.58
815.58	1082.97
815.90	1075.48
816.22	1085.07
816.54	1089.29
816.86	1093.50
817.18	1083.20
817.50	1083.20
817.82	1075.01
818.14	1076.65
818.46	1069.39
818.78	1067.99
819.10	1064.94
819.42	1057.22
819.74	1055.11
820.06	1053.71
820.38	1064.01
820.70	1062.37
821.02	1070.33
821.34	1060.26
821.66	1071.03
821.98	1066.82
822.30	1067.52
822.62	1067.75
822.94	1079.92
823.26	1079.46
823.58	1083.43
823.90	1087.65
824.22	1086.24
824.54	1082.26
824.86	1078.28
825.18	1076.41
825.50	1072.43
825.81	1076.65
826.13	1074.54
826.45	1076.41
826.77	1077.82
827.09	1081.56
827.41	1074.07
827.73	1080.63
828.05	1073.84
828.36	1072.67
828.68	1074.54
829.00	1082.03
829.32	1082.26
829.64	1079.69
829.96	1087.88
830.28	1079.69
830.59	1089.29
830.91	1087.88
831.23	1090.69
831.55	1082.73
831.87	1085.54
832.19	1072.43
832.50	1071.03
832.82	1084.37
833.14	1067.99
833.46	1064.94
833.78	1064.24
834.09	1069.62
834.41	1050.67
834.73	1066.82
835.05	1071.97
835.36	1080.39
835.68	1076.65
836.00	1090.69
836.32	1083.67
836.63	1080.63
836.95	1078.52
837.27	1079.69
837.59	1078.28
837.90	1089.52
838.22	1103.56
838.54	1099.82
838.85	1107.07
839.17	1103.80
839.49	1104.97
839.80	1095.60
840.12	1101.92
840.44	1087.88
840.76	1086.48
841.07	1077.82
841.39	1075.01
841.71	1070.80
842.02	1073.37
842.34	1084.84
842.65	1086.94
842.97	1088.82
843.29	1085.77
843.60	1093.03
843.92	1085.31
844.24	1090.69
844.55	1093.97
844.87	1098.41
845.18	1096.31
845.50	1099.58
845.82	1089.75
846.13	1087.65
846.45	1082.50
846.76	1078.99
847.08	1074.31
847.40	1070.80
847.71	1076.88
848.03	1084.84
848.34	1089.52
848.66	1079.69
848.97	1085.07
849.29	1077.35
849.60	1071.50
849.92	1072.43
850.24	1088.12
850.55	1096.54
850.87	1096.07
851.18	1089.75
851.50	1087.41
851.81	1075.24
852.13	1068.69
852.44	1075.01
852.76	1082.03
853.07	1076.65
853.39	1079.22
853.70	1085.31
854.01	1085.07
854.33	1092.09
854.64	1095.37
854.96	1096.78
855.27	1095.60
855.59	1091.16
855.90	1077.35
856.22	1066.58
856.53	1071.03
856.84	1064.01
857.16	1063.54
857.47	1067.28
857.79	1081.80
858.10	1080.39
858.41	1085.31
858.73	1090.69
859.04	1089.75
859.36	1086.48
859.67	1086.48
859.98	1085.54
860.30	1083.20
860.61	1093.97
860.92	1096.07
861.24	1093.26
861.55	1094.90
861.87	1088.35
862.18	1079.69
862.49	1078.99
862.81	1081.09
863.12	1076.41
863.43	1080.86
863.74	1077.58
864.06	1066.58
864.37	1068.92
864.68	1071.03
865.00	1071.97
865.31	1067.99
865.62	1075.71
865.94	1071.26
866.25	1072.20
866.56	1058.39
866.87	1063.54
867.19	1055.82
867.50	1056.28
867.81	1053.71
868.12	1059.56
868.44	1051.60
868.75	1058.39
869.06	1060.96
869.37	1061.20
869.68	1069.39
870.00	1078.52
870.31	1079.22
870.62	1071.03
870.93	1072.67
871.24	1060.73
871.56	1056.52
871.87	1061.90
872.18	1067.75
872.49	1076.65
872.80	1088.12
873.12	1092.09
873.43	1087.88
873.74	1090.46
874.05	1078.99
874.36	1073.84
874.67	1080.39
874.98	1082.26
875.29	1074.31
875.61	1081.80
875.92	1083.67
876.23	1084.60
876.54	1081.09
876.85	1083.20
877.16	1075.48
877.47	1079.69
877.78	1076.65
878.09	1075.01
878.40	1071.73
878.72	1078.75
879.03	1077.11
879.34	1079.92
879.65	1078.28
879.96	1076.88
880.27	1067.52
880.58	1073.14
880.89	1066.35
881.20	1071.73
881.51	1088.58
881.82	1104.50
882.13	1098.65
882.44	1097.95
882.75	1104.03
883.06	1102.63
883.37	1096.54
883.68	1096.07
883.99	1095.14
884.30	1087.41
884.61	1073.84
884.92	1075.71
885.23	1082.26
885.54	1085.07
885.85	1087.88
886.16	1094.90
886.47	1087.65
886.78	1076.88
887.08	1083.43
887.39	1083.90
887.70	1084.14
888.01	1093.50
888.32	1100.05
888.63	1097.48
888.94	1095.37
889.25	1096.78
889.56	1083.43
889.87	1083.67
890.17	1079.22
890.48	1078.28
890.79	1073.84
891.10	1077.35
891.41	1070.56
891.72	1076.18
892.03	1079.92
892.34	1086.01
892.64	1088.12
892.95	1087.65
893.26	1087.18
893.57	1082.50
893.88	1074.54
894.18	1067.99
894.49	1070.33
894.80	1069.16
895.11	1080.86
895.42	1085.31
895.72	1090.22
896.03	1092.56
896.34	1081.56
896.65	1071.26
896.96	1072.20
897.26	1067.05
897.57	1068.22
897.88	1079.46
898.19	1077.82
898.49	1075.94
898.80	1082.97
899.11	1091.63
899.41	1088.82
899.72	1091.39
900.03	1084.14
900.34	1082.50
900.64	1086.01
900.95	1086.01
901.26	1092.09
901.56	1095.84
901.87	1091.39
902.18	1074.77
902.48	1068.45
902.79	1054.18
903.10	1065.88
903.40	1065.41
903.71	1067.28
904.02	1078.05
904.32	1089.99
904.63	1075.48
904.94	1070.09
905.24	1067.28
905.55	1058.39
905.85	1050.43
906.16	1060.03
906.47	1064.94
906.77	1068.45
907.08	1078.05
907.38	1077.58
907.69	1075.71
908.00	1077.11
908.30	1077.11
908.61	1078.05
908.91	1086.24
909.22	1085.54
909.52	1077.35
909.83	1075.94
910.14	1060.26
910.44	1064.71
910.75	1060.96
911.05	1073.84
911.36	1077.11
911.66	1093.26
911.97	1069.16
912.27	1072.20
912.58	1067.28
912.88	1067.52
913.19	1054.65
913.49	1067.75
913.80	1069.62
914.10	1068.45
914.41	1063.07
914.71	1075.24
915.01	1075.94
915.32	1081.33
915.62	1088.35
915.93	1100.29
916.23	1087.18
916.54	1085.31
916.84	1074.54
917.15	1068.45
917.45	1063.77
917.75	1070.56
918.06	1066.58
918.36	1067.99
918.67	1065.41
918.97	1061.20
919.27	1063.77
919.58	1073.37
919.88	1078.75
920.18	1077.11
920.49	1076.41
920.79	1072.20
921.10	1071.03
921.40	1063.07
921.70	1074.31
922.01	1081.09
922.31	1086.01
922.61	1084.84
922.92	1090.69
923.22	1098.18
923.52	1086.24
923.82	1080.39
924.13	1082.97
924.43	1071.97
924.73	1055.82
925.04	1069.62
925.34	1067.99
925.64	1067.05
925.94	1080.16
926.25	1088.58
926.55	1083.90
926.85	1096.78
927.15	1101.69
927.46	1089.52
927.76	1091.86
928.06	1097.24
928.36	1080.39
928.67	1067.75
928.97	1075.01
929.27	1075.24
929.57	1067.75
929.87	1077.58
930.18	1090.22
930.48	1089.05
930.78	1086.71
931.08	1089.75
931.38	1093.03
931.69	1087.18
931.99	1087.88
932.29	1084.37
932.59	1080.86
932.89	1072.20
933.19	1066.82
933.49	1074.31
933.80	1066.58
934.10	1068.92
934.40	1066.11
934.70	1075.24
935.00	1071.50
935.30	1080.63
935.60	1077.35
935.90	1086.71
936.20	1072.67
936.50	1073.60
936.81	1068.45
937.11	1071.03
937.41	1067.52
937.71	1078.28
938.01	1074.77
938.31	1079.46
938.61	1085.77
938.91	1081.33
939.21	1081.33
939.51	1067.05
939.81	1070.33
940.11	1064.24
940.41	1065.88
940.71	1065.88
941.01	1078.52
941.31	1064.48
941.61	1061.43
941.91	1068.92
942.21	1074.54
942.51	1083.20
942.81	1094.20
943.11	1096.31
943.41	1090.46
943.71	1091.63
944.01	1083.20
944.31	1090.22
944.61	1086.48
944.90	1095.37
945.20	1077.11
945.50	1081.80
945.80	1077.58
946.10	1080.86
946.40	1075.48
946.70	1087.88
947.00	1081.80
947.30	1087.18
947.60	1089.99
947.89	1082.97
948.19	1084.37
948.49	1091.86
948.79	1087.88
949.09	1084.60
949.39	1089.52
949.69	1086.48
949.98	1082.73
950.28	1083.90
950.58	1081.56
950.88	1075.24
951.18	1076.88
951.48	1079.22
951.77	1076.65
952.07	1079.92
952.37	1085.77
952.67	1078.75
952.97	1078.28
953.26	1089.52
953.56	1094.20
953.86	1096.07
954.16	1093.03
954.45	1095.60
954.75	1078.28
955.05	1084.37
955.35	1087.88
955.64	1088.58
955.94	1083.67
956.24	1082.03
956.54	1061.90
956.83	1055.11
957.13	1059.56
957.43	1064.24
957.72	1069.62
958.02	1082.73
958.32	1086.71
958.61	1083.67
958.91	1083.43
959.21	1082.73
959.50	1074.31
959.80	1080.86
960.10	1089.52
960.39	1081.80
960.69	1090.46
960.99	1093.97
961.28	1090.22
961.58	1083.67
961.87	1093.97
962.17	1078.75
962.47	1085.07
962.76	1085.54
963.06	1088.58
963.36	1088.35
963.65	1096.78
963.95	1090.69
964.24	1083.67
964.54	1086.24
964.83	1081.09
965.13	1071.26
965.42	1064.94
965.72	1067.99
966.02	1056.99
966.31	1048.79
966.61	1057.92
966.90	1073.37
967.20	1071.73
967.49	1081.33
967.79	1094.43
968.08	1090.22
968.38	1088.58
968.67	1087.65
968.97	1091.86
969.26	1082.73
969.56	1085.31
969.85	1078.05
970.15	1081.33
970.44	1068.45
970.74	1068.92
971.03	1072.20
971.32	1082.03
971.62	1085.77
971.91	1091.16
972.21	1099.58
972.50	1097.01
972.80	1092.09
973.09	1089.05
973.38	1087.65
973.68	1085.31
973.97	1079.46
974.27	1075.71
974.56	1060.96
974.85	1063.07
975.15	1056.28
975.44	1063.54
975.73	1056.28
976.03	1067.75
976.32	1069.16
976.61	1076.18
976.91	1063.54
977.20	1071.03
977.49	1069.86
977.79	1067.28
978.08	1066.11
978.37	1079.69
978.67	1067.05
978.96	1071.50
979.25	1080.16
979.55	1078.52
979.84	1074.07
980.13	1080.86
980.42	1076.88
980.72	1083.20
981.01	1088.35
981.30	1086.01
981.59	1095.14
981.89	1101.46
982.18	1098.41
982.47	1088.35
982.76	1087.88
983.06	1077.35
983.35	1075.01
983.64	1061.67
983.93	1067.99
984.22	1082.26
984.52	1088.12
984.81	1080.86
985.10	1083.20
985.39	1085.54
985.68	1080.39
985.97	1087.18
986.27	1097.01
986.56	1103.56
986.85	1095.60
987.14	1088.35
987.43	1081.56
987.72	1073.84
988.01	1076.41
988.31	1078.99
988.60	1077.35
988.89	1078.52
989.18	1087.41
989.47	1078.52
989.76	1075.94
990.05	1076.41
990.34	1063.54
990.63	1054.65
990.92	1060.96
991.21	1067.05
991.51	1075.71
991.80	1087.18
992.09	1095.60
992.38	1084.14
992.67	1082.73
992.96	1079.69
993.25	1078.52
993.54	1073.37
993.83	1085.54
994.12	1084.84
994.41	1092.09
994.70	1085.77
994.99	1088.12
995.28	1086.48
995.57	1086.01
995.86	1074.07
996.15	1085.31
996.44	1078.28
996.73	1067.52
997.02	1075.94
997.31	1075.48
997.59	1077.35
997.88	1083.20
998.17	1095.37
998.46	1081.09
998.75	1075.94
999.04	1069.86
999.33	1071.50
999.62	1064.01
999.91	1069.39
1000.20	1080.63
1000.49	1087.41
1000.77	1082.73
1001.06	1087.65
1001.35	1088.35
1001.64	1087.88
1001.93	1086.01
1002.22	1087.18
1002.51	1081.56
1002.79	1081.09
1003.08	1083.67
1003.37	1086.24
1003.66	1089.52
1003.95	1090.92
1004.23	1100.75
1004.52	1106.37
1004.81	1113.16
1005.10	1116.67
1005.39	1114.33
1005.67	1103.56
1005.96	1087.41
1006.25	1078.05
1006.54	1070.33
1006.83	1077.35
1007.11	1074.54
1007.40	1077.58
1007.69	1073.60
1007.97	1069.86
1008.26	1058.39
1008.55	1056.75
1008.84	1055.11
1009.12	1060.50
1009.41	1062.14
1009.70	1071.03
1009.98	1083.20
1010.27	1084.37
1010.56	1085.77
1010.85	1088.35
1011.13	1095.84
1011.42	1085.07
1011.71	1088.35
1011.99	1083.20
1012.28	1087.41
1012.56	1087.41
1012.85	1088.58
1013.14	1085.54
1013.42	1089.05
1013.71	1084.14
1014.00	1083.67
1014.28	1090.22
1014.57	1096.78
1014.85	1095.60
1015.14	1099.35
1015.43	1090.92
1015.71	1082.03
1016.00	1076.88
1016.28	1070.09
1016.57	1074.54
1016.85	1078.52
1017.14	1084.14
1017.43	1084.14
1017.71	1094.43
1018.00	1084.84
1018.28	1088.35
1018.57	1090.22
1018.85	1087.41
1019.14	1082.50
1019.42	1077.11
1019.71	1060.50
1019.99	1064.94
1020.28	1071.26
1020.56	1071.97
1020.85	1076.65
1021.13	1085.31
1021.42	1084.60
1021.70	1085.31
1021.99	1082.26
1022.27	1092.09
1022.55	1081.33
1022.84	1111.75
>>>>>End Processed Spectral Data<<<<<
