SpectraSuite Data File
++++++++++++++++++++++++++++++++++++
Date: Mon Aug 26 10:25:50 PDT 2019
User: corrico
Dark Spectrum Present: No
Reference Spectrum Present: No
Number of Sampled Component Spectra: 1
Spectrometers: USB2+H06089
Integration Time (usec): 10000 (USB2+H06089)
Spectra Averaged: 2 (USB2+H06089)
Boxcar Smoothing: 2 (USB2+H06089)
Correct for Electrical Dark: No (USB2+H06089)
Strobe/Lamp Enabled: No (USB2+H06089)
Correct for Detector Non-linearity: No (USB2+H06089)
Correct for Stray Light: No (USB2+H06089)
Number of Pixels in Processed Spectrum: 2048
>>>>>Begin Processed Spectral Data<<<<<
339.70	1020.47
340.07	1020.47
340.45	981.62
340.82	971.09
341.19	943.47
341.57	918.66
341.94	925.92
342.31	923.11
342.69	917.26
343.06	913.98
343.43	914.45
343.81	904.62
344.18	910.23
344.55	907.19
344.93	922.41
345.30	929.43
345.67	937.38
346.04	944.87
346.42	955.64
346.79	955.41
347.16	973.43
347.54	971.79
347.91	980.68
348.28	975.07
348.65	984.90
349.03	980.45
349.40	996.13
349.77	999.88
350.14	1016.96
350.52	1025.39
350.89	1032.64
351.26	1031.47
351.63	1037.79
352.01	1045.75
352.38	1056.99
352.75	1059.09
353.12	1064.24
353.50	1074.54
353.87	1074.77
354.24	1065.88
354.61	1064.94
354.98	1070.56
355.36	1060.50
355.73	1070.80
356.10	1079.92
356.47	1083.67
356.84	1083.90
357.22	1086.71
357.59	1075.24
357.96	1076.65
358.33	1082.73
358.70	1079.46
359.08	1080.86
359.45	1078.75
359.82	1070.80
360.19	1072.43
360.56	1078.05
360.94	1082.73
361.31	1097.71
361.68	1099.12
362.05	1092.56
362.42	1083.67
362.79	1072.43
363.16	1060.96
363.54	1065.65
363.91	1063.54
364.28	1074.31
364.65	1076.65
365.02	1080.86
365.39	1079.92
365.76	1084.37
366.14	1076.18
366.51	1079.92
366.88	1069.16
367.25	1060.03
367.62	1067.28
367.99	1065.88
368.36	1061.43
368.73	1065.65
369.10	1072.90
369.48	1070.56
369.85	1068.69
370.22	1063.54
370.59	1058.86
370.96	1058.86
371.33	1049.73
371.70	1058.39
372.07	1070.33
372.44	1085.77
372.81	1082.03
373.18	1084.60
373.55	1080.16
373.93	1075.01
374.30	1068.69
374.67	1068.22
375.04	1071.26
375.41	1065.65
375.78	1072.20
376.15	1070.33
376.52	1082.97
376.89	1083.90
377.26	1092.33
377.63	1086.94
378.00	1087.41
378.37	1066.35
378.74	1063.07
379.11	1068.45
379.48	1059.09
379.85	1062.37
380.22	1080.16
380.59	1081.56
380.96	1068.92
381.33	1076.88
381.70	1067.05
382.07	1056.99
382.44	1054.18
382.81	1067.05
383.18	1068.92
383.55	1075.94
383.92	1082.97
384.29	1085.54
384.66	1075.24
385.03	1067.75
385.40	1074.31
385.77	1075.94
386.14	1071.03
386.51	1077.58
386.88	1081.09
387.25	1077.82
387.62	1072.67
387.99	1071.73
388.36	1063.54
388.73	1064.71
389.10	1069.86
389.46	1067.75
389.83	1079.46
390.20	1081.33
390.57	1091.86
390.94	1085.07
391.31	1088.82
391.68	1080.16
392.05	1087.88
392.42	1075.48
392.79	1069.62
393.16	1062.37
393.53	1060.50
393.89	1051.37
394.26	1052.07
394.63	1055.11
395.00	1068.92
395.37	1072.67
395.74	1072.90
396.11	1076.65
396.48	1075.71
396.84	1071.03
397.21	1074.31
397.58	1082.03
397.95	1080.86
398.32	1075.71
398.69	1071.03
399.06	1061.67
399.42	1058.62
399.79	1063.07
400.16	1064.94
400.53	1076.65
400.90	1087.18
401.27	1087.88
401.64	1083.67
402.00	1079.69
402.37	1074.07
402.74	1071.50
403.11	1064.94
403.48	1062.37
403.84	1071.73
404.21	1071.50
404.58	1066.35
404.95	1080.63
405.32	1083.90
405.68	1083.20
406.05	1088.58
406.42	1090.92
406.79	1082.03
407.16	1079.92
407.52	1079.92
407.89	1065.65
408.26	1063.77
408.63	1075.01
408.99	1070.80
409.36	1068.69
409.73	1075.48
410.10	1072.90
410.47	1066.82
410.83	1075.71
411.20	1079.69
411.57	1077.35
411.94	1073.14
412.30	1075.94
412.67	1076.18
413.04	1073.60
413.40	1077.11
413.77	1081.80
414.14	1072.43
414.51	1075.94
414.87	1070.56
415.24	1078.28
415.61	1085.07
415.97	1086.48
416.34	1075.71
416.71	1081.80
417.08	1074.54
417.44	1075.71
417.81	1073.14
418.18	1073.14
418.54	1071.73
418.91	1066.35
419.28	1064.48
419.64	1073.14
420.01	1080.86
420.38	1075.24
420.74	1080.86
421.11	1088.82
421.48	1090.22
421.84	1080.86
422.21	1095.60
422.58	1097.24
422.94	1093.03
423.31	1083.67
423.68	1092.09
424.04	1085.31
424.41	1072.67
424.77	1067.28
425.14	1063.54
425.51	1058.39
425.87	1061.20
426.24	1065.18
426.61	1059.56
426.97	1071.03
427.34	1074.77
427.70	1070.09
428.07	1077.58
428.44	1087.41
428.80	1084.37
429.17	1086.24
429.53	1088.35
429.90	1087.65
430.27	1085.07
430.63	1079.46
431.00	1074.07
431.36	1068.92
431.73	1069.62
432.09	1064.48
432.46	1070.56
432.83	1081.09
433.19	1083.20
433.56	1076.18
433.92	1070.80
434.29	1073.60
434.65	1064.94
435.02	1065.41
435.38	1072.67
435.75	1092.09
436.11	1079.46
436.48	1093.97
436.84	1094.20
437.21	1102.86
437.57	1091.16
437.94	1098.65
438.30	1085.77
438.67	1091.63
439.03	1086.71
439.40	1092.80
439.76	1088.82
440.13	1090.92
440.49	1082.97
440.86	1071.97
441.22	1066.35
441.59	1074.54
441.95	1070.09
442.32	1079.46
442.68	1086.71
443.05	1087.41
443.41	1085.54
443.78	1081.33
444.14	1086.48
444.51	1088.12
444.87	1096.31
445.24	1088.58
445.60	1095.60
445.96	1087.65
446.33	1083.67
446.69	1070.80
447.06	1079.46
447.42	1076.41
447.79	1072.67
448.15	1067.75
448.51	1071.26
448.88	1056.75
449.24	1057.92
449.61	1061.43
449.97	1059.09
450.33	1063.31
450.70	1070.80
451.06	1070.09
451.43	1061.67
451.79	1064.94
452.15	1060.26
452.52	1071.50
452.88	1078.75
453.24	1077.58
453.61	1085.54
453.97	1083.43
454.34	1074.07
454.70	1071.03
455.06	1073.60
455.43	1063.77
455.79	1067.05
456.15	1065.41
456.52	1063.54
456.88	1071.97
457.24	1065.88
457.61	1074.07
457.97	1078.05
458.33	1080.63
458.70	1079.22
459.06	1085.77
459.42	1070.09
459.79	1060.26
460.15	1061.67
460.51	1062.37
460.88	1072.43
461.24	1080.63
461.60	1083.67
461.96	1075.01
462.33	1078.28
462.69	1061.67
463.05	1063.07
463.42	1063.07
463.78	1067.52
464.14	1064.94
464.50	1076.41
464.87	1074.54
465.23	1082.03
465.59	1079.22
465.95	1073.60
466.32	1079.69
466.68	1079.92
467.04	1080.86
467.40	1087.18
467.77	1092.56
468.13	1080.86
468.49	1076.88
468.85	1081.33
469.22	1081.80
469.58	1077.35
469.94	1091.39
470.30	1103.33
470.66	1089.99
471.03	1080.39
471.39	1086.71
471.75	1075.71
472.11	1072.20
472.47	1085.77
472.84	1088.82
473.20	1085.77
473.56	1086.48
473.92	1082.73
474.28	1080.39
474.65	1090.22
475.01	1083.43
475.37	1078.75
475.73	1089.05
476.09	1084.60
476.45	1073.14
476.81	1074.77
477.18	1087.18
477.54	1076.65
477.90	1067.99
478.26	1071.50
478.62	1071.73
478.98	1071.50
479.34	1074.54
479.71	1079.22
480.07	1077.35
480.43	1072.67
480.79	1067.05
481.15	1064.24
481.51	1065.41
481.87	1072.90
482.23	1084.84
482.59	1082.73
482.96	1080.86
483.32	1091.39
483.68	1093.26
484.04	1086.48
484.40	1086.01
484.76	1086.94
485.12	1075.48
485.48	1070.33
485.84	1069.86
486.20	1072.90
486.56	1069.16
486.92	1075.48
487.28	1072.20
487.64	1081.80
488.00	1081.09
488.37	1087.18
488.73	1086.94
489.09	1090.92
489.45	1083.43
489.81	1081.80
490.17	1083.67
490.53	1086.48
490.89	1097.24
491.25	1092.80
491.61	1095.84
491.97	1096.07
492.33	1090.69
492.69	1084.84
493.05	1091.63
493.41	1089.75
493.77	1088.82
494.13	1089.75
494.49	1082.73
494.85	1076.65
495.21	1078.99
495.57	1078.05
495.93	1079.46
496.29	1078.28
496.64	1079.22
497.00	1080.39
497.36	1083.67
497.72	1085.77
498.08	1082.97
498.44	1089.52
498.80	1096.78
499.16	1087.18
499.52	1082.26
499.88	1085.31
500.24	1089.05
500.60	1078.28
500.96	1085.77
501.32	1082.97
501.68	1093.97
502.03	1081.33
502.39	1072.43
502.75	1064.48
503.11	1059.09
503.47	1051.13
503.83	1052.30
504.19	1069.86
504.55	1077.82
504.91	1085.31
505.26	1080.39
505.62	1089.75
505.98	1077.82
506.34	1074.54
506.70	1088.35
507.06	1093.26
507.42	1092.80
507.78	1105.90
508.13	1100.29
508.49	1093.97
508.85	1089.75
509.21	1085.31
509.57	1077.82
509.93	1089.75
510.28	1089.99
510.64	1100.29
511.00	1091.86
511.36	1091.39
511.72	1082.73
512.07	1079.92
512.43	1078.52
512.79	1090.46
513.15	1086.24
513.51	1091.16
513.86	1088.58
514.22	1080.63
514.58	1085.77
514.94	1087.65
515.30	1080.86
515.65	1077.58
516.01	1084.37
516.37	1081.33
516.73	1090.22
517.08	1096.31
517.44	1101.46
517.80	1100.75
518.16	1097.48
518.51	1091.86
518.87	1085.07
519.23	1090.46
519.59	1089.75
519.94	1093.50
520.30	1089.29
520.66	1099.12
521.01	1104.73
521.37	1113.39
521.73	1114.09
522.09	1116.67
522.44	1116.90
522.80	1097.24
523.16	1091.39
523.51	1087.41
523.87	1086.94
524.23	1082.03
524.58	1075.94
524.94	1072.67
525.30	1072.90
525.65	1067.99
526.01	1063.54
526.37	1082.73
526.72	1077.58
527.08	1078.75
527.44	1083.20
527.79	1090.92
528.15	1077.35
528.51	1082.73
528.86	1076.41
529.22	1077.58
529.58	1073.60
529.93	1077.58
530.29	1082.03
530.65	1079.46
531.00	1081.09
531.36	1087.18
531.71	1092.33
532.07	1088.12
532.43	1094.20
532.78	1098.88
533.14	1094.43
533.49	1092.56
533.85	1090.22
534.21	1090.69
534.56	1089.75
534.92	1094.67
535.27	1099.12
535.63	1102.86
535.98	1101.69
536.34	1103.33
536.69	1097.95
537.05	1104.73
537.41	1102.39
537.76	1103.33
538.12	1098.65
538.47	1095.60
538.83	1082.73
539.18	1077.58
539.54	1069.16
539.89	1070.33
540.25	1073.60
540.60	1089.29
540.96	1093.03
541.31	1098.88
541.67	1097.71
542.02	1097.71
542.38	1087.88
542.73	1085.31
543.09	1088.58
543.44	1087.18
543.80	1088.35
544.15	1087.88
544.51	1081.33
544.86	1078.28
545.22	1081.09
545.57	1081.09
545.93	1086.01
546.28	1100.05
546.64	1106.61
546.99	1107.31
547.35	1111.75
547.70	1106.84
548.05	1108.48
548.41	1097.01
548.76	1085.07
549.12	1082.03
549.47	1075.71
549.83	1068.92
550.18	1079.22
550.53	1086.48
550.89	1094.43
551.24	1093.03
551.60	1093.73
551.95	1089.29
552.30	1090.69
552.66	1082.97
553.01	1081.56
553.37	1070.09
553.72	1069.86
554.07	1072.67
554.43	1072.43
554.78	1080.86
555.13	1095.37
555.49	1093.97
555.84	1092.56
556.19	1087.65
556.55	1078.52
556.90	1085.54
557.26	1094.43
557.61	1098.18
557.96	1106.61
558.32	1115.27
558.67	1103.09
559.02	1097.71
559.37	1091.16
559.73	1084.84
560.08	1085.54
560.43	1084.37
560.79	1089.29
561.14	1093.50
561.49	1090.92
561.85	1093.73
562.20	1106.61
562.55	1100.52
562.90	1096.31
563.26	1104.97
563.61	1110.82
563.96	1100.52
564.32	1094.90
564.67	1105.67
565.02	1099.35
565.37	1091.16
565.73	1085.77
566.08	1089.52
566.43	1088.58
566.78	1093.26
567.14	1092.09
567.49	1096.78
567.84	1096.54
568.19	1086.24
568.54	1078.28
568.90	1078.75
569.25	1081.09
569.60	1078.52
569.95	1080.86
570.31	1090.46
570.66	1084.14
571.01	1083.90
571.36	1082.26
571.71	1070.33
572.06	1064.48
572.42	1065.18
572.77	1058.39
573.12	1059.56
573.47	1068.22
573.82	1067.28
574.18	1074.77
574.53	1086.01
574.88	1091.39
575.23	1097.95
575.58	1092.80
575.93	1089.52
576.28	1087.41
576.64	1089.75
576.99	1085.07
577.34	1086.01
577.69	1088.35
578.04	1074.77
578.39	1071.03
578.74	1075.48
579.09	1076.41
579.44	1074.54
579.80	1082.73
580.15	1077.35
580.50	1073.14
580.85	1077.58
581.20	1073.14
581.55	1077.35
581.90	1089.52
582.25	1088.82
582.60	1085.07
582.95	1088.82
583.30	1082.26
583.65	1078.05
584.00	1067.75
584.35	1074.07
584.71	1070.09
585.06	1076.65
585.41	1079.92
585.76	1097.71
586.11	1090.69
586.46	1102.39
586.81	1088.82
587.16	1077.82
587.51	1070.33
587.86	1075.01
588.21	1068.22
588.56	1078.28
588.91	1081.56
589.26	1086.48
589.61	1076.88
589.96	1071.97
590.31	1074.31
590.66	1070.56
591.01	1066.82
591.36	1079.69
591.71	1078.75
592.06	1079.69
592.41	1084.84
592.76	1084.60
593.10	1082.73
593.45	1078.28
593.80	1074.54
594.15	1078.75
594.50	1075.01
594.85	1078.52
595.20	1082.26
595.55	1079.92
595.90	1076.88
596.25	1077.58
596.60	1077.35
596.95	1078.52
597.30	1089.05
597.64	1140.31
597.99	1152.71
598.34	1145.69
598.69	1149.67
599.04	1141.95
599.39	1092.33
599.74	1078.52
600.09	1080.86
600.44	1077.11
600.78	1072.43
601.13	1058.16
601.48	1066.82
601.83	1064.48
602.18	1066.58
602.53	1072.67
602.88	1092.33
603.22	1092.56
603.57	1095.84
603.92	1091.39
604.27	1089.52
604.62	1081.80
604.97	1072.67
605.31	1075.01
605.66	1092.80
606.01	1102.16
606.36	1100.75
606.71	1108.95
607.05	1107.07
607.40	1092.80
607.75	1085.54
608.10	1089.52
608.44	1095.84
608.79	1100.05
609.14	1101.92
609.49	1107.54
609.84	1110.35
610.18	1103.80
610.53	1096.78
610.88	1098.88
611.23	1088.35
611.57	1084.60
611.92	1083.20
612.27	1076.88
612.62	1075.48
612.96	1089.29
613.31	1086.01
613.66	1079.46
614.00	1095.84
614.35	1100.75
614.70	1086.48
615.05	1086.48
615.39	1091.86
615.74	1096.31
616.09	1094.67
616.43	1108.48
616.78	1114.80
617.13	1114.10
617.47	1099.35
617.82	1090.46
618.17	1084.14
618.51	1073.84
618.86	1080.16
619.21	1088.35
619.55	1094.67
619.90	1095.60
620.25	1099.12
620.59	1098.65
620.94	1096.54
621.29	1102.16
621.63	1096.78
621.98	1097.48
622.32	1105.44
622.67	1117.14
623.02	1108.24
623.36	1117.84
623.71	1115.50
624.05	1109.18
624.40	1101.22
624.75	1099.82
625.09	1083.67
625.44	1087.65
625.78	1077.11
626.13	1064.01
626.48	1068.92
626.82	1079.92
627.17	1091.16
627.51	1095.37
627.86	1108.01
628.20	1100.29
628.55	1102.86
628.89	1092.80
629.24	1089.75
629.58	1080.63
629.93	1080.86
630.28	1076.88
630.62	1078.05
630.97	1082.03
631.31	1081.56
631.66	1093.26
632.00	1088.82
632.35	1083.43
632.69	1079.92
633.04	1083.20
633.38	1076.18
633.73	1084.14
634.07	1082.97
634.42	1085.07
634.76	1078.75
635.11	1075.01
635.45	1074.54
635.79	1084.37
636.14	1077.82
636.48	1082.03
636.83	1086.71
637.17	1082.03
637.52	1074.07
637.86	1078.52
638.21	1077.35
638.55	1079.92
638.89	1082.26
639.24	1084.14
639.58	1082.26
639.93	1091.16
640.27	1092.56
640.61	1090.92
640.96	1091.86
641.30	1101.69
641.65	1105.44
641.99	1106.14
642.33	1106.61
642.68	1097.95
643.02	1087.65
643.37	1078.28
643.71	1075.48
644.05	1071.03
644.40	1078.28
644.74	1071.26
645.08	1073.14
645.43	1068.92
645.77	1075.94
646.11	1079.92
646.46	1088.58
646.80	1076.41
647.14	1091.16
647.49	1089.05
647.83	1088.58
648.17	1092.80
648.52	1109.18
648.86	1091.63
649.20	1086.71
649.55	1082.73
649.89	1078.52
650.23	1063.77
650.57	1063.54
650.92	1059.79
651.26	1065.88
651.60	1068.69
651.95	1072.20
652.29	1070.33
652.63	1080.39
652.97	1081.56
653.32	1082.50
653.66	1094.90
654.00	1106.84
654.34	1109.41
654.69	1105.20
655.03	1107.54
655.37	1105.20
655.71	1103.56
656.05	1096.07
656.40	1097.71
656.74	1097.71
657.08	1097.95
657.42	1092.33
657.76	1099.35
658.11	1098.41
658.45	1082.73
658.79	1070.09
659.13	1076.18
659.47	1066.35
659.82	1064.24
660.16	1067.05
660.50	1070.56
660.84	1067.99
661.18	1068.45
661.52	1069.16
661.87	1079.46
662.21	1080.39
662.55	1071.26
662.89	1073.60
663.23	1067.05
663.57	1063.31
663.91	1071.50
664.25	1075.94
664.60	1078.52
664.94	1084.84
665.28	1089.52
665.62	1089.29
665.96	1092.80
666.30	1091.86
666.64	1093.03
666.98	1093.26
667.32	1082.03
667.66	1089.05
668.01	1089.52
668.35	1085.77
668.69	1093.03
669.03	1101.46
669.37	1096.07
669.71	1099.58
670.05	1107.31
670.39	1090.69
670.73	1086.94
671.07	1089.99
671.41	1087.41
671.75	1076.88
672.09	1084.37
672.43	1088.82
672.77	1085.54
673.11	1083.43
673.45	1085.07
673.79	1089.29
674.13	1086.94
674.47	1088.58
674.81	1087.41
675.15	1088.12
675.49	1084.84
675.83	1076.41
676.17	1078.75
676.51	1083.20
676.85	1086.01
677.19	1090.22
677.53	1098.88
677.87	1095.37
678.21	1094.67
678.55	1098.41
678.89	1096.78
679.23	1093.26
679.57	1092.80
679.90	1089.99
680.24	1086.24
680.58	1078.99
680.92	1084.84
681.26	1082.97
681.60	1088.12
681.94	1088.58
682.28	1089.52
682.62	1080.16
682.96	1078.05
683.29	1072.67
683.63	1073.14
683.97	1071.03
684.31	1076.65
684.65	1081.09
684.99	1086.24
685.33	1086.48
685.67	1089.75
686.00	1088.12
686.34	1082.03
686.68	1085.07
687.02	1088.12
687.36	1092.33
687.70	1099.12
688.03	1103.33
688.37	1088.12
688.71	1085.77
689.05	1078.52
689.39	1072.90
689.72	1075.48
690.06	1086.94
690.40	1082.26
690.74	1086.94
691.08	1093.97
691.41	1093.97
691.75	1082.73
692.09	1077.11
692.43	1078.28
692.76	1063.77
693.10	1065.88
693.44	1077.35
693.78	1086.48
694.11	1092.09
694.45	1092.56
694.79	1086.24
695.13	1084.37
695.46	1084.37
695.80	1078.52
696.14	1090.22
696.48	1089.29
696.81	1087.88
697.15	1081.09
697.49	1076.88
697.82	1068.22
698.16	1065.88
698.50	1062.60
698.83	1064.01
699.17	1056.52
699.51	1065.88
699.84	1064.48
700.18	1072.90
700.52	1075.24
700.85	1088.35
701.19	1082.97
701.53	1093.50
701.86	1086.48
702.20	1088.12
702.54	1081.33
702.87	1082.50
703.21	1080.63
703.55	1083.20
703.88	1085.77
704.22	1082.50
704.55	1081.80
704.89	1075.71
705.23	1068.22
705.56	1066.35
705.90	1071.97
706.23	1068.45
706.57	1069.39
706.91	1077.58
707.24	1075.01
707.58	1078.75
707.91	1077.82
708.25	1079.22
708.58	1079.22
708.92	1082.03
709.26	1077.11
709.59	1083.90
709.93	1080.63
710.26	1087.18
710.60	1085.77
710.93	1081.56
711.27	1078.99
711.60	1085.77
711.94	1078.52
712.27	1078.99
712.61	1076.18
712.94	1073.60
713.28	1069.62
713.61	1068.92
713.95	1062.14
714.28	1072.67
714.62	1064.24
714.95	1068.22
715.29	1069.39
715.62	1071.97
715.96	1073.84
716.29	1085.54
716.63	1089.99
716.96	1086.94
717.29	1083.43
717.63	1080.16
717.96	1076.18
718.30	1069.16
718.63	1070.80
718.97	1077.82
719.30	1074.07
719.63	1069.86
719.97	1065.18
720.30	1055.58
720.64	1054.18
720.97	1057.69
721.30	1076.18
721.64	1080.16
721.97	1087.65
722.31	1098.88
722.64	1094.67
722.97	1074.31
723.31	1076.88
723.64	1093.26
723.97	1084.14
724.31	1087.18
724.64	1094.67
724.98	1090.46
725.31	1082.97
725.64	1087.88
725.98	1091.86
726.31	1090.92
726.64	1095.60
726.97	1091.16
727.31	1086.01
727.64	1079.22
727.97	1077.11
728.31	1080.16
728.64	1073.60
728.97	1075.24
729.31	1073.37
729.64	1077.82
729.97	1069.86
730.30	1073.14
730.64	1074.07
730.97	1082.50
731.30	1083.20
731.63	1091.16
731.97	1089.75
732.30	1092.80
732.63	1096.54
732.96	1098.88
733.30	1091.86
733.63	1094.20
733.96	1086.94
734.29	1070.09
734.63	1060.03
734.96	1055.82
735.29	1061.90
735.62	1061.20
735.95	1066.11
736.29	1071.73
736.62	1070.09
736.95	1060.26
737.28	1055.58
737.61	1053.01
737.94	1051.60
738.28	1050.43
738.61	1060.26
738.94	1066.58
739.27	1080.63
739.60	1079.46
739.93	1087.88
740.27	1075.71
740.60	1069.39
740.93	1058.39
741.26	1055.82
741.59	1050.90
741.92	1054.65
742.25	1061.20
742.58	1056.99
742.91	1063.77
743.25	1063.77
743.58	1070.56
743.91	1076.41
744.24	1087.65
744.57	1089.75
744.90	1098.41
745.23	1089.99
745.56	1082.03
745.89	1086.01
746.22	1081.33
746.55	1082.26
746.88	1084.14
747.21	1084.14
747.54	1078.05
747.87	1079.92
748.20	1071.03
748.53	1076.88
748.87	1079.69
749.20	1085.77
749.53	1087.18
749.86	1096.07
750.19	1088.82
750.52	1087.88
750.85	1082.97
751.18	1074.31
751.51	1067.99
751.84	1077.11
752.16	1073.37
752.49	1070.80
752.82	1074.31
753.15	1082.26
753.48	1080.16
753.81	1077.35
754.14	1083.90
754.47	1090.69
754.80	1084.37
755.13	1086.48
755.46	1100.52
755.79	1090.69
756.12	1082.97
756.45	1085.31
756.78	1086.48
757.11	1068.45
757.43	1071.26
757.76	1075.01
758.09	1072.90
758.42	1060.26
758.75	1068.22
759.08	1071.97
759.41	1084.14
759.74	1076.65
760.07	1079.46
760.39	1078.52
760.72	1081.09
761.05	1071.26
761.38	1082.97
761.71	1080.86
762.04	1081.80
762.36	1082.03
762.69	1081.09
763.02	1079.22
763.35	1093.26
763.68	1100.29
764.01	1095.14
764.33	1089.29
764.66	1099.12
764.99	1092.56
765.32	1090.22
765.65	1089.99
765.97	1088.58
766.30	1077.11
766.63	1072.67
766.96	1068.92
767.28	1063.77
767.61	1069.62
767.94	1071.26
768.27	1074.54
768.59	1084.37
768.92	1091.16
769.25	1100.52
769.58	1093.97
769.90	1093.73
770.23	1086.24
770.56	1085.31
770.89	1073.84
771.21	1082.03
771.54	1083.43
771.87	1081.56
772.19	1078.75
772.52	1078.75
772.85	1075.48
773.17	1077.58
773.50	1083.43
773.83	1083.90
774.15	1085.31
774.48	1073.37
774.81	1064.94
775.13	1061.43
775.46	1077.82
775.79	1083.90
776.11	1098.41
776.44	1098.88
776.77	1100.75
777.09	1090.92
777.42	1092.09
777.74	1082.97
778.07	1080.63
778.40	1078.05
778.72	1071.50
779.05	1071.97
779.37	1075.94
779.70	1075.01
780.03	1075.94
780.35	1084.60
780.68	1082.73
781.00	1092.33
781.33	1099.58
781.65	1103.56
781.98	1088.58
782.31	1077.82
782.63	1071.03
782.96	1073.37
783.28	1068.69
783.61	1073.14
783.93	1076.18
784.26	1075.94
784.58	1073.14
784.91	1071.97
785.23	1073.84
785.56	1071.97
785.88	1077.82
786.21	1086.24
786.53	1092.09
786.86	1097.24
787.18	1106.14
787.51	1100.05
787.83	1087.88
788.16	1084.14
788.48	1077.82
788.81	1077.58
789.13	1078.28
789.46	1086.48
789.78	1091.39
790.10	1095.60
790.43	1085.77
790.75	1085.54
791.08	1080.16
791.40	1066.58
791.73	1072.90
792.05	1083.67
792.37	1081.09
792.70	1078.75
793.02	1080.63
793.35	1073.60
793.67	1073.37
793.99	1078.28
794.32	1085.31
794.64	1091.63
794.96	1088.12
795.29	1094.90
795.61	1099.58
795.93	1084.37
796.26	1072.43
796.58	1064.24
796.91	1048.79
797.23	1058.16
797.55	1066.11
797.87	1082.03
798.20	1092.09
798.52	1097.71
798.84	1074.31
799.17	1076.18
799.49	1075.01
799.81	1085.07
800.14	1081.80
800.46	1092.33
800.78	1091.39
801.10	1077.82
801.43	1072.90
801.75	1077.35
802.07	1071.26
802.40	1073.37
802.72	1090.92
803.04	1091.39
803.36	1081.33
803.69	1076.18
804.01	1082.26
804.33	1074.31
804.65	1064.01
804.97	1066.35
805.30	1077.35
805.62	1072.67
805.94	1070.80
806.26	1079.69
806.58	1080.86
806.91	1081.80
807.23	1081.09
807.55	1087.65
807.87	1085.54
808.19	1084.37
808.52	1075.24
808.84	1083.90
809.16	1087.18
809.48	1085.31
809.80	1092.80
810.12	1102.86
810.44	1099.58
810.77	1086.71
811.09	1087.41
811.41	1085.31
811.73	1085.31
812.05	1071.50
812.37	1067.75
812.69	1070.56
813.01	1074.07
813.33	1073.37
813.66	1083.20
813.98	1087.65
814.30	1079.92
814.62	1078.05
814.94	1078.52
815.26	1076.65
815.58	1079.69
815.90	1083.90
816.22	1090.22
816.54	1080.86
816.86	1075.48
817.18	1075.01
817.50	1074.07
817.82	1062.60
818.14	1065.65
818.46	1069.62
818.78	1067.28
819.10	1075.24
819.42	1077.11
819.74	1080.16
820.06	1077.58
820.38	1082.73
820.70	1070.80
821.02	1072.20
821.34	1073.84
821.66	1068.69
821.98	1071.03
822.30	1074.77
822.62	1068.92
822.94	1069.86
823.26	1080.39
823.58	1077.35
823.90	1075.01
824.22	1079.22
824.54	1073.37
824.86	1075.71
825.18	1073.60
825.50	1087.65
825.81	1092.56
826.13	1093.26
826.45	1095.60
826.77	1096.78
827.09	1087.65
827.41	1086.01
827.73	1084.37
828.05	1080.63
828.36	1076.41
828.68	1085.77
829.00	1086.48
829.32	1094.43
829.64	1101.69
829.96	1100.99
830.28	1079.22
830.59	1081.56
830.91	1079.22
831.23	1077.82
831.55	1086.94
831.87	1099.35
832.19	1096.31
832.50	1095.14
832.82	1081.09
833.14	1081.56
833.46	1088.82
833.78	1088.58
834.09	1093.50
834.41	1104.03
834.73	1113.63
835.05	1104.73
835.36	1105.67
835.68	1104.73
836.00	1098.18
836.32	1084.37
836.63	1077.35
836.95	1080.86
837.27	1077.11
837.59	1079.22
837.90	1083.43
838.22	1093.26
838.54	1082.50
838.85	1082.73
839.17	1078.28
839.49	1069.86
839.80	1068.69
840.12	1071.97
840.44	1066.35
840.76	1076.41
841.07	1081.33
841.39	1088.58
841.71	1087.88
842.02	1089.99
842.34	1094.90
842.65	1080.39
842.97	1063.54
843.29	1062.84
843.60	1058.16
843.92	1049.96
844.24	1065.18
844.55	1078.99
844.87	1087.88
845.18	1091.39
845.50	1093.73
845.82	1088.12
846.13	1082.73
846.45	1070.09
846.76	1071.97
847.08	1069.16
847.40	1078.52
847.71	1083.43
848.03	1084.37
848.34	1084.60
848.66	1092.33
848.97	1097.48
849.29	1103.56
849.60	1104.26
849.92	1104.97
850.24	1087.41
850.55	1076.88
850.87	1075.01
851.18	1079.22
851.50	1079.22
851.81	1093.50
852.13	1093.97
852.44	1090.22
852.76	1096.78
853.07	1091.16
853.39	1083.43
853.70	1086.71
854.01	1079.46
854.33	1082.26
854.64	1086.24
854.96	1081.80
855.27	1082.50
855.59	1077.58
855.90	1068.92
856.22	1066.35
856.53	1069.16
856.84	1071.97
857.16	1081.80
857.47	1089.05
857.79	1085.77
858.10	1089.52
858.41	1082.50
858.73	1066.11
859.04	1060.96
859.36	1065.18
859.67	1064.94
859.98	1069.62
860.30	1081.80
860.61	1080.16
860.92	1083.43
861.24	1082.26
861.55	1073.84
861.87	1074.77
862.18	1075.48
862.49	1069.62
862.81	1065.65
863.12	1072.20
863.43	1072.67
863.74	1069.62
864.06	1072.90
864.37	1073.37
864.68	1066.11
865.00	1067.99
865.31	1061.20
865.62	1063.77
865.94	1076.88
866.25	1084.84
866.56	1084.60
866.87	1092.80
867.19	1095.37
867.50	1082.03
867.81	1083.67
868.12	1078.99
868.44	1079.46
868.75	1072.67
869.06	1069.62
869.37	1061.43
869.68	1067.52
870.00	1065.88
870.31	1063.07
870.62	1066.58
870.93	1076.65
871.24	1074.31
871.56	1076.18
871.87	1075.71
872.18	1086.94
872.49	1075.71
872.80	1073.14
873.12	1076.18
873.43	1080.63
873.74	1071.73
874.05	1075.94
874.36	1089.52
874.67	1082.03
874.98	1077.82
875.29	1074.31
875.61	1073.37
875.92	1059.33
876.23	1067.99
876.54	1060.73
876.85	1067.52
877.16	1070.56
877.47	1077.58
877.78	1072.20
878.09	1082.03
878.40	1074.54
878.72	1074.54
879.03	1072.67
879.34	1081.33
879.65	1091.16
879.96	1092.80
880.27	1087.65
880.58	1081.09
880.89	1073.14
881.20	1067.05
881.51	1067.05
881.82	1064.71
882.13	1072.67
882.44	1068.45
882.75	1063.07
883.06	1064.24
883.37	1065.18
883.68	1064.01
883.99	1070.56
884.30	1078.99
884.61	1075.24
884.92	1075.94
885.23	1075.48
885.54	1066.35
885.85	1069.86
886.16	1079.22
886.47	1078.52
886.78	1075.71
887.08	1084.60
887.39	1082.97
887.70	1074.54
888.01	1085.77
888.32	1093.03
888.63	1096.07
888.94	1093.73
889.25	1093.73
889.56	1087.18
889.87	1076.65
890.17	1073.14
890.48	1072.20
890.79	1077.82
891.10	1081.80
891.41	1089.52
891.72	1090.22
892.03	1085.07
892.34	1080.16
892.64	1075.01
892.95	1072.90
893.26	1070.33
893.57	1065.18
893.88	1063.54
894.18	1070.80
894.49	1062.84
894.80	1061.90
895.11	1075.01
895.42	1085.77
895.72	1080.63
896.03	1073.60
896.34	1074.54
896.65	1069.86
896.96	1061.67
897.26	1064.48
897.57	1082.03
897.88	1087.41
898.19	1089.05
898.49	1093.97
898.80	1084.14
899.11	1080.63
899.41	1077.82
899.72	1070.56
900.03	1066.82
900.34	1075.71
900.64	1080.86
900.95	1084.60
901.26	1090.22
901.56	1092.09
901.87	1086.71
902.18	1079.92
902.48	1088.35
902.79	1090.69
903.10	1088.58
903.40	1090.46
903.71	1091.16
904.02	1070.33
904.32	1073.14
904.63	1081.33
904.94	1086.71
905.24	1082.50
905.55	1089.99
905.85	1088.12
906.16	1080.86
906.47	1074.31
906.77	1085.54
907.08	1090.46
907.38	1089.99
907.69	1086.48
908.00	1086.24
908.30	1081.09
908.61	1076.41
908.91	1071.97
909.22	1079.46
909.52	1083.67
909.83	1084.14
910.14	1081.09
910.44	1076.65
910.75	1081.56
911.05	1085.07
911.36	1078.05
911.66	1080.39
911.97	1075.48
912.27	1082.73
912.58	1084.37
912.88	1090.22
913.19	1095.37
913.49	1110.35
913.80	1096.54
914.10	1087.18
914.41	1091.16
914.71	1087.65
915.01	1087.65
915.32	1079.92
915.62	1086.71
915.93	1084.84
916.23	1090.69
916.54	1093.03
916.84	1101.69
917.15	1093.50
917.45	1095.14
917.75	1093.03
918.06	1094.43
918.36	1092.80
918.67	1092.09
918.97	1090.92
919.27	1087.41
919.58	1082.03
919.88	1085.54
920.18	1083.20
920.49	1084.60
920.79	1073.60
921.10	1074.77
921.40	1069.86
921.70	1086.94
922.01	1086.24
922.31	1101.22
922.61	1096.54
922.92	1097.71
923.22	1088.58
923.52	1085.31
923.82	1094.20
924.13	1099.12
924.43	1103.56
924.73	1101.22
925.04	1098.18
925.34	1076.18
925.64	1075.24
925.94	1066.82
926.25	1069.86
926.55	1074.31
926.85	1089.29
927.15	1087.88
927.46	1095.14
927.76	1097.95
928.06	1100.05
928.36	1093.26
928.67	1100.05
928.97	1093.73
929.27	1083.67
929.57	1078.52
929.87	1079.92
930.18	1077.82
930.48	1075.01
930.78	1076.18
931.08	1084.60
931.38	1076.18
931.69	1079.46
931.99	1082.03
932.29	1086.71
932.59	1077.35
932.89	1081.80
933.19	1070.33
933.49	1073.14
933.80	1071.73
934.10	1076.41
934.40	1084.14
934.70	1090.22
935.00	1082.26
935.30	1081.09
935.60	1082.73
935.90	1083.20
936.20	1076.18
936.50	1074.31
936.81	1087.41
937.11	1081.33
937.41	1074.77
937.71	1075.24
938.01	1084.84
938.31	1074.07
938.61	1086.01
938.91	1089.29
939.21	1095.37
939.51	1094.90
939.81	1099.12
940.11	1093.26
940.41	1089.05
940.71	1089.52
941.01	1092.33
941.31	1087.88
941.61	1085.77
941.91	1081.80
942.21	1075.01
942.51	1071.03
942.81	1076.65
943.11	1081.09
943.41	1087.65
943.71	1094.20
944.01	1098.41
944.31	1089.99
944.61	1084.37
944.90	1082.03
945.20	1070.09
945.50	1067.28
945.80	1066.35
946.10	1069.86
946.40	1081.33
946.70	1090.92
947.00	1096.31
947.30	1100.05
947.60	1094.20
947.89	1077.35
948.19	1080.86
948.49	1078.75
948.79	1072.20
949.09	1079.22
949.39	1086.24
949.69	1083.90
949.98	1076.88
950.28	1083.67
950.58	1082.50
950.88	1082.26
951.18	1090.46
951.48	1104.97
951.77	1101.46
952.07	1099.82
952.37	1097.71
952.67	1084.60
952.97	1066.11
953.26	1073.14
953.56	1077.11
953.86	1077.82
954.16	1077.58
954.45	1091.39
954.75	1093.50
955.05	1083.67
955.35	1076.41
955.64	1075.24
955.94	1076.41
956.24	1075.01
956.54	1076.18
956.83	1078.28
957.13	1079.22
957.43	1065.41
957.72	1054.88
958.02	1057.69
958.32	1068.45
958.61	1073.14
958.91	1071.50
959.21	1079.69
959.50	1079.69
959.80	1069.86
960.10	1065.41
960.39	1075.48
960.69	1074.07
960.99	1070.33
961.28	1081.33
961.58	1083.90
961.87	1080.86
962.17	1079.22
962.47	1077.82
962.76	1078.99
963.06	1077.58
963.36	1074.77
963.65	1075.48
963.95	1078.05
964.24	1063.77
964.54	1062.37
964.83	1068.45
965.13	1067.28
965.42	1077.82
965.72	1093.26
966.02	1097.95
966.31	1098.65
966.61	1102.39
966.90	1090.22
967.20	1080.16
967.49	1088.82
967.79	1086.94
968.08	1078.05
968.38	1082.97
968.67	1084.84
968.97	1071.73
969.26	1071.26
969.56	1077.58
969.85	1071.73
970.15	1067.52
970.44	1069.62
970.74	1072.43
971.03	1071.50
971.32	1073.37
971.62	1078.28
971.91	1083.67
972.21	1085.77
972.50	1088.58
972.80	1091.63
973.09	1091.39
973.38	1088.12
973.68	1079.22
973.97	1074.07
974.27	1077.82
974.56	1074.54
974.85	1075.71
975.15	1078.05
975.44	1086.94
975.73	1086.24
976.03	1090.92
976.32	1086.01
976.61	1081.09
976.91	1072.20
977.20	1073.84
977.49	1069.16
977.79	1073.14
978.08	1086.24
978.37	1080.39
978.67	1078.52
978.96	1080.16
979.25	1077.58
979.55	1071.50
979.84	1088.12
980.13	1078.75
980.42	1078.99
980.72	1077.58
981.01	1075.71
981.30	1063.54
981.59	1077.58
981.89	1072.67
982.18	1077.11
982.47	1081.09
982.76	1090.22
983.06	1088.35
983.35	1091.39
983.64	1098.18
983.93	1096.78
984.22	1083.90
984.52	1075.24
984.81	1077.58
985.10	1063.54
985.39	1061.43
985.68	1069.62
985.97	1075.24
986.27	1078.52
986.56	1088.12
986.85	1088.82
987.14	1085.77
987.43	1083.20
987.72	1080.39
988.01	1075.71
988.31	1070.56
988.60	1078.99
988.89	1076.88
989.18	1086.71
989.47	1087.65
989.76	1087.41
990.05	1083.67
990.34	1086.01
990.63	1078.52
990.92	1074.77
991.21	1082.97
991.51	1084.37
991.80	1081.33
992.09	1083.90
992.38	1079.69
992.67	1082.03
992.96	1082.26
993.25	1079.46
993.54	1066.82
993.83	1068.22
994.12	1059.33
994.41	1057.22
994.70	1059.56
994.99	1062.37
995.28	1076.41
995.57	1079.69
995.86	1077.35
996.15	1080.16
996.44	1089.75
996.73	1073.60
997.02	1076.88
997.31	1078.05
997.59	1082.73
997.88	1076.88
998.17	1084.37
998.46	1085.77
998.75	1093.97
999.04	1083.67
999.33	1080.39
999.62	1080.16
999.91	1078.05
1000.20	1077.58
1000.49	1077.82
1000.77	1081.56
1001.06	1091.16
1001.35	1097.48
1001.64	1087.65
1001.93	1090.69
1002.22	1090.69
1002.51	1080.16
1002.79	1071.26
1003.08	1081.80
1003.37	1089.05
1003.66	1098.41
1003.95	1105.44
1004.23	1103.56
1004.52	1091.39
1004.81	1084.84
1005.10	1075.48
1005.39	1071.97
1005.67	1067.28
1005.96	1075.24
1006.25	1075.71
1006.54	1073.37
1006.83	1071.26
1007.11	1073.14
1007.40	1067.28
1007.69	1073.60
1007.97	1082.03
1008.26	1076.88
1008.55	1086.94
1008.84	1083.67
1009.12	1072.43
1009.41	1066.11
1009.70	1076.18
1009.98	1090.92
1010.27	1093.03
1010.56	1090.92
1010.85	1089.99
1011.13	1075.94
1011.42	1052.30
1011.71	1061.20
1011.99	1071.03
1012.28	1073.14
1012.56	1091.16
1012.85	1098.41
1013.14	1101.92
1013.42	1102.86
1013.71	1104.73
1014.00	1098.41
1014.28	1094.43
1014.57	1082.73
1014.85	1080.16
1015.14	1078.99
1015.43	1069.16
1015.71	1074.31
1016.00	1071.73
1016.28	1066.35
1016.57	1071.26
1016.85	1073.60
1017.14	1067.99
1017.43	1078.75
1017.71	1077.82
1018.00	1062.84
1018.28	1066.11
1018.57	1064.01
1018.85	1057.45
1019.14	1060.96
1019.42	1068.69
1019.71	1066.11
1019.99	1066.82
1020.28	1067.75
1020.56	1068.92
1020.85	1078.05
1021.13	1086.24
1021.42	1093.26
1021.70	1086.71
1021.99	1087.18
1022.27	1078.05
1022.55	1075.48
1022.84	1073.14
>>>>>End Processed Spectral Data<<<<<
