SpectraSuite Data File
++++++++++++++++++++++++++++++++++++
Date: Mon Aug 26 10:25:53 PDT 2019
User: corrico
Dark Spectrum Present: No
Reference Spectrum Present: No
Number of Sampled Component Spectra: 1
Spectrometers: USB2+H06089
Integration Time (usec): 10000 (USB2+H06089)
Spectra Averaged: 2 (USB2+H06089)
Boxcar Smoothing: 2 (USB2+H06089)
Correct for Electrical Dark: No (USB2+H06089)
Strobe/Lamp Enabled: No (USB2+H06089)
Correct for Detector Non-linearity: No (USB2+H06089)
Correct for Stray Light: No (USB2+H06089)
Number of Pixels in Processed Spectrum: 2048
>>>>>Begin Processed Spectral Data<<<<<
339.70	1039.20
340.07	1039.20
340.45	997.54
340.82	977.88
341.19	959.39
341.57	926.15
341.94	922.41
342.31	906.26
342.69	897.13
343.06	888.94
343.43	898.30
343.81	904.85
344.18	916.55
344.55	928.02
344.93	931.77
345.30	931.53
345.67	928.96
346.04	934.58
346.42	945.34
346.79	956.81
347.16	969.45
347.54	980.92
347.91	983.49
348.28	976.94
348.65	980.92
349.03	982.79
349.40	991.22
349.77	1006.90
350.14	1019.54
350.52	1028.67
350.89	1038.50
351.26	1049.73
351.63	1045.05
352.01	1058.16
352.38	1058.16
352.75	1060.03
353.12	1062.84
353.50	1072.20
353.87	1071.03
354.24	1078.75
354.61	1078.28
354.98	1078.05
355.36	1072.43
355.73	1064.24
356.10	1060.26
356.47	1066.58
356.84	1058.39
357.22	1058.39
357.59	1065.41
357.96	1066.82
358.33	1060.26
358.70	1072.43
359.08	1070.56
359.45	1063.31
359.82	1067.75
360.19	1078.99
360.56	1075.71
360.94	1082.73
361.31	1092.09
361.68	1086.24
362.05	1080.16
362.42	1073.37
362.79	1066.58
363.16	1051.13
363.54	1059.56
363.91	1057.92
364.28	1069.86
364.65	1074.54
365.02	1075.01
365.39	1066.82
365.76	1073.14
366.14	1059.33
366.51	1060.03
366.88	1056.05
367.25	1054.65
367.62	1053.94
367.99	1065.41
368.36	1056.75
368.73	1063.77
369.10	1065.18
369.48	1061.20
369.85	1054.65
370.22	1061.90
370.59	1069.86
370.96	1075.24
371.33	1071.50
371.70	1072.90
372.07	1073.37
372.44	1072.20
372.81	1069.62
373.18	1072.20
373.55	1076.18
373.93	1074.54
374.30	1077.58
374.67	1066.82
375.04	1064.71
375.41	1076.65
375.78	1079.46
376.15	1074.54
376.52	1081.09
376.89	1083.67
377.26	1061.67
377.63	1060.73
378.00	1056.28
378.37	1059.09
378.74	1052.77
379.11	1055.82
379.48	1064.94
379.85	1066.82
380.22	1067.28
380.59	1068.92
380.96	1068.69
381.33	1070.80
381.70	1080.86
382.07	1083.90
382.44	1099.12
382.81	1101.22
383.18	1097.48
383.55	1088.12
383.92	1089.99
384.29	1080.39
384.66	1085.77
385.03	1076.65
385.40	1079.92
385.77	1075.24
386.14	1082.50
386.51	1075.94
386.88	1079.92
387.25	1080.16
387.62	1077.58
387.99	1073.14
388.36	1076.65
388.73	1085.31
389.10	1091.16
389.46	1086.94
389.83	1087.41
390.20	1078.52
390.57	1066.11
390.94	1061.43
391.31	1066.35
391.68	1065.65
392.05	1070.09
392.42	1072.20
392.79	1064.24
393.16	1064.48
393.53	1060.26
393.89	1068.92
394.26	1071.50
394.63	1073.84
395.00	1062.84
395.37	1069.16
395.74	1058.62
396.11	1068.45
396.48	1079.22
396.84	1079.69
397.21	1076.65
397.58	1078.05
397.95	1075.01
398.32	1070.09
398.69	1079.69
399.06	1085.31
399.42	1089.29
399.79	1081.33
400.16	1068.45
400.53	1057.69
400.90	1055.82
401.27	1058.39
401.64	1056.75
402.00	1072.20
402.37	1082.03
402.74	1082.97
403.11	1071.50
403.48	1065.18
403.84	1071.03
404.21	1086.01
404.58	1086.48
404.95	1102.63
405.32	1108.71
405.68	1098.41
406.05	1078.52
406.42	1066.35
406.79	1061.90
407.16	1059.79
407.52	1060.50
407.89	1069.62
408.26	1068.69
408.63	1072.43
408.99	1078.99
409.36	1083.67
409.73	1089.05
410.10	1096.78
410.47	1080.86
410.83	1075.48
411.20	1067.75
411.57	1061.67
411.94	1060.03
412.30	1068.92
412.67	1071.26
413.04	1071.50
413.40	1070.56
413.77	1076.65
414.14	1079.69
414.51	1082.97
414.87	1087.88
415.24	1084.37
415.61	1074.31
415.97	1065.18
416.34	1062.14
416.71	1067.99
417.08	1068.22
417.44	1076.65
417.81	1079.46
418.18	1079.69
418.54	1067.52
418.91	1076.18
419.28	1072.43
419.64	1073.84
420.01	1078.05
420.38	1076.41
420.74	1071.26
421.11	1069.16
421.48	1070.56
421.84	1065.41
422.21	1068.45
422.58	1060.50
422.94	1065.65
423.31	1057.69
423.68	1063.31
424.04	1071.97
424.41	1077.35
424.77	1074.77
425.14	1079.92
425.51	1078.52
425.87	1075.48
426.24	1077.82
426.61	1081.33
426.97	1082.73
427.34	1075.71
427.70	1073.84
428.07	1076.88
428.44	1068.92
428.80	1070.80
429.17	1079.22
429.53	1074.07
429.90	1072.90
430.27	1075.01
430.63	1071.73
431.00	1065.88
431.36	1064.48
431.73	1064.94
432.09	1066.11
432.46	1080.63
432.83	1079.46
433.19	1092.80
433.56	1087.65
433.92	1091.63
434.29	1079.22
434.65	1081.80
435.02	1077.35
435.38	1083.67
435.75	1082.50
436.11	1089.52
436.48	1092.56
436.84	1095.37
437.21	1090.22
437.57	1085.77
437.94	1087.41
438.30	1087.65
438.67	1075.48
439.03	1079.69
439.40	1081.33
439.76	1076.41
440.13	1074.31
440.49	1082.97
440.86	1084.84
441.22	1084.60
441.59	1089.29
441.95	1090.92
442.32	1089.75
442.68	1084.37
443.05	1079.69
443.41	1071.73
443.78	1071.50
444.14	1071.73
444.51	1062.14
444.87	1064.24
445.24	1065.18
445.60	1061.20
445.96	1057.45
446.33	1072.67
446.69	1073.60
447.06	1075.24
447.42	1078.05
447.79	1077.58
448.15	1070.56
448.51	1073.37
448.88	1070.80
449.24	1067.99
449.61	1070.80
449.97	1072.20
450.33	1074.07
450.70	1075.94
451.06	1078.05
451.43	1079.46
451.79	1082.73
452.15	1078.99
452.52	1081.33
452.88	1080.86
453.24	1081.33
453.61	1086.01
453.97	1089.05
454.34	1083.90
454.70	1086.71
455.06	1089.99
455.43	1087.18
455.79	1081.80
456.15	1086.24
456.52	1084.84
456.88	1083.20
457.24	1086.01
457.61	1092.33
457.97	1096.78
458.33	1105.90
458.70	1109.41
459.06	1103.33
459.42	1102.63
459.79	1101.46
460.15	1095.60
460.51	1084.60
460.88	1078.75
461.24	1080.86
461.60	1069.39
461.96	1053.71
462.33	1058.16
462.69	1070.09
463.05	1071.26
463.42	1075.01
463.78	1073.14
464.14	1076.41
464.50	1067.52
464.87	1060.50
465.23	1053.71
465.59	1065.41
465.95	1064.24
466.32	1069.39
466.68	1068.22
467.04	1079.46
467.40	1077.11
467.77	1084.14
468.13	1078.52
468.49	1076.88
468.85	1070.80
469.22	1082.50
469.58	1069.86
469.94	1095.37
470.30	1093.03
470.66	1103.56
471.03	1093.03
471.39	1091.16
471.75	1055.82
472.11	1062.84
472.47	1049.96
472.84	1049.50
473.20	1053.24
473.56	1067.99
473.92	1069.16
474.28	1082.97
474.65	1085.31
475.01	1083.20
475.37	1085.31
475.73	1085.07
476.09	1080.63
476.45	1087.18
476.81	1092.80
477.18	1100.75
477.54	1101.92
477.90	1098.65
478.26	1085.54
478.62	1092.33
478.98	1082.73
479.34	1080.63
479.71	1072.90
480.07	1074.77
480.43	1065.41
480.79	1060.26
481.15	1062.14
481.51	1066.82
481.87	1066.35
482.23	1063.54
482.59	1065.88
482.96	1058.39
483.32	1059.79
483.68	1063.77
484.04	1070.33
484.40	1072.20
484.76	1071.97
485.12	1071.50
485.48	1078.75
485.84	1072.43
486.20	1071.03
486.56	1081.56
486.92	1082.50
487.28	1076.88
487.64	1073.37
488.00	1069.86
488.37	1068.22
488.73	1073.37
489.09	1076.41
489.45	1091.16
489.81	1103.33
490.17	1110.58
490.53	1109.65
490.89	1106.37
491.25	1096.78
491.61	1090.69
491.97	1085.77
492.33	1088.82
492.69	1078.28
493.05	1078.28
493.41	1073.14
493.77	1067.05
494.13	1064.71
494.49	1075.24
494.85	1066.35
495.21	1081.80
495.57	1090.46
495.93	1085.77
496.29	1080.86
496.64	1081.56
497.00	1067.52
497.36	1075.71
497.72	1078.28
498.08	1088.58
498.44	1093.50
498.80	1096.54
499.16	1082.97
499.52	1088.35
499.88	1088.35
500.24	1084.60
500.60	1086.01
500.96	1086.94
501.32	1083.20
501.68	1076.88
502.03	1081.33
502.39	1079.22
502.75	1076.41
503.11	1062.60
503.47	1061.67
503.83	1059.79
504.19	1049.50
504.55	1040.13
504.91	1053.24
505.26	1052.54
505.62	1050.43
505.98	1055.58
506.34	1067.52
506.70	1077.35
507.06	1087.88
507.42	1097.48
507.78	1101.69
508.13	1098.88
508.49	1091.39
508.85	1086.48
509.21	1084.14
509.57	1081.09
509.93	1085.07
510.28	1089.05
510.64	1082.26
511.00	1084.14
511.36	1090.46
511.72	1084.60
512.07	1074.77
512.43	1080.86
512.79	1077.35
513.15	1078.28
513.51	1076.41
513.86	1082.97
514.22	1081.09
514.58	1096.78
514.94	1098.18
515.30	1109.18
515.65	1107.54
516.01	1102.86
516.37	1088.82
516.73	1082.97
517.08	1079.46
517.44	1091.39
517.80	1107.07
518.16	1114.56
518.51	1121.12
518.87	1118.78
519.23	1102.86
519.59	1094.43
519.94	1081.80
520.30	1077.82
520.66	1084.84
521.01	1092.80
521.37	1099.12
521.73	1117.37
522.09	1118.07
522.44	1115.50
522.80	1106.37
523.16	1099.35
523.51	1093.97
523.87	1087.18
524.23	1091.39
524.58	1091.16
524.94	1092.09
525.30	1088.82
525.65	1087.65
526.01	1082.73
526.37	1086.71
526.72	1080.39
527.08	1085.54
527.44	1097.01
527.79	1093.50
528.15	1099.12
528.51	1108.48
528.86	1093.50
529.22	1091.39
529.58	1095.84
529.93	1104.03
530.29	1102.16
530.65	1108.71
531.00	1103.33
531.36	1103.80
531.71	1086.71
532.07	1086.24
532.43	1086.48
532.78	1088.12
533.14	1084.60
533.49	1089.99
533.85	1102.39
534.21	1109.41
534.56	1116.90
534.92	1118.31
535.27	1117.37
535.63	1099.58
535.98	1094.43
536.34	1093.73
536.69	1095.14
537.05	1093.97
537.41	1099.12
537.76	1098.65
538.12	1091.39
538.47	1086.94
538.83	1087.18
539.18	1075.01
539.54	1079.69
539.89	1080.16
540.25	1076.65
540.60	1082.50
540.96	1084.37
541.31	1082.03
541.67	1087.41
542.02	1095.60
542.38	1088.35
542.73	1095.60
543.09	1099.35
543.44	1089.29
543.80	1079.46
544.15	1087.65
544.51	1086.71
544.86	1082.03
545.22	1091.16
545.57	1101.92
545.93	1089.05
546.28	1094.67
546.64	1091.39
546.99	1089.75
547.35	1082.50
547.70	1075.94
548.05	1066.82
548.41	1073.84
548.76	1078.28
549.12	1082.26
549.47	1101.46
549.83	1115.73
550.18	1107.78
550.53	1102.16
550.89	1099.58
551.24	1085.31
551.60	1074.54
551.95	1079.22
552.30	1082.03
552.66	1075.48
553.01	1089.99
553.37	1092.33
553.72	1090.46
554.07	1085.77
554.43	1096.31
554.78	1083.43
555.13	1072.67
555.49	1075.48
555.84	1077.11
556.19	1073.84
556.55	1079.46
556.90	1080.39
557.26	1076.18
557.61	1074.54
557.96	1080.86
558.32	1089.29
558.67	1095.60
559.02	1092.56
559.37	1089.99
559.73	1078.28
560.08	1067.05
560.43	1073.37
560.79	1077.11
561.14	1084.37
561.49	1085.07
561.85	1087.18
562.20	1078.99
562.55	1078.52
562.90	1068.69
563.26	1074.77
563.61	1074.31
563.96	1077.58
564.32	1085.31
564.67	1092.56
565.02	1094.67
565.37	1094.43
565.73	1098.18
566.08	1089.99
566.43	1089.75
566.78	1076.65
567.14	1079.69
567.49	1082.50
567.84	1092.09
568.19	1097.01
568.54	1111.52
568.90	1105.90
569.25	1094.67
569.60	1082.50
569.95	1073.14
570.31	1068.45
570.66	1080.16
571.01	1087.18
571.36	1090.22
571.71	1097.71
572.06	1096.78
572.42	1089.52
572.77	1084.60
573.12	1087.18
573.47	1076.41
573.82	1074.31
574.18	1065.65
574.53	1064.48
574.88	1067.05
575.23	1075.48
575.58	1074.07
575.93	1083.43
576.28	1088.12
576.64	1084.60
576.99	1086.24
577.34	1086.94
577.69	1092.33
578.04	1086.71
578.39	1081.80
578.74	1080.86
579.09	1080.86
579.44	1078.28
579.80	1077.11
580.15	1083.20
580.50	1076.41
580.85	1075.48
581.20	1073.37
581.55	1081.09
581.90	1083.20
582.25	1085.54
582.60	1085.31
582.95	1089.99
583.30	1093.03
583.65	1083.20
584.00	1093.03
584.35	1100.52
584.71	1099.58
585.06	1100.05
585.41	1102.63
585.76	1097.95
586.11	1100.05
586.46	1085.07
586.81	1078.75
587.16	1075.24
587.51	1070.09
587.86	1066.82
588.21	1072.20
588.56	1071.73
588.91	1079.92
589.26	1088.35
589.61	1087.88
589.96	1080.16
590.31	1078.52
590.66	1073.60
591.01	1069.86
591.36	1063.07
591.71	1074.31
592.06	1076.88
592.41	1080.39
592.76	1075.94
593.10	1085.07
593.45	1088.58
593.80	1093.50
594.15	1093.73
594.50	1090.69
594.85	1082.73
595.20	1076.65
595.55	1077.58
595.90	1072.20
596.25	1075.48
596.60	1078.28
596.95	1076.88
597.30	1068.45
597.64	1123.22
597.99	1130.95
598.34	1129.54
598.69	1135.16
599.04	1136.80
599.39	1087.18
599.74	1078.75
600.09	1082.73
600.44	1096.54
600.78	1106.37
601.13	1100.99
601.48	1089.99
601.83	1089.29
602.18	1073.37
602.53	1065.88
602.88	1071.26
603.22	1090.46
603.57	1085.07
603.92	1082.97
604.27	1079.22
604.62	1077.82
604.97	1064.94
605.31	1071.26
605.66	1068.45
606.01	1072.20
606.36	1071.26
606.71	1077.82
607.05	1077.82
607.40	1074.54
607.75	1075.24
608.10	1068.45
608.44	1068.69
608.79	1069.16
609.14	1072.90
609.49	1077.82
609.84	1088.12
610.18	1092.80
610.53	1093.03
610.88	1103.33
611.23	1101.92
611.57	1105.90
611.92	1105.20
612.27	1104.97
612.62	1100.99
612.96	1098.65
613.31	1085.77
613.66	1088.12
614.00	1086.94
614.35	1091.16
614.70	1089.75
615.05	1102.16
615.39	1090.69
615.74	1088.12
616.09	1073.60
616.43	1066.82
616.78	1067.99
617.13	1069.62
617.47	1075.48
617.82	1079.92
618.17	1083.67
618.51	1072.20
618.86	1074.77
619.21	1071.26
619.55	1064.71
619.90	1067.05
620.25	1070.09
620.59	1068.22
620.94	1060.03
621.29	1068.45
621.63	1073.60
621.98	1071.97
622.32	1071.97
622.67	1083.67
623.02	1093.97
623.36	1085.31
623.71	1079.69
624.05	1083.67
624.40	1078.99
624.75	1071.50
625.09	1065.65
625.44	1079.92
625.78	1076.65
626.13	1074.07
626.48	1069.62
626.82	1076.88
627.17	1071.73
627.51	1077.82
627.86	1080.16
628.20	1083.43
628.55	1089.29
628.89	1092.09
629.24	1090.22
629.58	1090.22
629.93	1094.90
630.28	1086.24
630.62	1076.18
630.97	1062.60
631.31	1062.60
631.66	1053.48
632.00	1056.99
632.35	1054.18
632.69	1069.62
633.04	1073.60
633.38	1086.24
633.73	1088.35
634.07	1095.37
634.42	1084.14
634.76	1079.22
635.11	1082.50
635.45	1073.14
635.79	1077.35
636.14	1093.03
636.48	1093.97
636.83	1077.11
637.17	1082.73
637.52	1077.82
637.86	1075.71
638.21	1076.65
638.55	1078.99
638.89	1079.22
639.24	1087.41
639.58	1089.05
639.93	1085.54
640.27	1093.97
640.61	1092.80
640.96	1088.35
641.30	1082.97
641.65	1090.46
641.99	1085.77
642.33	1095.84
642.68	1086.48
643.02	1082.03
643.37	1081.56
643.71	1083.43
644.05	1078.05
644.40	1086.48
644.74	1089.99
645.08	1084.37
645.43	1085.07
645.77	1082.97
646.11	1086.94
646.46	1085.07
646.80	1085.77
647.14	1077.58
647.49	1077.82
647.83	1070.56
648.17	1069.62
648.52	1073.37
648.86	1083.20
649.20	1082.97
649.55	1084.14
649.89	1093.73
650.23	1097.24
650.57	1094.67
650.92	1094.67
651.26	1091.16
651.60	1073.37
651.95	1068.92
652.29	1066.58
652.63	1076.65
652.97	1075.71
653.32	1091.39
653.66	1081.56
654.00	1081.09
654.34	1075.48
654.69	1084.60
655.03	1072.67
655.37	1078.52
655.71	1078.75
656.05	1076.41
656.40	1077.82
656.74	1074.54
657.08	1078.52
657.42	1079.22
657.76	1081.33
658.11	1077.82
658.45	1087.88
658.79	1091.63
659.13	1096.78
659.47	1099.58
659.82	1105.44
660.16	1100.29
660.50	1096.07
660.84	1097.01
661.18	1093.03
661.52	1090.69
661.87	1089.52
662.21	1089.29
662.55	1079.69
662.89	1085.07
663.23	1082.97
663.57	1096.78
663.91	1093.97
664.25	1097.95
664.60	1088.58
664.94	1091.86
665.28	1089.99
665.62	1093.03
665.96	1086.71
666.30	1086.24
666.64	1069.62
666.98	1069.16
667.32	1075.48
667.66	1078.99
668.01	1073.37
668.35	1087.18
668.69	1082.73
669.03	1067.75
669.37	1067.52
669.71	1074.31
670.05	1069.16
670.39	1062.84
670.73	1070.56
671.07	1078.52
671.41	1083.43
671.75	1085.77
672.09	1082.73
672.43	1072.90
672.77	1072.43
673.11	1071.50
673.45	1070.56
673.79	1086.24
674.13	1091.86
674.47	1091.39
674.81	1087.18
675.15	1090.92
675.49	1075.71
675.83	1077.58
676.17	1066.82
676.51	1070.80
676.85	1071.26
677.19	1073.14
677.53	1077.82
677.87	1079.22
678.21	1075.24
678.55	1072.20
678.89	1073.14
679.23	1070.33
679.57	1071.73
679.90	1078.52
680.24	1084.84
680.58	1088.35
680.92	1083.20
681.26	1089.05
681.60	1082.03
681.94	1084.14
682.28	1082.50
682.62	1091.86
682.96	1082.03
683.29	1085.31
683.63	1082.03
683.97	1082.03
684.31	1088.35
684.65	1097.48
684.99	1094.43
685.33	1091.16
685.67	1089.99
686.00	1080.16
686.34	1080.86
686.68	1082.97
687.02	1078.99
687.36	1078.05
687.70	1080.39
688.03	1072.90
688.37	1068.69
688.71	1080.86
689.05	1090.92
689.39	1078.99
689.72	1082.73
690.06	1081.80
690.40	1063.31
690.74	1055.82
691.08	1063.77
691.41	1064.01
691.75	1066.58
692.09	1070.56
692.43	1075.24
692.76	1066.35
693.10	1068.45
693.44	1075.48
693.78	1073.84
694.11	1067.99
694.45	1078.75
694.79	1082.03
695.13	1082.50
695.46	1085.77
695.80	1087.88
696.14	1089.29
696.48	1076.88
696.81	1068.45
697.15	1069.86
697.49	1069.62
697.82	1071.50
698.16	1077.58
698.50	1071.73
698.83	1071.97
699.17	1059.09
699.51	1058.39
699.84	1056.05
700.18	1069.86
700.52	1063.54
700.85	1071.50
701.19	1062.60
701.53	1068.69
701.86	1067.75
702.20	1076.65
702.54	1081.33
702.87	1080.39
703.21	1082.97
703.55	1077.58
703.88	1072.67
704.22	1067.99
704.55	1067.99
704.89	1059.09
705.23	1057.92
705.56	1065.65
705.90	1064.71
706.23	1080.86
706.57	1090.46
706.91	1092.33
707.24	1085.54
707.58	1088.12
707.91	1078.28
708.25	1083.20
708.58	1086.24
708.92	1089.29
709.26	1093.26
709.59	1087.41
709.93	1073.60
710.26	1071.50
710.60	1074.31
710.93	1070.09
711.27	1077.11
711.60	1078.52
711.94	1075.24
712.27	1074.77
712.61	1080.63
712.94	1081.33
713.28	1075.94
713.61	1080.39
713.95	1074.07
714.28	1074.31
714.62	1076.18
714.95	1090.46
715.29	1086.94
715.62	1094.67
715.96	1099.58
716.29	1088.58
716.63	1087.65
716.96	1086.24
717.29	1078.75
717.63	1071.26
717.96	1083.20
718.30	1083.90
718.63	1086.48
718.97	1095.84
719.30	1087.65
719.63	1086.01
719.97	1078.05
720.30	1072.90
720.64	1068.45
720.97	1074.54
721.30	1071.50
721.64	1073.60
721.97	1088.35
722.31	1085.77
722.64	1090.22
722.97	1092.09
723.31	1090.22
723.64	1079.92
723.97	1083.90
724.31	1077.11
724.64	1082.73
724.98	1082.73
725.31	1079.46
725.64	1079.22
725.98	1085.77
726.31	1080.63
726.64	1081.80
726.97	1088.35
727.31	1086.24
727.64	1083.90
727.97	1074.77
728.31	1069.86
728.64	1064.01
728.97	1056.75
729.31	1056.75
729.64	1060.96
729.97	1066.58
730.30	1073.84
730.64	1076.41
730.97	1077.35
731.30	1077.82
731.63	1077.35
731.97	1076.18
732.30	1082.26
732.63	1080.16
732.96	1085.77
733.30	1091.86
733.63	1083.43
733.96	1082.50
734.29	1087.88
734.63	1085.54
734.96	1074.77
735.29	1072.43
735.62	1066.58
735.95	1063.54
736.29	1058.39
736.62	1060.73
736.95	1062.84
737.28	1058.62
737.61	1060.03
737.94	1054.65
738.28	1058.62
738.61	1069.39
738.94	1073.14
739.27	1069.86
739.60	1082.73
739.93	1090.22
740.27	1090.69
740.60	1097.95
740.93	1094.20
741.26	1104.03
741.59	1102.86
741.92	1105.20
742.25	1103.33
742.58	1108.24
742.91	1099.58
743.25	1088.35
743.58	1074.77
743.91	1081.09
744.24	1078.99
744.57	1064.48
744.90	1071.50
745.23	1079.92
745.56	1068.45
745.89	1070.56
746.22	1074.54
746.55	1073.60
746.88	1066.58
747.21	1071.97
747.54	1068.45
747.87	1078.05
748.20	1074.31
748.53	1084.84
748.87	1086.01
749.20	1089.05
749.53	1085.07
749.86	1084.14
750.19	1078.52
750.52	1080.63
750.85	1084.14
751.18	1082.50
751.51	1080.86
751.84	1085.54
752.16	1079.22
752.49	1073.14
752.82	1072.90
753.15	1088.12
753.48	1077.82
753.81	1082.73
754.14	1089.29
754.47	1090.22
754.80	1072.67
755.13	1078.52
755.46	1074.07
755.79	1070.09
756.12	1077.11
756.45	1077.58
756.78	1068.92
757.11	1060.73
757.43	1054.65
757.76	1054.88
758.09	1068.45
758.42	1081.56
758.75	1086.24
759.08	1100.29
759.41	1085.07
759.74	1080.63
760.07	1073.14
760.39	1077.58
760.72	1075.48
761.05	1077.58
761.38	1070.33
761.71	1068.92
762.04	1066.35
762.36	1066.11
762.69	1074.77
763.02	1077.11
763.35	1078.99
763.68	1082.73
764.01	1074.54
764.33	1077.35
764.66	1075.71
764.99	1081.09
765.32	1078.75
765.65	1081.56
765.97	1069.39
766.30	1071.73
766.63	1069.86
766.96	1082.97
767.28	1081.80
767.61	1087.65
767.94	1091.86
768.27	1098.88
768.59	1082.73
768.92	1088.12
769.25	1093.50
769.58	1090.69
769.90	1082.03
770.23	1096.31
770.56	1093.97
770.89	1082.73
771.21	1083.43
771.54	1086.94
771.87	1086.01
772.19	1085.07
772.52	1093.03
772.85	1095.84
773.17	1099.35
773.50	1097.01
773.83	1095.37
774.15	1089.29
774.48	1092.09
774.81	1087.65
775.13	1078.99
775.46	1071.73
775.79	1079.92
776.11	1079.69
776.44	1088.12
776.77	1093.50
777.09	1096.31
777.42	1082.26
777.74	1065.88
778.07	1053.48
778.40	1051.60
778.72	1056.05
779.05	1069.62
779.37	1079.46
779.70	1085.31
780.03	1085.07
780.35	1087.88
780.68	1082.26
781.00	1076.41
781.33	1076.88
781.65	1076.65
781.98	1078.05
782.31	1077.58
782.63	1077.58
782.96	1076.88
783.28	1077.82
783.61	1076.65
783.93	1088.82
784.26	1095.37
784.58	1090.69
784.91	1089.05
785.23	1094.20
785.56	1083.43
785.88	1074.07
786.21	1073.60
786.53	1076.65
786.86	1068.45
787.18	1064.48
787.51	1062.60
787.83	1065.88
788.16	1060.03
788.48	1055.11
788.81	1052.30
789.13	1064.48
789.46	1056.75
789.78	1054.88
790.10	1059.33
790.43	1064.01
790.75	1055.58
791.08	1063.54
791.40	1073.37
791.73	1083.43
792.05	1091.16
792.37	1094.43
792.70	1089.75
793.02	1076.88
793.35	1068.92
793.67	1069.62
793.99	1076.88
794.32	1077.11
794.64	1086.01
794.96	1080.63
795.29	1078.75
795.61	1081.33
795.93	1089.05
796.26	1090.69
796.58	1099.58
796.91	1098.88
797.23	1109.88
797.55	1110.82
797.87	1112.92
798.20	1111.52
798.52	1105.90
798.84	1092.09
799.17	1086.48
799.49	1078.28
799.81	1075.01
800.14	1085.54
800.46	1082.97
800.78	1081.56
801.10	1083.90
801.43	1084.84
801.75	1080.39
802.07	1071.26
802.40	1069.39
802.72	1066.58
803.04	1062.14
803.36	1066.82
803.69	1075.24
804.01	1075.01
804.33	1068.92
804.65	1075.71
804.97	1063.77
805.30	1061.43
805.62	1056.75
805.94	1077.11
806.26	1071.97
806.58	1079.69
806.91	1087.41
807.23	1094.20
807.55	1084.60
807.87	1082.97
808.19	1082.73
808.52	1071.73
808.84	1072.43
809.16	1073.14
809.48	1077.58
809.80	1076.41
810.12	1087.88
810.44	1088.35
810.77	1086.48
811.09	1092.09
811.41	1086.01
811.73	1085.54
812.05	1085.54
812.37	1086.71
812.69	1075.94
813.01	1074.54
813.33	1067.75
813.66	1064.48
813.98	1056.05
814.30	1063.54
814.62	1068.69
814.94	1072.43
815.26	1066.11
815.58	1070.09
815.90	1070.33
816.22	1076.41
816.54	1075.48
816.86	1088.58
817.18	1094.67
817.50	1091.39
817.82	1087.88
818.14	1081.56
818.46	1080.63
818.78	1077.11
819.10	1078.52
819.42	1074.07
819.74	1074.54
820.06	1076.65
820.38	1067.99
820.70	1065.88
821.02	1064.24
821.34	1061.90
821.66	1061.67
821.98	1078.05
822.30	1082.50
822.62	1094.43
822.94	1104.73
823.26	1100.05
823.58	1091.63
823.90	1080.86
824.22	1073.60
824.54	1073.60
824.86	1072.90
825.18	1079.92
825.50	1088.12
825.81	1091.39
826.13	1092.56
826.45	1094.67
826.77	1091.16
827.09	1083.43
827.41	1077.35
827.73	1069.86
828.05	1062.37
828.36	1061.43
828.68	1070.56
829.00	1071.50
829.32	1081.56
829.64	1090.92
829.96	1092.80
830.28	1088.58
830.59	1098.41
830.91	1100.52
831.23	1098.65
831.55	1096.31
831.87	1100.05
832.19	1093.03
832.50	1082.03
832.82	1077.82
833.14	1083.43
833.46	1080.63
833.78	1086.48
834.09	1097.01
834.41	1097.71
834.73	1088.58
835.05	1088.12
835.36	1076.65
835.68	1062.84
836.00	1055.58
836.32	1063.54
836.63	1065.18
836.95	1074.77
837.27	1079.69
837.59	1075.01
837.90	1066.11
838.22	1071.26
838.54	1066.35
838.85	1070.56
839.17	1086.48
839.49	1085.77
839.80	1076.88
840.12	1078.99
840.44	1072.90
840.76	1076.88
841.07	1081.33
841.39	1082.97
841.71	1073.14
842.02	1084.37
842.34	1070.80
842.65	1074.07
842.97	1071.73
843.29	1077.82
843.60	1069.16
843.92	1076.65
844.24	1085.54
844.55	1089.52
844.87	1100.05
845.18	1100.05
845.50	1099.58
845.82	1089.29
846.13	1097.01
846.45	1085.07
846.76	1081.80
847.08	1083.90
847.40	1093.97
847.71	1086.01
848.03	1084.14
848.34	1090.22
848.66	1089.05
848.97	1080.16
849.29	1077.35
849.60	1081.56
849.92	1076.41
850.24	1078.28
850.55	1071.73
850.87	1079.92
851.18	1079.46
851.50	1084.14
851.81	1083.20
852.13	1083.90
852.44	1075.94
852.76	1086.71
853.07	1084.14
853.39	1085.31
853.70	1078.05
854.01	1078.28
854.33	1079.46
854.64	1080.39
854.96	1078.52
855.27	1086.71
855.59	1099.12
855.90	1089.52
856.22	1088.35
856.53	1090.46
856.84	1096.78
857.16	1089.75
857.47	1086.24
857.79	1086.94
858.10	1091.39
858.41	1082.03
858.73	1080.39
859.04	1084.60
859.36	1079.92
859.67	1064.71
859.98	1066.11
860.30	1065.41
860.61	1056.75
860.92	1060.50
861.24	1069.62
861.55	1065.18
861.87	1062.14
862.18	1050.20
862.49	1051.13
862.81	1052.77
863.12	1060.73
863.43	1062.14
863.74	1082.73
864.06	1080.16
864.37	1077.58
864.68	1071.97
865.00	1071.97
865.31	1069.86
865.62	1067.28
865.94	1065.18
866.25	1074.07
866.56	1070.80
866.87	1069.86
867.19	1077.58
867.50	1070.09
867.81	1060.96
868.12	1057.69
868.44	1059.79
868.75	1055.11
869.06	1068.22
869.37	1072.67
869.68	1075.01
870.00	1077.82
870.31	1077.82
870.62	1072.90
870.93	1066.35
871.24	1074.77
871.56	1066.82
871.87	1070.33
872.18	1081.09
872.49	1094.90
872.80	1085.07
873.12	1086.71
873.43	1082.97
873.74	1079.22
874.05	1071.73
874.36	1080.39
874.67	1090.69
874.98	1089.99
875.29	1080.63
875.61	1083.67
875.92	1083.20
876.23	1077.11
876.54	1067.99
876.85	1073.60
877.16	1067.52
877.47	1063.77
877.78	1059.56
878.09	1070.56
878.40	1070.33
878.72	1073.14
879.03	1075.01
879.34	1081.56
879.65	1081.09
879.96	1080.39
880.27	1087.41
880.58	1087.41
880.89	1084.14
881.20	1080.16
881.51	1079.92
881.82	1078.28
882.13	1080.16
882.44	1072.67
882.75	1073.60
883.06	1072.20
883.37	1075.01
883.68	1073.84
883.99	1083.43
884.30	1086.48
884.61	1080.86
884.92	1082.50
885.23	1094.67
885.54	1098.88
885.85	1088.12
886.16	1085.07
886.47	1072.20
886.78	1058.39
887.08	1051.84
887.39	1063.77
887.70	1069.86
888.01	1078.75
888.32	1083.90
888.63	1082.50
888.94	1088.82
889.25	1092.33
889.56	1085.31
889.87	1095.37
890.17	1099.35
890.48	1088.58
890.79	1092.56
891.10	1097.01
891.41	1091.63
891.72	1094.20
892.03	1096.31
892.34	1110.82
892.64	1107.54
892.95	1098.65
893.26	1095.84
893.57	1097.48
893.88	1077.82
894.18	1073.60
894.49	1071.73
894.80	1062.84
895.11	1056.52
895.42	1056.99
895.72	1062.14
896.03	1066.11
896.34	1071.97
896.65	1068.45
896.96	1064.01
897.26	1067.99
897.57	1064.94
897.88	1069.16
898.19	1071.97
898.49	1081.09
898.80	1073.60
899.11	1073.60
899.41	1065.88
899.72	1071.73
900.03	1062.14
900.34	1076.88
900.64	1073.60
900.95	1073.14
901.26	1068.92
901.56	1075.24
901.87	1068.92
902.18	1076.65
902.48	1080.39
902.79	1091.63
903.10	1098.41
903.40	1094.43
903.71	1091.39
904.02	1091.39
904.32	1085.54
904.63	1069.39
904.94	1072.20
905.24	1067.28
905.55	1069.86
905.85	1072.67
906.16	1083.90
906.47	1077.11
906.77	1083.20
907.08	1086.71
907.38	1086.48
907.69	1078.28
908.00	1077.58
908.30	1075.94
908.61	1073.14
908.91	1074.31
909.22	1076.18
909.52	1083.67
909.83	1093.03
910.14	1083.20
910.44	1078.52
910.75	1081.80
911.05	1079.69
911.36	1077.58
911.66	1084.60
911.97	1090.92
912.27	1091.86
912.58	1085.07
912.88	1084.84
913.19	1078.99
913.49	1070.33
913.80	1067.99
914.10	1076.41
914.41	1069.16
914.71	1080.86
915.01	1087.18
915.32	1087.88
915.62	1082.03
915.93	1094.90
916.23	1092.09
916.54	1097.71
916.84	1095.14
917.15	1100.29
917.45	1080.86
917.75	1076.88
918.06	1061.90
918.36	1058.62
918.67	1053.24
918.97	1065.88
919.27	1060.73
919.58	1070.09
919.88	1076.88
920.18	1080.63
920.49	1077.82
920.79	1090.46
921.10	1093.26
921.40	1095.14
921.70	1093.26
922.01	1088.35
922.31	1084.84
922.61	1074.54
922.92	1077.82
923.22	1080.63
923.52	1072.67
923.82	1068.69
924.13	1072.90
924.43	1067.75
924.73	1064.71
925.04	1075.01
925.34	1072.90
925.64	1075.24
925.94	1066.82
926.25	1073.60
926.55	1077.58
926.85	1078.99
927.15	1075.94
927.46	1093.03
927.76	1088.58
928.06	1087.18
928.36	1087.18
928.67	1083.67
928.97	1074.77
929.27	1069.39
929.57	1065.41
929.87	1073.60
930.18	1080.63
930.48	1078.05
930.78	1082.03
931.08	1081.33
931.38	1080.63
931.69	1075.71
931.99	1075.24
932.29	1078.52
932.59	1087.18
932.89	1084.84
933.19	1080.16
933.49	1084.14
933.80	1080.63
934.10	1076.65
934.40	1080.16
934.70	1089.52
935.00	1090.22
935.30	1093.50
935.60	1087.18
935.90	1078.99
936.20	1072.43
936.50	1078.52
936.81	1072.43
937.11	1077.35
937.41	1078.28
937.71	1097.48
938.01	1091.86
938.31	1101.46
938.61	1093.50
938.91	1096.07
939.21	1081.56
939.51	1074.31
939.81	1066.58
940.11	1067.05
940.41	1068.45
940.71	1065.65
941.01	1073.14
941.31	1076.88
941.61	1079.69
941.91	1077.82
942.21	1081.09
942.51	1077.58
942.81	1081.33
943.11	1084.84
943.41	1087.18
943.71	1097.01
944.01	1104.26
944.31	1095.37
944.61	1092.33
944.90	1091.86
945.20	1082.03
945.50	1085.54
945.80	1091.63
946.10	1094.20
946.40	1087.65
946.70	1082.50
947.00	1067.52
947.30	1064.24
947.60	1067.28
947.89	1071.97
948.19	1074.07
948.49	1084.60
948.79	1088.12
949.09	1078.99
949.39	1074.07
949.69	1067.52
949.98	1061.67
950.28	1058.62
950.58	1063.07
950.88	1063.07
951.18	1063.31
951.48	1064.01
951.77	1067.28
952.07	1071.73
952.37	1075.94
952.67	1089.29
952.97	1081.80
953.26	1083.90
953.56	1083.67
953.86	1086.01
954.16	1078.28
954.45	1087.41
954.75	1083.67
955.05	1069.62
955.35	1064.71
955.64	1066.35
955.94	1067.52
956.24	1066.11
956.54	1070.80
956.83	1075.48
957.13	1076.65
957.43	1070.33
957.72	1073.84
958.02	1096.54
958.32	1088.35
958.61	1083.67
958.91	1082.50
959.21	1089.75
959.50	1071.73
959.80	1076.18
960.10	1080.63
960.39	1086.94
960.69	1080.39
960.99	1085.07
961.28	1086.71
961.58	1080.16
961.87	1080.86
962.17	1079.92
962.47	1080.86
962.76	1083.67
963.06	1096.54
963.36	1084.84
963.65	1074.31
963.95	1071.26
964.24	1062.60
964.54	1060.73
964.83	1077.58
965.13	1087.88
965.42	1092.09
965.72	1093.97
966.02	1091.16
966.31	1092.33
966.61	1097.01
966.90	1098.41
967.20	1106.84
967.49	1111.99
967.79	1099.35
968.08	1086.24
968.38	1078.05
968.67	1076.41
968.97	1071.73
969.26	1069.16
969.56	1070.80
969.85	1074.31
970.15	1067.99
970.44	1067.52
970.74	1075.24
971.03	1082.73
971.32	1085.54
971.62	1085.54
971.91	1090.22
972.21	1082.97
972.50	1079.69
972.80	1076.65
973.09	1087.41
973.38	1083.67
973.68	1097.01
973.97	1100.52
974.27	1100.05
974.56	1096.31
974.85	1097.24
975.15	1087.41
975.44	1086.48
975.73	1090.22
976.03	1087.41
976.32	1083.43
976.61	1087.18
976.91	1085.54
977.20	1085.07
977.49	1077.58
977.79	1075.24
978.08	1075.01
978.37	1075.94
978.67	1077.35
978.96	1081.09
979.25	1086.71
979.55	1084.84
979.84	1091.63
980.13	1098.18
980.42	1095.37
980.72	1090.46
981.01	1095.37
981.30	1078.99
981.59	1062.14
981.89	1062.37
982.18	1063.31
982.47	1064.71
982.76	1066.82
983.06	1065.65
983.35	1071.73
983.64	1073.84
983.93	1068.69
984.22	1077.82
984.52	1086.94
984.81	1078.52
985.10	1072.20
985.39	1077.58
985.68	1074.31
985.97	1081.56
986.27	1088.58
986.56	1088.58
986.85	1079.46
987.14	1075.24
987.43	1068.22
987.72	1071.03
988.01	1079.92
988.31	1079.22
988.60	1080.86
988.89	1075.01
989.18	1075.01
989.47	1067.75
989.76	1075.01
990.05	1084.14
990.34	1080.39
990.63	1068.22
990.92	1076.65
991.21	1079.22
991.51	1063.31
991.80	1066.58
992.09	1076.65
992.38	1075.71
992.67	1073.60
992.96	1078.52
993.25	1079.69
993.54	1078.28
993.83	1067.75
994.12	1067.28
994.41	1074.31
994.70	1076.65
994.99	1072.43
995.28	1082.26
995.57	1084.14
995.86	1081.80
996.15	1084.60
996.44	1085.07
996.73	1076.65
997.02	1071.73
997.31	1069.62
997.59	1072.43
997.88	1081.80
998.17	1095.84
998.46	1106.84
998.75	1110.58
999.04	1104.26
999.33	1107.31
999.62	1092.56
999.91	1072.20
1000.20	1066.35
1000.49	1064.94
1000.77	1055.11
1001.06	1057.69
1001.35	1064.94
1001.64	1066.11
1001.93	1067.52
1002.22	1072.43
1002.51	1075.01
1002.79	1075.71
1003.08	1081.33
1003.37	1084.14
1003.66	1079.22
1003.95	1084.60
1004.23	1085.54
1004.52	1082.50
1004.81	1079.92
1005.10	1085.31
1005.39	1083.43
1005.67	1082.26
1005.96	1077.11
1006.25	1086.01
1006.54	1078.99
1006.83	1078.52
1007.11	1074.54
1007.40	1079.46
1007.69	1072.20
1007.97	1074.54
1008.26	1075.48
1008.55	1087.41
1008.84	1088.35
1009.12	1080.63
1009.41	1086.01
1009.70	1078.99
1009.98	1075.71
1010.27	1076.41
1010.56	1077.35
1010.85	1076.18
1011.13	1073.37
1011.42	1072.20
1011.71	1072.43
1011.99	1078.28
1012.28	1078.99
1012.56	1093.50
1012.85	1091.63
1013.14	1088.82
1013.42	1091.63
1013.71	1087.88
1014.00	1084.37
1014.28	1076.18
1014.57	1078.99
1014.85	1082.26
1015.14	1080.39
1015.43	1082.97
1015.71	1091.63
1016.00	1097.24
1016.28	1092.09
1016.57	1096.78
1016.85	1099.35
1017.14	1100.05
1017.43	1100.05
1017.71	1096.07
1018.00	1093.50
1018.28	1080.63
1018.57	1078.99
1018.85	1065.65
1019.14	1076.41
1019.42	1074.31
1019.71	1078.75
1019.99	1079.22
1020.28	1082.03
1020.56	1089.99
1020.85	1096.07
1021.13	1088.35
1021.42	1093.03
1021.70	1089.52
1021.99	1072.43
1022.27	1064.71
1022.55	1071.97
1022.84	1062.60
>>>>>End Processed Spectral Data<<<<<
