SpectraSuite Data File
++++++++++++++++++++++++++++++++++++
Date: Mon Aug 26 10:25:51 PDT 2019
User: corrico
Dark Spectrum Present: No
Reference Spectrum Present: No
Number of Sampled Component Spectra: 1
Spectrometers: USB2+H06089
Integration Time (usec): 10000 (USB2+H06089)
Spectra Averaged: 2 (USB2+H06089)
Boxcar Smoothing: 2 (USB2+H06089)
Correct for Electrical Dark: No (USB2+H06089)
Strobe/Lamp Enabled: No (USB2+H06089)
Correct for Detector Non-linearity: No (USB2+H06089)
Correct for Stray Light: No (USB2+H06089)
Number of Pixels in Processed Spectrum: 2048
>>>>>Begin Processed Spectral Data<<<<<
339.70	1011.11
340.07	1011.11
340.45	986.07
340.82	968.51
341.19	953.77
341.57	932.94
341.94	923.58
342.31	922.64
342.69	917.02
343.06	911.17
343.43	901.57
343.81	896.19
344.18	883.79
344.55	897.13
344.93	904.15
345.30	914.68
345.67	919.60
346.04	929.43
346.42	928.26
346.79	941.60
347.16	954.94
347.54	965.94
347.91	983.73
348.28	994.26
348.65	987.00
349.03	990.98
349.40	1003.62
349.77	1004.09
350.14	1012.75
350.52	1020.94
350.89	1024.69
351.26	1023.05
351.63	1036.62
352.01	1037.79
352.38	1042.01
352.75	1049.73
353.12	1055.58
353.50	1057.45
353.87	1052.07
354.24	1061.43
354.61	1066.11
354.98	1072.90
355.36	1075.48
355.73	1082.50
356.10	1076.65
356.47	1074.07
356.84	1077.11
357.22	1070.80
357.59	1074.77
357.96	1083.20
358.33	1074.31
358.70	1071.50
359.08	1073.14
359.45	1070.56
359.82	1064.24
360.19	1079.69
360.56	1078.05
360.94	1067.75
361.31	1056.28
361.68	1061.90
362.05	1062.84
362.42	1057.22
362.79	1067.05
363.16	1082.26
363.54	1071.97
363.91	1064.01
364.28	1064.71
364.65	1068.45
365.02	1063.07
365.39	1066.82
365.76	1079.69
366.14	1072.67
366.51	1073.37
366.88	1077.11
367.25	1085.07
367.62	1079.46
367.99	1079.69
368.36	1071.50
368.73	1070.56
369.10	1061.43
369.48	1057.22
369.85	1063.54
370.22	1078.52
370.59	1062.60
370.96	1060.03
371.33	1056.75
371.70	1055.11
372.07	1039.90
372.44	1058.39
372.81	1064.71
373.18	1062.84
373.55	1070.80
373.93	1074.54
374.30	1064.24
374.67	1053.94
375.04	1053.48
375.41	1055.82
375.78	1057.22
376.15	1062.37
376.52	1073.37
376.89	1082.97
377.26	1075.94
377.63	1077.58
378.00	1082.26
378.37	1082.03
378.74	1073.37
379.11	1073.14
379.48	1062.14
379.85	1053.01
380.22	1053.01
380.59	1056.75
380.96	1060.96
381.33	1076.18
381.70	1087.88
382.07	1089.52
382.44	1087.18
382.81	1081.80
383.18	1074.31
383.55	1065.88
383.92	1056.28
384.29	1060.96
384.66	1061.67
385.03	1060.26
385.40	1066.11
385.77	1075.24
386.14	1070.56
386.51	1065.65
386.88	1065.65
387.25	1055.82
387.62	1056.52
387.99	1054.65
388.36	1055.35
388.73	1051.84
389.10	1043.64
389.46	1035.92
389.83	1042.24
390.20	1051.60
390.57	1057.69
390.94	1076.65
391.31	1087.41
391.68	1084.60
392.05	1074.54
392.42	1068.45
392.79	1072.90
393.16	1071.03
393.53	1081.33
393.89	1094.20
394.26	1100.99
394.63	1094.90
395.00	1097.95
395.37	1092.56
395.74	1087.88
396.11	1082.97
396.48	1086.94
396.84	1079.22
397.21	1067.99
397.58	1066.82
397.95	1062.37
398.32	1049.96
398.69	1058.39
399.06	1063.77
399.42	1065.88
399.79	1074.31
400.16	1074.54
400.53	1077.58
400.90	1074.77
401.27	1075.94
401.64	1073.37
402.00	1088.35
402.37	1076.18
402.74	1080.63
403.11	1080.63
403.48	1082.03
403.84	1072.67
404.21	1073.14
404.58	1072.20
404.95	1064.24
405.32	1061.67
405.68	1062.60
406.05	1070.56
406.42	1066.82
406.79	1070.33
407.16	1067.52
407.52	1061.67
407.89	1053.94
408.26	1053.24
408.63	1054.65
408.99	1064.71
409.36	1072.43
409.73	1072.67
410.10	1079.46
410.47	1086.71
410.83	1087.65
411.20	1083.20
411.57	1093.97
411.94	1086.94
412.30	1080.86
412.67	1083.90
413.04	1091.63
413.40	1085.07
413.77	1089.52
414.14	1091.86
414.51	1085.07
414.87	1084.14
415.24	1082.03
415.61	1079.92
415.97	1076.18
416.34	1077.58
416.71	1076.65
417.08	1073.84
417.44	1072.90
417.81	1075.71
418.18	1076.88
418.54	1082.50
418.91	1089.29
419.28	1092.80
419.64	1084.37
420.01	1080.63
420.38	1064.94
420.74	1060.03
421.11	1065.65
421.48	1072.43
421.84	1065.41
422.21	1085.54
422.58	1095.14
422.94	1091.63
423.31	1093.26
423.68	1097.95
424.04	1080.39
424.41	1089.52
424.77	1092.80
425.14	1083.43
425.51	1085.07
425.87	1095.14
426.24	1076.65
426.61	1071.50
426.97	1082.03
427.34	1084.37
427.70	1087.65
428.07	1083.20
428.44	1075.48
428.80	1075.71
429.17	1076.18
429.53	1069.16
429.90	1075.48
430.27	1095.84
430.63	1092.33
431.00	1091.16
431.36	1089.75
431.73	1092.09
432.09	1074.77
432.46	1077.35
432.83	1074.54
433.19	1085.77
433.56	1094.43
433.92	1093.97
434.29	1085.54
434.65	1079.46
435.02	1059.33
435.38	1042.01
435.75	1049.03
436.11	1062.37
436.48	1073.60
436.84	1085.31
437.21	1095.37
437.57	1098.65
437.94	1088.82
438.30	1090.69
438.67	1084.37
439.03	1086.24
439.40	1076.41
439.76	1068.45
440.13	1060.26
440.49	1065.65
440.86	1053.24
441.22	1059.79
441.59	1069.39
441.95	1067.05
442.32	1064.94
442.68	1067.99
443.05	1056.52
443.41	1049.96
443.78	1057.92
444.14	1055.35
444.51	1056.99
444.87	1071.97
445.24	1077.11
445.60	1076.18
445.96	1083.67
446.33	1083.90
446.69	1074.31
447.06	1079.22
447.42	1077.82
447.79	1074.77
448.15	1075.71
448.51	1081.33
448.88	1079.69
449.24	1076.41
449.61	1077.35
449.97	1075.48
450.33	1071.26
450.70	1065.88
451.06	1061.43
451.43	1058.86
451.79	1062.37
452.15	1064.71
452.52	1067.52
452.88	1077.35
453.24	1083.43
453.61	1087.65
453.97	1090.69
454.34	1091.63
454.70	1090.69
455.06	1081.33
455.43	1065.18
455.79	1065.65
456.15	1063.31
456.52	1063.31
456.88	1062.60
457.24	1072.90
457.61	1067.99
457.97	1066.82
458.33	1065.88
458.70	1064.94
459.06	1066.82
459.42	1067.28
459.79	1075.24
460.15	1078.28
460.51	1084.84
460.88	1090.22
461.24	1092.56
461.60	1090.22
461.96	1079.92
462.33	1076.41
462.69	1065.88
463.05	1072.43
463.42	1067.05
463.78	1083.67
464.14	1083.43
464.50	1086.24
464.87	1073.14
465.23	1087.18
465.59	1075.48
465.95	1073.37
466.32	1078.75
466.68	1092.80
467.04	1080.39
467.40	1083.90
467.77	1088.12
468.13	1083.67
468.49	1075.48
468.85	1076.18
469.22	1074.31
469.58	1080.63
469.94	1080.86
470.30	1078.75
470.66	1084.60
471.03	1079.92
471.39	1070.09
471.75	1069.39
472.11	1078.28
472.47	1071.50
472.84	1077.82
473.20	1082.26
473.56	1083.90
473.92	1073.37
474.28	1085.77
474.65	1087.88
475.01	1088.35
475.37	1094.20
475.73	1094.20
476.09	1081.80
476.45	1084.37
476.81	1091.63
477.18	1093.50
477.54	1101.22
477.90	1104.73
478.26	1095.60
478.62	1075.01
478.98	1065.18
479.34	1062.37
479.71	1066.58
480.07	1065.88
480.43	1080.16
480.79	1075.94
481.15	1068.22
481.51	1067.99
481.87	1068.92
482.23	1057.22
482.59	1059.79
482.96	1061.20
483.32	1065.88
483.68	1073.14
484.04	1079.22
484.40	1089.99
484.76	1090.92
485.12	1077.58
485.48	1071.26
485.84	1070.09
486.20	1062.60
486.56	1072.90
486.92	1081.56
487.28	1079.92
487.64	1092.80
488.00	1081.09
488.37	1078.75
488.73	1077.35
489.09	1081.33
489.45	1074.77
489.81	1085.31
490.17	1081.56
490.53	1083.43
490.89	1080.86
491.25	1076.41
491.61	1071.03
491.97	1073.37
492.33	1068.45
492.69	1074.54
493.05	1078.75
493.41	1086.48
493.77	1077.11
494.13	1086.94
494.49	1078.75
494.85	1078.52
495.21	1079.46
495.57	1086.71
495.93	1076.18
496.29	1082.73
496.64	1079.22
497.00	1075.01
497.36	1081.56
497.72	1093.97
498.08	1102.16
498.44	1112.69
498.80	1110.82
499.16	1103.56
499.52	1093.26
499.88	1089.29
500.24	1078.75
500.60	1076.65
500.96	1074.07
501.32	1077.11
501.68	1080.86
502.03	1077.35
502.39	1077.35
502.75	1077.82
503.11	1076.88
503.47	1070.80
503.83	1075.01
504.19	1084.60
504.55	1090.22
504.91	1086.48
505.26	1076.65
505.62	1081.09
505.98	1091.16
506.34	1088.58
506.70	1090.69
507.06	1096.78
507.42	1104.03
507.78	1084.84
508.13	1092.09
508.49	1091.63
508.85	1087.41
509.21	1074.77
509.57	1082.50
509.93	1083.90
510.28	1080.16
510.64	1084.14
511.00	1083.20
511.36	1073.84
511.72	1067.75
512.07	1064.24
512.43	1072.43
512.79	1071.03
513.15	1076.41
513.51	1083.20
513.86	1093.97
514.22	1089.29
514.58	1093.73
514.94	1097.71
515.30	1088.35
515.65	1084.14
516.01	1083.43
516.37	1080.63
516.73	1072.67
517.08	1074.77
517.44	1070.09
517.80	1060.50
518.16	1067.99
518.51	1065.65
518.87	1068.45
519.23	1086.48
519.59	1096.31
519.94	1090.22
520.30	1098.41
520.66	1102.39
521.01	1095.37
521.37	1098.41
521.73	1104.26
522.09	1111.99
522.44	1111.29
522.80	1110.12
523.16	1107.07
523.51	1106.14
523.87	1117.14
524.23	1111.29
524.58	1105.67
524.94	1104.97
525.30	1102.39
525.65	1091.86
526.01	1091.16
526.37	1097.95
526.72	1101.22
527.08	1104.26
527.44	1097.24
527.79	1100.29
528.15	1102.63
528.51	1096.07
528.86	1097.24
529.22	1097.95
529.58	1089.52
529.93	1086.01
530.29	1094.90
530.65	1090.22
531.00	1081.56
531.36	1081.33
531.71	1081.56
532.07	1078.05
532.43	1078.99
532.78	1092.09
533.14	1101.92
533.49	1095.14
533.85	1087.65
534.21	1086.94
534.56	1075.71
534.92	1070.33
535.27	1067.75
535.63	1069.62
535.98	1064.71
536.34	1064.24
536.69	1067.05
537.05	1074.07
537.41	1085.77
537.76	1085.77
538.12	1082.03
538.47	1075.01
538.83	1068.45
539.18	1058.86
539.54	1067.05
539.89	1080.39
540.25	1085.54
540.60	1087.18
540.96	1094.20
541.31	1099.35
541.67	1107.07
542.02	1101.69
542.38	1099.82
542.73	1089.05
543.09	1084.14
543.44	1067.52
543.80	1071.03
544.15	1082.26
544.51	1095.37
544.86	1092.56
545.22	1092.09
545.57	1088.58
545.93	1081.33
546.28	1071.97
546.64	1070.33
546.99	1077.35
547.35	1072.43
547.70	1070.80
548.05	1065.18
548.41	1065.65
548.76	1063.77
549.12	1083.43
549.47	1085.54
549.83	1096.31
550.18	1091.63
550.53	1092.80
550.89	1090.46
551.24	1086.24
551.60	1085.77
551.95	1094.90
552.30	1092.56
552.66	1091.39
553.01	1090.69
553.37	1079.46
553.72	1083.90
554.07	1090.92
554.43	1083.90
554.78	1083.90
555.13	1089.75
555.49	1068.92
555.84	1052.54
556.19	1051.37
556.55	1065.88
556.90	1074.54
557.26	1086.24
557.61	1098.18
557.96	1094.90
558.32	1091.63
558.67	1084.14
559.02	1091.86
559.37	1092.33
559.73	1104.73
560.08	1091.39
560.43	1092.33
560.79	1089.52
561.14	1080.16
561.49	1067.99
561.85	1075.01
562.20	1075.24
562.55	1072.20
562.90	1076.18
563.26	1085.77
563.61	1098.41
563.96	1098.18
564.32	1097.24
564.67	1107.31
565.02	1096.78
565.37	1085.77
565.73	1080.86
566.08	1085.07
566.43	1075.24
566.78	1078.75
567.14	1080.39
567.49	1086.24
567.84	1082.73
568.19	1083.20
568.54	1088.82
568.90	1091.16
569.25	1089.29
569.60	1094.67
569.95	1090.46
570.31	1096.07
570.66	1088.35
571.01	1084.84
571.36	1079.22
571.71	1089.99
572.06	1077.82
572.42	1085.31
572.77	1086.94
573.12	1085.54
573.47	1086.24
573.82	1092.56
574.18	1087.18
574.53	1079.69
574.88	1078.05
575.23	1067.75
575.58	1055.35
575.93	1053.24
576.28	1068.92
576.64	1074.07
576.99	1080.39
577.34	1096.78
577.69	1097.24
578.04	1086.48
578.39	1083.43
578.74	1086.01
579.09	1077.82
579.44	1078.28
579.80	1079.69
580.15	1079.22
580.50	1079.22
580.85	1080.39
581.20	1075.94
581.55	1076.41
581.90	1068.22
582.25	1064.24
582.60	1056.75
582.95	1058.16
583.30	1053.94
583.65	1063.77
584.00	1072.20
584.35	1083.90
584.71	1087.41
585.06	1089.52
585.41	1087.65
585.76	1075.48
586.11	1066.58
586.46	1066.35
586.81	1071.26
587.16	1057.22
587.51	1068.69
587.86	1064.71
588.21	1062.84
588.56	1064.94
588.91	1074.77
589.26	1067.99
589.61	1079.92
589.96	1080.16
590.31	1076.41
590.66	1076.41
591.01	1075.24
591.36	1074.31
591.71	1067.75
592.06	1065.88
592.41	1065.41
592.76	1062.37
593.10	1057.92
593.45	1071.73
593.80	1073.84
594.15	1081.33
594.50	1085.07
594.85	1098.18
595.20	1091.16
595.55	1090.69
595.90	1092.09
596.25	1086.01
596.60	1064.71
596.95	1067.75
597.30	1070.80
597.64	1117.61
597.99	1123.22
598.34	1126.73
598.69	1124.39
599.04	1116.44
599.39	1060.26
599.74	1056.75
600.09	1070.56
600.44	1071.03
600.78	1078.99
601.13	1081.33
601.48	1088.35
601.83	1082.50
602.18	1087.88
602.53	1089.05
602.88	1086.24
603.22	1081.80
603.57	1089.75
603.92	1087.88
604.27	1081.56
604.62	1088.82
604.97	1093.03
605.31	1080.16
605.66	1079.46
606.01	1085.31
606.36	1092.09
606.71	1093.03
607.05	1101.22
607.40	1097.48
607.75	1092.56
608.10	1085.54
608.44	1085.31
608.79	1073.60
609.14	1069.39
609.49	1075.94
609.84	1082.26
610.18	1092.80
610.53	1111.29
610.88	1117.61
611.23	1120.41
611.57	1125.10
611.92	1119.01
612.27	1112.69
612.62	1115.97
612.96	1117.84
613.31	1111.75
613.66	1097.95
614.00	1086.01
614.35	1084.37
614.70	1078.75
615.05	1065.88
615.39	1075.24
615.74	1087.88
616.09	1085.54
616.43	1076.88
616.78	1083.67
617.13	1076.18
617.47	1064.94
617.82	1059.56
618.17	1058.39
618.51	1062.14
618.86	1060.26
619.21	1060.96
619.55	1066.11
619.90	1084.14
620.25	1087.88
620.59	1097.48
620.94	1099.82
621.29	1093.97
621.63	1084.14
621.98	1082.03
622.32	1078.05
622.67	1076.65
623.02	1075.71
623.36	1077.35
623.71	1073.14
624.05	1080.16
624.40	1071.97
624.75	1078.52
625.09	1075.01
625.44	1070.80
625.78	1061.90
626.13	1075.48
626.48	1074.54
626.82	1073.37
627.17	1080.86
627.51	1082.03
627.86	1082.50
628.20	1082.03
628.55	1077.82
628.89	1066.35
629.24	1071.50
629.58	1060.96
629.93	1066.82
630.28	1079.92
630.62	1088.35
630.97	1079.69
631.31	1084.60
631.66	1083.67
632.00	1073.37
632.35	1078.05
632.69	1079.22
633.04	1088.58
633.38	1086.71
633.73	1090.46
634.07	1080.39
634.42	1080.63
634.76	1077.82
635.11	1082.73
635.45	1088.35
635.79	1097.71
636.14	1104.73
636.48	1105.67
636.83	1108.95
637.17	1099.12
637.52	1090.92
637.86	1087.65
638.21	1086.48
638.55	1076.41
638.89	1079.69
639.24	1085.54
639.58	1084.84
639.93	1078.75
640.27	1092.33
640.61	1099.35
640.96	1102.16
641.30	1104.50
641.65	1110.12
641.99	1093.50
642.33	1087.18
642.68	1092.33
643.02	1092.09
643.37	1086.48
643.71	1082.73
644.05	1090.69
644.40	1078.05
644.74	1073.84
645.08	1073.37
645.43	1083.90
645.77	1071.26
646.11	1079.92
646.46	1075.24
646.80	1080.39
647.14	1069.86
647.49	1072.20
647.83	1064.01
648.17	1083.90
648.52	1085.31
648.86	1094.20
649.20	1101.22
649.55	1106.61
649.89	1084.37
650.23	1083.67
650.57	1077.82
650.92	1070.09
651.26	1059.56
651.60	1059.79
651.95	1053.01
652.29	1062.84
652.63	1056.05
652.97	1062.14
653.32	1076.88
653.66	1076.18
654.00	1067.75
654.34	1077.58
654.69	1079.92
655.03	1076.65
655.37	1077.58
655.71	1080.16
656.05	1075.24
656.40	1071.97
656.74	1063.77
657.08	1067.05
657.42	1060.50
657.76	1067.75
658.11	1071.73
658.45	1085.77
658.79	1092.80
659.13	1103.33
659.47	1097.71
659.82	1093.50
660.16	1077.35
660.50	1068.92
660.84	1067.28
661.18	1068.22
661.52	1069.16
661.87	1072.20
662.21	1071.97
662.55	1069.86
662.89	1074.31
663.23	1062.84
663.57	1065.18
663.91	1073.60
664.25	1075.24
664.60	1064.94
664.94	1074.31
665.28	1067.75
665.62	1062.60
665.96	1061.67
666.30	1070.56
666.64	1068.69
666.98	1072.43
667.32	1071.73
667.66	1069.16
668.01	1072.67
668.35	1075.71
668.69	1076.65
669.03	1075.24
669.37	1081.56
669.71	1078.99
670.05	1085.77
670.39	1093.73
670.73	1099.35
671.07	1096.54
671.41	1089.52
671.75	1088.82
672.09	1082.03
672.43	1069.16
672.77	1063.77
673.11	1079.22
673.45	1075.48
673.79	1076.18
674.13	1076.65
674.47	1084.14
674.81	1073.14
675.15	1076.88
675.49	1076.18
675.83	1082.26
676.17	1068.45
676.51	1071.97
676.85	1069.62
677.19	1071.97
677.53	1078.75
677.87	1090.46
678.21	1082.50
678.55	1080.86
678.89	1078.52
679.23	1064.94
679.57	1068.45
679.90	1060.73
680.24	1051.37
680.58	1044.35
680.92	1052.77
681.26	1040.84
681.60	1057.22
681.94	1072.43
682.28	1085.54
682.62	1079.22
682.96	1087.18
683.29	1089.99
683.63	1079.92
683.97	1077.58
684.31	1086.01
684.65	1086.01
684.99	1087.41
685.33	1093.97
685.67	1087.65
686.00	1091.16
686.34	1082.50
686.68	1081.09
687.02	1076.41
687.36	1081.80
687.70	1072.67
688.03	1081.56
688.37	1081.09
688.71	1084.60
689.05	1079.69
689.39	1077.11
689.72	1077.11
690.06	1077.82
690.40	1075.01
690.74	1069.16
691.08	1071.26
691.41	1069.39
691.75	1071.26
692.09	1069.62
692.43	1086.94
692.76	1087.41
693.10	1089.75
693.44	1082.26
693.78	1082.03
694.11	1078.99
694.45	1078.05
694.79	1080.39
695.13	1079.22
695.46	1083.43
695.80	1076.18
696.14	1080.16
696.48	1075.24
696.81	1074.31
697.15	1073.60
697.49	1067.75
697.82	1064.01
698.16	1061.90
698.50	1063.31
698.83	1062.14
699.17	1071.97
699.51	1072.90
699.84	1071.03
700.18	1072.90
700.52	1067.75
700.85	1072.67
701.19	1082.50
701.53	1091.16
701.86	1079.46
702.20	1077.11
702.54	1075.71
702.87	1068.69
703.21	1067.52
703.55	1076.65
703.88	1080.86
704.22	1081.09
704.55	1085.77
704.89	1089.29
705.23	1093.50
705.56	1102.63
705.90	1097.95
706.23	1091.86
706.57	1083.67
706.91	1087.18
707.24	1083.67
707.58	1077.82
707.91	1092.09
708.25	1104.50
708.58	1100.75
708.92	1097.95
709.26	1095.84
709.59	1077.11
709.93	1078.05
710.26	1079.92
710.60	1082.97
710.93	1084.84
711.27	1096.31
711.60	1085.77
711.94	1079.69
712.27	1078.75
712.61	1082.03
712.94	1079.92
713.28	1077.58
713.61	1065.88
713.95	1062.60
714.28	1066.11
714.62	1068.92
714.95	1074.77
715.29	1089.29
715.62	1092.09
715.96	1086.94
716.29	1084.14
716.63	1082.50
716.96	1075.48
717.29	1073.37
717.63	1073.37
717.96	1066.58
718.30	1061.90
718.63	1067.75
718.97	1064.48
719.30	1066.35
719.63	1064.94
719.97	1068.22
720.30	1068.69
720.64	1065.18
720.97	1067.28
721.30	1071.97
721.64	1069.62
721.97	1066.58
722.31	1073.37
722.64	1068.69
722.97	1065.41
723.31	1065.41
723.64	1070.56
723.97	1072.67
724.31	1077.11
724.64	1085.77
724.98	1080.39
725.31	1082.26
725.64	1077.82
725.98	1073.37
726.31	1071.03
726.64	1072.43
726.97	1053.24
727.31	1056.52
727.64	1057.69
727.97	1044.82
728.31	1047.39
728.64	1057.45
728.97	1059.56
729.31	1068.22
729.64	1079.92
729.97	1082.97
730.30	1080.16
730.64	1077.58
730.97	1066.58
731.30	1059.56
731.63	1059.56
731.97	1064.01
732.30	1070.56
732.63	1071.26
732.96	1074.77
733.30	1076.88
733.63	1078.52
733.96	1072.43
734.29	1080.86
734.63	1084.84
734.96	1078.28
735.29	1091.16
735.62	1099.35
735.95	1105.44
736.29	1103.09
736.62	1111.29
736.95	1095.60
737.28	1097.01
737.61	1081.09
737.94	1076.88
738.28	1069.62
738.61	1078.52
738.94	1069.39
739.27	1074.77
739.60	1078.05
739.93	1083.67
740.27	1078.28
740.60	1076.88
740.93	1082.50
741.26	1084.37
741.59	1083.43
741.92	1083.20
742.25	1085.54
742.58	1080.86
742.91	1081.80
743.25	1079.46
743.58	1078.52
743.91	1083.43
744.24	1084.84
744.57	1083.20
744.90	1086.01
745.23	1089.52
745.56	1077.11
745.89	1078.52
746.22	1075.71
746.55	1062.14
746.88	1067.99
747.21	1060.03
747.54	1056.75
747.87	1060.96
748.20	1070.80
748.53	1063.77
748.87	1079.92
749.20	1078.28
749.53	1077.82
749.86	1082.73
750.19	1084.60
750.52	1075.24
750.85	1082.97
751.18	1094.20
751.51	1097.95
751.84	1096.54
752.16	1110.35
752.49	1107.54
752.82	1102.86
753.15	1100.75
753.48	1101.69
753.81	1097.24
754.14	1105.20
754.47	1100.75
754.80	1097.01
755.13	1096.78
755.46	1094.20
755.79	1093.97
756.12	1096.78
756.45	1100.52
756.78	1093.50
757.11	1097.48
757.43	1084.84
757.76	1082.03
758.09	1082.50
758.42	1081.56
758.75	1074.77
759.08	1085.31
759.41	1085.54
759.74	1075.48
760.07	1082.03
760.39	1087.65
760.72	1075.94
761.05	1068.69
761.38	1071.26
761.71	1061.43
762.04	1067.75
762.36	1082.97
762.69	1086.01
763.02	1089.29
763.35	1104.50
763.68	1106.37
764.01	1089.99
764.33	1092.33
764.66	1097.71
764.99	1090.69
765.32	1079.92
765.65	1081.80
765.97	1077.82
766.30	1070.33
766.63	1068.22
766.96	1075.48
767.28	1077.35
767.61	1083.43
767.94	1084.84
768.27	1084.60
768.59	1075.48
768.92	1071.50
769.25	1072.20
769.58	1064.24
769.90	1058.62
770.23	1066.11
770.56	1065.88
770.89	1061.20
771.21	1062.84
771.54	1064.01
771.87	1058.39
772.19	1062.84
772.52	1069.86
772.85	1075.48
773.17	1091.86
773.50	1101.22
773.83	1103.33
774.15	1098.41
774.48	1095.84
774.81	1089.99
775.13	1086.01
775.46	1078.52
775.79	1077.35
776.11	1077.35
776.44	1073.84
776.77	1060.03
777.09	1060.50
777.42	1063.54
777.74	1064.01
778.07	1069.86
778.40	1081.09
778.72	1076.18
779.05	1071.03
779.37	1073.37
779.70	1070.33
780.03	1068.92
780.35	1085.77
780.68	1092.80
781.00	1083.43
781.33	1083.67
781.65	1082.03
781.98	1073.14
782.31	1071.26
782.63	1080.86
782.96	1076.41
783.28	1078.05
783.61	1081.56
783.93	1081.09
784.26	1076.88
784.58	1080.86
784.91	1077.82
785.23	1080.86
785.56	1080.16
785.88	1087.41
786.21	1096.78
786.53	1094.90
786.86	1096.54
787.18	1095.60
787.51	1085.77
787.83	1076.18
788.16	1084.84
788.48	1071.97
788.81	1073.60
789.13	1092.09
789.46	1090.69
789.78	1091.39
790.10	1089.52
790.43	1087.88
790.75	1078.75
791.08	1075.71
791.40	1078.52
791.73	1100.52
792.05	1104.50
792.37	1095.60
792.70	1095.60
793.02	1076.41
793.35	1067.28
793.67	1059.09
793.99	1085.31
794.32	1097.01
794.64	1106.84
794.96	1109.65
795.29	1114.10
795.61	1099.12
795.93	1093.50
796.26	1089.29
796.58	1079.46
796.91	1086.71
797.23	1077.11
797.55	1068.45
797.87	1074.77
798.20	1074.07
798.52	1071.97
798.84	1069.16
799.17	1071.50
799.49	1073.14
799.81	1078.75
800.14	1071.50
800.46	1069.39
800.78	1071.03
801.10	1077.58
801.43	1081.56
801.75	1083.43
802.07	1092.33
802.40	1091.39
802.72	1086.94
803.04	1085.54
803.36	1082.50
803.69	1084.14
804.01	1082.50
804.33	1079.46
804.65	1077.82
804.97	1087.18
805.30	1091.63
805.62	1099.12
805.94	1090.22
806.26	1087.65
806.58	1075.48
806.91	1074.07
807.23	1072.43
807.55	1080.63
807.87	1089.05
808.19	1089.52
808.52	1080.63
808.84	1072.43
809.16	1072.90
809.48	1062.84
809.80	1062.60
810.12	1079.22
810.44	1085.07
810.77	1086.94
811.09	1085.77
811.41	1096.78
811.73	1088.12
812.05	1092.09
812.37	1085.31
812.69	1090.22
813.01	1077.82
813.33	1083.43
813.66	1091.16
813.98	1103.33
814.30	1107.31
814.62	1121.35
814.94	1116.90
815.26	1109.41
815.58	1095.14
815.90	1103.09
816.22	1098.88
816.54	1104.97
816.86	1098.41
817.18	1101.69
817.50	1086.94
817.82	1083.20
818.14	1074.77
818.46	1077.35
818.78	1076.65
819.10	1078.75
819.42	1076.65
819.74	1082.03
820.06	1090.69
820.38	1103.56
820.70	1101.22
821.02	1107.54
821.34	1108.24
821.66	1096.54
821.98	1084.60
822.30	1079.22
822.62	1070.56
822.94	1063.77
823.26	1069.86
823.58	1069.86
823.90	1073.84
824.22	1071.26
824.54	1075.01
824.86	1075.94
825.18	1085.31
825.50	1087.88
825.81	1089.75
826.13	1084.14
826.45	1086.01
826.77	1076.41
827.09	1084.84
827.41	1104.50
827.73	1105.20
828.05	1096.78
828.36	1107.07
828.68	1098.88
829.00	1084.60
829.32	1082.26
829.64	1082.26
829.96	1072.90
830.28	1071.03
830.59	1067.75
830.91	1066.35
831.23	1067.05
831.55	1066.58
831.87	1077.35
832.19	1086.71
832.50	1088.82
832.82	1092.56
833.14	1097.71
833.46	1091.16
833.78	1088.35
834.09	1095.84
834.41	1098.18
834.73	1086.71
835.05	1079.46
835.36	1075.01
835.68	1065.41
836.00	1060.73
836.32	1068.45
836.63	1066.82
836.95	1065.65
837.27	1067.52
837.59	1067.05
837.90	1069.86
838.22	1087.18
838.54	1083.43
838.85	1084.84
839.17	1089.52
839.49	1086.94
839.80	1086.01
840.12	1090.46
840.44	1103.56
840.76	1083.67
841.07	1081.09
841.39	1067.52
841.71	1066.58
842.02	1059.09
842.34	1075.01
842.65	1080.16
842.97	1080.39
843.29	1081.09
843.60	1074.31
843.92	1067.52
844.24	1058.62
844.55	1061.67
844.87	1062.14
845.18	1064.01
845.50	1061.67
845.82	1066.58
846.13	1074.54
846.45	1076.18
846.76	1078.05
847.08	1087.18
847.40	1095.60
847.71	1088.12
848.03	1085.31
848.34	1083.67
848.66	1082.73
848.97	1072.20
849.29	1069.16
849.60	1070.80
849.92	1066.35
850.24	1065.65
850.55	1065.41
850.87	1067.75
851.18	1067.75
851.50	1067.99
851.81	1065.65
852.13	1061.67
852.44	1068.92
852.76	1070.33
853.07	1075.71
853.39	1079.69
853.70	1090.69
854.01	1089.05
854.33	1100.52
854.64	1094.90
854.96	1090.46
855.27	1084.14
855.59	1076.88
855.90	1065.41
856.22	1060.73
856.53	1055.11
856.84	1060.50
857.16	1060.03
857.47	1058.16
857.79	1063.77
858.10	1069.62
858.41	1065.88
858.73	1070.80
859.04	1065.41
859.36	1072.90
859.67	1073.14
859.98	1084.14
860.30	1075.01
860.61	1080.39
860.92	1068.45
861.24	1072.67
861.55	1062.37
861.87	1065.41
862.18	1069.62
862.49	1082.97
862.81	1078.99
863.12	1079.22
863.43	1088.35
863.74	1073.37
864.06	1062.14
864.37	1075.48
864.68	1082.50
865.00	1072.20
865.31	1077.58
865.62	1087.65
865.94	1078.99
866.25	1084.60
866.56	1081.33
866.87	1083.90
867.19	1079.22
867.50	1076.88
867.81	1074.77
868.12	1087.41
868.44	1079.46
868.75	1078.52
869.06	1073.60
869.37	1064.48
869.68	1063.07
870.00	1077.82
870.31	1073.14
870.62	1069.16
870.93	1067.05
871.24	1071.26
871.56	1066.35
871.87	1072.90
872.18	1082.50
872.49	1080.63
872.80	1069.86
873.12	1069.62
873.43	1081.33
873.74	1082.50
874.05	1078.99
874.36	1076.88
874.67	1086.01
874.98	1075.24
875.29	1079.46
875.61	1077.58
875.92	1085.07
876.23	1079.22
876.54	1076.18
876.85	1067.05
877.16	1078.05
877.47	1080.86
877.78	1078.28
878.09	1076.18
878.40	1082.03
878.72	1091.16
879.03	1090.69
879.34	1092.80
879.65	1086.71
879.96	1084.14
880.27	1076.18
880.58	1067.99
880.89	1069.86
881.20	1082.50
881.51	1091.63
881.82	1094.90
882.13	1102.63
882.44	1104.03
882.75	1099.35
883.06	1088.82
883.37	1079.22
883.68	1073.60
883.99	1068.22
884.30	1071.50
884.61	1075.94
884.92	1078.52
885.23	1088.82
885.54	1095.14
885.85	1094.90
886.16	1089.99
886.47	1090.22
886.78	1089.75
887.08	1082.73
887.39	1079.92
887.70	1081.80
888.01	1078.52
888.32	1068.69
888.63	1065.65
888.94	1069.16
889.25	1076.65
889.56	1076.88
889.87	1083.20
890.17	1087.18
890.48	1088.58
890.79	1083.67
891.10	1086.94
891.41	1082.97
891.72	1088.35
892.03	1091.39
892.34	1090.46
892.64	1090.46
892.95	1086.24
893.26	1076.18
893.57	1068.69
893.88	1065.65
894.18	1076.18
894.49	1074.54
894.80	1087.65
895.11	1086.24
895.42	1088.35
895.72	1083.20
896.03	1092.80
896.34	1086.94
896.65	1086.94
896.96	1086.24
897.26	1069.39
897.57	1075.01
897.88	1080.16
898.19	1083.43
898.49	1085.54
898.80	1090.46
899.11	1085.31
899.41	1078.99
899.72	1082.03
900.03	1083.67
900.34	1087.41
900.64	1082.73
900.95	1082.03
901.26	1086.01
901.56	1082.97
901.87	1079.92
902.18	1084.84
902.48	1086.01
902.79	1088.35
903.10	1090.46
903.40	1108.48
903.71	1103.80
904.02	1100.05
904.32	1089.99
904.63	1086.48
904.94	1074.07
905.24	1075.01
905.55	1081.09
905.85	1073.14
906.16	1077.11
906.47	1084.84
906.77	1093.73
907.08	1086.71
907.38	1093.50
907.69	1088.12
908.00	1076.18
908.30	1065.65
908.61	1074.07
908.91	1080.86
909.22	1085.77
909.52	1091.16
909.83	1089.75
910.14	1081.56
910.44	1087.18
910.75	1083.43
911.05	1080.39
911.36	1080.86
911.66	1086.48
911.97	1070.09
912.27	1065.18
912.58	1072.20
912.88	1071.26
913.19	1072.67
913.49	1077.58
913.80	1086.01
914.10	1080.39
914.41	1073.37
914.71	1062.14
915.01	1058.86
915.32	1059.33
915.62	1063.54
915.93	1077.35
916.23	1078.05
916.54	1083.43
916.84	1080.63
917.15	1081.80
917.45	1084.84
917.75	1092.33
918.06	1087.65
918.36	1096.78
918.67	1096.78
918.97	1089.99
919.27	1086.71
919.58	1085.07
919.88	1081.09
920.18	1078.28
920.49	1069.62
920.79	1074.31
921.10	1082.73
921.40	1081.56
921.70	1071.97
922.01	1081.33
922.31	1081.56
922.61	1078.52
922.92	1086.48
923.22	1086.01
923.52	1082.97
923.82	1085.31
924.13	1082.50
924.43	1069.62
924.73	1079.22
925.04	1074.77
925.34	1069.62
925.64	1074.77
925.94	1080.16
926.25	1074.77
926.55	1084.37
926.85	1078.52
927.15	1072.90
927.46	1071.26
927.76	1082.03
928.06	1090.92
928.36	1102.16
928.67	1104.50
928.97	1099.82
929.27	1096.54
929.57	1083.67
929.87	1080.63
930.18	1079.22
930.48	1084.14
930.78	1079.69
931.08	1077.58
931.38	1080.16
931.69	1078.99
931.99	1087.18
932.29	1089.99
932.59	1090.69
932.89	1081.33
933.19	1076.88
933.49	1066.11
933.80	1067.52
934.10	1067.05
934.40	1070.80
934.70	1075.24
935.00	1085.07
935.30	1078.52
935.60	1086.94
935.90	1082.73
936.20	1084.84
936.50	1074.31
936.81	1081.56
937.11	1074.31
937.41	1078.28
937.71	1076.18
938.01	1076.65
938.31	1069.62
938.61	1072.90
938.91	1074.31
939.21	1070.33
939.51	1067.75
939.81	1073.14
940.11	1070.09
940.41	1067.99
940.71	1070.56
941.01	1069.86
941.31	1070.33
941.61	1071.73
941.91	1077.82
942.21	1083.90
942.51	1081.80
942.81	1081.33
943.11	1074.31
943.41	1059.33
943.71	1047.39
944.01	1054.41
944.31	1054.18
944.61	1054.88
944.90	1065.18
945.20	1073.84
945.50	1070.33
945.80	1066.35
946.10	1066.58
946.40	1070.33
946.70	1071.03
947.00	1070.56
947.30	1066.35
947.60	1068.92
947.89	1061.67
948.19	1062.14
948.49	1067.99
948.79	1072.43
949.09	1074.77
949.39	1077.82
949.69	1076.65
949.98	1067.28
950.28	1064.71
950.58	1061.90
950.88	1062.84
951.18	1061.67
951.48	1078.05
951.77	1088.35
952.07	1082.50
952.37	1079.46
952.67	1083.20
952.97	1076.65
953.26	1064.24
953.56	1072.67
953.86	1079.22
954.16	1082.50
954.45	1087.65
954.75	1096.31
955.05	1093.73
955.35	1079.69
955.64	1072.90
955.94	1067.28
956.24	1061.90
956.54	1068.92
956.83	1081.56
957.13	1091.16
957.43	1096.07
957.72	1102.16
958.02	1104.97
958.32	1104.73
958.61	1091.16
958.91	1079.92
959.21	1072.43
959.50	1065.18
959.80	1061.90
960.10	1066.58
960.39	1062.14
960.69	1067.75
960.99	1077.35
961.28	1078.05
961.58	1081.56
961.87	1088.35
962.17	1092.80
962.47	1097.01
962.76	1100.99
963.06	1097.01
963.36	1094.67
963.65	1077.35
963.95	1063.07
964.24	1064.24
964.54	1052.30
964.83	1042.47
965.13	1041.54
965.42	1038.73
965.72	1037.33
966.02	1051.13
966.31	1061.43
966.61	1069.16
966.90	1071.97
967.20	1072.20
967.49	1073.84
967.79	1078.99
968.08	1090.92
968.38	1090.22
968.67	1086.48
968.97	1087.88
969.26	1085.07
969.56	1072.67
969.85	1077.58
970.15	1075.01
970.44	1070.33
970.74	1072.90
971.03	1087.41
971.32	1096.07
971.62	1103.56
971.91	1105.44
972.21	1106.14
972.50	1093.50
972.80	1086.94
973.09	1082.26
973.38	1077.58
973.68	1077.58
973.97	1080.63
974.27	1067.05
974.56	1070.80
974.85	1073.84
975.15	1073.14
975.44	1074.77
975.73	1081.33
976.03	1080.39
976.32	1074.07
976.61	1082.97
976.91	1086.01
977.20	1090.92
977.49	1097.95
977.79	1104.50
978.08	1098.41
978.37	1094.43
978.67	1092.33
978.96	1085.77
979.25	1086.71
979.55	1078.28
979.84	1082.03
980.13	1084.84
980.42	1074.77
980.72	1079.46
981.01	1089.05
981.30	1087.88
981.59	1080.39
981.89	1084.84
982.18	1087.41
982.47	1078.05
982.76	1076.18
983.06	1080.86
983.35	1086.94
983.64	1078.28
983.93	1089.29
984.22	1085.31
984.52	1085.31
984.81	1074.54
985.10	1075.01
985.39	1069.62
985.68	1078.75
985.97	1083.90
986.27	1091.16
986.56	1091.63
986.85	1090.22
987.14	1094.20
987.43	1091.16
987.72	1095.60
988.01	1094.90
988.31	1085.07
988.60	1064.71
988.89	1068.22
989.18	1067.99
989.47	1063.77
989.76	1065.18
990.05	1072.90
990.34	1072.90
990.63	1067.75
990.92	1078.52
991.21	1088.82
991.51	1081.33
991.80	1076.18
992.09	1080.16
992.38	1071.97
992.67	1074.07
992.96	1093.03
993.25	1083.67
993.54	1075.71
993.83	1072.43
994.12	1060.26
994.41	1059.79
994.70	1067.99
994.99	1068.69
995.28	1074.07
995.57	1086.71
995.86	1078.52
996.15	1089.05
996.44	1102.16
996.73	1105.44
997.02	1094.67
997.31	1093.73
997.59	1076.18
997.88	1066.82
998.17	1056.75
998.46	1048.09
998.75	1049.50
999.04	1055.82
999.33	1056.52
999.62	1065.88
999.91	1080.86
1000.20	1077.11
1000.49	1080.39
1000.77	1077.35
1001.06	1079.92
1001.35	1078.99
1001.64	1084.37
1001.93	1077.11
1002.22	1082.03
1002.51	1078.52
1002.79	1081.33
1003.08	1075.24
1003.37	1080.86
1003.66	1077.11
1003.95	1079.69
1004.23	1078.05
1004.52	1075.24
1004.81	1072.90
1005.10	1078.75
1005.39	1073.84
1005.67	1067.99
1005.96	1072.90
1006.25	1081.33
1006.54	1077.58
1006.83	1077.35
1007.11	1093.50
1007.40	1098.18
1007.69	1086.48
1007.97	1089.29
1008.26	1100.29
1008.55	1086.01
1008.84	1086.94
1009.12	1085.77
1009.41	1079.22
1009.70	1069.62
1009.98	1074.77
1010.27	1068.22
1010.56	1075.24
1010.85	1079.69
1011.13	1074.31
1011.42	1070.09
1011.71	1078.75
1011.99	1081.80
1012.28	1076.88
1012.56	1077.82
1012.85	1083.67
1013.14	1083.20
1013.42	1077.11
1013.71	1083.67
1014.00	1091.16
1014.28	1095.14
1014.57	1088.35
1014.85	1086.94
1015.14	1087.65
1015.43	1085.54
1015.71	1068.92
1016.00	1068.22
1016.28	1070.80
1016.57	1071.03
1016.85	1066.35
1017.14	1080.39
1017.43	1084.14
1017.71	1076.18
1018.00	1073.14
1018.28	1076.88
1018.57	1072.90
1018.85	1075.48
1019.14	1083.90
1019.42	1080.16
1019.71	1080.63
1019.99	1078.75
1020.28	1073.84
1020.56	1077.11
1020.85	1077.11
1021.13	1067.75
1021.42	1066.58
1021.70	1055.58
1021.99	1049.03
1022.27	1055.35
1022.55	1059.09
1022.84	1088.35
>>>>>End Processed Spectral Data<<<<<
