SpectraSuite Data File
++++++++++++++++++++++++++++++++++++
Date: Mon Aug 26 10:25:54 PDT 2019
User: corrico
Dark Spectrum Present: No
Reference Spectrum Present: No
Number of Sampled Component Spectra: 1
Spectrometers: USB2+H06089
Integration Time (usec): 10000 (USB2+H06089)
Spectra Averaged: 2 (USB2+H06089)
Boxcar Smoothing: 2 (USB2+H06089)
Correct for Electrical Dark: No (USB2+H06089)
Strobe/Lamp Enabled: No (USB2+H06089)
Correct for Detector Non-linearity: No (USB2+H06089)
Correct for Stray Light: No (USB2+H06089)
Number of Pixels in Processed Spectrum: 2048
>>>>>Begin Processed Spectral Data<<<<<
339.70	1033.35
340.07	1033.35
340.45	996.83
340.82	969.45
341.19	945.58
341.57	916.55
341.94	913.75
342.31	902.98
342.69	898.06
343.06	899.94
343.43	899.94
343.81	902.04
344.18	910.94
344.55	915.15
344.93	909.06
345.30	914.68
345.67	909.30
346.04	919.36
346.42	929.89
346.79	946.75
347.16	957.28
347.54	969.68
347.91	977.41
348.28	992.62
348.65	994.49
349.03	1004.79
349.40	1000.81
349.77	1006.20
350.14	1009.00
350.52	1013.92
350.89	1019.77
351.26	1041.30
351.63	1050.90
352.01	1059.79
352.38	1068.92
352.75	1072.90
353.12	1080.63
353.50	1078.28
353.87	1083.43
354.24	1096.07
354.61	1094.90
354.98	1093.50
355.36	1090.46
355.73	1091.86
356.10	1090.69
356.47	1099.35
356.84	1091.39
357.22	1100.05
357.59	1097.48
357.96	1089.29
358.33	1090.92
358.70	1097.01
359.08	1088.12
359.45	1074.77
359.82	1070.56
360.19	1064.24
360.56	1057.22
360.94	1056.99
361.31	1066.82
361.68	1076.88
362.05	1083.67
362.42	1095.84
362.79	1104.73
363.16	1102.63
363.54	1097.01
363.91	1099.82
364.28	1092.09
364.65	1087.41
365.02	1084.37
365.39	1094.43
365.76	1083.90
366.14	1083.43
366.51	1086.01
366.88	1083.90
367.25	1078.99
367.62	1078.75
367.99	1083.43
368.36	1078.99
368.73	1082.50
369.10	1083.43
369.48	1089.29
369.85	1077.82
370.22	1075.94
370.59	1075.48
370.96	1066.58
371.33	1057.69
371.70	1069.16
372.07	1071.97
372.44	1069.16
372.81	1070.80
373.18	1066.35
373.55	1061.90
373.93	1064.48
374.30	1061.43
374.67	1062.37
375.04	1068.92
375.41	1057.22
375.78	1053.71
376.15	1056.99
376.52	1061.90
376.89	1062.14
377.26	1075.71
377.63	1079.22
378.00	1086.48
378.37	1075.48
378.74	1072.67
379.11	1070.09
379.48	1061.20
379.85	1053.48
380.22	1045.99
380.59	1050.67
380.96	1043.64
381.33	1052.77
381.70	1053.24
382.07	1076.88
382.44	1074.54
382.81	1087.18
383.18	1081.09
383.55	1086.94
383.92	1081.09
384.29	1075.94
384.66	1071.50
385.03	1062.84
385.40	1064.48
385.77	1063.07
386.14	1067.05
386.51	1062.60
386.88	1073.84
387.25	1069.16
387.62	1060.73
387.99	1067.05
388.36	1065.41
388.73	1065.18
389.10	1068.92
389.46	1064.94
389.83	1050.67
390.20	1046.45
390.57	1049.03
390.94	1049.03
391.31	1056.75
391.68	1066.11
392.05	1077.58
392.42	1076.41
392.79	1068.92
393.16	1068.45
393.53	1060.96
393.89	1060.03
394.26	1059.79
394.63	1078.28
395.00	1085.54
395.37	1092.80
395.74	1095.37
396.11	1086.01
396.48	1072.90
396.84	1064.71
397.21	1065.18
397.58	1060.96
397.95	1068.45
398.32	1068.22
398.69	1068.92
399.06	1060.50
399.42	1059.56
399.79	1054.88
400.16	1061.20
400.53	1072.43
400.90	1084.84
401.27	1081.09
401.64	1089.29
402.00	1088.35
402.37	1079.22
402.74	1071.03
403.11	1071.50
403.48	1066.35
403.84	1055.58
404.21	1057.69
404.58	1055.58
404.95	1056.28
405.32	1064.24
405.68	1070.56
406.05	1076.18
406.42	1092.33
406.79	1097.71
407.16	1094.67
407.52	1098.41
407.89	1092.33
408.26	1083.20
408.63	1086.24
408.99	1080.39
409.36	1079.22
409.73	1072.20
410.10	1068.22
410.47	1073.60
410.83	1071.03
411.20	1070.33
411.57	1084.60
411.94	1091.86
412.30	1089.05
412.67	1086.71
413.04	1083.20
413.40	1078.05
413.77	1073.84
414.14	1066.35
414.51	1073.84
414.87	1078.05
415.24	1077.82
415.61	1078.28
415.97	1077.58
416.34	1078.99
416.71	1075.94
417.08	1071.50
417.44	1072.43
417.81	1069.86
418.18	1070.80
418.54	1068.69
418.91	1070.80
419.28	1074.07
419.64	1076.18
420.01	1077.82
420.38	1076.18
420.74	1078.28
421.11	1073.37
421.48	1078.28
421.84	1069.62
422.21	1070.09
422.58	1070.80
422.94	1065.41
423.31	1058.86
423.68	1070.80
424.04	1069.62
424.41	1063.31
424.77	1078.52
425.14	1087.65
425.51	1081.80
425.87	1084.60
426.24	1082.97
426.61	1075.71
426.97	1059.33
427.34	1059.09
427.70	1063.77
428.07	1074.07
428.44	1079.92
428.80	1093.97
429.17	1093.50
429.53	1091.39
429.90	1082.26
430.27	1078.05
430.63	1079.46
431.00	1079.46
431.36	1076.65
431.73	1074.07
432.09	1073.14
432.46	1066.58
432.83	1067.99
433.19	1066.58
433.56	1075.94
433.92	1076.88
434.29	1083.67
434.65	1086.24
435.02	1089.52
435.38	1090.69
435.75	1094.43
436.11	1084.84
436.48	1077.58
436.84	1083.90
437.21	1084.14
437.57	1078.75
437.94	1082.50
438.30	1075.48
438.67	1064.48
439.03	1065.41
439.40	1061.90
439.76	1063.54
440.13	1073.60
440.49	1082.26
440.86	1071.73
441.22	1075.01
441.59	1074.77
441.95	1072.43
442.32	1071.26
442.68	1089.75
443.05	1085.77
443.41	1086.01
443.78	1087.65
444.14	1082.03
444.51	1073.60
444.87	1066.82
445.24	1064.71
445.60	1060.73
445.96	1068.22
446.33	1064.94
446.69	1076.41
447.06	1080.16
447.42	1082.26
447.79	1082.03
448.15	1079.92
448.51	1077.35
448.88	1078.99
449.24	1074.77
449.61	1069.62
449.97	1068.69
450.33	1073.37
450.70	1060.96
451.06	1075.01
451.43	1078.05
451.79	1082.03
452.15	1086.71
452.52	1093.03
452.88	1083.90
453.24	1083.67
453.61	1078.05
453.97	1073.14
454.34	1074.31
454.70	1080.16
455.06	1078.05
455.43	1082.26
455.79	1080.16
456.15	1076.88
456.52	1078.05
456.88	1085.07
457.24	1079.69
457.61	1070.09
457.97	1077.58
458.33	1071.50
458.70	1068.22
459.06	1075.01
459.42	1082.03
459.79	1074.07
460.15	1077.35
460.51	1083.20
460.88	1083.67
461.24	1086.48
461.60	1094.20
461.96	1097.71
462.33	1093.03
462.69	1096.78
463.05	1093.97
463.42	1091.39
463.78	1090.22
464.14	1087.41
464.50	1075.71
464.87	1075.71
465.23	1073.84
465.59	1068.69
465.95	1064.94
466.32	1069.16
466.68	1072.67
467.04	1073.37
467.40	1074.31
467.77	1075.94
468.13	1076.65
468.49	1076.88
468.85	1081.80
469.22	1088.12
469.58	1093.50
469.94	1097.24
470.30	1090.22
470.66	1090.22
471.03	1090.46
471.39	1089.29
471.75	1092.80
472.11	1105.67
472.47	1106.14
472.84	1106.37
473.20	1102.63
473.56	1088.82
473.92	1091.86
474.28	1102.63
474.65	1097.95
475.01	1103.80
475.37	1117.37
475.73	1113.86
476.09	1096.54
476.45	1097.48
476.81	1094.90
477.18	1085.31
477.54	1085.54
477.90	1090.69
478.26	1092.33
478.62	1087.88
478.98	1097.95
479.34	1088.35
479.71	1087.65
480.07	1087.41
480.43	1093.50
480.79	1078.05
481.15	1072.43
481.51	1078.05
481.87	1075.48
482.23	1075.71
482.59	1071.73
482.96	1070.80
483.32	1051.37
483.68	1046.22
484.04	1041.30
484.40	1049.50
484.76	1058.39
485.12	1072.20
485.48	1070.33
485.84	1063.77
486.20	1068.45
486.56	1077.11
486.92	1075.48
487.28	1086.94
487.64	1099.12
488.00	1100.75
488.37	1090.69
488.73	1097.71
489.09	1093.26
489.45	1091.63
489.81	1085.54
490.17	1075.24
490.53	1065.41
490.89	1057.92
491.25	1051.13
491.61	1061.67
491.97	1065.88
492.33	1070.33
492.69	1074.31
493.05	1075.24
493.41	1070.33
493.77	1076.41
494.13	1075.48
494.49	1074.07
494.85	1081.80
495.21	1079.92
495.57	1080.63
495.93	1083.67
496.29	1090.69
496.64	1090.22
497.00	1092.09
497.36	1094.67
497.72	1093.97
498.08	1087.18
498.44	1081.56
498.80	1087.65
499.16	1091.39
499.52	1090.69
499.88	1104.03
500.24	1093.03
500.60	1085.31
500.96	1081.56
501.32	1080.16
501.68	1071.73
502.03	1082.26
502.39	1072.67
502.75	1075.01
503.11	1079.22
503.47	1080.63
503.83	1080.39
504.19	1097.24
504.55	1084.14
504.91	1077.11
505.26	1072.90
505.62	1078.52
505.98	1069.62
506.34	1081.80
506.70	1097.01
507.06	1093.97
507.42	1088.35
507.78	1092.80
508.13	1095.37
508.49	1084.37
508.85	1093.50
509.21	1098.65
509.57	1095.84
509.93	1089.75
510.28	1089.29
510.64	1082.50
511.00	1075.24
511.36	1079.92
511.72	1075.94
512.07	1072.20
512.43	1084.37
512.79	1087.41
513.15	1087.88
513.51	1098.65
513.86	1096.78
514.22	1096.54
514.58	1099.12
514.94	1100.99
515.30	1101.92
515.65	1106.61
516.01	1098.41
516.37	1094.90
516.73	1087.65
517.08	1078.52
517.44	1075.94
517.80	1072.90
518.16	1077.58
518.51	1083.90
518.87	1090.69
519.23	1087.18
519.59	1089.05
519.94	1092.09
520.30	1090.46
520.66	1083.67
521.01	1090.69
521.37	1086.01
521.73	1086.24
522.09	1080.39
522.44	1090.46
522.80	1096.31
523.16	1100.52
523.51	1097.95
523.87	1104.26
524.23	1098.18
524.58	1091.63
524.94	1088.82
525.30	1089.52
525.65	1087.65
526.01	1089.05
526.37	1093.73
526.72	1109.18
527.08	1107.07
527.44	1101.22
527.79	1100.99
528.15	1100.05
528.51	1093.26
528.86	1094.20
529.22	1106.14
529.58	1109.41
529.93	1113.86
530.29	1111.29
530.65	1107.31
531.00	1101.46
531.36	1088.35
531.71	1084.60
532.07	1085.77
532.43	1088.35
532.78	1089.75
533.14	1103.80
533.49	1106.61
533.85	1105.44
534.21	1103.56
534.56	1098.41
534.92	1090.22
535.27	1080.39
535.63	1069.16
535.98	1068.45
536.34	1076.65
536.69	1078.28
537.05	1083.67
537.41	1093.97
537.76	1085.31
538.12	1081.09
538.47	1086.71
538.83	1075.71
539.18	1072.20
539.54	1084.60
539.89	1086.48
540.25	1078.75
540.60	1087.65
540.96	1086.01
541.31	1086.24
541.67	1090.22
542.02	1101.69
542.38	1106.14
542.73	1105.67
543.09	1099.58
543.44	1095.84
543.80	1082.50
544.15	1079.46
544.51	1086.01
544.86	1093.73
545.22	1096.07
545.57	1106.37
545.93	1110.82
546.28	1113.63
546.64	1114.09
546.99	1103.09
547.35	1101.22
547.70	1096.31
548.05	1089.52
548.41	1084.14
548.76	1084.60
549.12	1083.90
549.47	1085.54
549.83	1089.29
550.18	1091.39
550.53	1094.20
550.89	1096.07
551.24	1092.09
551.60	1093.50
551.95	1090.69
552.30	1089.75
552.66	1089.05
553.01	1083.90
553.37	1087.18
553.72	1087.65
554.07	1089.52
554.43	1090.46
554.78	1093.73
555.13	1091.16
555.49	1092.80
555.84	1094.90
556.19	1085.77
556.55	1089.05
556.90	1092.33
557.26	1094.67
557.61	1088.82
557.96	1091.39
558.32	1094.43
558.67	1092.33
559.02	1087.88
559.37	1092.09
559.73	1098.18
560.08	1100.29
560.43	1096.07
560.79	1100.75
561.14	1094.90
561.49	1078.75
561.85	1071.73
562.20	1061.90
562.55	1056.75
562.90	1062.37
563.26	1075.01
563.61	1078.28
563.96	1080.16
564.32	1083.20
564.67	1088.35
565.02	1079.22
565.37	1070.33
565.73	1072.67
566.08	1070.33
566.43	1068.69
566.78	1073.60
567.14	1081.09
567.49	1085.54
567.84	1081.80
568.19	1081.33
568.54	1079.92
568.90	1072.90
569.25	1070.80
569.60	1073.60
569.95	1072.20
570.31	1073.14
570.66	1076.18
571.01	1082.26
571.36	1082.26
571.71	1084.84
572.06	1083.20
572.42	1095.37
572.77	1088.58
573.12	1088.82
573.47	1082.03
573.82	1092.09
574.18	1081.80
574.53	1078.05
574.88	1079.22
575.23	1082.73
575.58	1069.16
575.93	1076.41
576.28	1076.65
576.64	1083.43
576.99	1086.94
577.34	1083.43
577.69	1079.69
578.04	1090.22
578.39	1081.33
578.74	1080.39
579.09	1093.50
579.44	1095.14
579.80	1080.63
580.15	1087.65
580.50	1079.46
580.85	1084.84
581.20	1082.03
581.55	1100.75
581.90	1090.69
582.25	1093.26
582.60	1084.84
582.95	1086.48
583.30	1083.20
583.65	1080.86
584.00	1084.14
584.35	1082.03
584.71	1081.33
585.06	1086.24
585.41	1098.88
585.76	1096.31
586.11	1097.24
586.46	1103.09
586.81	1100.99
587.16	1088.82
587.51	1093.03
587.86	1088.82
588.21	1086.94
588.56	1085.31
588.91	1096.78
589.26	1097.95
589.61	1106.14
589.96	1101.69
590.31	1091.16
590.66	1088.82
591.01	1088.12
591.36	1080.39
591.71	1068.22
592.06	1067.75
592.41	1064.71
592.76	1048.79
593.10	1060.73
593.45	1076.18
593.80	1088.35
594.15	1089.52
594.50	1093.50
594.85	1095.14
595.20	1086.94
595.55	1071.97
595.90	1065.41
596.25	1070.09
596.60	1054.41
596.95	1054.18
597.30	1056.28
597.64	1116.67
597.99	1123.46
598.34	1134.22
598.69	1137.50
599.04	1145.22
599.39	1091.86
599.74	1087.41
600.09	1085.07
600.44	1085.31
600.78	1078.99
601.13	1073.37
601.48	1072.43
601.83	1063.31
602.18	1062.14
602.53	1068.92
602.88	1057.69
603.22	1062.84
603.57	1070.33
603.92	1067.28
604.27	1060.50
604.62	1074.07
604.97	1062.14
605.31	1061.20
605.66	1067.05
606.01	1066.35
606.36	1073.84
606.71	1084.14
607.05	1088.35
607.40	1090.46
607.75	1096.07
608.10	1091.86
608.44	1098.88
608.79	1095.37
609.14	1088.58
609.49	1095.14
609.84	1094.20
610.18	1090.92
610.53	1101.22
610.88	1108.71
611.23	1103.33
611.57	1113.16
611.92	1106.37
612.27	1098.88
612.62	1100.29
612.96	1098.65
613.31	1100.52
613.66	1097.24
614.00	1092.80
614.35	1088.35
614.70	1076.65
615.05	1068.22
615.39	1078.05
615.74	1077.11
616.09	1076.18
616.43	1082.26
616.78	1082.50
617.13	1082.03
617.47	1089.52
617.82	1083.43
618.17	1075.48
618.51	1070.09
618.86	1065.18
619.21	1055.35
619.55	1054.65
619.90	1067.28
620.25	1065.88
620.59	1070.80
620.94	1076.65
621.29	1085.54
621.63	1085.77
621.98	1086.48
622.32	1071.97
622.67	1071.73
623.02	1084.14
623.36	1085.31
623.71	1092.56
624.05	1092.09
624.40	1087.88
624.75	1064.94
625.09	1058.62
625.44	1056.99
625.78	1059.79
626.13	1062.37
626.48	1070.80
626.82	1078.05
627.17	1077.82
627.51	1075.71
627.86	1066.35
628.20	1068.92
628.55	1067.28
628.89	1067.05
629.24	1079.69
629.58	1089.05
629.93	1093.26
630.28	1093.50
630.62	1089.52
630.97	1085.54
631.31	1092.80
631.66	1097.01
632.00	1097.01
632.35	1100.52
632.69	1096.07
633.04	1084.60
633.38	1068.45
633.73	1064.24
634.07	1065.41
634.42	1069.86
634.76	1072.67
635.11	1081.09
635.45	1088.82
635.79	1090.69
636.14	1090.22
636.48	1100.29
636.83	1104.03
637.17	1100.29
637.52	1106.84
637.86	1103.80
638.21	1099.58
638.55	1095.84
638.89	1094.20
639.24	1080.86
639.58	1084.60
639.93	1080.39
640.27	1077.35
640.61	1079.92
640.96	1082.73
641.30	1087.41
641.65	1088.82
641.99	1085.31
642.33	1076.18
642.68	1080.63
643.02	1085.54
643.37	1089.75
643.71	1100.29
644.05	1101.46
644.40	1088.58
644.74	1077.11
645.08	1069.16
645.43	1064.71
645.77	1066.58
646.11	1073.60
646.46	1075.94
646.80	1079.46
647.14	1075.71
647.49	1082.03
647.83	1080.39
648.17	1084.14
648.52	1087.41
648.86	1084.84
649.20	1087.65
649.55	1091.86
649.89	1082.97
650.23	1079.22
650.57	1083.67
650.92	1080.63
651.26	1078.75
651.60	1081.56
651.95	1077.11
652.29	1082.03
652.63	1077.35
652.97	1064.24
653.32	1068.92
653.66	1076.41
654.00	1070.33
654.34	1060.26
654.69	1081.33
655.03	1078.75
655.37	1069.62
655.71	1064.71
656.05	1078.52
656.40	1065.41
656.74	1073.60
657.08	1081.33
657.42	1087.41
657.76	1077.58
658.11	1072.20
658.45	1067.05
658.79	1062.60
659.13	1062.84
659.47	1071.73
659.82	1083.20
660.16	1085.07
660.50	1095.37
660.84	1102.39
661.18	1096.78
661.52	1092.56
661.87	1089.99
662.21	1087.41
662.55	1082.97
662.89	1096.31
663.23	1101.22
663.57	1101.22
663.91	1092.56
664.25	1087.41
664.60	1079.69
664.94	1072.67
665.28	1073.37
665.62	1064.24
665.96	1060.50
666.30	1057.45
666.64	1064.94
666.98	1054.41
667.32	1061.20
667.66	1056.75
668.01	1066.35
668.35	1060.50
668.69	1068.69
669.03	1077.11
669.37	1084.84
669.71	1079.46
670.05	1084.84
670.39	1089.29
670.73	1089.29
671.07	1093.73
671.41	1096.07
671.75	1098.41
672.09	1090.92
672.43	1094.20
672.77	1091.86
673.11	1078.52
673.45	1079.69
673.79	1087.41
674.13	1083.20
674.47	1087.88
674.81	1099.58
675.15	1086.94
675.49	1079.22
675.83	1091.39
676.17	1086.24
676.51	1084.14
676.85	1097.01
677.19	1091.63
677.53	1091.39
677.87	1095.37
678.21	1089.52
678.55	1084.37
678.89	1092.33
679.23	1078.99
679.57	1077.11
679.90	1075.71
680.24	1087.88
680.58	1086.01
680.92	1091.16
681.26	1086.48
681.60	1093.97
681.94	1072.20
682.28	1084.60
682.62	1084.14
682.96	1082.73
683.29	1083.43
683.63	1089.75
683.97	1087.18
684.31	1093.26
684.65	1093.50
684.99	1095.84
685.33	1097.24
685.67	1084.84
686.00	1074.31
686.34	1078.75
686.68	1072.20
687.02	1073.84
687.36	1081.33
687.70	1079.92
688.03	1079.46
688.37	1081.56
688.71	1072.20
689.05	1073.37
689.39	1076.88
689.72	1075.01
690.06	1084.84
690.40	1087.65
690.74	1081.80
691.08	1069.16
691.41	1071.03
691.75	1065.18
692.09	1071.97
692.43	1076.88
692.76	1087.18
693.10	1083.20
693.44	1071.73
693.78	1066.35
694.11	1058.86
694.45	1058.16
694.79	1063.77
695.13	1075.48
695.46	1077.35
695.80	1075.48
696.14	1080.39
696.48	1067.52
696.81	1062.37
697.15	1067.52
697.49	1084.14
697.82	1078.28
698.16	1087.88
698.50	1086.94
698.83	1080.39
699.17	1068.45
699.51	1067.52
699.84	1069.39
700.18	1069.62
700.52	1067.28
700.85	1069.16
701.19	1071.50
701.53	1068.92
701.86	1070.56
702.20	1067.28
702.54	1063.77
702.87	1063.77
703.21	1063.31
703.55	1072.20
703.88	1089.05
704.22	1103.09
704.55	1105.67
704.89	1109.65
705.23	1100.05
705.56	1099.12
705.90	1088.35
706.23	1083.90
706.57	1086.48
706.91	1097.01
707.24	1089.05
707.58	1089.52
707.91	1090.69
708.25	1084.14
708.58	1081.33
708.92	1085.31
709.26	1083.67
709.59	1091.63
709.93	1092.09
710.26	1083.67
710.60	1078.75
710.93	1080.63
711.27	1072.43
711.60	1074.07
711.94	1080.16
712.27	1086.71
712.61	1077.58
712.94	1077.58
713.28	1070.80
713.61	1062.14
713.95	1054.41
714.28	1060.03
714.62	1059.09
714.95	1077.35
715.29	1082.26
715.62	1077.11
715.96	1085.31
716.29	1089.29
716.63	1077.82
716.96	1080.39
717.29	1087.18
717.63	1073.60
717.96	1071.97
718.30	1064.94
718.63	1068.69
718.97	1077.35
719.30	1083.67
719.63	1094.90
719.97	1104.73
720.30	1101.22
720.64	1088.12
720.97	1089.29
721.30	1075.94
721.64	1075.24
721.97	1078.05
722.31	1085.77
722.64	1085.54
722.97	1082.50
723.31	1074.77
723.64	1066.35
723.97	1066.82
724.31	1072.67
724.64	1086.24
724.98	1083.90
725.31	1096.31
725.64	1093.50
725.98	1096.07
726.31	1090.22
726.64	1093.73
726.97	1088.82
727.31	1096.78
727.64	1082.73
727.97	1071.97
728.31	1080.16
728.64	1069.86
728.97	1057.69
729.31	1067.28
729.64	1081.80
729.97	1079.92
730.30	1094.20
730.64	1103.33
730.97	1111.05
731.30	1104.50
731.63	1098.65
731.97	1078.52
732.30	1076.41
732.63	1065.88
732.96	1060.50
733.30	1077.35
733.63	1090.92
733.96	1094.67
734.29	1093.97
734.63	1097.95
734.96	1090.22
735.29	1092.80
735.62	1097.95
735.95	1095.14
736.29	1096.07
736.62	1089.75
736.95	1089.75
737.28	1078.52
737.61	1086.24
737.94	1083.67
738.28	1084.14
738.61	1089.29
738.94	1095.60
739.27	1095.14
739.60	1103.33
739.93	1108.95
740.27	1105.44
740.60	1108.48
740.93	1104.97
741.26	1096.54
741.59	1089.99
741.92	1083.43
742.25	1078.99
742.58	1078.75
742.91	1084.37
743.25	1087.88
743.58	1092.09
743.91	1096.31
744.24	1103.33
744.57	1101.92
744.90	1099.82
745.23	1090.69
745.56	1091.86
745.89	1089.29
746.22	1089.52
746.55	1082.26
746.88	1094.67
747.21	1087.88
747.54	1073.84
747.87	1073.37
748.20	1076.88
748.53	1067.75
748.87	1063.31
749.20	1071.73
749.53	1070.56
749.86	1080.63
750.19	1085.07
750.52	1087.88
750.85	1092.56
751.18	1090.92
751.51	1087.65
751.84	1092.33
752.16	1088.58
752.49	1091.86
752.82	1100.75
753.15	1092.09
753.48	1072.67
753.81	1079.22
754.14	1080.63
754.47	1072.43
754.80	1084.84
755.13	1103.09
755.46	1099.35
755.79	1084.60
756.12	1086.24
756.45	1088.82
756.78	1076.65
757.11	1078.28
757.43	1085.31
757.76	1087.41
758.09	1076.88
758.42	1082.97
758.75	1079.92
759.08	1073.14
759.41	1076.88
759.74	1076.65
760.07	1080.39
760.39	1079.92
760.72	1080.63
761.05	1081.56
761.38	1079.92
761.71	1077.82
762.04	1080.39
762.36	1085.07
762.69	1078.05
763.02	1074.54
763.35	1074.07
763.68	1069.62
764.01	1068.92
764.33	1064.24
764.66	1077.35
764.99	1085.54
765.32	1095.60
765.65	1092.33
765.97	1094.43
766.30	1089.75
766.63	1078.75
766.96	1070.80
767.28	1081.09
767.61	1082.50
767.94	1083.67
768.27	1087.88
768.59	1088.58
768.92	1074.54
769.25	1083.43
769.58	1077.58
769.90	1081.33
770.23	1089.29
770.56	1095.60
770.89	1085.31
771.21	1082.73
771.54	1076.41
771.87	1073.14
772.19	1071.03
772.52	1069.62
772.85	1073.84
773.17	1075.94
773.50	1069.39
773.83	1073.60
774.15	1077.58
774.48	1080.63
774.81	1077.11
775.13	1081.80
775.46	1084.60
775.79	1075.94
776.11	1068.45
776.44	1060.03
776.77	1067.75
777.09	1071.03
777.42	1078.28
777.74	1087.88
778.07	1102.63
778.40	1087.18
778.72	1080.63
779.05	1083.67
779.37	1073.84
779.70	1074.31
780.03	1077.82
780.35	1080.63
780.68	1083.20
781.00	1082.26
781.33	1079.92
781.65	1081.33
781.98	1076.18
782.31	1066.58
782.63	1072.20
782.96	1068.22
783.28	1068.92
783.61	1068.22
783.93	1073.14
784.26	1075.24
784.58	1080.63
784.91	1073.37
785.23	1082.26
785.56	1087.65
785.88	1082.26
786.21	1086.94
786.53	1097.01
786.86	1096.54
787.18	1090.92
787.51	1095.14
787.83	1086.48
788.16	1081.56
788.48	1081.33
788.81	1080.86
789.13	1077.82
789.46	1074.54
789.78	1078.05
790.10	1074.54
790.43	1081.33
790.75	1093.97
791.08	1090.22
791.40	1084.60
791.73	1087.18
792.05	1073.14
792.37	1072.20
792.70	1079.46
793.02	1088.82
793.35	1078.05
793.67	1091.39
793.99	1079.46
794.32	1078.75
794.64	1082.50
794.96	1081.80
795.29	1071.97
795.61	1075.94
795.93	1075.94
796.26	1068.69
796.58	1071.73
796.91	1079.92
797.23	1086.01
797.55	1088.35
797.87	1084.84
798.20	1089.52
798.52	1100.99
798.84	1088.82
799.17	1082.50
799.49	1081.80
799.81	1085.31
800.14	1082.03
800.46	1088.35
800.78	1097.48
801.10	1095.60
801.43	1092.56
801.75	1086.94
802.07	1095.14
802.40	1095.84
802.72	1099.35
803.04	1101.46
803.36	1100.75
803.69	1095.37
804.01	1085.31
804.33	1084.37
804.65	1079.69
804.97	1080.63
805.30	1081.09
805.62	1083.90
805.94	1091.63
806.26	1092.09
806.58	1073.84
806.91	1068.22
807.23	1065.41
807.55	1055.35
807.87	1053.01
808.19	1068.92
808.52	1072.43
808.84	1076.65
809.16	1078.99
809.48	1081.80
809.80	1073.14
810.12	1070.80
810.44	1072.43
810.77	1082.26
811.09	1075.24
811.41	1081.80
811.73	1084.60
812.05	1080.63
812.37	1081.80
812.69	1096.07
813.01	1092.56
813.33	1093.97
813.66	1090.46
813.98	1083.43
814.30	1078.28
814.62	1078.52
814.94	1079.69
815.26	1096.78
815.58	1091.16
815.90	1083.67
816.22	1089.99
816.54	1083.43
816.86	1071.50
817.18	1073.60
817.50	1074.77
817.82	1066.11
818.14	1064.01
818.46	1072.20
818.78	1077.11
819.10	1081.80
819.42	1086.94
819.74	1086.01
820.06	1083.20
820.38	1089.99
820.70	1087.41
821.02	1085.77
821.34	1085.07
821.66	1086.24
821.98	1078.05
822.30	1078.52
822.62	1081.80
822.94	1086.48
823.26	1081.09
823.58	1080.16
823.90	1090.22
824.22	1079.92
824.54	1085.54
824.86	1089.52
825.18	1090.22
825.50	1078.28
825.81	1083.20
826.13	1083.43
826.45	1088.58
826.77	1090.92
827.09	1103.56
827.41	1110.58
827.73	1103.33
828.05	1088.58
828.36	1086.24
828.68	1071.50
829.00	1060.26
829.32	1066.35
829.64	1072.90
829.96	1065.18
830.28	1068.22
830.59	1068.69
830.91	1068.92
831.23	1069.39
831.55	1082.26
831.87	1092.80
832.19	1096.54
832.50	1098.65
832.82	1094.67
833.14	1087.41
833.46	1077.35
833.78	1085.31
834.09	1086.71
834.41	1090.92
834.73	1090.69
835.05	1094.43
835.36	1084.37
835.68	1078.05
836.00	1077.82
836.32	1075.48
836.63	1073.84
836.95	1073.84
837.27	1070.33
837.59	1068.92
837.90	1066.58
838.22	1069.86
838.54	1067.52
838.85	1064.24
839.17	1054.18
839.49	1063.07
839.80	1056.52
840.12	1068.92
840.44	1070.09
840.76	1071.26
841.07	1069.39
841.39	1074.07
841.71	1072.90
842.02	1078.99
842.34	1092.80
842.65	1094.90
842.97	1092.56
843.29	1090.46
843.60	1084.84
843.92	1078.99
844.24	1074.31
844.55	1072.43
844.87	1070.56
845.18	1075.71
845.50	1074.77
845.82	1082.97
846.13	1086.24
846.45	1082.03
846.76	1086.71
847.08	1092.56
847.40	1079.92
847.71	1081.80
848.03	1087.41
848.34	1084.14
848.66	1076.65
848.97	1085.77
849.29	1092.80
849.60	1091.86
849.92	1091.86
850.24	1090.46
850.55	1088.82
850.87	1082.73
851.18	1077.82
851.50	1076.65
851.81	1081.09
852.13	1071.03
852.44	1067.99
852.76	1073.84
853.07	1070.33
853.39	1068.92
853.70	1071.26
854.01	1071.03
854.33	1069.39
854.64	1076.41
854.96	1082.03
855.27	1089.75
855.59	1077.82
855.90	1076.88
856.22	1075.94
856.53	1074.31
856.84	1070.09
857.16	1088.35
857.47	1094.43
857.79	1093.97
858.10	1092.09
858.41	1096.54
858.73	1096.31
859.04	1092.33
859.36	1086.01
859.67	1075.94
859.98	1073.37
860.30	1080.39
860.61	1074.54
860.92	1074.31
861.24	1084.84
861.55	1083.43
861.87	1075.94
862.18	1081.56
862.49	1087.88
862.81	1091.86
863.12	1095.60
863.43	1096.54
863.74	1089.52
864.06	1081.33
864.37	1077.35
864.68	1073.60
865.00	1066.82
865.31	1070.56
865.62	1082.50
865.94	1082.03
866.25	1085.07
866.56	1087.88
866.87	1098.65
867.19	1094.90
867.50	1090.69
867.81	1094.20
868.12	1085.54
868.44	1075.71
868.75	1071.97
869.06	1066.58
869.37	1060.73
869.68	1059.09
870.00	1061.20
870.31	1059.33
870.62	1065.41
870.93	1070.09
871.24	1075.24
871.56	1078.99
871.87	1077.35
872.18	1083.43
872.49	1084.37
872.80	1090.69
873.12	1087.41
873.43	1092.80
873.74	1088.82
874.05	1091.63
874.36	1079.46
874.67	1085.07
874.98	1076.65
875.29	1077.35
875.61	1077.82
875.92	1084.37
876.23	1070.56
876.54	1071.97
876.85	1066.82
877.16	1057.92
877.47	1062.14
877.78	1066.35
878.09	1072.67
878.40	1082.97
878.72	1089.29
879.03	1089.29
879.34	1095.60
879.65	1106.84
879.96	1108.24
880.27	1108.95
880.58	1104.26
880.89	1098.18
881.20	1084.14
881.51	1080.16
881.82	1068.22
882.13	1071.50
882.44	1075.01
882.75	1085.07
883.06	1081.09
883.37	1081.33
883.68	1076.65
883.99	1071.03
884.30	1059.09
884.61	1059.56
884.92	1058.86
885.23	1060.26
885.54	1063.31
885.85	1067.28
886.16	1065.65
886.47	1078.28
886.78	1079.69
887.08	1082.26
887.39	1078.52
887.70	1083.90
888.01	1076.88
888.32	1081.33
888.63	1083.43
888.94	1077.58
889.25	1075.24
889.56	1077.82
889.87	1071.26
890.17	1064.71
890.48	1071.73
890.79	1067.05
891.10	1059.09
891.41	1063.31
891.72	1072.90
892.03	1077.35
892.34	1089.75
892.64	1105.67
892.95	1106.61
893.26	1107.07
893.57	1115.03
893.88	1110.12
894.18	1091.39
894.49	1094.43
894.80	1082.97
895.11	1074.77
895.42	1073.14
895.72	1084.14
896.03	1077.82
896.34	1089.99
896.65	1079.46
896.96	1076.18
897.26	1069.62
897.57	1070.33
897.88	1058.86
898.19	1056.99
898.49	1064.01
898.80	1064.24
899.11	1074.77
899.41	1073.37
899.72	1090.92
900.03	1080.63
900.34	1083.67
900.64	1080.86
900.95	1087.18
901.26	1075.24
901.56	1082.50
901.87	1085.54
902.18	1086.71
902.48	1089.29
902.79	1095.14
903.10	1098.41
903.40	1095.84
903.71	1088.35
904.02	1087.41
904.32	1082.97
904.63	1084.14
904.94	1083.43
905.24	1091.16
905.55	1087.88
905.85	1098.41
906.16	1096.54
906.47	1101.22
906.77	1089.05
907.08	1094.67
907.38	1091.63
907.69	1077.11
908.00	1078.99
908.30	1085.77
908.61	1087.65
908.91	1085.54
909.22	1099.35
909.52	1091.39
909.83	1092.80
910.14	1093.03
910.44	1098.18
910.75	1095.37
911.05	1101.69
911.36	1103.56
911.66	1108.01
911.97	1101.69
912.27	1098.65
912.58	1093.97
912.88	1097.95
913.19	1089.29
913.49	1084.37
913.80	1080.63
914.10	1082.50
914.41	1075.48
914.71	1075.24
915.01	1077.82
915.32	1087.88
915.62	1087.18
915.93	1080.16
916.23	1076.18
916.54	1071.03
916.84	1068.22
917.15	1065.88
917.45	1061.20
917.75	1057.45
918.06	1062.37
918.36	1062.60
918.67	1058.39
918.97	1063.54
919.27	1067.28
919.58	1070.56
919.88	1062.60
920.18	1068.22
920.49	1073.60
920.79	1082.50
921.10	1086.01
921.40	1098.65
921.70	1097.24
922.01	1099.58
922.31	1095.60
922.61	1095.14
922.92	1087.65
923.22	1097.24
923.52	1097.01
923.82	1093.26
924.13	1091.86
924.43	1103.33
924.73	1086.24
925.04	1085.07
925.34	1084.60
925.64	1082.97
925.94	1071.50
926.25	1088.35
926.55	1076.41
926.85	1081.33
927.15	1076.41
927.46	1064.71
927.76	1058.62
928.06	1074.07
928.36	1077.82
928.67	1084.14
928.97	1098.41
929.27	1097.01
929.57	1086.01
929.87	1080.86
930.18	1072.67
930.48	1068.69
930.78	1066.35
931.08	1074.77
931.38	1060.73
931.69	1052.07
931.99	1062.60
932.29	1066.35
932.59	1068.22
932.89	1082.03
933.19	1093.97
933.49	1082.03
933.80	1075.01
934.10	1075.71
934.40	1076.41
934.70	1074.77
935.00	1080.86
935.30	1084.37
935.60	1079.22
935.90	1078.05
936.20	1085.31
936.50	1081.56
936.81	1087.18
937.11	1087.65
937.41	1085.07
937.71	1078.05
938.01	1073.84
938.31	1072.67
938.61	1077.58
938.91	1084.84
939.21	1091.16
939.51	1094.90
939.81	1101.92
940.11	1093.97
940.41	1094.67
940.71	1095.84
941.01	1090.69
941.31	1075.71
941.61	1079.46
941.91	1072.90
942.21	1074.07
942.51	1080.39
942.81	1085.31
943.11	1088.58
943.41	1088.12
943.71	1068.92
944.01	1068.69
944.31	1074.07
944.61	1068.45
944.90	1060.96
945.20	1065.65
945.50	1074.31
945.80	1071.73
946.10	1067.75
946.40	1082.03
946.70	1086.24
947.00	1081.56
947.30	1075.24
947.60	1082.26
947.89	1076.65
948.19	1086.94
948.49	1084.37
948.79	1087.18
949.09	1081.33
949.39	1078.05
949.69	1077.11
949.98	1078.52
950.28	1079.46
950.58	1087.41
950.88	1079.92
951.18	1069.86
951.48	1073.37
951.77	1073.37
952.07	1064.94
952.37	1071.26
952.67	1068.22
952.97	1067.75
953.26	1067.28
953.56	1070.09
953.86	1074.77
954.16	1085.07
954.45	1081.80
954.75	1082.73
955.05	1083.20
955.35	1082.97
955.64	1088.12
955.94	1083.20
956.24	1093.50
956.54	1095.14
956.83	1094.43
957.13	1088.12
957.43	1090.92
957.72	1089.52
958.02	1086.24
958.32	1093.03
958.61	1098.65
958.91	1107.07
959.21	1101.46
959.50	1108.24
959.80	1097.24
960.10	1089.05
960.39	1089.05
960.69	1086.94
960.99	1082.26
961.28	1090.22
961.58	1100.52
961.87	1090.92
962.17	1078.99
962.47	1080.39
962.76	1071.26
963.06	1067.28
963.36	1068.92
963.65	1078.52
963.95	1070.56
964.24	1066.35
964.54	1064.24
964.83	1069.86
965.13	1086.01
965.42	1085.54
965.72	1105.20
966.02	1104.73
966.31	1095.14
966.61	1078.52
966.90	1088.82
967.20	1080.63
967.49	1079.69
967.79	1084.60
968.08	1093.97
968.38	1095.60
968.67	1096.78
968.97	1086.01
969.26	1075.24
969.56	1072.43
969.85	1077.82
970.15	1070.09
970.44	1076.88
970.74	1082.97
971.03	1082.97
971.32	1074.54
971.62	1087.41
971.91	1093.03
972.21	1095.84
972.50	1098.88
972.80	1100.99
973.09	1088.12
973.38	1093.50
973.68	1089.29
973.97	1088.35
974.27	1082.03
974.56	1090.46
974.85	1076.41
975.15	1079.69
975.44	1067.99
975.73	1074.31
976.03	1066.35
976.32	1079.22
976.61	1091.86
976.91	1096.54
977.20	1087.65
977.49	1090.22
977.79	1081.33
978.08	1070.80
978.37	1070.33
978.67	1076.65
978.96	1076.88
979.25	1071.50
979.55	1075.48
979.84	1076.65
980.13	1078.52
980.42	1081.09
980.72	1090.46
981.01	1084.37
981.30	1086.48
981.59	1074.31
981.89	1078.52
982.18	1077.11
982.47	1081.33
982.76	1082.97
983.06	1090.92
983.35	1087.41
983.64	1086.94
983.93	1082.03
984.22	1093.03
984.52	1089.75
984.81	1089.05
985.10	1090.22
985.39	1097.95
985.68	1088.58
985.97	1087.65
986.27	1078.28
986.56	1072.90
986.85	1068.45
987.14	1074.54
987.43	1082.26
987.72	1097.24
988.01	1119.24
988.31	1122.52
988.60	1119.24
988.89	1120.88
989.18	1111.29
989.47	1093.97
989.76	1097.01
990.05	1090.46
990.34	1082.03
990.63	1086.01
990.92	1091.39
991.21	1073.37
991.51	1070.33
991.80	1072.67
992.09	1068.22
992.38	1060.03
992.67	1066.11
992.96	1050.67
993.25	1052.77
993.54	1062.14
993.83	1056.28
994.12	1064.94
994.41	1083.67
994.70	1088.12
994.99	1079.69
995.28	1087.41
995.57	1082.73
995.86	1081.80
996.15	1078.05
996.44	1080.86
996.73	1080.63
997.02	1075.01
997.31	1072.90
997.59	1072.20
997.88	1073.60
998.17	1074.54
998.46	1087.65
998.75	1086.94
999.04	1079.92
999.33	1084.84
999.62	1076.18
999.91	1074.31
1000.20	1079.22
1000.49	1092.09
1000.77	1088.35
1001.06	1102.39
1001.35	1100.99
1001.64	1099.58
1001.93	1094.67
1002.22	1096.54
1002.51	1083.43
1002.79	1075.24
1003.08	1077.35
1003.37	1068.92
1003.66	1057.45
1003.95	1062.37
1004.23	1064.94
1004.52	1065.18
1004.81	1073.60
1005.10	1081.56
1005.39	1083.90
1005.67	1096.78
1005.96	1092.09
1006.25	1091.86
1006.54	1083.20
1006.83	1082.73
1007.11	1067.52
1007.40	1069.39
1007.69	1066.58
1007.97	1083.20
1008.26	1084.60
1008.55	1094.20
1008.84	1091.86
1009.12	1091.63
1009.41	1082.26
1009.70	1087.88
1009.98	1078.52
1010.27	1083.43
1010.56	1080.63
1010.85	1079.46
1011.13	1076.65
1011.42	1080.63
1011.71	1078.99
1011.99	1081.56
1012.28	1081.80
1012.56	1078.75
1012.85	1082.03
1013.14	1082.26
1013.42	1082.97
1013.71	1085.54
1014.00	1091.16
1014.28	1088.58
1014.57	1091.39
1014.85	1091.39
1015.14	1086.01
1015.43	1085.31
1015.71	1079.46
1016.00	1082.03
1016.28	1088.58
1016.57	1093.73
1016.85	1089.52
1017.14	1093.97
1017.43	1084.37
1017.71	1092.33
1018.00	1086.48
1018.28	1089.05
1018.57	1097.01
1018.85	1102.39
1019.14	1082.73
1019.42	1085.54
1019.71	1084.84
1019.99	1076.18
1020.28	1077.11
1020.56	1081.09
1020.85	1082.03
1021.13	1082.03
1021.42	1083.67
1021.70	1082.97
1021.99	1079.92
1022.27	1080.16
1022.55	1050.90
1022.84	1081.33
>>>>>End Processed Spectral Data<<<<<
