SpectraSuite Data File
++++++++++++++++++++++++++++++++++++
Date: Mon Aug 26 10:25:50 PDT 2019
User: corrico
Dark Spectrum Present: No
Reference Spectrum Present: No
Number of Sampled Component Spectra: 1
Spectrometers: USB2+H06089
Integration Time (usec): 10000 (USB2+H06089)
Spectra Averaged: 2 (USB2+H06089)
Boxcar Smoothing: 2 (USB2+H06089)
Correct for Electrical Dark: No (USB2+H06089)
Strobe/Lamp Enabled: No (USB2+H06089)
Correct for Detector Non-linearity: No (USB2+H06089)
Correct for Stray Light: No (USB2+H06089)
Number of Pixels in Processed Spectrum: 2048
>>>>>Begin Processed Spectral Data<<<<<
339.70	1080.16
340.07	1080.16
340.45	1045.75
340.82	1018.60
341.19	986.77
341.57	952.83
341.94	933.64
342.31	915.15
342.69	912.11
343.06	911.40
343.43	912.81
343.81	912.57
344.18	914.68
344.55	914.45
344.93	910.47
345.30	907.89
345.67	921.70
346.04	922.41
346.42	926.38
346.79	942.77
347.16	957.51
347.54	961.26
347.91	977.17
348.28	989.58
348.65	996.83
349.03	1003.62
349.40	1006.20
349.77	1017.90
350.14	1022.35
350.52	1028.90
350.89	1036.86
351.26	1050.43
351.63	1048.09
352.01	1052.07
352.38	1057.69
352.75	1055.82
353.12	1062.60
353.50	1077.58
353.87	1078.99
354.24	1077.58
354.61	1080.63
354.98	1077.11
355.36	1073.37
355.73	1067.05
356.10	1069.86
356.47	1080.39
356.84	1078.05
357.22	1075.94
357.59	1086.48
357.96	1078.52
358.33	1073.60
358.70	1062.60
359.08	1051.13
359.45	1049.96
359.82	1060.96
360.19	1058.86
360.56	1066.58
360.94	1068.22
361.31	1061.90
361.68	1060.96
362.05	1060.96
362.42	1060.26
362.79	1065.88
363.16	1069.86
363.54	1066.11
363.91	1068.22
364.28	1077.58
364.65	1082.03
365.02	1083.90
365.39	1077.35
365.76	1069.39
366.14	1052.54
366.51	1050.67
366.88	1035.92
367.25	1040.13
367.62	1045.75
367.99	1074.77
368.36	1069.39
368.73	1080.16
369.10	1078.52
369.48	1066.82
369.85	1045.28
370.22	1044.58
370.59	1043.18
370.96	1046.45
371.33	1049.03
371.70	1051.60
372.07	1053.71
372.44	1055.11
372.81	1056.05
373.18	1061.90
373.55	1063.07
373.93	1065.18
374.30	1067.99
374.67	1064.71
375.04	1064.24
375.41	1066.35
375.78	1067.28
376.15	1063.77
376.52	1061.90
376.89	1066.58
377.26	1060.26
377.63	1058.62
378.00	1059.79
378.37	1067.28
378.74	1053.94
379.11	1050.67
379.48	1046.22
379.85	1048.09
380.22	1045.52
380.59	1057.22
380.96	1067.28
381.33	1070.33
381.70	1075.71
382.07	1076.41
382.44	1072.90
382.81	1066.58
383.18	1062.60
383.55	1057.22
383.92	1048.56
384.29	1058.86
384.66	1060.50
385.03	1065.65
385.40	1069.86
385.77	1075.24
386.14	1074.54
386.51	1077.35
386.88	1083.43
387.25	1071.97
387.62	1073.84
387.99	1060.03
388.36	1056.99
388.73	1044.58
389.10	1054.41
389.46	1056.52
389.83	1058.62
390.20	1054.41
390.57	1061.20
390.94	1050.67
391.31	1049.96
391.68	1047.39
392.05	1040.84
392.42	1039.67
392.79	1046.22
393.16	1038.03
393.53	1040.60
393.89	1054.41
394.26	1048.79
394.63	1056.52
395.00	1072.90
395.37	1084.37
395.74	1092.80
396.11	1108.48
396.48	1112.46
396.84	1102.16
397.21	1100.52
397.58	1090.46
397.95	1079.92
398.32	1056.52
398.69	1051.60
399.06	1038.26
399.42	1039.20
399.79	1035.22
400.16	1047.39
400.53	1046.92
400.90	1057.92
401.27	1046.22
401.64	1050.43
402.00	1053.71
402.37	1060.73
402.74	1056.28
403.11	1068.69
403.48	1075.94
403.84	1064.94
404.21	1067.99
404.58	1071.26
404.95	1072.43
405.32	1077.82
405.68	1081.09
406.05	1080.63
406.42	1076.65
406.79	1069.62
407.16	1061.20
407.52	1071.97
407.89	1069.62
408.26	1072.67
408.63	1083.20
408.99	1085.07
409.36	1077.11
409.73	1076.65
410.10	1076.41
410.47	1070.56
410.83	1061.43
411.20	1071.97
411.57	1077.82
411.94	1072.43
412.30	1071.97
412.67	1076.88
413.04	1077.35
413.40	1079.69
413.77	1090.22
414.14	1089.99
414.51	1086.01
414.87	1072.43
415.24	1070.80
415.61	1076.65
415.97	1079.92
416.34	1092.33
416.71	1105.67
417.08	1103.80
417.44	1092.09
417.81	1089.52
418.18	1071.26
418.54	1071.50
418.91	1060.26
419.28	1063.77
419.64	1058.86
420.01	1067.52
420.38	1064.48
420.74	1065.88
421.11	1064.48
421.48	1073.84
421.84	1074.07
422.21	1069.39
422.58	1078.99
422.94	1077.58
423.31	1071.03
423.68	1072.90
424.04	1078.28
424.41	1077.35
424.77	1072.20
425.14	1080.86
425.51	1077.58
425.87	1070.80
426.24	1063.54
426.61	1070.56
426.97	1064.24
427.34	1068.22
427.70	1072.20
428.07	1076.41
428.44	1076.18
428.80	1087.18
429.17	1088.58
429.53	1092.09
429.90	1092.80
430.27	1093.50
430.63	1087.18
431.00	1086.71
431.36	1087.65
431.73	1082.03
432.09	1079.92
432.46	1070.56
432.83	1068.92
433.19	1058.39
433.56	1064.01
433.92	1068.45
434.29	1070.09
434.65	1073.14
435.02	1069.62
435.38	1071.26
435.75	1076.41
436.11	1089.05
436.48	1092.33
436.84	1099.82
437.21	1092.80
437.57	1089.75
437.94	1081.56
438.30	1070.80
438.67	1073.37
439.03	1071.97
439.40	1068.22
439.76	1068.45
440.13	1078.75
440.49	1067.99
440.86	1076.18
441.22	1075.94
441.59	1071.73
441.95	1068.69
442.32	1084.60
442.68	1077.35
443.05	1075.01
443.41	1082.03
443.78	1087.41
444.14	1080.39
444.51	1077.11
444.87	1079.92
445.24	1093.50
445.60	1082.50
445.96	1073.37
446.33	1084.60
446.69	1088.12
447.06	1064.94
447.42	1063.31
447.79	1070.80
448.15	1064.48
448.51	1055.82
448.88	1061.20
449.24	1059.56
449.61	1056.75
449.97	1055.82
450.33	1057.69
450.70	1052.07
451.06	1059.33
451.43	1065.88
451.79	1075.48
452.15	1080.63
452.52	1087.41
452.88	1085.77
453.24	1083.67
453.61	1079.22
453.97	1073.14
454.34	1068.45
454.70	1066.82
455.06	1066.58
455.43	1067.75
455.79	1070.09
456.15	1071.03
456.52	1075.71
456.88	1076.41
457.24	1075.24
457.61	1073.37
457.97	1076.41
458.33	1077.82
458.70	1081.56
459.06	1082.26
459.42	1083.43
459.79	1093.50
460.15	1093.26
460.51	1091.16
460.88	1091.16
461.24	1094.20
461.60	1082.03
461.96	1078.75
462.33	1079.92
462.69	1076.18
463.05	1075.24
463.42	1080.39
463.78	1081.33
464.14	1080.16
464.50	1079.92
464.87	1073.60
465.23	1064.48
465.59	1071.73
465.95	1071.50
466.32	1074.77
466.68	1075.01
467.04	1085.31
467.40	1078.05
467.77	1082.73
468.13	1080.39
468.49	1081.33
468.85	1079.22
469.22	1077.58
469.58	1074.07
469.94	1083.43
470.30	1082.03
470.66	1086.48
471.03	1079.69
471.39	1082.73
471.75	1083.90
472.11	1088.12
472.47	1082.50
472.84	1097.01
473.20	1096.54
473.56	1096.31
473.92	1099.12
474.28	1103.56
474.65	1098.18
475.01	1093.03
475.37	1088.82
475.73	1087.41
476.09	1082.03
476.45	1088.12
476.81	1092.09
477.18	1086.48
477.54	1080.86
477.90	1076.65
478.26	1067.75
478.62	1056.99
478.98	1051.84
479.34	1049.50
479.71	1057.22
480.07	1056.99
480.43	1053.94
480.79	1060.26
481.15	1065.88
481.51	1062.84
481.87	1063.07
482.23	1082.73
482.59	1089.52
482.96	1097.24
483.32	1100.52
483.68	1103.33
484.04	1096.78
484.40	1100.75
484.76	1098.18
485.12	1097.71
485.48	1100.99
485.84	1093.03
486.20	1075.94
486.56	1070.56
486.92	1065.65
487.28	1061.43
487.64	1063.31
488.00	1078.99
488.37	1076.88
488.73	1083.67
489.09	1076.65
489.45	1076.65
489.81	1078.28
490.17	1083.90
490.53	1076.18
490.89	1089.75
491.25	1100.75
491.61	1088.35
491.97	1091.16
492.33	1092.56
492.69	1080.16
493.05	1070.80
493.41	1078.28
493.77	1078.28
494.13	1081.33
494.49	1082.73
494.85	1080.86
495.21	1083.67
495.57	1078.05
495.93	1070.33
496.29	1077.58
496.64	1078.75
497.00	1063.07
497.36	1070.56
497.72	1071.26
498.08	1060.26
498.44	1068.69
498.80	1076.18
499.16	1075.01
499.52	1076.18
499.88	1083.67
500.24	1085.77
500.60	1077.58
500.96	1073.37
501.32	1077.11
501.68	1069.39
502.03	1074.54
502.39	1085.31
502.75	1086.24
503.11	1083.90
503.47	1090.46
503.83	1087.41
504.19	1096.54
504.55	1095.84
504.91	1100.75
505.26	1105.90
505.62	1102.63
505.98	1093.73
506.34	1095.37
506.70	1100.05
507.06	1100.05
507.42	1103.33
507.78	1105.20
508.13	1101.22
508.49	1098.65
508.85	1099.58
509.21	1086.71
509.57	1081.56
509.93	1086.24
510.28	1086.48
510.64	1080.39
511.00	1083.20
511.36	1089.05
511.72	1079.22
512.07	1083.67
512.43	1084.37
512.79	1087.88
513.15	1079.22
513.51	1088.12
513.86	1089.99
514.22	1091.16
514.58	1086.94
514.94	1097.48
515.30	1104.03
515.65	1097.95
516.01	1097.95
516.37	1104.03
516.73	1099.12
517.08	1087.41
517.44	1086.48
517.80	1087.18
518.16	1080.39
518.51	1088.82
518.87	1100.29
519.23	1093.26
519.59	1084.84
519.94	1084.60
520.30	1078.99
520.66	1076.65
521.01	1082.97
521.37	1093.50
521.73	1091.63
522.09	1086.71
522.44	1090.92
522.80	1089.75
523.16	1092.80
523.51	1093.03
523.87	1100.52
524.23	1092.80
524.58	1100.75
524.94	1093.73
525.30	1094.67
525.65	1081.80
526.01	1085.54
526.37	1084.60
526.72	1093.03
527.08	1098.65
527.44	1108.71
527.79	1103.80
528.15	1103.33
528.51	1099.35
528.86	1098.65
529.22	1093.50
529.58	1097.48
529.93	1096.54
530.29	1104.26
530.65	1105.44
531.00	1108.24
531.36	1100.29
531.71	1092.56
532.07	1084.37
532.43	1092.33
532.78	1086.94
533.14	1091.86
533.49	1086.71
533.85	1083.90
534.21	1073.60
534.56	1075.48
534.92	1082.97
535.27	1089.29
535.63	1089.05
535.98	1089.75
536.34	1093.26
536.69	1089.52
537.05	1095.84
537.41	1107.07
537.76	1114.33
538.12	1110.58
538.47	1101.92
538.83	1097.01
539.18	1091.39
539.54	1079.22
539.89	1080.63
540.25	1086.01
540.60	1086.24
540.96	1083.20
541.31	1090.92
541.67	1097.24
542.02	1092.33
542.38	1087.65
542.73	1085.31
543.09	1074.77
543.44	1071.73
543.80	1074.77
544.15	1083.43
544.51	1091.16
544.86	1092.33
545.22	1090.46
545.57	1096.54
545.93	1097.95
546.28	1086.94
546.64	1092.33
546.99	1101.22
547.35	1090.92
547.70	1077.58
548.05	1086.24
548.41	1090.46
548.76	1085.54
549.12	1093.73
549.47	1103.09
549.83	1106.84
550.18	1095.14
550.53	1098.18
550.89	1098.65
551.24	1100.75
551.60	1091.39
551.95	1102.39
552.30	1099.35
552.66	1089.99
553.01	1076.65
553.37	1077.82
553.72	1075.24
554.07	1067.75
554.43	1071.03
554.78	1080.86
555.13	1081.80
555.49	1078.05
555.84	1084.14
556.19	1085.07
556.55	1085.77
556.90	1089.52
557.26	1098.18
557.61	1089.99
557.96	1087.65
558.32	1084.14
558.67	1077.82
559.02	1075.01
559.37	1080.86
559.73	1075.94
560.08	1079.92
560.43	1073.37
560.79	1067.75
561.14	1060.26
561.49	1068.45
561.85	1066.35
562.20	1073.84
562.55	1073.37
562.90	1079.46
563.26	1077.82
563.61	1075.94
563.96	1076.41
564.32	1070.80
564.67	1076.88
565.02	1084.14
565.37	1093.73
565.73	1087.65
566.08	1099.58
566.43	1095.37
566.78	1093.50
567.14	1079.46
567.49	1082.03
567.84	1079.69
568.19	1078.75
568.54	1084.84
568.90	1093.26
569.25	1089.99
569.60	1087.41
569.95	1096.31
570.31	1085.07
570.66	1091.39
571.01	1098.65
571.36	1100.52
571.71	1091.86
572.06	1084.37
572.42	1069.86
572.77	1070.09
573.12	1061.90
573.47	1061.43
573.82	1067.28
574.18	1073.60
574.53	1081.33
574.88	1096.54
575.23	1095.14
575.58	1092.56
575.93	1089.29
576.28	1087.65
576.64	1075.94
576.99	1084.84
577.34	1086.94
577.69	1093.50
578.04	1087.88
578.39	1099.82
578.74	1083.67
579.09	1086.24
579.44	1082.97
579.80	1075.24
580.15	1076.18
580.50	1086.24
580.85	1090.69
581.20	1097.71
581.55	1105.67
581.90	1099.82
582.25	1101.69
582.60	1092.56
582.95	1090.22
583.30	1076.88
583.65	1083.20
584.00	1078.52
584.35	1077.82
584.71	1071.97
585.06	1086.24
585.41	1079.22
585.76	1079.92
586.11	1093.73
586.46	1091.63
586.81	1099.58
587.16	1098.88
587.51	1097.95
587.86	1093.26
588.21	1094.43
588.56	1085.54
588.91	1077.82
589.26	1068.45
589.61	1065.88
589.96	1064.01
590.31	1067.99
590.66	1079.22
591.01	1091.63
591.36	1089.52
591.71	1101.22
592.06	1105.90
592.41	1102.39
592.76	1102.16
593.10	1096.78
593.45	1083.20
593.80	1082.50
594.15	1086.01
594.50	1092.09
594.85	1103.33
595.20	1106.84
595.55	1092.56
595.90	1089.99
596.25	1084.84
596.60	1081.80
596.95	1079.22
597.30	1083.90
597.64	1131.88
597.99	1129.78
598.34	1134.69
598.69	1136.56
599.04	1130.24
599.39	1083.20
599.74	1083.67
600.09	1068.22
600.44	1078.52
600.78	1092.80
601.13	1092.33
601.48	1083.67
601.83	1101.22
602.18	1090.92
602.53	1089.52
602.88	1074.07
603.22	1076.88
603.57	1069.39
603.92	1073.14
604.27	1069.86
604.62	1078.28
604.97	1081.56
605.31	1085.77
605.66	1090.46
606.01	1098.41
606.36	1108.24
606.71	1110.82
607.05	1105.20
607.40	1098.88
607.75	1082.97
608.10	1079.46
608.44	1077.35
608.79	1075.48
609.14	1071.03
609.49	1080.63
609.84	1082.97
610.18	1084.84
610.53	1091.16
610.88	1100.29
611.23	1104.03
611.57	1101.22
611.92	1111.99
612.27	1115.27
612.62	1107.54
612.96	1094.43
613.31	1092.56
613.66	1075.71
614.00	1069.16
614.35	1070.80
614.70	1075.71
615.05	1078.75
615.39	1094.20
615.74	1089.75
616.09	1098.18
616.43	1109.65
616.78	1107.54
617.13	1096.54
617.47	1092.56
617.82	1078.75
618.17	1071.73
618.51	1070.09
618.86	1072.90
619.21	1084.37
619.55	1086.48
619.90	1081.33
620.25	1083.67
620.59	1065.88
620.94	1064.01
621.29	1071.50
621.63	1075.48
621.98	1075.94
622.32	1090.46
622.67	1093.97
623.02	1084.14
623.36	1083.20
623.71	1083.20
624.05	1077.82
624.40	1070.56
624.75	1073.60
625.09	1068.45
625.44	1069.62
625.78	1072.90
626.13	1075.48
626.48	1075.94
626.82	1083.67
627.17	1078.28
627.51	1088.35
627.86	1090.69
628.20	1091.63
628.55	1089.99
628.89	1095.14
629.24	1077.82
629.58	1075.94
629.93	1075.48
630.28	1069.62
630.62	1065.18
630.97	1085.07
631.31	1082.26
631.66	1081.80
632.00	1089.05
632.35	1087.41
632.69	1083.90
633.04	1084.37
633.38	1084.60
633.73	1081.80
634.07	1078.52
634.42	1082.50
634.76	1083.90
635.11	1088.35
635.45	1093.03
635.79	1098.41
636.14	1089.52
636.48	1093.50
636.83	1100.05
637.17	1093.03
637.52	1098.18
637.86	1099.58
638.21	1104.03
638.55	1095.84
638.89	1100.75
639.24	1104.50
639.58	1107.78
639.93	1097.71
640.27	1094.67
640.61	1092.33
640.96	1081.56
641.30	1074.77
641.65	1079.69
641.99	1080.63
642.33	1075.71
642.68	1081.33
643.02	1088.58
643.37	1081.09
643.71	1089.75
644.05	1096.31
644.40	1093.73
644.74	1081.56
645.08	1083.67
645.43	1078.52
645.77	1082.50
646.11	1082.03
646.46	1096.07
646.80	1101.69
647.14	1100.99
647.49	1097.71
647.83	1098.65
648.17	1082.50
648.52	1083.20
648.86	1087.88
649.20	1081.56
649.55	1081.33
649.89	1090.92
650.23	1092.09
650.57	1091.63
650.92	1093.73
651.26	1091.63
651.60	1079.69
651.95	1069.86
652.29	1069.39
652.63	1065.18
652.97	1063.77
653.32	1069.62
653.66	1071.03
654.00	1067.28
654.34	1066.82
654.69	1068.22
655.03	1073.37
655.37	1063.77
655.71	1071.73
656.05	1076.65
656.40	1071.73
656.74	1071.73
657.08	1078.99
657.42	1067.75
657.76	1078.05
658.11	1082.26
658.45	1081.80
658.79	1084.60
659.13	1083.20
659.47	1070.09
659.82	1067.05
660.16	1063.31
660.50	1059.33
660.84	1064.24
661.18	1061.20
661.52	1065.65
661.87	1067.99
662.21	1074.31
662.55	1075.48
662.89	1080.63
663.23	1078.05
663.57	1083.43
663.91	1088.58
664.25	1087.18
664.60	1087.65
664.94	1085.54
665.28	1082.97
665.62	1076.88
665.96	1074.31
666.30	1072.20
666.64	1076.41
666.98	1064.24
667.32	1069.16
667.66	1063.77
668.01	1064.48
668.35	1065.88
668.69	1075.48
669.03	1074.31
669.37	1086.01
669.71	1091.16
670.05	1092.09
670.39	1089.75
670.73	1079.46
671.07	1080.16
671.41	1071.73
671.75	1065.88
672.09	1069.39
672.43	1070.56
672.77	1058.62
673.11	1055.35
673.45	1055.58
673.79	1054.65
674.13	1065.18
674.47	1075.24
674.81	1089.05
675.15	1095.37
675.49	1097.24
675.83	1093.50
676.17	1093.50
676.51	1093.50
676.85	1090.46
677.19	1092.33
677.53	1094.90
677.87	1091.86
678.21	1082.73
678.55	1088.82
678.89	1091.16
679.23	1088.35
679.57	1089.75
679.90	1086.48
680.24	1080.39
680.58	1075.24
680.92	1080.16
681.26	1077.35
681.60	1095.14
681.94	1097.01
682.28	1094.20
682.62	1087.41
682.96	1095.84
683.29	1101.46
683.63	1100.52
683.97	1104.26
684.31	1113.63
684.65	1104.03
684.99	1088.12
685.33	1083.20
685.67	1077.82
686.00	1063.31
686.34	1065.88
686.68	1068.22
687.02	1077.58
687.36	1082.26
687.70	1086.71
688.03	1080.86
688.37	1069.62
688.71	1059.33
689.05	1060.96
689.39	1055.58
689.72	1063.77
690.06	1076.65
690.40	1086.94
690.74	1079.22
691.08	1089.75
691.41	1094.20
691.75	1084.60
692.09	1087.41
692.43	1098.88
692.76	1101.46
693.10	1102.63
693.44	1107.31
693.78	1096.54
694.11	1082.03
694.45	1082.26
694.79	1071.50
695.13	1066.11
695.46	1076.18
695.80	1089.99
696.14	1074.31
696.48	1079.22
696.81	1079.22
697.15	1078.52
697.49	1071.50
697.82	1090.46
698.16	1083.67
698.50	1088.12
698.83	1078.75
699.17	1081.33
699.51	1072.67
699.84	1071.73
700.18	1081.56
700.52	1073.84
700.85	1073.60
701.19	1082.03
701.53	1082.97
701.86	1080.39
702.20	1100.29
702.54	1097.24
702.87	1088.35
703.21	1092.33
703.55	1085.07
703.88	1081.80
704.22	1088.58
704.55	1093.26
704.89	1092.09
705.23	1094.20
705.56	1082.73
705.90	1078.05
706.23	1063.77
706.57	1070.09
706.91	1067.28
707.24	1079.46
707.58	1080.63
707.91	1098.88
708.25	1093.26
708.58	1095.37
708.92	1084.60
709.26	1082.73
709.59	1072.67
709.93	1073.84
710.26	1067.28
710.60	1070.09
710.93	1060.73
711.27	1066.35
711.60	1069.62
711.94	1080.16
712.27	1091.86
712.61	1106.84
712.94	1106.37
713.28	1104.97
713.61	1098.88
713.95	1082.73
714.28	1074.54
714.62	1069.16
714.95	1066.11
715.29	1064.24
715.62	1072.67
715.96	1074.07
716.29	1078.05
716.63	1082.73
716.96	1088.35
717.29	1085.07
717.63	1090.69
717.96	1080.63
718.30	1074.77
718.63	1075.24
718.97	1072.20
719.30	1071.50
719.63	1085.31
719.97	1090.69
720.30	1089.05
720.64	1092.80
720.97	1089.52
721.30	1091.63
721.64	1082.73
721.97	1084.60
722.31	1090.46
722.64	1083.20
722.97	1077.58
723.31	1088.58
723.64	1089.05
723.97	1081.09
724.31	1091.86
724.64	1101.92
724.98	1094.43
725.31	1092.56
725.64	1099.58
725.98	1097.48
726.31	1069.16
726.64	1070.56
726.97	1081.56
727.31	1075.24
727.64	1068.45
727.97	1085.54
728.31	1083.90
728.64	1069.16
728.97	1073.60
729.31	1077.11
729.64	1078.75
729.97	1083.20
730.30	1090.22
730.64	1083.43
730.97	1088.58
731.30	1079.69
731.63	1090.46
731.97	1082.03
732.30	1092.33
732.63	1083.43
732.96	1083.90
733.30	1080.39
733.63	1082.26
733.96	1079.22
734.29	1087.88
734.63	1097.95
734.96	1095.14
735.29	1096.78
735.62	1097.71
735.95	1093.03
736.29	1091.63
736.62	1091.63
736.95	1086.24
737.28	1092.80
737.61	1108.24
737.94	1101.46
738.28	1095.84
738.61	1109.65
738.94	1108.71
739.27	1086.01
739.60	1084.37
739.93	1076.65
740.27	1064.01
740.60	1046.92
740.93	1061.20
741.26	1072.90
741.59	1079.92
741.92	1076.88
742.25	1083.43
742.58	1079.22
742.91	1062.37
743.25	1062.60
743.58	1067.05
743.91	1073.60
744.24	1077.35
744.57	1082.26
744.90	1078.05
745.23	1085.77
745.56	1072.67
745.89	1071.97
746.22	1079.69
746.55	1088.35
746.88	1091.86
747.21	1102.63
747.54	1105.20
747.87	1102.86
748.20	1092.56
748.53	1093.03
748.87	1093.03
749.20	1090.69
749.53	1103.09
749.86	1103.80
750.19	1090.22
750.52	1094.43
750.85	1090.92
751.18	1077.82
751.51	1087.41
751.84	1090.92
752.16	1086.71
752.49	1085.07
752.82	1083.20
753.15	1080.63
753.48	1076.41
753.81	1073.37
754.14	1077.35
754.47	1081.33
754.80	1076.65
755.13	1085.31
755.46	1093.26
755.79	1080.63
756.12	1079.22
756.45	1089.29
756.78	1097.24
757.11	1088.58
757.43	1099.82
757.76	1103.09
758.09	1091.39
758.42	1075.24
758.75	1077.82
759.08	1086.01
759.41	1084.14
759.74	1088.82
760.07	1095.37
760.39	1096.54
760.72	1080.86
761.05	1077.11
761.38	1087.41
761.71	1089.29
762.04	1087.41
762.36	1096.54
762.69	1100.52
763.02	1086.94
763.35	1090.46
763.68	1097.48
764.01	1093.50
764.33	1087.41
764.66	1080.16
764.99	1068.92
765.32	1051.84
765.65	1058.16
765.97	1068.92
766.30	1085.77
766.63	1085.54
766.96	1097.71
767.28	1094.67
767.61	1088.58
767.94	1084.84
768.27	1084.84
768.59	1080.16
768.92	1073.84
769.25	1064.01
769.58	1057.69
769.90	1058.39
770.23	1047.62
770.56	1049.73
770.89	1061.20
771.21	1067.28
771.54	1056.99
771.87	1073.84
772.19	1075.94
772.52	1075.71
772.85	1071.26
773.17	1083.20
773.50	1080.63
773.83	1086.01
774.15	1080.39
774.48	1082.03
774.81	1079.69
775.13	1074.54
775.46	1070.56
775.79	1075.94
776.11	1075.01
776.44	1084.37
776.77	1086.48
777.09	1084.37
777.42	1084.60
777.74	1084.37
778.07	1086.01
778.40	1091.63
778.72	1095.60
779.05	1094.43
779.37	1095.14
779.70	1078.52
780.03	1080.86
780.35	1081.56
780.68	1086.94
781.00	1089.29
781.33	1099.58
781.65	1102.39
781.98	1109.65
782.31	1105.90
782.63	1105.90
782.96	1110.58
783.28	1099.12
783.61	1084.84
783.93	1089.52
784.26	1092.33
784.58	1078.75
784.91	1076.18
785.23	1083.67
785.56	1077.82
785.88	1071.97
786.21	1088.58
786.53	1092.80
786.86	1091.39
787.18	1086.01
787.51	1088.58
787.83	1087.88
788.16	1093.50
788.48	1096.07
788.81	1101.69
789.13	1104.50
789.46	1096.31
789.78	1092.80
790.10	1078.05
790.43	1072.67
790.75	1072.67
791.08	1070.09
791.40	1064.94
791.73	1086.71
792.05	1081.09
792.37	1082.50
792.70	1086.71
793.02	1092.33
793.35	1082.03
793.67	1093.50
793.99	1085.54
794.32	1087.88
794.64	1093.73
794.96	1094.43
795.29	1093.97
795.61	1094.67
795.93	1088.58
796.26	1081.56
796.58	1068.92
796.91	1070.80
797.23	1077.11
797.55	1079.46
797.87	1069.86
798.20	1076.65
798.52	1075.01
798.84	1070.09
799.17	1077.35
799.49	1085.54
799.81	1082.73
800.14	1073.60
800.46	1081.09
800.78	1071.73
801.10	1074.77
801.43	1075.24
801.75	1088.12
802.07	1083.43
802.40	1084.37
802.72	1079.46
803.04	1083.43
803.36	1079.22
803.69	1076.18
804.01	1079.22
804.33	1083.90
804.65	1075.24
804.97	1073.84
805.30	1081.56
805.62	1076.18
805.94	1067.75
806.26	1073.84
806.58	1079.92
806.91	1076.18
807.23	1093.03
807.55	1091.86
807.87	1095.37
808.19	1093.73
808.52	1089.52
808.84	1080.16
809.16	1090.22
809.48	1092.33
809.80	1095.37
810.12	1097.24
810.44	1102.63
810.77	1103.80
811.09	1095.37
811.41	1081.56
811.73	1083.67
812.05	1077.58
812.37	1072.90
812.69	1080.63
813.01	1077.35
813.33	1077.82
813.66	1073.37
813.98	1070.09
814.30	1064.48
814.62	1068.92
814.94	1071.97
815.26	1078.28
815.58	1084.14
815.90	1089.75
816.22	1099.58
816.54	1095.84
816.86	1087.65
817.18	1085.31
817.50	1085.07
817.82	1088.35
818.14	1087.88
818.46	1086.48
818.78	1092.09
819.10	1087.18
819.42	1076.18
819.74	1080.63
820.06	1085.31
820.38	1075.48
820.70	1082.73
821.02	1095.14
821.34	1091.86
821.66	1096.78
821.98	1101.22
822.30	1102.39
822.62	1093.03
822.94	1090.69
823.26	1083.43
823.58	1084.37
823.90	1091.63
824.22	1094.20
824.54	1096.54
824.86	1093.97
825.18	1099.82
825.50	1081.09
825.81	1086.01
826.13	1070.80
826.45	1071.73
826.77	1066.11
827.09	1069.39
827.41	1059.33
827.73	1074.31
828.05	1079.92
828.36	1075.48
828.68	1075.71
829.00	1070.33
829.32	1066.35
829.64	1065.88
829.96	1065.41
830.28	1071.50
830.59	1091.39
830.91	1084.84
831.23	1086.94
831.55	1095.60
831.87	1086.94
832.19	1073.14
832.50	1081.33
832.82	1068.22
833.14	1070.80
833.46	1075.48
833.78	1083.90
834.09	1087.65
834.41	1088.82
834.73	1085.31
835.05	1097.24
835.36	1094.43
835.68	1096.31
836.00	1103.80
836.32	1103.80
836.63	1088.12
836.95	1077.58
837.27	1064.24
837.59	1067.99
837.90	1055.11
838.22	1060.96
838.54	1061.90
838.85	1072.90
839.17	1069.62
839.49	1075.71
839.80	1077.82
840.12	1078.28
840.44	1079.46
840.76	1079.22
841.07	1079.69
841.39	1074.07
841.71	1082.26
842.02	1077.35
842.34	1080.39
842.65	1078.52
842.97	1090.46
843.29	1092.56
843.60	1095.37
843.92	1102.63
844.24	1105.44
844.55	1089.29
844.87	1086.24
845.18	1084.37
845.50	1081.56
845.82	1078.75
846.13	1090.22
846.45	1079.22
846.76	1076.18
847.08	1069.86
847.40	1072.67
847.71	1066.35
848.03	1077.82
848.34	1087.41
848.66	1089.99
848.97	1093.26
849.29	1082.97
849.60	1078.99
849.92	1063.54
850.24	1066.11
850.55	1063.54
850.87	1075.94
851.18	1081.09
851.50	1089.29
851.81	1087.18
852.13	1087.18
852.44	1084.60
852.76	1087.88
853.07	1084.84
853.39	1072.67
853.70	1075.94
854.01	1083.20
854.33	1079.46
854.64	1076.18
854.96	1081.09
855.27	1079.69
855.59	1075.71
855.90	1077.11
856.22	1082.50
856.53	1087.65
856.84	1079.69
857.16	1075.24
857.47	1077.82
857.79	1079.69
858.10	1074.07
858.41	1085.07
858.73	1085.31
859.04	1071.97
859.36	1071.73
859.67	1068.45
859.98	1060.50
860.30	1061.90
860.61	1071.26
860.92	1074.07
861.24	1080.16
861.55	1083.20
861.87	1085.31
862.18	1089.05
862.49	1091.16
862.81	1102.39
863.12	1096.78
863.43	1102.39
863.74	1091.63
864.06	1076.18
864.37	1063.31
864.68	1067.05
865.00	1062.14
865.31	1070.33
865.62	1083.20
865.94	1088.58
866.25	1091.63
866.56	1093.50
866.87	1090.69
867.19	1083.67
867.50	1088.12
867.81	1093.73
868.12	1095.60
868.44	1076.65
868.75	1078.28
869.06	1074.31
869.37	1073.84
869.68	1075.01
870.00	1090.22
870.31	1086.48
870.62	1093.26
870.93	1083.90
871.24	1077.35
871.56	1081.33
871.87	1085.07
872.18	1080.63
872.49	1075.71
872.80	1071.50
873.12	1071.26
873.43	1068.22
873.74	1072.20
874.05	1081.09
874.36	1091.39
874.67	1087.18
874.98	1092.56
875.29	1088.58
875.61	1093.50
875.92	1081.09
876.23	1082.73
876.54	1082.26
876.85	1069.62
877.16	1062.84
877.47	1055.82
877.78	1053.48
878.09	1059.09
878.40	1066.82
878.72	1067.05
879.03	1080.63
879.34	1093.50
879.65	1085.77
879.96	1090.69
880.27	1091.16
880.58	1086.94
880.89	1084.37
881.20	1086.24
881.51	1082.26
881.82	1085.31
882.13	1078.05
882.44	1077.11
882.75	1071.97
883.06	1075.24
883.37	1067.28
883.68	1077.35
883.99	1071.73
884.30	1075.94
884.61	1080.39
884.92	1088.58
885.23	1098.88
885.54	1098.41
885.85	1096.54
886.16	1093.97
886.47	1098.65
886.78	1093.73
887.08	1101.69
887.39	1102.86
887.70	1103.09
888.01	1107.07
888.32	1097.71
888.63	1093.97
888.94	1089.99
889.25	1083.67
889.56	1078.99
889.87	1082.50
890.17	1078.05
890.48	1087.41
890.79	1091.39
891.10	1089.99
891.41	1095.14
891.72	1097.48
892.03	1097.48
892.34	1095.84
892.64	1089.29
892.95	1088.35
893.26	1090.92
893.57	1094.90
893.88	1087.88
894.18	1093.50
894.49	1088.35
894.80	1088.58
895.11	1076.41
895.42	1088.82
895.72	1091.63
896.03	1088.58
896.34	1083.90
896.65	1094.20
896.96	1094.20
897.26	1092.09
897.57	1100.99
897.88	1090.69
898.19	1083.20
898.49	1080.16
898.80	1076.65
899.11	1075.48
899.41	1089.99
899.72	1086.01
900.03	1085.07
900.34	1086.01
900.64	1084.37
900.95	1079.69
901.26	1086.71
901.56	1078.99
901.87	1086.01
902.18	1074.54
902.48	1071.97
902.79	1060.26
903.10	1069.62
903.40	1054.88
903.71	1065.88
904.02	1071.03
904.32	1081.33
904.63	1076.65
904.94	1079.22
905.24	1084.37
905.55	1077.82
905.85	1073.60
906.16	1080.16
906.47	1076.18
906.77	1071.03
907.08	1080.86
907.38	1079.69
907.69	1074.31
908.00	1080.63
908.30	1087.88
908.61	1083.20
908.91	1079.46
909.22	1074.07
909.52	1071.50
909.83	1059.33
910.14	1055.58
910.44	1066.11
910.75	1061.67
911.05	1066.82
911.36	1077.35
911.66	1081.09
911.97	1083.67
912.27	1096.07
912.58	1097.95
912.88	1090.69
913.19	1095.84
913.49	1093.26
913.80	1086.48
914.10	1078.99
914.41	1077.35
914.71	1068.92
915.01	1067.28
915.32	1068.22
915.62	1072.90
915.93	1077.82
916.23	1091.16
916.54	1099.35
916.84	1095.14
917.15	1093.26
917.45	1102.39
917.75	1086.94
918.06	1091.16
918.36	1104.97
918.67	1099.35
918.97	1093.97
919.27	1099.35
919.58	1086.01
919.88	1074.31
920.18	1077.82
920.49	1067.52
920.79	1065.41
921.10	1072.90
921.40	1082.03
921.70	1082.03
922.01	1088.35
922.31	1095.84
922.61	1091.86
922.92	1083.90
923.22	1090.46
923.52	1085.54
923.82	1078.05
924.13	1075.71
924.43	1064.71
924.73	1053.94
925.04	1058.16
925.34	1056.75
925.64	1061.20
925.94	1070.80
926.25	1077.11
926.55	1074.07
926.85	1081.09
927.15	1076.88
927.46	1072.90
927.76	1061.43
928.06	1061.90
928.36	1063.77
928.67	1071.03
928.97	1081.80
929.27	1095.84
929.57	1099.35
929.87	1083.90
930.18	1074.77
930.48	1067.05
930.78	1066.58
931.08	1059.56
931.38	1071.73
931.69	1082.73
931.99	1080.39
932.29	1079.46
932.59	1083.20
932.89	1078.52
933.19	1066.82
933.49	1071.03
933.80	1070.33
934.10	1073.14
934.40	1080.86
934.70	1092.33
935.00	1084.84
935.30	1086.94
935.60	1082.03
935.90	1081.56
936.20	1079.46
936.50	1082.97
936.81	1079.22
937.11	1083.90
937.41	1080.16
937.71	1074.07
938.01	1078.99
938.31	1078.28
938.61	1075.94
938.91	1066.11
939.21	1071.26
939.51	1078.05
939.81	1078.99
940.11	1075.01
940.41	1073.14
940.71	1060.73
941.01	1050.90
941.31	1061.67
941.61	1071.50
941.91	1083.67
942.21	1096.07
942.51	1104.73
942.81	1094.90
943.11	1087.41
943.41	1084.37
943.71	1080.86
944.01	1071.26
944.31	1072.43
944.61	1076.41
944.90	1078.28
945.20	1077.58
945.50	1082.50
945.80	1075.01
946.10	1072.20
946.40	1068.22
946.70	1071.97
947.00	1069.16
947.30	1074.54
947.60	1080.63
947.89	1085.31
948.19	1076.88
948.49	1076.65
948.79	1079.92
949.09	1075.24
949.39	1071.03
949.69	1078.99
949.98	1088.35
950.28	1089.05
950.58	1093.26
950.88	1097.01
951.18	1094.43
951.48	1099.12
951.77	1097.01
952.07	1091.86
952.37	1097.01
952.67	1095.37
952.97	1079.46
953.26	1073.84
953.56	1074.31
953.86	1064.24
954.16	1064.48
954.45	1076.65
954.75	1085.07
955.05	1095.60
955.35	1100.29
955.64	1099.58
955.94	1096.54
956.24	1084.84
956.54	1074.31
956.83	1077.35
957.13	1077.58
957.43	1070.09
957.72	1073.60
958.02	1067.05
958.32	1065.41
958.61	1064.94
958.91	1067.28
959.21	1071.73
959.50	1073.37
959.80	1070.80
960.10	1064.01
960.39	1061.90
960.69	1060.96
960.99	1069.62
961.28	1064.01
961.58	1074.07
961.87	1088.35
962.17	1092.33
962.47	1085.54
962.76	1091.39
963.06	1083.90
963.36	1082.26
963.65	1088.12
963.95	1089.99
964.24	1093.50
964.54	1096.78
964.83	1100.52
965.13	1092.09
965.42	1090.92
965.72	1093.50
966.02	1095.37
966.31	1086.24
966.61	1097.48
966.90	1102.86
967.20	1095.60
967.49	1090.69
967.79	1083.43
968.08	1069.39
968.38	1062.60
968.67	1061.90
968.97	1055.35
969.26	1060.50
969.56	1056.28
969.85	1057.69
970.15	1067.05
970.44	1077.11
970.74	1073.37
971.03	1075.71
971.32	1077.82
971.62	1065.41
971.91	1065.18
972.21	1073.60
972.50	1082.73
972.80	1084.14
973.09	1089.05
973.38	1083.90
973.68	1082.50
973.97	1076.65
974.27	1075.94
974.56	1080.63
974.85	1088.12
975.15	1089.99
975.44	1096.54
975.73	1096.07
976.03	1089.52
976.32	1082.50
976.61	1064.94
976.91	1056.99
977.20	1054.65
977.49	1059.33
977.79	1067.05
978.08	1080.63
978.37	1080.63
978.67	1087.41
978.96	1091.86
979.25	1089.99
979.55	1091.63
979.84	1093.26
980.13	1094.90
980.42	1082.26
980.72	1073.37
981.01	1073.14
981.30	1075.01
981.59	1073.14
981.89	1084.60
982.18	1093.50
982.47	1089.75
982.76	1087.65
983.06	1081.33
983.35	1082.50
983.64	1088.82
983.93	1091.16
984.22	1089.75
984.52	1087.41
984.81	1089.29
985.10	1076.88
985.39	1067.52
985.68	1067.28
985.97	1079.46
986.27	1067.28
986.56	1079.22
986.85	1091.39
987.14	1093.73
987.43	1075.01
987.72	1072.20
988.01	1063.07
988.31	1059.33
988.60	1055.58
988.89	1066.35
989.18	1067.99
989.47	1064.24
989.76	1065.88
990.05	1072.67
990.34	1072.90
990.63	1076.41
990.92	1089.05
991.21	1079.92
991.51	1077.58
991.80	1077.82
992.09	1084.14
992.38	1077.11
992.67	1083.90
992.96	1075.48
993.25	1080.39
993.54	1071.97
993.83	1080.16
994.12	1081.09
994.41	1091.86
994.70	1088.35
994.99	1083.90
995.28	1084.37
995.57	1079.46
995.86	1077.58
996.15	1077.58
996.44	1082.73
996.73	1076.18
997.02	1075.94
997.31	1065.65
997.59	1063.07
997.88	1065.88
998.17	1060.96
998.46	1053.48
998.75	1062.84
999.04	1069.39
999.33	1076.65
999.62	1079.22
999.91	1091.86
1000.20	1096.78
1000.49	1092.56
1000.77	1081.80
1001.06	1084.14
1001.35	1083.67
1001.64	1072.67
1001.93	1071.50
1002.22	1071.97
1002.51	1070.80
1002.79	1063.31
1003.08	1067.05
1003.37	1070.80
1003.66	1075.01
1003.95	1070.80
1004.23	1087.65
1004.52	1094.20
1004.81	1100.99
1005.10	1100.99
1005.39	1115.27
1005.67	1105.90
1005.96	1107.78
1006.25	1101.69
1006.54	1100.99
1006.83	1092.56
1007.11	1092.56
1007.40	1086.71
1007.69	1078.28
1007.97	1082.73
1008.26	1072.20
1008.55	1070.80
1008.84	1072.43
1009.12	1076.18
1009.41	1061.20
1009.70	1072.20
1009.98	1074.54
1010.27	1073.37
1010.56	1063.77
1010.85	1070.56
1011.13	1066.58
1011.42	1057.22
1011.71	1058.62
1011.99	1067.75
1012.28	1077.11
1012.56	1082.73
1012.85	1087.41
1013.14	1084.84
1013.42	1089.99
1013.71	1086.48
1014.00	1083.20
1014.28	1084.37
1014.57	1085.07
1014.85	1083.20
1015.14	1081.33
1015.43	1081.80
1015.71	1081.56
1016.00	1089.29
1016.28	1078.75
1016.57	1075.48
1016.85	1071.97
1017.14	1067.99
1017.43	1063.31
1017.71	1074.07
1018.00	1088.58
1018.28	1095.37
1018.57	1099.82
1018.85	1102.63
1019.14	1105.44
1019.42	1096.78
1019.71	1089.99
1019.99	1083.67
1020.28	1073.37
1020.56	1071.73
1020.85	1068.45
1021.13	1068.69
1021.42	1080.63
1021.70	1083.67
1021.99	1079.22
1022.27	1073.60
1022.55	1073.14
1022.84	1052.07
>>>>>End Processed Spectral Data<<<<<
