SpectraSuite Data File
++++++++++++++++++++++++++++++++++++
Date: Mon Aug 26 10:25:51 PDT 2019
User: corrico
Dark Spectrum Present: No
Reference Spectrum Present: No
Number of Sampled Component Spectra: 1
Spectrometers: USB2+H06089
Integration Time (usec): 10000 (USB2+H06089)
Spectra Averaged: 2 (USB2+H06089)
Boxcar Smoothing: 2 (USB2+H06089)
Correct for Electrical Dark: No (USB2+H06089)
Strobe/Lamp Enabled: No (USB2+H06089)
Correct for Detector Non-linearity: No (USB2+H06089)
Correct for Stray Light: No (USB2+H06089)
Number of Pixels in Processed Spectrum: 2048
>>>>>Begin Processed Spectral Data<<<<<
339.70	1042.71
340.07	1042.71
340.45	1010.64
340.82	993.32
341.19	974.83
341.57	948.85
341.94	940.19
342.31	927.32
342.69	918.43
343.06	905.79
343.43	902.28
343.81	904.15
344.18	908.83
344.55	905.09
344.93	905.09
345.30	919.13
345.67	916.32
346.04	920.77
346.42	937.62
346.79	940.66
347.16	935.28
347.54	945.81
347.91	949.56
348.28	953.30
348.65	964.77
349.03	981.15
349.40	992.39
349.77	1006.20
350.14	1012.75
350.52	1021.88
350.89	1027.50
351.26	1040.84
351.63	1050.67
352.01	1054.41
352.38	1065.65
352.75	1076.18
353.12	1080.16
353.50	1077.58
353.87	1093.97
354.24	1096.78
354.61	1095.14
354.98	1084.60
355.36	1082.03
355.73	1071.26
356.10	1069.86
356.47	1062.37
356.84	1067.99
357.22	1071.97
357.59	1075.24
357.96	1076.41
358.33	1076.65
358.70	1079.46
359.08	1073.84
359.45	1068.69
359.82	1070.33
360.19	1074.54
360.56	1065.88
360.94	1064.01
361.31	1057.92
361.68	1057.92
362.05	1053.94
362.42	1055.82
362.79	1060.73
363.16	1067.52
363.54	1064.94
363.91	1071.26
364.28	1080.63
364.65	1085.31
365.02	1090.92
365.39	1090.22
365.76	1078.52
366.14	1065.65
366.51	1060.50
366.88	1052.30
367.25	1046.45
367.62	1052.30
367.99	1061.20
368.36	1065.88
368.73	1063.77
369.10	1070.09
369.48	1079.22
369.85	1078.28
370.22	1073.84
370.59	1081.09
370.96	1080.16
371.33	1070.09
371.70	1067.05
372.07	1067.28
372.44	1065.18
372.81	1069.62
373.18	1070.09
373.55	1066.11
373.93	1069.86
374.30	1070.56
374.67	1071.26
375.04	1072.43
375.41	1077.35
375.78	1075.94
376.15	1069.62
376.52	1070.33
376.89	1076.65
377.26	1068.69
377.63	1072.90
378.00	1075.01
378.37	1067.28
378.74	1053.01
379.11	1064.01
379.48	1060.73
379.85	1061.90
380.22	1061.20
380.59	1069.62
380.96	1070.33
381.33	1061.43
381.70	1069.62
382.07	1075.48
382.44	1074.77
382.81	1073.60
383.18	1086.94
383.55	1081.09
383.92	1071.97
384.29	1072.20
384.66	1062.60
385.03	1053.94
385.40	1054.88
385.77	1057.69
386.14	1056.05
386.51	1062.60
386.88	1060.26
387.25	1057.22
387.62	1056.75
387.99	1060.96
388.36	1068.92
388.73	1064.71
389.10	1071.50
389.46	1079.22
389.83	1072.90
390.20	1068.45
390.57	1064.48
390.94	1054.88
391.31	1045.28
391.68	1048.09
392.05	1036.16
392.42	1045.75
392.79	1044.35
393.16	1051.84
393.53	1059.79
393.89	1074.07
394.26	1070.56
394.63	1074.77
395.00	1075.94
395.37	1066.82
395.74	1060.73
396.11	1060.03
396.48	1069.16
396.84	1067.75
397.21	1068.22
397.58	1073.60
397.95	1073.37
398.32	1060.03
398.69	1054.65
399.06	1058.39
399.42	1060.73
399.79	1061.43
400.16	1069.39
400.53	1078.99
400.90	1074.54
401.27	1062.14
401.64	1073.84
402.00	1078.05
402.37	1079.92
402.74	1077.35
403.11	1080.39
403.48	1075.94
403.84	1066.58
404.21	1056.52
404.58	1059.33
404.95	1062.14
405.32	1068.45
405.68	1073.14
406.05	1082.97
406.42	1080.39
406.79	1083.43
407.16	1071.73
407.52	1069.86
407.89	1057.45
408.26	1054.65
408.63	1049.50
408.99	1059.79
409.36	1069.62
409.73	1074.31
410.10	1083.20
410.47	1073.37
410.83	1066.35
411.20	1053.48
411.57	1059.56
411.94	1063.77
412.30	1078.52
412.67	1080.39
413.04	1082.03
413.40	1075.48
413.77	1071.03
414.14	1059.09
414.51	1053.48
414.87	1058.86
415.24	1053.71
415.61	1052.30
415.97	1054.88
416.34	1060.73
416.71	1059.56
417.08	1071.03
417.44	1075.01
417.81	1084.84
418.18	1088.12
418.54	1088.82
418.91	1085.54
419.28	1078.28
419.64	1075.48
420.01	1073.14
420.38	1081.56
420.74	1077.82
421.11	1079.92
421.48	1076.65
421.84	1073.37
422.21	1061.90
422.58	1066.82
422.94	1071.73
423.31	1075.94
423.68	1080.63
424.04	1091.63
424.41	1092.56
424.77	1089.52
425.14	1082.97
425.51	1081.33
425.87	1072.67
426.24	1067.05
426.61	1068.45
426.97	1069.62
427.34	1067.99
427.70	1060.50
428.07	1057.45
428.44	1066.58
428.80	1075.01
429.17	1071.97
429.53	1076.65
429.90	1091.16
430.27	1087.18
430.63	1084.14
431.00	1094.67
431.36	1101.22
431.73	1091.16
432.09	1082.03
432.46	1083.20
432.83	1070.80
433.19	1065.65
433.56	1058.86
433.92	1050.43
434.29	1049.50
434.65	1051.60
435.02	1054.41
435.38	1064.94
435.75	1079.92
436.11	1072.90
436.48	1080.39
436.84	1081.09
437.21	1087.41
437.57	1079.69
437.94	1096.78
438.30	1088.35
438.67	1085.54
439.03	1070.09
439.40	1077.58
439.76	1071.03
440.13	1073.14
440.49	1074.77
440.86	1088.82
441.22	1089.75
441.59	1086.48
441.95	1083.90
442.32	1087.88
442.68	1084.60
443.05	1083.20
443.41	1082.73
443.78	1097.48
444.14	1085.77
444.51	1091.86
444.87	1096.31
445.24	1096.78
445.60	1076.18
445.96	1088.12
446.33	1077.35
446.69	1072.90
447.06	1072.43
447.42	1086.24
447.79	1080.39
448.15	1073.60
448.51	1073.14
448.88	1068.69
449.24	1060.96
449.61	1053.01
449.97	1070.09
450.33	1058.16
450.70	1063.07
451.06	1065.88
451.43	1078.75
451.79	1068.92
452.15	1074.77
452.52	1078.99
452.88	1080.16
453.24	1067.05
453.61	1059.09
453.97	1063.07
454.34	1060.73
454.70	1060.26
455.06	1069.16
455.43	1083.20
455.79	1083.43
456.15	1080.16
456.52	1075.01
456.88	1070.80
457.24	1074.07
457.61	1084.60
457.97	1085.07
458.33	1082.03
458.70	1083.20
459.06	1073.84
459.42	1072.67
459.79	1073.14
460.15	1078.75
460.51	1069.86
460.88	1071.03
461.24	1067.75
461.60	1075.48
461.96	1078.75
462.33	1089.29
462.69	1096.78
463.05	1084.60
463.42	1088.12
463.78	1100.05
464.14	1100.05
464.50	1086.24
464.87	1093.26
465.23	1071.26
465.59	1059.56
465.95	1065.88
466.32	1082.03
466.68	1085.07
467.04	1101.22
467.40	1102.16
467.77	1096.78
468.13	1077.35
468.49	1064.71
468.85	1054.88
469.22	1053.71
469.58	1042.71
469.94	1050.43
470.30	1060.03
470.66	1064.01
471.03	1065.88
471.39	1073.84
471.75	1069.62
472.11	1073.14
472.47	1061.43
472.84	1060.26
473.20	1070.80
473.56	1068.92
473.92	1066.35
474.28	1071.50
474.65	1082.50
475.01	1076.18
475.37	1088.82
475.73	1087.41
476.09	1093.73
476.45	1084.14
476.81	1079.92
477.18	1075.71
477.54	1080.63
477.90	1078.28
478.26	1077.35
478.62	1081.09
478.98	1085.31
479.34	1084.84
479.71	1094.43
480.07	1090.22
480.43	1089.05
480.79	1084.84
481.15	1082.26
481.51	1069.16
481.87	1074.77
482.23	1078.28
482.59	1070.56
482.96	1066.11
483.32	1067.75
483.68	1066.35
484.04	1057.22
484.40	1065.18
484.76	1074.07
485.12	1079.69
485.48	1071.73
485.84	1076.88
486.20	1069.39
486.56	1067.52
486.92	1065.41
487.28	1068.92
487.64	1070.80
488.00	1075.94
488.37	1068.22
488.73	1069.16
489.09	1076.41
489.45	1073.14
489.81	1075.01
490.17	1082.26
490.53	1087.65
490.89	1077.58
491.25	1077.58
491.61	1072.90
491.97	1065.65
492.33	1063.07
492.69	1081.33
493.05	1089.29
493.41	1097.24
493.77	1099.35
494.13	1095.60
494.49	1094.90
494.85	1083.43
495.21	1078.99
495.57	1084.14
495.93	1083.43
496.29	1071.03
496.64	1077.11
497.00	1078.05
497.36	1076.41
497.72	1075.48
498.08	1075.01
498.44	1072.90
498.80	1062.60
499.16	1068.45
499.52	1067.52
499.88	1069.39
500.24	1070.09
500.60	1076.88
500.96	1070.09
501.32	1071.50
501.68	1069.86
502.03	1067.75
502.39	1070.56
502.75	1077.11
503.11	1081.09
503.47	1085.54
503.83	1088.35
504.19	1096.54
504.55	1089.29
504.91	1079.92
505.26	1078.28
505.62	1077.82
505.98	1067.52
506.34	1071.73
506.70	1081.09
507.06	1081.33
507.42	1082.03
507.78	1087.65
508.13	1094.90
508.49	1094.43
508.85	1101.46
509.21	1107.78
509.57	1098.18
509.93	1087.88
510.28	1083.90
510.64	1078.28
511.00	1070.80
511.36	1079.22
511.72	1075.01
512.07	1076.65
512.43	1081.80
512.79	1079.46
513.15	1078.75
513.51	1081.80
513.86	1082.03
514.22	1072.20
514.58	1081.09
514.94	1089.99
515.30	1095.60
515.65	1099.35
516.01	1096.31
516.37	1093.73
516.73	1078.99
517.08	1084.37
517.44	1085.07
517.80	1089.99
518.16	1081.56
518.51	1074.77
518.87	1063.31
519.23	1071.26
519.59	1075.71
519.94	1084.14
520.30	1097.24
520.66	1104.03
521.01	1100.52
521.37	1097.01
521.73	1093.26
522.09	1101.22
522.44	1107.54
522.80	1105.20
523.16	1104.03
523.51	1112.92
523.87	1112.69
524.23	1115.50
524.58	1110.82
524.94	1114.80
525.30	1108.48
525.65	1107.31
526.01	1093.97
526.37	1095.37
526.72	1100.05
527.08	1104.50
527.44	1100.29
527.79	1086.71
528.15	1082.73
528.51	1076.41
528.86	1071.26
529.22	1072.43
529.58	1087.18
529.93	1093.26
530.29	1094.20
530.65	1101.46
531.00	1091.63
531.36	1094.43
531.71	1094.90
532.07	1093.97
532.43	1084.60
532.78	1087.65
533.14	1080.16
533.49	1081.80
533.85	1084.60
534.21	1082.50
534.56	1084.14
534.92	1084.37
535.27	1089.05
535.63	1088.82
535.98	1089.52
536.34	1097.01
536.69	1103.80
537.05	1086.01
537.41	1073.37
537.76	1080.63
538.12	1070.80
538.47	1066.82
538.83	1081.09
539.18	1090.69
539.54	1085.07
539.89	1089.05
540.25	1084.60
540.60	1082.73
540.96	1094.20
541.31	1095.37
541.67	1096.07
542.02	1097.71
542.38	1087.18
542.73	1073.14
543.09	1076.65
543.44	1067.75
543.80	1072.20
544.15	1077.58
544.51	1087.88
544.86	1082.50
545.22	1095.60
545.57	1098.18
545.93	1100.05
546.28	1091.63
546.64	1097.95
546.99	1095.14
547.35	1096.54
547.70	1093.50
548.05	1085.54
548.41	1080.39
548.76	1083.67
549.12	1074.77
549.47	1078.05
549.83	1090.22
550.18	1093.26
550.53	1086.01
550.89	1081.80
551.24	1072.43
551.60	1061.20
551.95	1057.92
552.30	1053.48
552.66	1063.77
553.01	1070.56
553.37	1073.60
553.72	1068.92
554.07	1076.18
554.43	1072.20
554.78	1074.31
555.13	1083.43
555.49	1074.54
555.84	1076.18
556.19	1075.71
556.55	1075.48
556.90	1073.14
557.26	1096.54
557.61	1088.82
557.96	1085.77
558.32	1081.80
558.67	1073.37
559.02	1074.77
559.37	1073.14
559.73	1082.26
560.08	1082.26
560.43	1100.99
560.79	1085.77
561.14	1088.58
561.49	1084.84
561.85	1084.60
562.20	1069.86
562.55	1074.54
562.90	1077.35
563.26	1075.48
563.61	1082.50
563.96	1089.99
564.32	1087.41
564.67	1093.50
565.02	1093.50
565.37	1081.56
565.73	1068.22
566.08	1071.26
566.43	1068.69
566.78	1068.92
567.14	1067.75
567.49	1073.37
567.84	1070.56
568.19	1071.03
568.54	1077.35
568.90	1088.58
569.25	1091.39
569.60	1101.46
569.95	1096.07
570.31	1089.05
570.66	1086.01
571.01	1085.77
571.36	1073.60
571.71	1066.35
572.06	1067.52
572.42	1059.09
572.77	1051.60
573.12	1051.84
573.47	1058.39
573.82	1060.26
574.18	1069.62
574.53	1078.05
574.88	1079.22
575.23	1076.88
575.58	1079.92
575.93	1082.97
576.28	1079.92
576.64	1083.20
576.99	1089.29
577.34	1080.63
577.69	1077.58
578.04	1078.05
578.39	1076.65
578.74	1077.11
579.09	1078.99
579.44	1081.56
579.80	1073.60
580.15	1078.28
580.50	1073.37
580.85	1080.16
581.20	1074.54
581.55	1082.97
581.90	1076.88
582.25	1085.07
582.60	1087.18
582.95	1083.67
583.30	1083.67
583.65	1083.43
584.00	1073.60
584.35	1068.69
584.71	1075.71
585.06	1078.05
585.41	1088.12
585.76	1096.31
586.11	1097.71
586.46	1089.75
586.81	1091.86
587.16	1082.73
587.51	1073.37
587.86	1078.75
588.21	1085.31
588.56	1080.86
588.91	1089.29
589.26	1095.84
589.61	1086.24
589.96	1089.99
590.31	1095.60
590.66	1087.18
591.01	1082.50
591.36	1083.67
591.71	1075.24
592.06	1075.24
592.41	1080.16
592.76	1075.01
593.10	1067.05
593.45	1074.07
593.80	1067.28
594.15	1061.90
594.50	1075.24
594.85	1074.77
595.20	1058.16
595.55	1066.58
595.90	1069.86
596.25	1068.22
596.60	1081.09
596.95	1097.48
597.30	1094.43
597.64	1144.76
597.99	1144.29
598.34	1131.18
598.69	1131.65
599.04	1131.88
599.39	1081.33
599.74	1084.84
600.09	1090.69
600.44	1086.24
600.78	1086.24
601.13	1082.73
601.48	1074.54
601.83	1081.56
602.18	1084.84
602.53	1086.24
602.88	1089.99
603.22	1096.07
603.57	1092.33
603.92	1086.24
604.27	1095.14
604.62	1088.82
604.97	1082.26
605.31	1080.39
605.66	1083.20
606.01	1069.39
606.36	1081.09
606.71	1081.56
607.05	1082.50
607.40	1081.09
607.75	1082.97
608.10	1075.01
608.44	1076.41
608.79	1074.77
609.14	1086.71
609.49	1084.84
609.84	1098.18
610.18	1100.75
610.53	1109.41
610.88	1099.82
611.23	1102.39
611.57	1084.60
611.92	1085.31
612.27	1076.41
612.62	1076.88
612.96	1075.48
613.31	1079.46
613.66	1076.65
614.00	1086.94
614.35	1092.56
614.70	1097.48
615.05	1109.18
615.39	1112.46
615.74	1094.90
616.09	1087.88
616.43	1082.97
616.78	1077.82
617.13	1079.22
617.47	1082.50
617.82	1083.90
618.17	1083.67
618.51	1085.77
618.86	1083.20
619.21	1096.78
619.55	1094.67
619.90	1092.56
620.25	1089.99
620.59	1077.82
620.94	1076.41
621.29	1076.65
621.63	1076.18
621.98	1067.75
622.32	1066.82
622.67	1062.14
623.02	1057.92
623.36	1057.92
623.71	1058.62
624.05	1079.69
624.40	1079.69
624.75	1093.73
625.09	1090.69
625.44	1100.75
625.78	1096.07
626.13	1093.97
626.48	1082.97
626.82	1092.56
627.17	1083.67
627.51	1083.43
627.86	1081.09
628.20	1076.41
628.55	1072.20
628.89	1069.39
629.24	1064.48
629.58	1075.01
629.93	1081.33
630.28	1080.39
630.62	1083.43
630.97	1084.84
631.31	1069.39
631.66	1071.50
632.00	1070.80
632.35	1069.62
632.69	1074.07
633.04	1087.18
633.38	1087.41
633.73	1091.86
634.07	1097.48
634.42	1092.09
634.76	1081.80
635.11	1079.22
635.45	1070.56
635.79	1065.65
636.14	1075.94
636.48	1086.24
636.83	1087.88
637.17	1085.07
637.52	1087.88
637.86	1086.01
638.21	1084.60
638.55	1077.82
638.89	1077.58
639.24	1071.97
639.58	1066.11
639.93	1061.67
640.27	1075.01
640.61	1093.26
640.96	1096.78
641.30	1092.09
641.65	1089.75
641.99	1089.29
642.33	1081.56
642.68	1090.92
643.02	1100.05
643.37	1100.05
643.71	1095.60
644.05	1087.88
644.40	1075.94
644.74	1075.24
645.08	1082.73
645.43	1082.97
645.77	1092.33
646.11	1093.97
646.46	1086.71
646.80	1081.80
647.14	1083.20
647.49	1074.77
647.83	1084.14
648.17	1083.20
648.52	1080.39
648.86	1072.90
649.20	1073.14
649.55	1068.22
649.89	1066.35
650.23	1065.65
650.57	1075.01
650.92	1078.99
651.26	1071.73
651.60	1069.62
651.95	1076.65
652.29	1073.37
652.63	1078.75
652.97	1075.48
653.32	1079.92
653.66	1082.73
654.00	1078.99
654.34	1066.58
654.69	1071.97
655.03	1072.90
655.37	1071.50
655.71	1072.43
656.05	1072.20
656.40	1078.28
656.74	1074.31
657.08	1066.82
657.42	1062.60
657.76	1068.92
658.11	1065.41
658.45	1072.67
658.79	1074.31
659.13	1065.41
659.47	1071.26
659.82	1075.24
660.16	1073.14
660.50	1072.43
660.84	1085.07
661.18	1082.26
661.52	1072.43
661.87	1072.90
662.21	1066.82
662.55	1068.92
662.89	1068.92
663.23	1072.67
663.57	1069.39
663.91	1080.16
664.25	1079.92
664.60	1080.63
664.94	1074.31
665.28	1071.73
665.62	1064.01
665.96	1070.80
666.30	1071.50
666.64	1082.97
666.98	1088.58
667.32	1091.63
667.66	1084.14
668.01	1074.54
668.35	1069.39
668.69	1071.73
669.03	1076.18
669.37	1065.18
669.71	1073.37
670.05	1081.56
670.39	1079.46
670.73	1082.73
671.07	1091.63
671.41	1088.82
671.75	1082.97
672.09	1077.82
672.43	1067.28
672.77	1067.28
673.11	1070.80
673.45	1073.60
673.79	1080.39
674.13	1076.41
674.47	1083.43
674.81	1084.37
675.15	1089.52
675.49	1079.92
675.83	1092.09
676.17	1092.80
676.51	1085.31
676.85	1073.60
677.19	1081.56
677.53	1070.80
677.87	1064.01
678.21	1068.69
678.55	1072.43
678.89	1066.35
679.23	1066.35
679.57	1065.88
679.90	1070.56
680.24	1073.84
680.58	1082.97
680.92	1084.60
681.26	1094.67
681.60	1082.97
681.94	1076.88
682.28	1066.58
682.62	1076.18
682.96	1063.07
683.29	1070.80
683.63	1072.90
683.97	1075.48
684.31	1066.35
684.65	1077.11
684.99	1075.94
685.33	1078.52
685.67	1072.90
686.00	1082.50
686.34	1075.24
686.68	1076.41
687.02	1069.39
687.36	1088.58
687.70	1087.18
688.03	1097.48
688.37	1099.58
688.71	1114.33
689.05	1116.44
689.39	1118.54
689.72	1108.71
690.06	1100.05
690.40	1093.73
690.74	1091.63
691.08	1087.65
691.41	1076.18
691.75	1087.41
692.09	1086.94
692.43	1073.60
692.76	1076.41
693.10	1087.88
693.44	1085.54
693.78	1077.58
694.11	1082.73
694.45	1078.05
694.79	1083.67
695.13	1077.35
695.46	1082.97
695.80	1083.90
696.14	1075.24
696.48	1066.82
696.81	1068.45
697.15	1061.90
697.49	1053.48
697.82	1065.65
698.16	1065.41
698.50	1066.58
698.83	1071.73
699.17	1076.65
699.51	1059.79
699.84	1071.03
700.18	1064.48
700.52	1064.71
700.85	1061.90
701.19	1073.60
701.53	1073.60
701.86	1079.46
702.20	1078.28
702.54	1081.56
702.87	1081.56
703.21	1080.39
703.55	1082.73
703.88	1079.92
704.22	1075.48
704.55	1075.48
704.89	1061.67
705.23	1052.30
705.56	1057.22
705.90	1066.58
706.23	1066.35
706.57	1074.77
706.91	1077.58
707.24	1081.56
707.58	1089.52
707.91	1095.60
708.25	1086.48
708.58	1077.35
708.92	1073.37
709.26	1055.11
709.59	1051.13
709.93	1064.24
710.26	1084.60
710.60	1085.77
710.93	1089.75
711.27	1096.78
711.60	1092.56
711.94	1076.18
712.27	1074.54
712.61	1081.56
712.94	1082.50
713.28	1082.73
713.61	1085.07
713.95	1086.24
714.28	1082.26
714.62	1086.01
714.95	1085.31
715.29	1092.09
715.62	1089.29
715.96	1095.14
716.29	1080.86
716.63	1087.41
716.96	1085.07
717.29	1086.24
717.63	1081.56
717.96	1077.58
718.30	1075.01
718.63	1078.05
718.97	1079.92
719.30	1077.82
719.63	1086.94
719.97	1078.52
720.30	1068.22
720.64	1072.90
720.97	1068.69
721.30	1066.35
721.64	1070.09
721.97	1079.69
722.31	1068.92
722.64	1075.48
722.97	1072.67
723.31	1084.14
723.64	1086.94
723.97	1094.20
724.31	1096.78
724.64	1104.03
724.98	1104.03
725.31	1095.60
725.64	1098.18
725.98	1096.31
726.31	1086.71
726.64	1077.82
726.97	1092.09
727.31	1091.39
727.64	1094.43
727.97	1102.86
728.31	1111.05
728.64	1101.46
728.97	1093.50
729.31	1091.86
729.64	1094.90
729.97	1087.41
730.30	1095.84
730.64	1097.71
730.97	1103.56
731.30	1100.05
731.63	1102.39
731.97	1089.05
732.30	1098.41
732.63	1093.97
732.96	1093.03
733.30	1084.37
733.63	1087.18
733.96	1076.18
734.29	1072.67
734.63	1075.24
734.96	1076.88
735.29	1077.82
735.62	1090.46
735.95	1089.52
736.29	1085.77
736.62	1085.31
736.95	1090.92
737.28	1075.71
737.61	1077.35
737.94	1076.65
738.28	1076.65
738.61	1075.01
738.94	1079.92
739.27	1083.20
739.60	1085.54
739.93	1097.95
740.27	1098.88
740.60	1099.35
740.93	1095.84
741.26	1082.03
741.59	1068.22
741.92	1069.62
742.25	1081.09
742.58	1077.35
742.91	1083.43
743.25	1080.16
743.58	1085.54
743.91	1079.22
744.24	1075.01
744.57	1084.60
744.90	1089.29
745.23	1071.03
745.56	1061.20
745.89	1064.71
746.22	1060.73
746.55	1066.58
746.88	1073.84
747.21	1078.28
747.54	1077.82
747.87	1083.20
748.20	1079.22
748.53	1082.73
748.87	1086.48
749.20	1092.56
749.53	1090.69
749.86	1091.39
750.19	1097.24
750.52	1104.50
750.85	1100.99
751.18	1094.67
751.51	1093.97
751.84	1082.73
752.16	1072.20
752.49	1074.31
752.82	1071.03
753.15	1065.65
753.48	1072.20
753.81	1070.09
754.14	1068.92
754.47	1070.33
754.80	1080.86
755.13	1080.16
755.46	1087.65
755.79	1087.18
756.12	1101.69
756.45	1088.82
756.78	1086.01
757.11	1086.94
757.43	1090.69
757.76	1085.77
758.09	1097.95
758.42	1093.26
758.75	1092.33
759.08	1086.71
759.41	1090.92
759.74	1088.58
760.07	1087.65
760.39	1086.24
760.72	1093.03
761.05	1085.54
761.38	1087.41
761.71	1086.24
762.04	1085.07
762.36	1082.97
762.69	1088.58
763.02	1087.18
763.35	1092.56
763.68	1088.58
764.01	1081.09
764.33	1071.97
764.66	1070.09
764.99	1071.03
765.32	1072.67
765.65	1081.09
765.97	1082.50
766.30	1080.86
766.63	1086.48
766.96	1090.46
767.28	1089.05
767.61	1090.22
767.94	1086.48
768.27	1086.48
768.59	1092.80
768.92	1086.94
769.25	1083.43
769.58	1082.97
769.90	1079.69
770.23	1070.33
770.56	1078.75
770.89	1076.65
771.21	1082.50
771.54	1079.92
771.87	1085.77
772.19	1085.31
772.52	1083.90
772.85	1082.03
773.17	1079.46
773.50	1077.35
773.83	1071.50
774.15	1078.05
774.48	1073.37
774.81	1074.07
775.13	1073.60
775.46	1087.41
775.79	1077.82
776.11	1086.48
776.44	1085.54
776.77	1084.37
777.09	1070.80
777.42	1070.33
777.74	1071.73
778.07	1070.09
778.40	1071.03
778.72	1074.07
779.05	1077.58
779.37	1067.52
779.70	1077.82
780.03	1084.37
780.35	1085.31
780.68	1092.33
781.00	1103.80
781.33	1090.92
781.65	1076.88
781.98	1075.94
782.31	1077.82
782.63	1075.01
782.96	1083.43
783.28	1084.37
783.61	1082.50
783.93	1077.82
784.26	1078.05
784.58	1081.33
784.91	1092.56
785.23	1097.71
785.56	1091.63
785.88	1092.33
786.21	1083.20
786.53	1078.52
786.86	1074.77
787.18	1085.77
787.51	1082.03
787.83	1083.43
788.16	1079.46
788.48	1072.90
788.81	1071.50
789.13	1068.22
789.46	1065.18
789.78	1067.05
790.10	1065.41
790.43	1065.65
790.75	1074.31
791.08	1079.69
791.40	1074.77
791.73	1084.84
792.05	1077.58
792.37	1078.05
792.70	1077.11
793.02	1083.43
793.35	1081.80
793.67	1089.52
793.99	1075.71
794.32	1078.28
794.64	1081.33
794.96	1076.18
795.29	1081.09
795.61	1094.67
795.93	1094.90
796.26	1092.33
796.58	1106.37
796.91	1096.54
797.23	1080.63
797.55	1079.69
797.87	1084.84
798.20	1072.20
798.52	1070.56
798.84	1079.46
799.17	1082.26
799.49	1070.80
799.81	1074.54
800.14	1077.11
800.46	1075.94
800.78	1071.26
801.10	1071.26
801.43	1074.31
801.75	1071.50
802.07	1065.41
802.40	1060.50
802.72	1053.48
803.04	1046.69
803.36	1043.88
803.69	1053.48
804.01	1059.79
804.33	1071.97
804.65	1072.90
804.97	1084.14
805.30	1086.71
805.62	1084.14
805.94	1080.86
806.26	1079.69
806.58	1072.20
806.91	1068.22
807.23	1078.99
807.55	1082.03
807.87	1085.07
808.19	1097.95
808.52	1107.07
808.84	1104.26
809.16	1102.16
809.48	1099.12
809.80	1089.52
810.12	1076.41
810.44	1070.33
810.77	1060.73
811.09	1069.62
811.41	1074.31
811.73	1080.39
812.05	1083.20
812.37	1089.75
812.69	1083.67
813.01	1081.56
813.33	1073.60
813.66	1073.37
813.98	1065.88
814.30	1064.48
814.62	1062.14
814.94	1073.14
815.26	1075.71
815.58	1081.33
815.90	1075.71
816.22	1077.35
816.54	1080.39
816.86	1086.01
817.18	1087.88
817.50	1095.84
817.82	1094.43
818.14	1096.31
818.46	1084.60
818.78	1090.92
819.10	1080.39
819.42	1079.22
819.74	1068.92
820.06	1072.43
820.38	1073.60
820.70	1087.41
821.02	1090.69
821.34	1103.33
821.66	1108.01
821.98	1104.97
822.30	1092.56
822.62	1092.80
822.94	1081.80
823.26	1080.86
823.58	1084.60
823.90	1089.52
824.22	1083.43
824.54	1086.94
824.86	1077.58
825.18	1070.33
825.50	1077.58
825.81	1086.71
826.13	1080.39
826.45	1093.73
826.77	1096.54
827.09	1086.48
827.41	1071.03
827.73	1074.07
828.05	1069.16
828.36	1064.71
828.68	1071.73
829.00	1090.69
829.32	1087.65
829.64	1090.22
829.96	1087.65
830.28	1084.60
830.59	1067.99
830.91	1071.26
831.23	1073.60
831.55	1079.22
831.87	1085.07
832.19	1095.60
832.50	1090.46
832.82	1081.09
833.14	1078.52
833.46	1072.43
833.78	1071.50
834.09	1081.80
834.41	1082.50
834.73	1080.63
835.05	1083.90
835.36	1081.56
835.68	1075.24
836.00	1067.05
836.32	1076.41
836.63	1066.11
836.95	1069.16
837.27	1067.52
837.59	1078.05
837.90	1079.22
838.22	1089.99
838.54	1086.01
838.85	1091.86
839.17	1081.80
839.49	1081.33
839.80	1080.63
840.12	1075.71
840.44	1077.82
840.76	1082.03
841.07	1075.94
841.39	1075.24
841.71	1072.20
842.02	1058.16
842.34	1056.75
842.65	1053.01
842.97	1052.07
843.29	1063.77
843.60	1068.92
843.92	1072.20
844.24	1074.77
844.55	1080.39
844.87	1081.09
845.18	1084.60
845.50	1084.14
845.82	1093.03
846.13	1071.97
846.45	1061.20
846.76	1060.26
847.08	1066.58
847.40	1054.18
847.71	1060.50
848.03	1069.16
848.34	1067.75
848.66	1068.92
848.97	1077.11
849.29	1085.54
849.60	1081.80
849.92	1087.88
850.24	1078.99
850.55	1070.56
850.87	1067.75
851.18	1064.94
851.50	1061.20
851.81	1065.65
852.13	1068.69
852.44	1078.28
852.76	1077.82
853.07	1076.18
853.39	1079.46
853.70	1084.37
854.01	1077.35
854.33	1082.50
854.64	1084.60
854.96	1080.86
855.27	1078.75
855.59	1083.43
855.90	1084.84
856.22	1086.01
856.53	1078.28
856.84	1080.63
857.16	1075.71
857.47	1070.80
857.79	1075.01
858.10	1079.69
858.41	1079.46
858.73	1084.37
859.04	1084.60
859.36	1073.14
859.67	1071.26
859.98	1067.28
860.30	1062.37
860.61	1063.31
860.92	1068.45
861.24	1065.18
861.55	1074.07
861.87	1075.71
862.18	1067.75
862.49	1064.48
862.81	1084.37
863.12	1078.05
863.43	1078.05
863.74	1088.58
864.06	1091.39
864.37	1076.88
864.68	1082.50
865.00	1080.39
865.31	1078.28
865.62	1074.31
865.94	1086.48
866.25	1076.41
866.56	1064.48
866.87	1064.24
867.19	1061.67
867.50	1051.13
867.81	1054.88
868.12	1060.50
868.44	1060.50
868.75	1071.26
869.06	1067.99
869.37	1068.69
869.68	1072.90
870.00	1075.48
870.31	1076.41
870.62	1092.33
870.93	1095.84
871.24	1101.92
871.56	1105.67
871.87	1098.88
872.18	1086.24
872.49	1081.33
872.80	1079.69
873.12	1071.50
873.43	1078.05
873.74	1083.20
874.05	1082.03
874.36	1086.71
874.67	1087.65
874.98	1087.41
875.29	1082.03
875.61	1085.77
875.92	1076.18
876.23	1075.71
876.54	1074.77
876.85	1084.14
877.16	1084.84
877.47	1089.52
877.78	1100.75
878.09	1095.60
878.40	1093.73
878.72	1088.12
879.03	1096.54
879.34	1098.18
879.65	1097.01
879.96	1083.67
880.27	1084.84
880.58	1082.73
880.89	1068.45
881.20	1070.33
881.51	1082.50
881.82	1088.35
882.13	1078.52
882.44	1093.97
882.75	1088.82
883.06	1086.48
883.37	1080.16
883.68	1079.69
883.99	1074.07
884.30	1083.20
884.61	1084.14
884.92	1090.22
885.23	1097.01
885.54	1093.26
885.85	1100.99
886.16	1098.41
886.47	1097.48
886.78	1086.48
887.08	1089.52
887.39	1078.28
887.70	1082.26
888.01	1084.37
888.32	1088.35
888.63	1078.99
888.94	1075.94
889.25	1075.48
889.56	1072.67
889.87	1074.77
890.17	1096.54
890.48	1101.69
890.79	1100.99
891.10	1103.80
891.41	1114.33
891.72	1101.46
892.03	1109.41
892.34	1107.07
892.64	1103.09
892.95	1097.48
893.26	1086.94
893.57	1076.65
893.88	1074.31
894.18	1075.71
894.49	1077.82
894.80	1093.97
895.11	1097.95
895.42	1087.18
895.72	1087.41
896.03	1082.26
896.34	1072.90
896.65	1070.09
896.96	1079.69
897.26	1085.54
897.57	1089.05
897.88	1090.22
898.19	1089.29
898.49	1095.14
898.80	1086.48
899.11	1089.05
899.41	1085.07
899.72	1074.54
900.03	1071.26
900.34	1067.99
900.64	1056.52
900.95	1060.26
901.26	1074.77
901.56	1082.97
901.87	1088.82
902.18	1097.01
902.48	1096.54
902.79	1086.94
903.10	1084.37
903.40	1081.80
903.71	1071.50
904.02	1071.73
904.32	1078.28
904.63	1078.05
904.94	1073.84
905.24	1074.54
905.55	1077.35
905.85	1070.56
906.16	1058.86
906.47	1063.77
906.77	1075.01
907.08	1072.43
907.38	1083.20
907.69	1082.73
908.00	1080.63
908.30	1081.80
908.61	1087.88
908.91	1084.37
909.22	1090.22
909.52	1098.18
909.83	1089.75
910.14	1075.01
910.44	1075.48
910.75	1072.67
911.05	1066.35
911.36	1069.86
911.66	1086.01
911.97	1081.09
912.27	1094.90
912.58	1098.65
912.88	1101.92
913.19	1091.63
913.49	1101.46
913.80	1086.01
914.10	1081.33
914.41	1083.67
914.71	1092.33
915.01	1079.92
915.32	1078.75
915.62	1085.54
915.93	1072.20
916.23	1068.69
916.54	1074.07
916.84	1079.22
917.15	1078.99
917.45	1082.73
917.75	1087.18
918.06	1096.54
918.36	1092.80
918.67	1090.69
918.97	1089.29
919.27	1086.94
919.58	1076.18
919.88	1087.88
920.18	1079.92
920.49	1080.86
920.79	1075.24
921.10	1081.09
921.40	1073.84
921.70	1075.01
922.01	1075.48
922.31	1087.88
922.61	1088.35
922.92	1093.26
923.22	1104.73
923.52	1104.73
923.82	1093.73
924.13	1084.37
924.43	1086.71
924.73	1075.01
925.04	1076.65
925.34	1075.94
925.64	1084.37
925.94	1070.33
926.25	1077.82
926.55	1078.28
926.85	1087.65
927.15	1084.84
927.46	1100.99
927.76	1099.12
928.06	1093.50
928.36	1078.28
928.67	1085.07
928.97	1071.50
929.27	1067.52
929.57	1086.94
929.87	1094.90
930.18	1090.69
930.48	1090.92
930.78	1092.80
931.08	1089.29
931.38	1088.58
931.69	1083.43
931.99	1092.56
932.29	1097.24
932.59	1089.52
932.89	1089.05
933.19	1082.26
933.49	1075.01
933.80	1077.35
934.10	1075.24
934.40	1068.69
934.70	1082.26
935.00	1088.35
935.30	1081.09
935.60	1084.37
935.90	1084.60
936.20	1082.50
936.50	1076.88
936.81	1076.18
937.11	1070.80
937.41	1076.41
937.71	1074.54
938.01	1075.94
938.31	1075.94
938.61	1079.69
938.91	1081.56
939.21	1089.99
939.51	1091.86
939.81	1091.63
940.11	1083.67
940.41	1077.35
940.71	1067.99
941.01	1060.03
941.31	1064.94
941.61	1074.31
941.91	1078.99
942.21	1079.69
942.51	1090.92
942.81	1081.80
943.11	1071.50
943.41	1075.01
943.71	1074.54
944.01	1069.86
944.31	1074.07
944.61	1071.73
944.90	1080.39
945.20	1078.52
945.50	1083.20
945.80	1079.92
946.10	1088.82
946.40	1066.58
946.70	1063.54
947.00	1058.39
947.30	1056.52
947.60	1053.94
947.89	1060.50
948.19	1059.33
948.49	1058.39
948.79	1053.01
949.09	1060.96
949.39	1069.86
949.69	1083.67
949.98	1088.58
950.28	1103.09
950.58	1104.50
950.88	1099.58
951.18	1088.35
951.48	1082.03
951.77	1077.11
952.07	1060.03
952.37	1066.11
952.67	1065.65
952.97	1077.58
953.26	1078.75
953.56	1092.80
953.86	1076.88
954.16	1075.48
954.45	1056.05
954.75	1053.71
955.05	1046.22
955.35	1053.48
955.64	1061.67
955.94	1069.16
956.24	1072.90
956.54	1072.90
956.83	1070.56
957.13	1072.20
957.43	1070.09
957.72	1067.75
958.02	1068.22
958.32	1072.90
958.61	1071.97
958.91	1080.39
959.21	1082.97
959.50	1089.75
959.80	1074.77
960.10	1070.09
960.39	1066.82
960.69	1067.28
960.99	1062.84
961.28	1078.05
961.58	1066.11
961.87	1068.92
962.17	1061.43
962.47	1058.16
962.76	1063.77
963.06	1082.73
963.36	1080.86
963.65	1083.67
963.95	1086.24
964.24	1078.05
964.54	1079.22
964.83	1078.75
965.13	1084.60
965.42	1085.07
965.72	1093.97
966.02	1080.39
966.31	1082.50
966.61	1083.43
966.90	1081.56
967.20	1072.67
967.49	1073.14
967.79	1064.94
968.08	1062.60
968.38	1067.99
968.67	1082.97
968.97	1085.77
969.26	1085.31
969.56	1079.46
969.85	1074.31
970.15	1059.33
970.44	1056.75
970.74	1061.67
971.03	1067.52
971.32	1069.16
971.62	1074.54
971.91	1089.52
972.21	1083.90
972.50	1089.99
972.80	1087.18
973.09	1087.88
973.38	1078.28
973.68	1090.69
973.97	1085.31
974.27	1103.09
974.56	1091.86
974.85	1094.20
975.15	1100.75
975.44	1094.67
975.73	1083.67
976.03	1085.07
976.32	1091.16
976.61	1081.80
976.91	1084.14
977.20	1078.05
977.49	1086.48
977.79	1083.67
978.08	1072.67
978.37	1075.94
978.67	1083.20
978.96	1068.22
979.25	1074.54
979.55	1079.46
979.84	1086.48
980.13	1078.05
980.42	1084.84
980.72	1069.62
981.01	1072.90
981.30	1066.35
981.59	1066.11
981.89	1078.28
982.18	1087.65
982.47	1086.24
982.76	1089.52
983.06	1090.22
983.35	1082.73
983.64	1075.94
983.93	1080.63
984.22	1068.69
984.52	1081.80
984.81	1085.77
985.10	1089.75
985.39	1095.84
985.68	1102.63
985.97	1091.63
986.27	1087.88
986.56	1085.07
986.85	1074.31
987.14	1070.56
987.43	1068.22
987.72	1059.56
988.01	1057.69
988.31	1052.77
988.60	1053.24
988.89	1064.94
989.18	1077.35
989.47	1073.14
989.76	1076.65
990.05	1082.97
990.34	1077.35
990.63	1079.46
990.92	1085.77
991.21	1086.48
991.51	1090.22
991.80	1086.94
992.09	1075.48
992.38	1076.88
992.67	1081.56
992.96	1075.48
993.25	1078.28
993.54	1079.92
993.83	1077.82
994.12	1070.09
994.41	1077.82
994.70	1076.65
994.99	1085.07
995.28	1080.86
995.57	1094.90
995.86	1087.88
996.15	1095.84
996.44	1086.71
996.73	1095.84
997.02	1089.52
997.31	1085.07
997.59	1070.80
997.88	1070.33
998.17	1071.73
998.46	1070.56
998.75	1077.58
999.04	1084.84
999.33	1090.22
999.62	1097.24
999.91	1094.90
1000.20	1100.29
1000.49	1104.03
1000.77	1101.92
1001.06	1087.41
1001.35	1079.92
1001.64	1073.14
1001.93	1059.56
1002.22	1060.03
1002.51	1062.37
1002.79	1068.69
1003.08	1071.73
1003.37	1080.39
1003.66	1074.07
1003.95	1079.69
1004.23	1091.39
1004.52	1077.82
1004.81	1078.75
1005.10	1088.12
1005.39	1087.88
1005.67	1079.46
1005.96	1082.73
1006.25	1077.11
1006.54	1070.56
1006.83	1065.65
1007.11	1052.30
1007.40	1057.22
1007.69	1060.26
1007.97	1067.99
1008.26	1060.50
1008.55	1075.71
1008.84	1067.28
1009.12	1064.94
1009.41	1053.94
1009.70	1070.33
1009.98	1064.24
1010.27	1071.73
1010.56	1068.69
1010.85	1076.65
1011.13	1063.54
1011.42	1067.75
1011.71	1067.05
1011.99	1074.54
1012.28	1072.43
1012.56	1077.35
1012.85	1076.41
1013.14	1077.58
1013.42	1068.22
1013.71	1070.80
1014.00	1070.09
1014.28	1074.31
1014.57	1073.37
1014.85	1087.41
1015.14	1088.58
1015.43	1086.48
1015.71	1083.20
1016.00	1084.84
1016.28	1078.28
1016.57	1077.58
1016.85	1068.22
1017.14	1073.14
1017.43	1071.73
1017.71	1072.90
1018.00	1074.31
1018.28	1092.80
1018.57	1088.82
1018.85	1094.67
1019.14	1096.54
1019.42	1094.20
1019.71	1083.20
1019.99	1083.43
1020.28	1082.26
1020.56	1083.43
1020.85	1082.03
1021.13	1079.92
1021.42	1067.75
1021.70	1066.82
1021.99	1062.37
1022.27	1062.84
1022.55	1070.80
1022.84	1073.14
>>>>>End Processed Spectral Data<<<<<
