SpectraSuite Data File
++++++++++++++++++++++++++++++++++++
Date: Mon Aug 26 10:25:54 PDT 2019
User: corrico
Dark Spectrum Present: No
Reference Spectrum Present: No
Number of Sampled Component Spectra: 1
Spectrometers: USB2+H06089
Integration Time (usec): 10000 (USB2+H06089)
Spectra Averaged: 2 (USB2+H06089)
Boxcar Smoothing: 2 (USB2+H06089)
Correct for Electrical Dark: No (USB2+H06089)
Strobe/Lamp Enabled: No (USB2+H06089)
Correct for Detector Non-linearity: No (USB2+H06089)
Correct for Stray Light: No (USB2+H06089)
Number of Pixels in Processed Spectrum: 2048
>>>>>Begin Processed Spectral Data<<<<<
339.70	1061.43
340.07	1061.43
340.45	1011.35
340.82	973.90
341.19	946.51
341.57	907.89
341.94	899.23
342.31	895.96
342.69	910.23
343.06	908.60
343.43	917.96
343.81	919.36
344.18	929.19
344.55	928.26
344.93	928.72
345.30	929.66
345.67	928.49
346.04	932.24
346.42	939.26
346.79	942.77
347.16	958.92
347.54	970.15
347.91	981.62
348.28	983.49
348.65	991.22
349.03	999.88
349.40	999.64
349.77	1002.22
350.14	1014.62
350.52	1027.73
350.89	1023.52
351.26	1039.90
351.63	1050.90
352.01	1056.99
352.38	1068.22
352.75	1082.26
353.12	1085.54
353.50	1082.73
353.87	1079.69
354.24	1077.35
354.61	1075.01
354.98	1072.67
355.36	1073.14
355.73	1078.05
356.10	1073.37
356.47	1070.56
356.84	1066.11
357.22	1069.39
357.59	1065.18
357.96	1065.41
358.33	1070.56
358.70	1082.26
359.08	1084.37
359.45	1090.69
359.82	1091.16
360.19	1082.26
360.56	1068.92
360.94	1069.62
361.31	1070.80
361.68	1071.03
362.05	1074.07
362.42	1082.26
362.79	1081.80
363.16	1079.92
363.54	1084.60
363.91	1089.52
364.28	1092.80
364.65	1086.01
365.02	1076.88
365.39	1075.71
365.76	1069.39
366.14	1060.73
366.51	1067.99
366.88	1070.33
367.25	1066.35
367.62	1064.24
367.99	1073.14
368.36	1059.56
368.73	1073.37
369.10	1061.43
369.48	1072.43
369.85	1069.39
370.22	1082.26
370.59	1073.60
370.96	1101.69
371.33	1091.39
371.70	1082.97
372.07	1076.18
372.44	1070.09
372.81	1055.35
373.18	1060.73
373.55	1067.75
373.93	1067.28
374.30	1067.52
374.67	1069.16
375.04	1071.26
375.41	1073.60
375.78	1069.16
376.15	1067.05
376.52	1062.14
376.89	1057.45
377.26	1052.07
377.63	1060.73
378.00	1055.35
378.37	1049.96
378.74	1054.41
379.11	1056.05
379.48	1052.30
379.85	1059.79
380.22	1063.31
380.59	1063.77
380.96	1060.50
381.33	1066.35
381.70	1074.07
382.07	1075.01
382.44	1076.88
382.81	1089.29
383.18	1086.48
383.55	1087.65
383.92	1094.43
384.29	1090.22
384.66	1084.37
385.03	1097.01
385.40	1092.09
385.77	1092.33
386.14	1090.92
386.51	1093.73
386.88	1087.88
387.25	1088.35
387.62	1089.75
387.99	1091.63
388.36	1089.52
388.73	1088.12
389.10	1087.41
389.46	1082.03
389.83	1087.65
390.20	1076.18
390.57	1079.22
390.94	1080.16
391.31	1088.12
391.68	1083.43
392.05	1090.69
392.42	1086.24
392.79	1082.73
393.16	1075.01
393.53	1078.28
393.89	1078.99
394.26	1067.99
394.63	1067.75
395.00	1064.71
395.37	1056.75
395.74	1066.58
396.11	1078.99
396.48	1087.41
396.84	1089.99
397.21	1101.22
397.58	1094.20
397.95	1089.75
398.32	1081.09
398.69	1088.12
399.06	1083.67
399.42	1086.48
399.79	1083.90
400.16	1080.39
400.53	1080.63
400.90	1080.86
401.27	1074.07
401.64	1075.94
402.00	1087.18
402.37	1088.12
402.74	1084.14
403.11	1095.84
403.48	1096.54
403.84	1083.90
404.21	1079.22
404.58	1076.88
404.95	1064.71
405.32	1062.84
405.68	1077.11
406.05	1074.31
406.42	1082.97
406.79	1069.86
407.16	1067.05
407.52	1064.48
407.89	1061.20
408.26	1051.13
408.63	1065.18
408.99	1067.75
409.36	1065.65
409.73	1068.45
410.10	1078.52
410.47	1090.69
410.83	1089.05
411.20	1093.73
411.57	1101.92
411.94	1092.80
412.30	1090.22
412.67	1090.92
413.04	1080.39
413.40	1076.88
413.77	1087.18
414.14	1082.50
414.51	1078.28
414.87	1084.37
415.24	1081.09
415.61	1076.88
415.97	1082.03
416.34	1088.58
416.71	1091.63
417.08	1098.41
417.44	1093.50
417.81	1092.56
418.18	1097.01
418.54	1095.60
418.91	1092.56
419.28	1089.99
419.64	1090.69
420.01	1076.65
420.38	1075.71
420.74	1077.58
421.11	1080.16
421.48	1071.97
421.84	1074.77
422.21	1080.16
422.58	1079.69
422.94	1079.92
423.31	1087.18
423.68	1089.29
424.04	1078.75
424.41	1073.60
424.77	1078.28
425.14	1063.77
425.51	1062.14
425.87	1066.82
426.24	1066.11
426.61	1066.82
426.97	1077.82
427.34	1091.86
427.70	1092.33
428.07	1090.69
428.44	1087.18
428.80	1097.48
429.17	1099.82
429.53	1097.71
429.90	1104.50
430.27	1107.78
430.63	1095.84
431.00	1089.75
431.36	1089.29
431.73	1079.22
432.09	1079.22
432.46	1074.77
432.83	1072.20
433.19	1076.88
433.56	1082.50
433.92	1075.94
434.29	1090.22
434.65	1091.39
435.02	1084.84
435.38	1089.05
435.75	1086.01
436.11	1077.35
436.48	1080.39
436.84	1091.16
437.21	1087.88
437.57	1089.75
437.94	1088.58
438.30	1081.09
438.67	1071.26
439.03	1077.58
439.40	1082.73
439.76	1084.60
440.13	1091.16
440.49	1086.71
440.86	1084.60
441.22	1086.94
441.59	1088.58
441.95	1074.54
442.32	1083.43
442.68	1067.05
443.05	1060.50
443.41	1061.67
443.78	1066.82
444.14	1056.28
444.51	1062.84
444.87	1071.97
445.24	1071.50
445.60	1085.07
445.96	1096.07
446.33	1102.39
446.69	1101.46
447.06	1101.69
447.42	1095.84
447.79	1091.86
448.15	1090.69
448.51	1086.94
448.88	1080.16
449.24	1076.65
449.61	1080.39
449.97	1076.65
450.33	1079.46
450.70	1079.92
451.06	1080.63
451.43	1070.33
451.79	1073.37
452.15	1073.84
452.52	1065.41
452.88	1059.56
453.24	1066.82
453.61	1069.62
453.97	1056.05
454.34	1065.65
454.70	1073.14
455.06	1067.28
455.43	1059.33
455.79	1071.73
456.15	1070.33
456.52	1067.05
456.88	1070.33
457.24	1075.94
457.61	1071.73
457.97	1077.11
458.33	1082.97
458.70	1087.88
459.06	1081.80
459.42	1081.80
459.79	1076.65
460.15	1071.03
460.51	1064.71
460.88	1078.05
461.24	1080.63
461.60	1076.18
461.96	1075.48
462.33	1080.63
462.69	1076.65
463.05	1078.28
463.42	1087.18
463.78	1092.33
464.14	1091.39
464.50	1093.50
464.87	1083.67
465.23	1083.67
465.59	1078.52
465.95	1073.37
466.32	1067.05
466.68	1067.52
467.04	1061.43
467.40	1059.56
467.77	1062.37
468.13	1073.84
468.49	1086.01
468.85	1091.63
469.22	1096.54
469.58	1094.90
469.94	1091.39
470.30	1081.33
470.66	1078.05
471.03	1076.88
471.39	1072.20
471.75	1064.71
472.11	1067.75
472.47	1074.77
472.84	1077.82
473.20	1094.20
473.56	1095.60
473.92	1094.43
474.28	1086.48
474.65	1077.58
475.01	1083.20
475.37	1080.39
475.73	1090.22
476.09	1094.90
476.45	1102.16
476.81	1082.50
477.18	1090.46
477.54	1080.39
477.90	1087.18
478.26	1085.07
478.62	1082.26
478.98	1070.80
479.34	1079.46
479.71	1072.67
480.07	1069.39
480.43	1074.31
480.79	1081.09
481.15	1077.35
481.51	1069.16
481.87	1074.31
482.23	1079.46
482.59	1080.86
482.96	1080.63
483.32	1086.01
483.68	1087.65
484.04	1079.92
484.40	1071.26
484.76	1075.01
485.12	1075.24
485.48	1065.18
485.84	1060.96
486.20	1069.39
486.56	1064.71
486.92	1060.50
487.28	1063.07
487.64	1067.28
488.00	1060.03
488.37	1062.84
488.73	1075.48
489.09	1078.05
489.45	1095.14
489.81	1104.73
490.17	1097.24
490.53	1083.20
490.89	1083.20
491.25	1073.37
491.61	1069.86
491.97	1070.33
492.33	1075.94
492.69	1082.50
493.05	1081.56
493.41	1081.09
493.77	1082.97
494.13	1079.22
494.49	1064.24
494.85	1066.11
495.21	1069.16
495.57	1072.20
495.93	1078.28
496.29	1087.65
496.64	1090.92
497.00	1082.73
497.36	1081.80
497.72	1082.03
498.08	1072.67
498.44	1075.24
498.80	1083.90
499.16	1083.90
499.52	1080.16
499.88	1095.14
500.24	1092.56
500.60	1087.88
500.96	1090.46
501.32	1089.05
501.68	1078.28
502.03	1072.43
502.39	1075.94
502.75	1067.28
503.11	1077.11
503.47	1087.65
503.83	1086.48
504.19	1082.03
504.55	1090.69
504.91	1074.07
505.26	1068.22
505.62	1064.24
505.98	1060.50
506.34	1066.82
506.70	1080.39
507.06	1078.05
507.42	1093.73
507.78	1102.39
508.13	1089.75
508.49	1090.69
508.85	1094.90
509.21	1090.92
509.57	1087.18
509.93	1091.63
510.28	1088.58
510.64	1105.20
511.00	1104.26
511.36	1109.65
511.72	1116.90
512.07	1113.39
512.43	1096.07
512.79	1094.20
513.15	1095.60
513.51	1092.09
513.86	1095.84
514.22	1098.41
514.58	1096.54
514.94	1103.56
515.30	1098.18
515.65	1102.16
516.01	1107.07
516.37	1113.16
516.73	1105.20
517.08	1112.22
517.44	1108.71
517.80	1096.07
518.16	1088.12
518.51	1082.26
518.87	1078.05
519.23	1079.69
519.59	1096.78
519.94	1111.05
520.30	1112.69
520.66	1118.78
521.01	1109.65
521.37	1098.41
521.73	1079.22
522.09	1082.73
522.44	1083.67
522.80	1090.46
523.16	1089.05
523.51	1096.31
523.87	1089.29
524.23	1088.58
524.58	1087.65
524.94	1091.16
525.30	1097.48
525.65	1106.61
526.01	1098.65
526.37	1098.18
526.72	1098.65
527.08	1098.41
527.44	1098.65
527.79	1103.09
528.15	1102.39
528.51	1102.63
528.86	1090.92
529.22	1088.58
529.58	1083.90
529.93	1085.31
530.29	1079.92
530.65	1095.60
531.00	1096.31
531.36	1104.26
531.71	1103.80
532.07	1110.58
532.43	1093.73
532.78	1087.65
533.14	1078.28
533.49	1076.18
533.85	1080.39
534.21	1086.24
534.56	1086.48
534.92	1085.77
535.27	1088.35
535.63	1081.09
535.98	1082.73
536.34	1082.03
536.69	1079.22
537.05	1076.65
537.41	1074.07
537.76	1085.31
538.12	1090.46
538.47	1104.97
538.83	1103.09
539.18	1108.71
539.54	1098.88
539.89	1105.90
540.25	1099.12
540.60	1110.35
540.96	1110.12
541.31	1104.26
541.67	1103.09
542.02	1106.14
542.38	1087.41
542.73	1085.77
543.09	1098.88
543.44	1101.46
543.80	1093.50
544.15	1108.24
544.51	1112.46
544.86	1106.14
545.22	1099.35
545.57	1100.05
545.93	1092.33
546.28	1089.99
546.64	1086.94
546.99	1083.20
547.35	1091.39
547.70	1093.73
548.05	1086.71
548.41	1095.14
548.76	1100.52
549.12	1101.22
549.47	1106.61
549.83	1112.22
550.18	1102.63
550.53	1104.26
550.89	1094.67
551.24	1089.99
551.60	1086.48
551.95	1086.71
552.30	1087.18
552.66	1086.71
553.01	1091.86
553.37	1096.07
553.72	1096.54
554.07	1084.60
554.43	1090.22
554.78	1079.46
555.13	1078.28
555.49	1078.05
555.84	1085.31
556.19	1078.52
556.55	1078.75
556.90	1065.18
557.26	1064.24
557.61	1067.28
557.96	1071.97
558.32	1076.41
558.67	1086.01
559.02	1083.20
559.37	1077.35
559.73	1075.71
560.08	1075.24
560.43	1075.24
560.79	1074.54
561.14	1076.18
561.49	1075.94
561.85	1080.86
562.20	1077.82
562.55	1081.33
562.90	1088.35
563.26	1092.56
563.61	1099.58
563.96	1102.39
564.32	1097.95
564.67	1090.22
565.02	1088.35
565.37	1078.52
565.73	1083.90
566.08	1093.97
566.43	1100.05
566.78	1098.88
567.14	1101.46
567.49	1100.05
567.84	1093.26
568.19	1086.48
568.54	1084.14
568.90	1072.43
569.25	1066.11
569.60	1064.01
569.95	1066.82
570.31	1072.20
570.66	1078.28
571.01	1081.56
571.36	1088.35
571.71	1078.28
572.06	1072.90
572.42	1077.11
572.77	1086.24
573.12	1093.73
573.47	1099.58
573.82	1101.22
574.18	1101.22
574.53	1099.58
574.88	1095.84
575.23	1101.69
575.58	1098.65
575.93	1098.88
576.28	1092.56
576.64	1089.52
576.99	1091.39
577.34	1103.09
577.69	1102.86
578.04	1109.18
578.39	1106.14
578.74	1097.24
579.09	1088.35
579.44	1086.48
579.80	1075.71
580.15	1073.14
580.50	1064.94
580.85	1071.03
581.20	1070.56
581.55	1065.88
581.90	1072.90
582.25	1088.35
582.60	1083.20
582.95	1089.52
583.30	1104.73
583.65	1102.16
584.00	1089.75
584.35	1082.73
584.71	1071.50
585.06	1074.07
585.41	1069.39
585.76	1079.46
586.11	1081.80
586.46	1084.14
586.81	1075.94
587.16	1069.39
587.51	1073.60
587.86	1076.41
588.21	1077.58
588.56	1077.11
588.91	1089.75
589.26	1077.82
589.61	1081.56
589.96	1085.77
590.31	1094.20
590.66	1085.07
591.01	1084.84
591.36	1080.63
591.71	1079.69
592.06	1066.82
592.41	1069.86
592.76	1075.94
593.10	1080.39
593.45	1079.22
593.80	1077.11
594.15	1073.14
594.50	1071.50
594.85	1075.71
595.20	1074.77
595.55	1089.52
595.90	1100.05
596.25	1103.80
596.60	1098.41
596.95	1105.20
597.30	1105.90
597.64	1142.88
597.99	1151.31
598.34	1153.65
598.69	1150.84
599.04	1148.03
599.39	1106.61
599.74	1099.35
600.09	1091.63
600.44	1090.92
600.78	1076.88
601.13	1077.11
601.48	1078.28
601.83	1085.54
602.18	1086.48
602.53	1098.41
602.88	1101.92
603.22	1090.92
603.57	1087.18
603.92	1078.52
604.27	1075.71
604.62	1064.01
604.97	1075.71
605.31	1074.07
605.66	1080.86
606.01	1074.07
606.36	1083.67
606.71	1078.99
607.05	1082.26
607.40	1082.73
607.75	1083.43
608.10	1084.14
608.44	1082.50
608.79	1078.28
609.14	1077.58
609.49	1082.97
609.84	1075.01
610.18	1079.46
610.53	1080.39
610.88	1080.16
611.23	1076.18
611.57	1081.09
611.92	1078.05
612.27	1084.37
612.62	1089.75
612.96	1094.20
613.31	1086.48
613.66	1081.80
614.00	1076.88
614.35	1069.62
614.70	1067.99
615.05	1072.20
615.39	1070.56
615.74	1069.16
616.09	1058.39
616.43	1064.71
616.78	1064.24
617.13	1073.14
617.47	1073.84
617.82	1085.07
618.17	1073.60
618.51	1075.94
618.86	1069.16
619.21	1064.48
619.55	1067.75
619.90	1074.31
620.25	1066.82
620.59	1070.33
620.94	1078.05
621.29	1070.56
621.63	1081.80
621.98	1093.26
622.32	1097.01
622.67	1100.05
623.02	1113.16
623.36	1100.75
623.71	1101.92
624.05	1100.75
624.40	1097.71
624.75	1089.75
625.09	1085.77
625.44	1090.22
625.78	1083.43
626.13	1078.28
626.48	1079.69
626.82	1082.50
627.17	1079.46
627.51	1077.11
627.86	1073.14
628.20	1064.24
628.55	1065.41
628.89	1061.20
629.24	1068.22
629.58	1082.26
629.93	1089.99
630.28	1092.56
630.62	1093.73
630.97	1095.37
631.31	1083.20
631.66	1076.41
632.00	1076.88
632.35	1073.84
632.69	1067.75
633.04	1074.54
633.38	1075.71
633.73	1064.48
634.07	1067.05
634.42	1064.94
634.76	1066.82
635.11	1071.03
635.45	1074.77
635.79	1071.73
636.14	1074.31
636.48	1082.03
636.83	1078.05
637.17	1090.69
637.52	1095.14
637.86	1097.71
638.21	1089.52
638.55	1093.97
638.89	1082.73
639.24	1081.56
639.58	1078.28
639.93	1078.52
640.27	1082.73
640.61	1083.20
640.96	1086.94
641.30	1090.22
641.65	1093.50
641.99	1088.82
642.33	1092.33
642.68	1075.24
643.02	1070.80
643.37	1060.03
643.71	1064.71
644.05	1061.90
644.40	1072.43
644.74	1075.94
645.08	1072.20
645.43	1071.50
645.77	1070.09
646.11	1071.73
646.46	1077.58
646.80	1093.26
647.14	1091.39
647.49	1093.73
647.83	1097.71
648.17	1094.43
648.52	1086.94
648.86	1078.99
649.20	1072.43
649.55	1067.05
649.89	1058.86
650.23	1058.86
650.57	1064.48
650.92	1071.97
651.26	1081.09
651.60	1084.84
651.95	1081.80
652.29	1088.35
652.63	1089.52
652.97	1090.69
653.32	1094.43
653.66	1098.18
654.00	1090.92
654.34	1086.94
654.69	1079.22
655.03	1081.09
655.37	1081.33
655.71	1079.69
656.05	1076.88
656.40	1075.94
656.74	1064.48
657.08	1058.62
657.42	1060.03
657.76	1061.20
658.11	1054.18
658.45	1068.92
658.79	1075.24
659.13	1086.48
659.47	1097.24
659.82	1098.88
660.16	1083.20
660.50	1082.26
660.84	1074.77
661.18	1071.73
661.52	1074.31
661.87	1075.48
662.21	1074.31
662.55	1068.22
662.89	1067.28
663.23	1071.73
663.57	1088.12
663.91	1094.67
664.25	1098.88
664.60	1089.99
664.94	1094.90
665.28	1086.48
665.62	1078.75
665.96	1076.18
666.30	1079.69
666.64	1066.58
666.98	1072.20
667.32	1069.86
667.66	1079.46
668.01	1082.50
668.35	1086.01
668.69	1080.39
669.03	1083.43
669.37	1082.97
669.71	1093.03
670.05	1100.75
670.39	1095.84
670.73	1094.90
671.07	1088.35
671.41	1080.63
671.75	1075.71
672.09	1086.94
672.43	1095.37
672.77	1086.01
673.11	1079.92
673.45	1075.71
673.79	1067.99
674.13	1070.33
674.47	1077.82
674.81	1080.39
675.15	1081.33
675.49	1082.97
675.83	1084.84
676.17	1091.86
676.51	1094.43
676.85	1098.65
677.19	1097.24
677.53	1093.03
677.87	1086.01
678.21	1084.84
678.55	1089.05
678.89	1089.29
679.23	1078.28
679.57	1086.71
679.90	1083.90
680.24	1080.63
680.58	1084.37
680.92	1093.97
681.26	1092.80
681.60	1101.92
681.94	1096.07
682.28	1097.95
682.62	1093.26
682.96	1093.97
683.29	1090.46
683.63	1097.24
683.97	1098.65
684.31	1094.67
684.65	1084.37
684.99	1082.97
685.33	1077.58
685.67	1069.39
686.00	1071.73
686.34	1067.05
686.68	1061.43
687.02	1071.03
687.36	1071.73
687.70	1073.84
688.03	1092.33
688.37	1100.99
688.71	1093.73
689.05	1095.37
689.39	1097.71
689.72	1087.88
690.06	1084.60
690.40	1087.41
690.74	1092.33
691.08	1089.05
691.41	1085.07
691.75	1095.14
692.09	1089.99
692.43	1086.24
692.76	1085.54
693.10	1093.26
693.44	1081.56
693.78	1086.01
694.11	1086.01
694.45	1092.56
694.79	1085.77
695.13	1088.35
695.46	1089.05
695.80	1082.50
696.14	1079.92
696.48	1084.14
696.81	1082.50
697.15	1081.33
697.49	1077.82
697.82	1079.46
698.16	1061.67
698.50	1060.26
698.83	1060.03
699.17	1061.90
699.51	1057.92
699.84	1079.92
700.18	1080.63
700.52	1080.39
700.85	1093.26
701.19	1085.54
701.53	1083.90
701.86	1081.33
702.20	1085.54
702.54	1086.01
702.87	1091.39
703.21	1087.88
703.55	1094.20
703.88	1089.05
704.22	1085.77
704.55	1092.80
704.89	1102.39
705.23	1098.88
705.56	1100.29
705.90	1091.39
706.23	1084.60
706.57	1073.60
706.91	1079.69
707.24	1075.94
707.58	1088.82
707.91	1090.69
708.25	1090.46
708.58	1083.90
708.92	1089.05
709.26	1080.86
709.59	1076.88
709.93	1077.58
710.26	1075.71
710.60	1077.35
710.93	1074.54
711.27	1082.73
711.60	1084.37
711.94	1087.65
712.27	1076.41
712.61	1079.92
712.94	1074.77
713.28	1084.84
713.61	1085.77
713.95	1097.24
714.28	1099.58
714.62	1098.65
714.95	1089.52
715.29	1083.43
715.62	1076.88
715.96	1082.26
716.29	1084.60
716.63	1087.65
716.96	1099.35
717.29	1098.18
717.63	1093.03
717.96	1094.90
718.30	1091.86
718.63	1088.82
718.97	1097.01
719.30	1102.39
719.63	1097.95
719.97	1101.22
720.30	1092.56
720.64	1093.50
720.97	1082.26
721.30	1082.73
721.64	1076.18
721.97	1070.33
722.31	1056.75
722.64	1067.52
722.97	1071.03
723.31	1059.56
723.64	1063.77
723.97	1069.62
724.31	1057.22
724.64	1054.88
724.98	1061.90
725.31	1070.80
725.64	1076.88
725.98	1079.46
726.31	1085.54
726.64	1090.92
726.97	1091.16
727.31	1086.71
727.64	1084.37
727.97	1082.03
728.31	1075.48
728.64	1075.94
728.97	1078.28
729.31	1081.33
729.64	1073.37
729.97	1077.58
730.30	1077.35
730.64	1074.54
730.97	1077.35
731.30	1088.58
731.63	1092.80
731.97	1093.03
732.30	1093.03
732.63	1095.60
732.96	1085.54
733.30	1086.71
733.63	1079.22
733.96	1076.65
734.29	1071.73
734.63	1083.20
734.96	1079.22
735.29	1086.24
735.62	1092.33
735.95	1088.82
736.29	1075.94
736.62	1076.41
736.95	1063.54
737.28	1057.45
737.61	1064.48
737.94	1064.94
738.28	1067.28
738.61	1077.82
738.94	1081.80
739.27	1085.07
739.60	1091.39
739.93	1089.52
740.27	1084.37
740.60	1084.84
740.93	1082.97
741.26	1078.05
741.59	1069.39
741.92	1079.69
742.25	1084.84
742.58	1082.26
742.91	1091.16
743.25	1093.03
743.58	1093.97
743.91	1086.24
744.24	1080.63
744.57	1076.65
744.90	1077.35
745.23	1069.86
745.56	1065.18
745.89	1064.71
746.22	1060.50
746.55	1052.54
746.88	1055.58
747.21	1066.11
747.54	1071.03
747.87	1073.37
748.20	1094.67
748.53	1096.54
748.87	1092.09
749.20	1088.82
749.53	1086.24
749.86	1078.75
750.19	1077.11
750.52	1077.11
750.85	1082.03
751.18	1079.46
751.51	1077.58
751.84	1078.75
752.16	1074.77
752.49	1077.58
752.82	1081.33
753.15	1086.94
753.48	1081.09
753.81	1082.97
754.14	1084.37
754.47	1086.24
754.80	1071.50
755.13	1075.94
755.46	1072.90
755.79	1072.20
756.12	1074.07
756.45	1089.29
756.78	1084.84
757.11	1084.84
757.43	1081.33
757.76	1078.75
758.09	1083.67
758.42	1091.63
758.75	1100.05
759.08	1095.84
759.41	1096.07
759.74	1082.73
760.07	1073.37
760.39	1070.33
760.72	1070.09
761.05	1064.01
761.38	1071.03
761.71	1077.35
762.04	1077.58
762.36	1075.94
762.69	1087.18
763.02	1090.92
763.35	1087.18
763.68	1084.37
764.01	1089.99
764.33	1086.94
764.66	1076.41
764.99	1075.01
765.32	1079.46
765.65	1089.05
765.97	1094.43
766.30	1097.95
766.63	1101.69
766.96	1099.82
767.28	1089.05
767.61	1082.26
767.94	1080.86
768.27	1079.46
768.59	1088.58
768.92	1097.95
769.25	1091.16
769.58	1085.54
769.90	1084.14
770.23	1074.07
770.56	1059.09
770.89	1065.65
771.21	1071.03
771.54	1066.58
771.87	1070.33
772.19	1078.28
772.52	1071.97
772.85	1085.54
773.17	1090.92
773.50	1082.73
773.83	1078.28
774.15	1093.03
774.48	1076.88
774.81	1074.77
775.13	1085.54
775.46	1089.99
775.79	1077.58
776.11	1078.99
776.44	1078.52
776.77	1077.11
777.09	1079.46
777.42	1084.14
777.74	1089.29
778.07	1095.60
778.40	1099.58
778.72	1092.56
779.05	1086.94
779.37	1082.26
779.70	1074.31
780.03	1064.01
780.35	1067.28
780.68	1075.71
781.00	1088.35
781.33	1093.26
781.65	1100.05
781.98	1104.97
782.31	1099.12
782.63	1091.86
782.96	1091.63
783.28	1091.86
783.61	1084.84
783.93	1086.01
784.26	1086.94
784.58	1080.86
784.91	1072.43
785.23	1068.69
785.56	1068.22
785.88	1062.60
786.21	1071.97
786.53	1081.80
786.86	1073.60
787.18	1084.14
787.51	1085.77
787.83	1082.26
788.16	1074.54
788.48	1098.18
788.81	1083.43
789.13	1086.24
789.46	1078.28
789.78	1071.97
790.10	1054.41
790.43	1056.52
790.75	1062.14
791.08	1069.16
791.40	1075.71
791.73	1090.46
792.05	1090.69
792.37	1077.35
792.70	1071.50
793.02	1075.71
793.35	1065.65
793.67	1068.45
793.99	1076.41
794.32	1090.46
794.64	1081.56
794.96	1084.60
795.29	1087.65
795.61	1086.94
795.93	1076.41
796.26	1089.29
796.58	1089.75
796.91	1087.41
797.23	1082.73
797.55	1082.03
797.87	1076.65
798.20	1071.03
798.52	1065.65
798.84	1064.01
799.17	1071.26
799.49	1066.11
799.81	1071.26
800.14	1079.46
800.46	1091.63
800.78	1086.48
801.10	1089.52
801.43	1089.05
801.75	1087.88
802.07	1082.73
802.40	1082.73
802.72	1082.50
803.04	1088.35
803.36	1088.58
803.69	1082.97
804.01	1086.48
804.33	1089.05
804.65	1082.73
804.97	1082.03
805.30	1090.22
805.62	1098.41
805.94	1105.90
806.26	1106.84
806.58	1110.82
806.91	1111.29
807.23	1102.16
807.55	1102.16
807.87	1113.16
808.19	1099.82
808.52	1089.99
808.84	1091.63
809.16	1085.31
809.48	1070.80
809.80	1078.75
810.12	1080.86
810.44	1078.05
810.77	1069.39
811.09	1072.20
811.41	1074.54
811.73	1072.43
812.05	1068.22
812.37	1067.28
812.69	1064.48
813.01	1053.48
813.33	1056.52
813.66	1058.39
813.98	1064.48
814.30	1069.86
814.62	1072.67
814.94	1072.90
815.26	1071.03
815.58	1069.39
815.90	1062.14
816.22	1060.03
816.54	1057.22
816.86	1064.24
817.18	1062.14
817.50	1067.05
817.82	1075.48
818.14	1073.60
818.46	1069.16
818.78	1069.39
819.10	1072.90
819.42	1077.35
819.74	1078.75
820.06	1083.67
820.38	1083.67
820.70	1075.01
821.02	1076.41
821.34	1082.97
821.66	1088.82
821.98	1090.92
822.30	1092.33
822.62	1086.01
822.94	1084.84
823.26	1070.33
823.58	1066.82
823.90	1071.03
824.22	1065.88
824.54	1068.45
824.86	1072.90
825.18	1079.22
825.50	1079.46
825.81	1084.84
826.13	1085.31
826.45	1085.54
826.77	1087.18
827.09	1085.54
827.41	1087.88
827.73	1082.50
828.05	1088.35
828.36	1088.12
828.68	1084.37
829.00	1083.20
829.32	1084.37
829.64	1067.05
829.96	1064.24
830.28	1063.77
830.59	1063.54
830.91	1058.86
831.23	1069.62
831.55	1076.18
831.87	1086.71
832.19	1082.26
832.50	1093.03
832.82	1097.95
833.14	1092.80
833.46	1086.71
833.78	1089.05
834.09	1086.94
834.41	1086.71
834.73	1074.31
835.05	1069.86
835.36	1061.67
835.68	1057.92
836.00	1054.18
836.32	1063.07
836.63	1066.82
836.95	1080.86
837.27	1078.75
837.59	1083.20
837.90	1079.46
838.22	1075.94
838.54	1058.39
838.85	1066.35
839.17	1056.75
839.49	1059.56
839.80	1072.67
840.12	1078.99
840.44	1071.50
840.76	1080.39
841.07	1089.05
841.39	1079.92
841.71	1079.69
842.02	1084.60
842.34	1084.14
842.65	1071.26
842.97	1077.58
843.29	1079.46
843.60	1069.86
843.92	1064.24
844.24	1073.14
844.55	1070.33
844.87	1077.58
845.18	1086.94
845.50	1084.60
845.82	1083.67
846.13	1079.69
846.45	1075.71
846.76	1069.86
847.08	1077.11
847.40	1072.90
847.71	1084.14
848.03	1085.54
848.34	1081.09
848.66	1081.09
848.97	1087.41
849.29	1079.46
849.60	1075.24
849.92	1082.97
850.24	1077.11
850.55	1077.82
850.87	1082.26
851.18	1082.03
851.50	1087.41
851.81	1091.86
852.13	1088.58
852.44	1089.75
852.76	1101.92
853.07	1098.18
853.39	1094.90
853.70	1096.54
854.01	1092.33
854.33	1088.12
854.64	1085.31
854.96	1086.71
855.27	1077.58
855.59	1071.73
855.90	1065.65
856.22	1068.45
856.53	1071.50
856.84	1074.31
857.16	1081.80
857.47	1077.58
857.79	1070.09
858.10	1068.69
858.41	1072.43
858.73	1074.07
859.04	1085.54
859.36	1095.37
859.67	1098.65
859.98	1095.84
860.30	1093.03
860.61	1086.71
860.92	1086.94
861.24	1089.75
861.55	1091.86
861.87	1088.58
862.18	1100.75
862.49	1105.20
862.81	1101.92
863.12	1107.07
863.43	1106.14
863.74	1091.63
864.06	1083.67
864.37	1080.63
864.68	1076.41
865.00	1077.58
865.31	1084.84
865.62	1080.63
865.94	1081.09
866.25	1081.33
866.56	1086.94
866.87	1087.18
867.19	1092.09
867.50	1098.88
867.81	1096.54
868.12	1097.95
868.44	1094.67
868.75	1098.41
869.06	1091.63
869.37	1089.75
869.68	1082.97
870.00	1088.12
870.31	1088.12
870.62	1086.01
870.93	1088.58
871.24	1081.56
871.56	1084.84
871.87	1080.16
872.18	1083.90
872.49	1094.67
872.80	1102.63
873.12	1095.14
873.43	1090.92
873.74	1087.18
874.05	1078.28
874.36	1079.46
874.67	1085.54
874.98	1086.94
875.29	1096.07
875.61	1094.43
875.92	1083.67
876.23	1063.54
876.54	1071.97
876.85	1060.96
877.16	1076.41
877.47	1082.73
877.78	1097.71
878.09	1100.52
878.40	1104.73
878.72	1086.01
879.03	1094.43
879.34	1098.88
879.65	1080.86
879.96	1079.22
880.27	1090.69
880.58	1074.54
880.89	1064.01
881.20	1073.14
881.51	1073.84
881.82	1073.14
882.13	1084.60
882.44	1090.69
882.75	1095.37
883.06	1093.97
883.37	1085.31
883.68	1080.39
883.99	1072.90
884.30	1073.37
884.61	1076.18
884.92	1079.22
885.23	1083.20
885.54	1086.24
885.85	1068.92
886.16	1071.97
886.47	1068.45
886.78	1067.75
887.08	1075.24
887.39	1086.71
887.70	1082.73
888.01	1090.69
888.32	1086.01
888.63	1081.33
888.94	1077.82
889.25	1072.90
889.56	1061.43
889.87	1063.54
890.17	1062.60
890.48	1069.39
890.79	1066.35
891.10	1070.33
891.41	1077.11
891.72	1068.92
892.03	1075.48
892.34	1074.07
892.64	1075.71
892.95	1072.20
893.26	1074.77
893.57	1067.52
893.88	1077.82
894.18	1082.03
894.49	1078.52
894.80	1082.50
895.11	1080.86
895.42	1088.82
895.72	1093.73
896.03	1094.43
896.34	1097.95
896.65	1097.48
896.96	1090.69
897.26	1082.26
897.57	1094.20
897.88	1095.14
898.19	1093.73
898.49	1097.01
898.80	1100.05
899.11	1093.50
899.41	1080.16
899.72	1080.86
900.03	1075.01
900.34	1067.52
900.64	1060.50
900.95	1069.16
901.26	1074.07
901.56	1067.52
901.87	1074.07
902.18	1078.99
902.48	1067.52
902.79	1065.65
903.10	1074.54
903.40	1066.58
903.71	1064.01
904.02	1066.82
904.32	1059.56
904.63	1066.35
904.94	1075.24
905.24	1080.63
905.55	1088.12
905.85	1101.46
906.16	1101.22
906.47	1099.58
906.77	1093.03
907.08	1094.43
907.38	1084.84
907.69	1073.60
908.00	1077.58
908.30	1084.14
908.61	1081.56
908.91	1085.07
909.22	1090.92
909.52	1079.92
909.83	1080.63
910.14	1082.50
910.44	1085.31
910.75	1087.88
911.05	1097.24
911.36	1097.95
911.66	1104.26
911.97	1099.82
912.27	1093.50
912.58	1096.54
912.88	1089.52
913.19	1082.26
913.49	1076.88
913.80	1080.63
914.10	1076.65
914.41	1075.24
914.71	1077.35
915.01	1078.75
915.32	1075.24
915.62	1070.33
915.93	1067.99
916.23	1061.90
916.54	1071.50
916.84	1079.46
917.15	1082.97
917.45	1082.26
917.75	1086.24
918.06	1086.24
918.36	1079.69
918.67	1077.11
918.97	1084.14
919.27	1083.90
919.58	1074.77
919.88	1078.28
920.18	1081.33
920.49	1084.84
920.79	1087.65
921.10	1094.67
921.40	1087.65
921.70	1087.65
922.01	1074.77
922.31	1079.92
922.61	1073.84
922.92	1077.35
923.22	1079.22
923.52	1095.60
923.82	1091.16
924.13	1100.52
924.43	1097.95
924.73	1095.60
925.04	1090.92
925.34	1092.56
925.64	1089.29
925.94	1086.01
926.25	1093.97
926.55	1092.09
926.85	1087.65
927.15	1082.26
927.46	1087.65
927.76	1085.77
928.06	1076.41
928.36	1086.24
928.67	1080.16
928.97	1075.94
929.27	1078.05
929.57	1087.41
929.87	1073.14
930.18	1089.52
930.48	1096.78
930.78	1086.24
931.08	1078.52
931.38	1090.69
931.69	1082.73
931.99	1082.50
932.29	1083.90
932.59	1086.01
932.89	1083.67
933.19	1077.82
933.49	1075.94
933.80	1072.43
934.10	1066.35
934.40	1067.52
934.70	1071.03
935.00	1072.20
935.30	1078.75
935.60	1097.01
935.90	1098.18
936.20	1092.80
936.50	1091.86
936.81	1094.67
937.11	1087.18
937.41	1084.84
937.71	1096.07
938.01	1094.90
938.31	1093.50
938.61	1094.43
938.91	1093.50
939.21	1092.33
939.51	1097.01
939.81	1087.65
940.11	1091.16
940.41	1089.75
940.71	1085.07
941.01	1080.39
941.31	1084.60
941.61	1079.69
941.91	1082.97
942.21	1076.41
942.51	1080.86
942.81	1080.16
943.11	1086.71
943.41	1087.88
943.71	1098.18
944.01	1089.75
944.31	1097.24
944.61	1100.05
944.90	1100.75
945.20	1096.07
945.50	1100.05
945.80	1088.58
946.10	1087.41
946.40	1080.86
946.70	1082.26
947.00	1080.16
947.30	1080.16
947.60	1074.31
947.89	1070.33
948.19	1070.09
948.49	1063.77
948.79	1071.73
949.09	1062.60
949.39	1073.60
949.69	1075.01
949.98	1077.11
950.28	1074.31
950.58	1083.43
950.88	1071.97
951.18	1071.97
951.48	1066.11
951.77	1067.52
952.07	1063.77
952.37	1067.75
952.67	1060.73
952.97	1073.37
953.26	1073.84
953.56	1074.77
953.86	1084.60
954.16	1093.73
954.45	1103.09
954.75	1106.84
955.05	1110.58
955.35	1104.73
955.64	1098.18
955.94	1080.39
956.24	1078.28
956.54	1075.94
956.83	1080.39
957.13	1089.52
957.43	1095.60
957.72	1079.92
958.02	1081.09
958.32	1075.48
958.61	1073.14
958.91	1074.54
959.21	1084.60
959.50	1087.88
959.80	1095.60
960.10	1094.67
960.39	1092.80
960.69	1097.95
960.99	1093.97
961.28	1081.33
961.58	1079.92
961.87	1078.52
962.17	1082.26
962.47	1082.73
962.76	1077.82
963.06	1082.26
963.36	1082.50
963.65	1068.45
963.95	1064.71
964.24	1069.16
964.54	1059.56
964.83	1071.50
965.13	1079.69
965.42	1081.09
965.72	1090.46
966.02	1095.37
966.31	1085.07
966.61	1082.73
966.90	1079.22
967.20	1071.03
967.49	1073.60
967.79	1070.33
968.08	1067.05
968.38	1074.31
968.67	1082.50
968.97	1080.16
969.26	1088.82
969.56	1096.07
969.85	1093.26
970.15	1087.18
970.44	1079.92
970.74	1078.52
971.03	1078.52
971.32	1085.77
971.62	1087.88
971.91	1091.63
972.21	1089.75
972.50	1082.50
972.80	1071.73
973.09	1069.62
973.38	1073.84
973.68	1070.56
973.97	1080.16
974.27	1083.90
974.56	1087.65
974.85	1087.65
975.15	1083.90
975.44	1069.16
975.73	1068.92
976.03	1058.39
976.32	1050.90
976.61	1059.09
976.91	1061.20
977.20	1056.52
977.49	1068.92
977.79	1087.65
978.08	1082.97
978.37	1082.03
978.67	1078.75
978.96	1079.69
979.25	1072.90
979.55	1064.01
979.84	1068.92
980.13	1075.94
980.42	1072.67
980.72	1066.82
981.01	1078.28
981.30	1088.58
981.59	1086.71
981.89	1078.05
982.18	1082.73
982.47	1089.29
982.76	1082.97
983.06	1090.46
983.35	1097.48
983.64	1098.18
983.93	1096.07
984.22	1095.37
984.52	1099.12
984.81	1095.14
985.10	1096.31
985.39	1094.20
985.68	1096.07
985.97	1085.31
986.27	1094.20
986.56	1090.46
986.85	1087.18
987.14	1091.16
987.43	1097.95
987.72	1093.73
988.01	1093.50
988.31	1094.90
988.60	1093.73
988.89	1096.31
989.18	1099.58
989.47	1094.67
989.76	1090.46
990.05	1088.82
990.34	1085.77
990.63	1079.92
990.92	1079.69
991.21	1079.46
991.51	1073.84
991.80	1073.84
992.09	1075.71
992.38	1075.71
992.67	1095.37
992.96	1096.54
993.25	1083.67
993.54	1094.67
993.83	1093.26
994.12	1079.46
994.41	1079.92
994.70	1081.33
994.99	1070.56
995.28	1067.05
995.57	1062.60
995.86	1061.43
996.15	1067.75
996.44	1063.54
996.73	1071.03
997.02	1067.52
997.31	1065.18
997.59	1071.50
997.88	1072.43
998.17	1070.09
998.46	1078.05
998.75	1080.39
999.04	1073.84
999.33	1068.22
999.62	1077.58
999.91	1077.11
1000.20	1076.88
1000.49	1077.58
1000.77	1080.86
1001.06	1079.46
1001.35	1066.82
1001.64	1076.18
1001.93	1076.41
1002.22	1081.09
1002.51	1078.99
1002.79	1097.24
1003.08	1091.63
1003.37	1083.90
1003.66	1081.80
1003.95	1080.39
1004.23	1079.46
1004.52	1079.22
1004.81	1088.82
1005.10	1086.24
1005.39	1082.50
1005.67	1082.26
1005.96	1084.60
1006.25	1080.63
1006.54	1089.99
1006.83	1089.05
1007.11	1089.29
1007.40	1087.65
1007.69	1089.29
1007.97	1083.20
1008.26	1083.90
1008.55	1078.52
1008.84	1079.22
1009.12	1088.82
1009.41	1096.54
1009.70	1097.48
1009.98	1096.54
1010.27	1100.05
1010.56	1085.07
1010.85	1072.43
1011.13	1067.28
1011.42	1075.94
1011.71	1069.39
1011.99	1072.43
1012.28	1081.33
1012.56	1085.77
1012.85	1083.43
1013.14	1085.77
1013.42	1094.67
1013.71	1096.07
1014.00	1095.37
1014.28	1083.90
1014.57	1083.20
1014.85	1080.39
1015.14	1083.43
1015.43	1085.54
1015.71	1094.43
1016.00	1091.39
1016.28	1086.24
1016.57	1071.73
1016.85	1076.41
1017.14	1069.16
1017.43	1069.39
1017.71	1082.26
1018.00	1083.43
1018.28	1077.58
1018.57	1084.84
1018.85	1081.09
1019.14	1066.82
1019.42	1073.84
1019.71	1067.28
1019.99	1062.14
1020.28	1067.99
1020.56	1073.60
1020.85	1067.75
1021.13	1078.28
1021.42	1081.33
1021.70	1089.99
1021.99	1093.73
1022.27	1095.84
1022.55	1112.92
1022.84	1066.11
>>>>>End Processed Spectral Data<<<<<
