SpectraSuite Data File
++++++++++++++++++++++++++++++++++++
Date: Mon Aug 26 10:25:57 PDT 2019
User: corrico
Dark Spectrum Present: No
Reference Spectrum Present: No
Number of Sampled Component Spectra: 1
Spectrometers: USB2+H06089
Integration Time (usec): 10000 (USB2+H06089)
Spectra Averaged: 2 (USB2+H06089)
Boxcar Smoothing: 2 (USB2+H06089)
Correct for Electrical Dark: No (USB2+H06089)
Strobe/Lamp Enabled: No (USB2+H06089)
Correct for Detector Non-linearity: No (USB2+H06089)
Correct for Stray Light: No (USB2+H06089)
Number of Pixels in Processed Spectrum: 2048
>>>>>Begin Processed Spectral Data<<<<<
339.70	1021.64
340.07	1021.64
340.45	995.90
340.82	980.68
341.19	958.68
341.57	936.45
341.94	919.13
342.31	905.32
342.69	893.62
343.06	887.30
343.43	881.45
343.81	887.30
344.18	881.68
344.55	884.49
344.93	890.81
345.30	910.23
345.67	924.51
346.04	945.58
346.42	961.96
346.79	969.92
347.16	970.39
347.54	970.62
347.91	978.58
348.28	988.64
348.65	1009.00
349.03	1012.28
349.40	1026.09
349.77	1035.92
350.14	1042.71
350.52	1040.60
350.89	1043.18
351.26	1043.88
351.63	1037.79
352.01	1044.11
352.38	1049.73
352.75	1061.20
353.12	1062.84
353.50	1070.33
353.87	1064.94
354.24	1069.62
354.61	1078.99
354.98	1082.03
355.36	1095.14
355.73	1099.82
356.10	1105.44
356.47	1095.37
356.84	1093.73
357.22	1082.26
357.59	1086.01
357.96	1078.75
358.33	1073.60
358.70	1081.56
359.08	1087.41
359.45	1074.77
359.82	1069.16
360.19	1076.88
360.56	1071.26
360.94	1062.60
361.31	1064.48
361.68	1070.80
362.05	1068.92
362.42	1074.31
362.79	1072.67
363.16	1071.73
363.54	1062.37
363.91	1063.07
364.28	1056.99
364.65	1058.62
365.02	1055.11
365.39	1056.52
365.76	1062.14
366.14	1055.35
366.51	1060.50
366.88	1060.26
367.25	1061.90
367.62	1053.48
367.99	1064.94
368.36	1058.16
368.73	1065.41
369.10	1070.80
369.48	1078.28
369.85	1080.63
370.22	1089.05
370.59	1088.12
370.96	1093.03
371.33	1093.97
371.70	1087.41
372.07	1085.31
372.44	1088.82
372.81	1077.82
373.18	1070.09
373.55	1070.56
373.93	1059.33
374.30	1047.39
374.67	1053.48
375.04	1061.20
375.41	1056.75
375.78	1064.94
376.15	1078.28
376.52	1077.11
376.89	1070.56
377.26	1077.58
377.63	1083.67
378.00	1086.71
378.37	1078.75
378.74	1073.60
379.11	1072.20
379.48	1064.94
379.85	1051.60
380.22	1053.48
380.59	1053.48
380.96	1051.84
381.33	1057.69
381.70	1067.05
382.07	1065.65
382.44	1069.86
382.81	1075.24
383.18	1072.67
383.55	1071.50
383.92	1086.48
384.29	1086.48
384.66	1082.73
385.03	1084.84
385.40	1086.71
385.77	1074.07
386.14	1078.52
386.51	1085.31
386.88	1084.60
387.25	1086.01
387.62	1093.73
387.99	1093.73
388.36	1092.33
388.73	1092.33
389.10	1082.73
389.46	1076.41
389.83	1079.69
390.20	1078.05
390.57	1074.54
390.94	1091.86
391.31	1081.09
391.68	1069.62
392.05	1072.90
392.42	1077.58
392.79	1065.18
393.16	1076.88
393.53	1084.14
393.89	1078.99
394.26	1087.18
394.63	1081.33
395.00	1082.97
395.37	1077.82
395.74	1060.03
396.11	1050.90
396.48	1053.94
396.84	1050.20
397.21	1048.56
397.58	1065.41
397.95	1066.58
398.32	1069.86
398.69	1083.90
399.06	1086.94
399.42	1086.71
399.79	1077.82
400.16	1079.92
400.53	1062.84
400.90	1061.20
401.27	1062.60
401.64	1070.80
402.00	1064.71
402.37	1075.94
402.74	1077.11
403.11	1082.03
403.48	1079.22
403.84	1078.05
404.21	1068.22
404.58	1076.41
404.95	1064.24
405.32	1070.33
405.68	1075.71
406.05	1086.71
406.42	1081.80
406.79	1088.35
407.16	1081.33
407.52	1073.14
407.89	1061.20
408.26	1057.22
408.63	1053.01
408.99	1045.99
409.36	1047.16
409.73	1055.82
410.10	1042.24
410.47	1039.90
410.83	1054.41
411.20	1060.73
411.57	1047.62
411.94	1060.73
412.30	1063.54
412.67	1058.39
413.04	1059.56
413.40	1073.37
413.77	1071.97
414.14	1073.37
414.51	1069.39
414.87	1072.43
415.24	1062.37
415.61	1075.71
415.97	1073.14
416.34	1078.52
416.71	1070.33
417.08	1077.82
417.44	1068.92
417.81	1067.99
418.18	1055.58
418.54	1060.96
418.91	1060.26
419.28	1060.03
419.64	1064.94
420.01	1079.46
420.38	1078.05
420.74	1080.63
421.11	1083.90
421.48	1093.26
421.84	1085.31
422.21	1086.94
422.58	1087.41
422.94	1085.54
423.31	1072.67
423.68	1068.45
424.04	1068.45
424.41	1064.01
424.77	1067.99
425.14	1071.97
425.51	1083.43
425.87	1080.16
426.24	1087.88
426.61	1081.33
426.97	1075.48
427.34	1080.16
427.70	1084.84
428.07	1081.09
428.44	1080.63
428.80	1092.09
429.17	1087.65
429.53	1085.77
429.90	1084.37
430.27	1083.90
430.63	1075.94
431.00	1083.90
431.36	1082.97
431.73	1079.69
432.09	1078.05
432.46	1078.99
432.83	1071.73
433.19	1081.33
433.56	1087.88
433.92	1092.56
434.29	1104.03
434.65	1101.69
435.02	1090.92
435.38	1084.60
435.75	1093.03
436.11	1089.52
436.48	1090.69
436.84	1090.69
437.21	1088.58
437.57	1080.63
437.94	1069.86
438.30	1067.28
438.67	1070.56
439.03	1079.69
439.40	1075.48
439.76	1083.43
440.13	1088.58
440.49	1094.20
440.86	1090.92
441.22	1095.14
441.59	1093.97
441.95	1084.37
442.32	1078.52
442.68	1075.01
443.05	1074.77
443.41	1067.75
443.78	1074.77
444.14	1056.52
444.51	1062.37
444.87	1058.39
445.24	1063.07
445.60	1063.54
445.96	1078.52
446.33	1070.56
446.69	1073.37
447.06	1073.60
447.42	1074.07
447.79	1068.45
448.15	1073.37
448.51	1077.82
448.88	1082.03
449.24	1078.05
449.61	1089.05
449.97	1093.26
450.33	1094.43
450.70	1087.18
451.06	1082.50
451.43	1080.86
451.79	1077.35
452.15	1065.65
452.52	1067.75
452.88	1066.11
453.24	1065.65
453.61	1063.54
453.97	1068.22
454.34	1062.14
454.70	1065.18
455.06	1061.43
455.43	1064.01
455.79	1063.77
456.15	1067.05
456.52	1065.18
456.88	1063.31
457.24	1053.71
457.61	1060.03
457.97	1068.22
458.33	1074.07
458.70	1069.16
459.06	1073.37
459.42	1072.67
459.79	1064.48
460.15	1061.90
460.51	1067.75
460.88	1073.37
461.24	1081.56
461.60	1075.71
461.96	1076.65
462.33	1078.75
462.69	1081.80
463.05	1075.01
463.42	1088.82
463.78	1091.39
464.14	1087.65
464.50	1076.88
464.87	1073.60
465.23	1067.28
465.59	1070.09
465.95	1076.88
466.32	1088.35
466.68	1082.97
467.04	1080.63
467.40	1084.14
467.77	1078.28
468.13	1078.05
468.49	1087.88
468.85	1089.52
469.22	1085.07
469.58	1091.16
469.94	1088.12
470.30	1088.58
470.66	1091.16
471.03	1084.60
471.39	1077.82
471.75	1075.71
472.11	1067.75
472.47	1071.03
472.84	1074.31
473.20	1083.67
473.56	1084.84
473.92	1097.01
474.28	1096.54
474.65	1089.05
475.01	1077.82
475.37	1078.05
475.73	1068.69
476.09	1056.99
476.45	1063.31
476.81	1065.88
477.18	1064.71
477.54	1058.62
477.90	1059.79
478.26	1068.69
478.62	1071.26
478.98	1075.01
479.34	1087.88
479.71	1102.63
480.07	1095.60
480.43	1089.99
480.79	1078.52
481.15	1080.86
481.51	1083.90
481.87	1082.26
482.23	1090.22
482.59	1094.67
482.96	1082.97
483.32	1066.11
483.68	1063.07
484.04	1056.52
484.40	1068.22
484.76	1071.03
485.12	1071.97
485.48	1072.67
485.84	1084.84
486.20	1075.94
486.56	1071.97
486.92	1076.41
487.28	1078.05
487.64	1075.48
488.00	1070.33
488.37	1073.84
488.73	1077.58
489.09	1081.80
489.45	1073.60
489.81	1076.41
490.17	1077.58
490.53	1080.86
490.89	1080.16
491.25	1094.20
491.61	1096.54
491.97	1089.75
492.33	1085.77
492.69	1086.48
493.05	1075.94
493.41	1071.50
493.77	1077.11
494.13	1073.60
494.49	1066.58
494.85	1064.71
495.21	1075.01
495.57	1071.97
495.93	1069.39
496.29	1070.80
496.64	1071.97
497.00	1073.84
497.36	1078.99
497.72	1079.22
498.08	1086.24
498.44	1081.33
498.80	1063.77
499.16	1063.54
499.52	1070.56
499.88	1072.43
500.24	1077.11
500.60	1090.46
500.96	1091.39
501.32	1085.07
501.68	1085.31
502.03	1089.29
502.39	1093.73
502.75	1089.99
503.11	1095.84
503.47	1084.84
503.83	1082.73
504.19	1077.58
504.55	1077.58
504.91	1071.26
505.26	1086.24
505.62	1086.48
505.98	1087.41
506.34	1077.35
506.70	1069.86
507.06	1052.54
507.42	1048.33
507.78	1055.35
508.13	1064.01
508.49	1067.52
508.85	1081.09
509.21	1078.05
509.57	1062.84
509.93	1071.73
510.28	1075.71
510.64	1072.20
511.00	1073.14
511.36	1076.88
511.72	1076.41
512.07	1071.50
512.43	1083.20
512.79	1096.07
513.15	1097.48
513.51	1089.52
513.86	1090.69
514.22	1078.99
514.58	1068.45
514.94	1068.22
515.30	1073.60
515.65	1091.16
516.01	1092.09
516.37	1096.78
516.73	1099.35
517.08	1095.14
517.44	1086.94
517.80	1082.50
518.16	1084.84
518.51	1082.26
518.87	1092.56
519.23	1096.78
519.59	1107.31
519.94	1103.80
520.30	1103.80
520.66	1104.50
521.01	1099.82
521.37	1096.78
521.73	1104.26
522.09	1099.12
522.44	1095.60
522.80	1090.69
523.16	1087.41
523.51	1087.18
523.87	1099.12
524.23	1097.24
524.58	1102.39
524.94	1109.41
525.30	1103.09
525.65	1093.03
526.01	1087.88
526.37	1089.75
526.72	1078.28
527.08	1083.90
527.44	1090.69
527.79	1093.26
528.15	1092.56
528.51	1100.75
528.86	1102.63
529.22	1112.22
529.58	1121.58
529.93	1121.58
530.29	1119.24
530.65	1115.73
531.00	1097.95
531.36	1090.46
531.71	1090.92
532.07	1096.07
532.43	1090.22
532.78	1093.97
533.14	1092.80
533.49	1093.50
533.85	1089.29
534.21	1097.71
534.56	1103.33
534.92	1107.07
535.27	1100.99
535.63	1098.41
535.98	1094.20
536.34	1091.63
536.69	1089.75
537.05	1094.90
537.41	1104.50
537.76	1103.09
538.12	1099.82
538.47	1098.41
538.83	1089.75
539.18	1076.65
539.54	1083.67
539.89	1089.05
540.25	1085.77
540.60	1096.07
540.96	1099.12
541.31	1090.69
541.67	1092.33
542.02	1099.82
542.38	1097.71
542.73	1099.58
543.09	1093.26
543.44	1086.71
543.80	1073.14
544.15	1080.16
544.51	1074.77
544.86	1089.29
545.22	1096.07
545.57	1095.84
545.93	1093.50
546.28	1095.60
546.64	1085.07
546.99	1087.18
547.35	1094.20
547.70	1090.46
548.05	1095.84
548.41	1096.07
548.76	1088.58
549.12	1087.65
549.47	1081.56
549.83	1073.84
550.18	1089.29
550.53	1090.69
550.89	1090.92
551.24	1096.07
551.60	1097.95
551.95	1093.50
552.30	1085.77
552.66	1087.88
553.01	1075.48
553.37	1074.77
553.72	1069.86
554.07	1079.92
554.43	1076.88
554.78	1084.60
555.13	1076.88
555.49	1067.28
555.84	1059.09
556.19	1059.56
556.55	1056.28
556.90	1071.73
557.26	1078.52
557.61	1086.94
557.96	1089.29
558.32	1096.31
558.67	1093.50
559.02	1089.05
559.37	1084.37
559.73	1073.37
560.08	1065.41
560.43	1065.18
560.79	1063.07
561.14	1062.14
561.49	1070.56
561.85	1072.20
562.20	1073.14
562.55	1074.31
562.90	1080.63
563.26	1089.29
563.61	1099.12
563.96	1091.86
564.32	1098.65
564.67	1086.71
565.02	1075.01
565.37	1068.92
565.73	1067.99
566.08	1058.39
566.43	1067.52
566.78	1071.97
567.14	1071.97
567.49	1065.88
567.84	1080.86
568.19	1078.05
568.54	1080.63
568.90	1086.48
569.25	1092.09
569.60	1085.77
569.95	1085.31
570.31	1091.16
570.66	1081.09
571.01	1080.86
571.36	1080.39
571.71	1081.09
572.06	1075.94
572.42	1081.80
572.77	1089.05
573.12	1090.22
573.47	1094.43
573.82	1099.58
574.18	1094.90
574.53	1089.05
574.88	1085.07
575.23	1086.48
575.58	1085.54
575.93	1092.80
576.28	1101.69
576.64	1102.63
576.99	1098.65
577.34	1093.03
577.69	1081.09
578.04	1075.24
578.39	1081.09
578.74	1075.71
579.09	1070.80
579.44	1075.94
579.80	1067.28
580.15	1060.26
580.50	1072.20
580.85	1078.05
581.20	1085.07
581.55	1094.67
581.90	1101.22
582.25	1097.01
582.60	1090.46
582.95	1085.77
583.30	1091.39
583.65	1087.65
584.00	1085.77
584.35	1093.97
584.71	1095.84
585.06	1085.77
585.41	1082.03
585.76	1076.88
586.11	1082.97
586.46	1091.86
586.81	1101.22
587.16	1111.29
587.51	1124.63
587.86	1129.31
588.21	1108.71
588.56	1100.52
588.91	1093.26
589.26	1084.37
589.61	1071.26
589.96	1077.82
590.31	1083.20
590.66	1085.07
591.01	1084.14
591.36	1084.84
591.71	1087.18
592.06	1077.35
592.41	1072.43
592.76	1080.63
593.10	1086.71
593.45	1096.78
593.80	1104.50
594.15	1103.80
594.50	1097.71
594.85	1083.67
595.20	1075.24
595.55	1073.37
595.90	1073.60
596.25	1070.33
596.60	1075.94
596.95	1080.63
597.30	1082.26
597.64	1145.22
597.99	1141.01
598.34	1142.65
598.69	1132.82
599.04	1127.67
599.39	1068.22
599.74	1076.65
600.09	1077.11
600.44	1093.97
600.78	1101.69
601.13	1101.46
601.48	1093.73
601.83	1086.24
602.18	1075.71
602.53	1071.73
602.88	1074.77
603.22	1081.56
603.57	1081.80
603.92	1082.03
604.27	1075.01
604.62	1072.67
604.97	1075.01
605.31	1086.71
605.66	1084.84
606.01	1085.07
606.36	1088.82
606.71	1082.50
607.05	1075.48
607.40	1075.94
607.75	1081.09
608.10	1076.18
608.44	1075.01
608.79	1074.07
609.14	1073.60
609.49	1075.24
609.84	1072.67
610.18	1076.18
610.53	1078.05
610.88	1087.18
611.23	1093.50
611.57	1105.20
611.92	1109.18
612.27	1101.69
612.62	1097.71
612.96	1098.18
613.31	1086.01
613.66	1087.65
614.00	1093.26
614.35	1094.90
614.70	1093.03
615.05	1098.18
615.39	1098.18
615.74	1091.16
616.09	1088.58
616.43	1081.80
616.78	1079.69
617.13	1077.58
617.47	1077.35
617.82	1074.54
618.17	1072.43
618.51	1070.56
618.86	1072.43
619.21	1080.86
619.55	1083.20
619.90	1088.35
620.25	1097.48
620.59	1096.31
620.94	1097.01
621.29	1099.58
621.63	1104.50
621.98	1093.50
622.32	1088.35
622.67	1092.56
623.02	1084.37
623.36	1083.67
623.71	1092.56
624.05	1097.01
624.40	1099.82
624.75	1096.31
625.09	1090.22
625.44	1091.86
625.78	1089.05
626.13	1085.54
626.48	1089.52
626.82	1088.58
627.17	1085.31
627.51	1089.75
627.86	1081.80
628.20	1089.52
628.55	1089.99
628.89	1093.03
629.24	1090.22
629.58	1089.75
629.93	1084.14
630.28	1088.82
630.62	1079.22
630.97	1075.01
631.31	1079.46
631.66	1082.03
632.00	1084.14
632.35	1085.77
632.69	1081.33
633.04	1086.71
633.38	1086.01
633.73	1086.01
634.07	1088.12
634.42	1105.44
634.76	1103.33
635.11	1096.31
635.45	1086.94
635.79	1083.67
636.14	1071.03
636.48	1067.99
636.83	1075.01
637.17	1070.09
637.52	1071.73
637.86	1072.67
638.21	1074.54
638.55	1066.82
638.89	1074.07
639.24	1076.65
639.58	1083.20
639.93	1083.43
640.27	1090.46
640.61	1096.78
640.96	1092.09
641.30	1088.12
641.65	1089.05
641.99	1084.37
642.33	1071.50
642.68	1079.92
643.02	1075.48
643.37	1075.01
643.71	1073.37
644.05	1084.84
644.40	1075.24
644.74	1083.20
645.08	1071.97
645.43	1081.80
645.77	1080.86
646.11	1084.37
646.46	1075.94
646.80	1080.16
647.14	1077.35
647.49	1087.88
647.83	1088.12
648.17	1086.71
648.52	1082.50
648.86	1077.82
649.20	1072.67
649.55	1075.48
649.89	1077.58
650.23	1086.24
650.57	1083.43
650.92	1070.09
651.26	1064.94
651.60	1062.37
651.95	1070.09
652.29	1083.90
652.63	1085.77
652.97	1088.58
653.32	1101.92
653.66	1085.77
654.00	1083.90
654.34	1090.46
654.69	1092.56
655.03	1080.86
655.37	1084.14
655.71	1074.31
656.05	1079.46
656.40	1074.77
656.74	1086.01
657.08	1096.31
657.42	1097.71
657.76	1093.26
658.11	1097.95
658.45	1089.52
658.79	1085.77
659.13	1087.41
659.47	1092.80
659.82	1089.75
660.16	1093.97
660.50	1095.37
660.84	1085.31
661.18	1079.92
661.52	1081.80
661.87	1069.16
662.21	1061.90
662.55	1070.80
662.89	1060.03
663.23	1064.94
663.57	1077.82
663.91	1087.65
664.25	1090.69
664.60	1096.54
664.94	1098.18
665.28	1105.90
665.62	1093.26
665.96	1096.31
666.30	1098.41
666.64	1096.31
666.98	1090.46
667.32	1100.29
667.66	1093.26
668.01	1095.84
668.35	1090.69
668.69	1091.63
669.03	1086.24
669.37	1084.60
669.71	1090.92
670.05	1091.86
670.39	1076.88
670.73	1082.73
671.07	1087.65
671.41	1089.99
671.75	1095.60
672.09	1111.05
672.43	1111.29
672.77	1112.92
673.11	1097.48
673.45	1087.65
673.79	1066.58
674.13	1061.90
674.47	1055.82
674.81	1059.56
675.15	1066.11
675.49	1079.69
675.83	1086.01
676.17	1083.43
676.51	1092.09
676.85	1099.58
677.19	1104.50
677.53	1108.01
677.87	1111.99
678.21	1105.67
678.55	1097.95
678.89	1093.73
679.23	1086.01
679.57	1087.88
679.90	1079.92
680.24	1079.46
680.58	1077.58
680.92	1070.80
681.26	1078.75
681.60	1086.48
681.94	1091.86
682.28	1089.52
682.62	1097.01
682.96	1096.78
683.29	1097.48
683.63	1093.97
683.97	1094.67
684.31	1090.69
684.65	1082.03
684.99	1068.69
685.33	1057.69
685.67	1055.11
686.00	1060.50
686.34	1062.60
686.68	1078.75
687.02	1080.63
687.36	1077.82
687.70	1078.28
688.03	1065.41
688.37	1057.92
688.71	1065.18
689.05	1079.46
689.39	1076.41
689.72	1088.82
690.06	1087.41
690.40	1084.84
690.74	1072.20
691.08	1068.69
691.41	1064.71
691.75	1064.71
692.09	1063.77
692.43	1073.84
692.76	1082.97
693.10	1090.22
693.44	1089.99
693.78	1093.26
694.11	1091.39
694.45	1091.63
694.79	1081.56
695.13	1087.41
695.46	1088.35
695.80	1086.01
696.14	1071.50
696.48	1078.28
696.81	1082.50
697.15	1085.54
697.49	1095.37
697.82	1098.65
698.16	1093.26
698.50	1086.01
698.83	1079.22
699.17	1067.99
699.51	1070.56
699.84	1072.67
700.18	1070.56
700.52	1067.05
700.85	1073.37
701.19	1073.37
701.53	1078.75
701.86	1071.50
702.20	1078.05
702.54	1060.03
702.87	1058.86
703.21	1050.67
703.55	1064.94
703.88	1071.03
704.22	1078.99
704.55	1089.52
704.89	1092.56
705.23	1093.26
705.56	1088.12
705.90	1095.84
706.23	1089.05
706.57	1089.29
706.91	1087.41
707.24	1082.26
707.58	1084.84
707.91	1080.63
708.25	1085.77
708.58	1084.60
708.92	1091.16
709.26	1086.48
709.59	1092.09
709.93	1084.60
710.26	1079.69
710.60	1076.18
710.93	1069.16
711.27	1063.07
711.60	1072.67
711.94	1077.11
712.27	1078.05
712.61	1087.88
712.94	1101.22
713.28	1104.26
713.61	1098.41
713.95	1096.78
714.28	1095.84
714.62	1080.86
714.95	1069.62
715.29	1067.99
715.62	1073.84
715.96	1069.16
716.29	1073.60
716.63	1083.20
716.96	1092.09
717.29	1088.12
717.63	1094.20
717.96	1096.31
718.30	1094.67
718.63	1079.22
718.97	1078.05
719.30	1082.97
719.63	1080.39
719.97	1067.28
720.30	1077.82
720.64	1075.24
720.97	1059.56
721.30	1057.45
721.64	1069.16
721.97	1077.82
722.31	1087.41
722.64	1101.46
722.97	1114.80
723.31	1116.90
723.64	1110.58
723.97	1104.73
724.31	1099.58
724.64	1088.58
724.98	1071.97
725.31	1063.31
725.64	1061.90
725.98	1061.67
726.31	1062.84
726.64	1080.39
726.97	1082.50
727.31	1087.65
727.64	1086.48
727.97	1089.05
728.31	1086.94
728.64	1091.86
728.97	1085.54
729.31	1082.26
729.64	1082.26
729.97	1079.22
730.30	1087.65
730.64	1092.33
730.97	1091.39
731.30	1084.60
731.63	1075.24
731.97	1067.52
732.30	1059.79
732.63	1062.37
732.96	1063.31
733.30	1065.65
733.63	1069.86
733.96	1073.14
734.29	1070.09
734.63	1069.16
734.96	1072.90
735.29	1080.86
735.62	1082.03
735.95	1092.09
736.29	1098.65
736.62	1101.92
736.95	1089.75
737.28	1088.58
737.61	1082.73
737.94	1081.80
738.28	1076.18
738.61	1076.41
738.94	1074.77
739.27	1081.33
739.60	1079.22
739.93	1083.20
740.27	1083.20
740.60	1081.80
740.93	1073.14
741.26	1080.39
741.59	1086.48
741.92	1086.48
742.25	1086.94
742.58	1089.75
742.91	1082.26
743.25	1076.18
743.58	1069.39
743.91	1071.73
744.24	1073.60
744.57	1075.24
744.90	1069.16
745.23	1073.60
745.56	1065.18
745.89	1060.73
746.22	1057.45
746.55	1062.84
746.88	1061.20
747.21	1069.16
747.54	1070.33
747.87	1065.18
748.20	1067.52
748.53	1069.39
748.87	1066.11
749.20	1068.45
749.53	1073.37
749.86	1076.88
750.19	1081.33
750.52	1081.80
750.85	1076.65
751.18	1082.26
751.51	1082.50
751.84	1080.63
752.16	1091.63
752.49	1095.84
752.82	1096.54
753.15	1088.12
753.48	1089.29
753.81	1088.12
754.14	1097.48
754.47	1088.58
754.80	1092.56
755.13	1086.94
755.46	1078.52
755.79	1066.35
756.12	1079.92
756.45	1082.03
756.78	1094.43
757.11	1092.09
757.43	1099.58
757.76	1089.75
758.09	1086.71
758.42	1075.71
758.75	1072.90
759.08	1069.16
759.41	1071.73
759.74	1078.52
760.07	1080.86
760.39	1081.33
760.72	1083.67
761.05	1084.37
761.38	1078.52
761.71	1079.22
762.04	1083.43
762.36	1082.97
762.69	1082.26
763.02	1082.03
763.35	1079.22
763.68	1077.58
764.01	1075.01
764.33	1079.69
764.66	1075.48
764.99	1072.43
765.32	1078.99
765.65	1075.24
765.97	1065.65
766.30	1066.82
766.63	1077.11
766.96	1069.86
767.28	1074.31
767.61	1079.92
767.94	1089.75
768.27	1090.22
768.59	1087.18
768.92	1080.86
769.25	1076.88
769.58	1061.67
769.90	1053.71
770.23	1062.84
770.56	1068.22
770.89	1066.82
771.21	1078.52
771.54	1074.77
771.87	1073.84
772.19	1072.90
772.52	1079.69
772.85	1074.07
773.17	1088.35
773.50	1091.63
773.83	1087.88
774.15	1085.54
774.48	1090.69
774.81	1083.20
775.13	1086.94
775.46	1097.95
775.79	1101.46
776.11	1102.39
776.44	1098.41
776.77	1096.78
777.09	1095.14
777.42	1093.50
777.74	1089.05
778.07	1089.29
778.40	1081.33
778.72	1077.11
779.05	1075.01
779.37	1074.07
779.70	1080.63
780.03	1080.39
780.35	1081.56
780.68	1073.84
781.00	1077.35
781.33	1075.94
781.65	1085.07
781.98	1080.16
782.31	1095.60
782.63	1090.22
782.96	1093.03
783.28	1077.35
783.61	1081.80
783.93	1067.28
784.26	1067.99
784.58	1063.54
784.91	1074.31
785.23	1067.99
785.56	1071.97
785.88	1076.18
786.21	1070.56
786.53	1072.67
786.86	1071.73
787.18	1081.80
787.51	1076.18
787.83	1084.14
788.16	1089.75
788.48	1093.03
788.81	1091.39
789.13	1097.48
789.46	1100.75
789.78	1091.63
790.10	1105.67
790.43	1101.46
790.75	1104.26
791.08	1100.75
791.40	1105.44
791.73	1101.46
792.05	1101.92
792.37	1095.84
792.70	1103.80
793.02	1096.07
793.35	1092.80
793.67	1090.46
793.99	1089.99
794.32	1076.65
794.64	1071.50
794.96	1058.86
795.29	1063.77
795.61	1064.01
795.93	1066.11
796.26	1078.52
796.58	1087.88
796.91	1081.33
797.23	1083.20
797.55	1081.33
797.87	1077.58
798.20	1076.41
798.52	1081.33
798.84	1081.33
799.17	1083.90
799.49	1091.39
799.81	1102.63
800.14	1087.41
800.46	1091.39
800.78	1091.16
801.10	1076.88
801.43	1065.41
801.75	1080.86
802.07	1079.69
802.40	1084.37
802.72	1087.88
803.04	1092.33
803.36	1084.37
803.69	1086.01
804.01	1088.12
804.33	1093.97
804.65	1082.03
804.97	1087.18
805.30	1086.24
805.62	1074.07
805.94	1074.07
806.26	1073.37
806.58	1077.82
806.91	1072.20
807.23	1082.73
807.55	1082.73
807.87	1089.99
808.19	1079.46
808.52	1075.01
808.84	1065.65
809.16	1050.43
809.48	1054.65
809.80	1062.37
810.12	1070.80
810.44	1077.58
810.77	1098.18
811.09	1095.14
811.41	1091.86
811.73	1092.56
812.05	1085.77
812.37	1070.09
812.69	1073.84
813.01	1076.41
813.33	1070.80
813.66	1077.58
813.98	1077.58
814.30	1080.16
814.62	1072.67
814.94	1084.84
815.26	1079.22
815.58	1092.09
815.90	1081.56
816.22	1087.65
816.54	1073.14
816.86	1069.39
817.18	1070.56
817.50	1079.22
817.82	1081.33
818.14	1078.75
818.46	1085.07
818.78	1071.26
819.10	1067.52
819.42	1070.80
819.74	1070.56
820.06	1080.86
820.38	1087.65
820.70	1083.20
821.02	1084.14
821.34	1095.60
821.66	1084.37
821.98	1089.29
822.30	1102.16
822.62	1094.43
822.94	1095.60
823.26	1099.12
823.58	1087.41
823.90	1078.05
824.22	1081.09
824.54	1075.01
824.86	1075.24
825.18	1078.28
825.50	1084.84
825.81	1081.56
826.13	1077.11
826.45	1076.18
826.77	1088.35
827.09	1079.92
827.41	1076.65
827.73	1073.60
828.05	1076.65
828.36	1071.50
828.68	1071.73
829.00	1074.07
829.32	1089.99
829.64	1078.28
829.96	1073.14
830.28	1072.67
830.59	1068.69
830.91	1065.41
831.23	1074.77
831.55	1081.80
831.87	1082.73
832.19	1091.86
832.50	1091.63
832.82	1086.71
833.14	1082.03
833.46	1072.90
833.78	1076.41
834.09	1073.60
834.41	1071.26
834.73	1067.05
835.05	1070.80
835.36	1072.90
835.68	1078.75
836.00	1081.33
836.32	1080.86
836.63	1088.58
836.95	1079.46
837.27	1067.52
837.59	1073.84
837.90	1078.52
838.22	1080.63
838.54	1077.11
838.85	1080.16
839.17	1076.65
839.49	1075.01
839.80	1071.03
840.12	1080.63
840.44	1084.37
840.76	1083.67
841.07	1080.86
841.39	1088.58
841.71	1085.31
842.02	1076.18
842.34	1076.65
842.65	1069.86
842.97	1061.67
843.29	1057.45
843.60	1060.50
843.92	1067.28
844.24	1071.03
844.55	1077.35
844.87	1080.86
845.18	1085.07
845.50	1087.65
845.82	1096.78
846.13	1097.48
846.45	1097.95
846.76	1095.84
847.08	1084.60
847.40	1089.05
847.71	1084.37
848.03	1081.33
848.34	1088.58
848.66	1095.60
848.97	1090.69
849.29	1089.52
849.60	1084.60
849.92	1082.73
850.24	1075.48
850.55	1067.05
850.87	1067.52
851.18	1069.86
851.50	1065.41
851.81	1069.86
852.13	1076.41
852.44	1075.48
852.76	1081.09
853.07	1075.01
853.39	1073.14
853.70	1077.58
854.01	1072.43
854.33	1069.62
854.64	1079.92
854.96	1072.90
855.27	1072.20
855.59	1074.77
855.90	1065.88
856.22	1062.60
856.53	1053.94
856.84	1051.37
857.16	1056.28
857.47	1072.90
857.79	1073.14
858.10	1087.41
858.41	1086.24
858.73	1088.82
859.04	1076.88
859.36	1082.03
859.67	1086.24
859.98	1078.75
860.30	1070.09
860.61	1080.39
860.92	1077.82
861.24	1070.56
861.55	1082.73
861.87	1082.26
862.18	1078.75
862.49	1080.16
862.81	1079.46
863.12	1072.67
863.43	1071.50
863.74	1074.54
864.06	1071.26
864.37	1070.09
864.68	1076.65
865.00	1083.43
865.31	1077.58
865.62	1064.48
865.94	1068.92
866.25	1069.16
866.56	1074.07
866.87	1074.07
867.19	1083.20
867.50	1080.16
867.81	1071.73
868.12	1070.56
868.44	1070.33
868.75	1066.82
869.06	1068.92
869.37	1070.80
869.68	1071.73
870.00	1073.14
870.31	1077.35
870.62	1081.09
870.93	1089.99
871.24	1084.14
871.56	1090.92
871.87	1098.65
872.18	1095.37
872.49	1095.84
872.80	1097.01
873.12	1091.16
873.43	1082.50
873.74	1082.73
874.05	1076.65
874.36	1087.18
874.67	1082.73
874.98	1086.01
875.29	1085.31
875.61	1081.09
875.92	1071.26
876.23	1066.58
876.54	1063.54
876.85	1067.05
877.16	1065.18
877.47	1069.86
877.78	1073.84
878.09	1074.31
878.40	1066.82
878.72	1077.11
879.03	1072.67
879.34	1084.84
879.65	1089.99
879.96	1098.18
880.27	1089.52
880.58	1085.07
880.89	1072.67
881.20	1074.54
881.51	1079.69
881.82	1080.39
882.13	1078.28
882.44	1086.94
882.75	1084.60
883.06	1081.09
883.37	1080.63
883.68	1090.22
883.99	1093.26
884.30	1092.09
884.61	1090.69
884.92	1089.99
885.23	1081.56
885.54	1075.71
885.85	1072.90
886.16	1076.18
886.47	1088.82
886.78	1083.20
887.08	1080.39
887.39	1079.92
887.70	1071.03
888.01	1062.37
888.32	1066.58
888.63	1067.05
888.94	1070.80
889.25	1076.41
889.56	1071.97
889.87	1075.01
890.17	1079.69
890.48	1080.86
890.79	1081.80
891.10	1096.07
891.41	1096.31
891.72	1090.92
892.03	1087.18
892.34	1077.35
892.64	1067.99
892.95	1074.31
893.26	1073.60
893.57	1071.26
893.88	1073.60
894.18	1079.46
894.49	1067.52
894.80	1065.41
895.11	1064.01
895.42	1067.75
895.72	1057.22
896.03	1067.05
896.34	1082.73
896.65	1085.07
896.96	1073.14
897.26	1071.73
897.57	1061.20
897.88	1048.56
898.19	1049.96
898.49	1058.86
898.80	1070.09
899.11	1072.90
899.41	1076.88
899.72	1079.92
900.03	1075.48
900.34	1068.45
900.64	1071.03
900.95	1070.33
901.26	1065.88
901.56	1081.09
901.87	1091.39
902.18	1093.03
902.48	1088.12
902.79	1080.63
903.10	1075.48
903.40	1069.16
903.71	1077.11
904.02	1078.75
904.32	1088.58
904.63	1083.67
904.94	1082.73
905.24	1076.88
905.55	1075.71
905.85	1072.20
906.16	1076.41
906.47	1074.77
906.77	1073.60
907.08	1075.24
907.38	1080.86
907.69	1084.14
908.00	1082.50
908.30	1082.73
908.61	1096.31
908.91	1095.14
909.22	1096.07
909.52	1106.14
909.83	1111.99
910.14	1099.82
910.44	1107.78
910.75	1105.20
911.05	1101.22
911.36	1100.05
911.66	1100.75
911.97	1095.84
912.27	1097.48
912.58	1101.92
912.88	1094.20
913.19	1095.84
913.49	1102.39
913.80	1106.14
914.10	1097.71
914.41	1100.52
914.71	1100.75
915.01	1090.69
915.32	1082.26
915.62	1078.05
915.93	1071.73
916.23	1068.22
916.54	1064.94
916.84	1063.77
917.15	1064.01
917.45	1071.26
917.75	1069.62
918.06	1081.33
918.36	1081.09
918.67	1090.69
918.97	1090.46
919.27	1089.52
919.58	1079.69
919.88	1078.99
920.18	1065.41
920.49	1053.71
920.79	1061.90
921.10	1065.41
921.40	1072.90
921.70	1078.05
922.01	1096.07
922.31	1088.82
922.61	1096.31
922.92	1084.84
923.22	1089.99
923.52	1086.71
923.82	1087.18
924.13	1084.84
924.43	1088.35
924.73	1087.88
925.04	1087.65
925.34	1100.29
925.64	1089.75
925.94	1104.03
926.25	1101.22
926.55	1098.88
926.85	1091.86
927.15	1095.14
927.46	1090.69
927.76	1086.94
928.06	1083.90
928.36	1079.22
928.67	1078.99
928.97	1065.41
929.27	1069.86
929.57	1067.99
929.87	1069.62
930.18	1073.60
930.48	1086.48
930.78	1083.90
931.08	1085.31
931.38	1088.58
931.69	1084.84
931.99	1073.14
932.29	1077.11
932.59	1082.50
932.89	1077.35
933.19	1073.37
933.49	1076.88
933.80	1079.46
934.10	1076.65
934.40	1084.37
934.70	1084.60
935.00	1086.24
935.30	1080.86
935.60	1081.80
935.90	1064.48
936.20	1064.48
936.50	1065.41
936.81	1060.73
937.11	1061.20
937.41	1072.67
937.71	1074.31
938.01	1081.09
938.31	1083.67
938.61	1079.46
938.91	1074.31
939.21	1083.43
939.51	1083.20
939.81	1089.99
940.11	1101.69
940.41	1110.35
940.71	1098.88
941.01	1098.41
941.31	1100.05
941.61	1102.86
941.91	1106.37
942.21	1110.82
942.51	1104.03
942.81	1101.46
943.11	1091.39
943.41	1076.65
943.71	1071.03
944.01	1068.69
944.31	1064.01
944.61	1060.73
944.90	1065.18
945.20	1071.03
945.50	1067.99
945.80	1067.52
946.10	1065.88
946.40	1066.35
946.70	1063.31
947.00	1070.09
947.30	1070.33
947.60	1073.60
947.89	1076.65
948.19	1075.71
948.49	1068.69
948.79	1063.77
949.09	1063.07
949.39	1063.07
949.69	1067.28
949.98	1069.62
950.28	1072.67
950.58	1075.48
950.88	1079.46
951.18	1079.22
951.48	1075.71
951.77	1075.24
952.07	1075.48
952.37	1065.88
952.67	1056.52
952.97	1065.65
953.26	1067.99
953.56	1062.84
953.86	1071.97
954.16	1081.80
954.45	1082.03
954.75	1082.97
955.05	1093.97
955.35	1096.54
955.64	1100.75
955.94	1092.56
956.24	1088.58
956.54	1089.52
956.83	1072.90
957.13	1075.94
957.43	1079.69
957.72	1084.84
958.02	1072.67
958.32	1084.14
958.61	1082.97
958.91	1088.12
959.21	1090.22
959.50	1091.63
959.80	1087.41
960.10	1080.39
960.39	1078.05
960.69	1068.22
960.99	1076.41
961.28	1077.82
961.58	1077.35
961.87	1076.18
962.17	1075.24
962.47	1071.26
962.76	1074.31
963.06	1081.80
963.36	1084.37
963.65	1079.46
963.95	1077.35
964.24	1079.92
964.54	1072.43
964.83	1072.67
965.13	1093.26
965.42	1101.46
965.72	1095.60
966.02	1095.37
966.31	1095.60
966.61	1080.39
966.90	1072.90
967.20	1073.84
967.49	1089.75
967.79	1092.09
968.08	1102.63
968.38	1104.03
968.67	1106.61
968.97	1089.52
969.26	1079.22
969.56	1074.31
969.85	1071.97
970.15	1075.24
970.44	1072.90
970.74	1081.33
971.03	1078.99
971.32	1080.63
971.62	1076.88
971.91	1072.43
972.21	1074.77
972.50	1082.50
972.80	1076.88
973.09	1075.24
973.38	1091.86
973.68	1076.65
973.97	1075.94
974.27	1078.52
974.56	1078.05
974.85	1068.92
975.15	1082.97
975.44	1079.46
975.73	1075.48
976.03	1076.41
976.32	1085.31
976.61	1080.39
976.91	1080.86
977.20	1092.56
977.49	1095.60
977.79	1081.80
978.08	1083.90
978.37	1093.73
978.67	1087.18
978.96	1080.39
979.25	1081.56
979.55	1089.05
979.84	1083.90
980.13	1083.90
980.42	1084.84
980.72	1087.41
981.01	1071.03
981.30	1060.96
981.59	1064.48
981.89	1065.41
982.18	1066.35
982.47	1070.09
982.76	1077.82
983.06	1075.01
983.35	1078.05
983.64	1072.20
983.93	1085.31
984.22	1089.05
984.52	1092.56
984.81	1086.01
985.10	1107.54
985.39	1104.50
985.68	1105.44
985.97	1097.24
986.27	1109.88
986.56	1089.29
986.85	1080.63
987.14	1072.43
987.43	1075.94
987.72	1066.35
988.01	1070.80
988.31	1064.24
988.60	1061.43
988.89	1064.71
989.18	1063.07
989.47	1064.01
989.76	1073.60
990.05	1082.03
990.34	1078.52
990.63	1080.63
990.92	1090.22
991.21	1090.22
991.51	1095.84
991.80	1096.07
992.09	1096.07
992.38	1090.46
992.67	1091.86
992.96	1083.90
993.25	1087.41
993.54	1084.37
993.83	1087.41
994.12	1090.22
994.41	1093.50
994.70	1093.73
994.99	1100.05
995.28	1096.54
995.57	1094.90
995.86	1096.07
996.15	1086.48
996.44	1088.82
996.73	1086.01
997.02	1085.07
997.31	1081.56
997.59	1085.31
997.88	1086.48
998.17	1086.48
998.46	1078.28
998.75	1077.58
999.04	1083.20
999.33	1076.41
999.62	1070.56
999.91	1064.24
1000.20	1064.01
1000.49	1054.41
1000.77	1050.67
1001.06	1057.45
1001.35	1074.54
1001.64	1074.54
1001.93	1081.09
1002.22	1091.16
1002.51	1088.35
1002.79	1090.92
1003.08	1100.52
1003.37	1090.92
1003.66	1075.94
1003.95	1088.12
1004.23	1074.77
1004.52	1071.73
1004.81	1078.52
1005.10	1092.09
1005.39	1086.71
1005.67	1093.26
1005.96	1082.73
1006.25	1086.94
1006.54	1077.82
1006.83	1074.77
1007.11	1076.65
1007.40	1085.54
1007.69	1085.54
1007.97	1092.09
1008.26	1086.01
1008.55	1085.07
1008.84	1070.33
1009.12	1079.46
1009.41	1075.01
1009.70	1072.43
1009.98	1068.92
1010.27	1087.65
1010.56	1075.48
1010.85	1072.90
1011.13	1071.50
1011.42	1071.03
1011.71	1059.79
1011.99	1062.84
1012.28	1068.92
1012.56	1074.07
1012.85	1085.07
1013.14	1073.37
1013.42	1071.97
1013.71	1076.88
1014.00	1094.43
1014.28	1085.07
1014.57	1095.37
1014.85	1095.37
1015.14	1086.94
1015.43	1080.39
1015.71	1085.07
1016.00	1093.26
1016.28	1097.71
1016.57	1104.03
1016.85	1094.90
1017.14	1095.84
1017.43	1089.99
1017.71	1086.94
1018.00	1074.77
1018.28	1078.05
1018.57	1083.20
1018.85	1082.97
1019.14	1077.11
1019.42	1089.52
1019.71	1086.94
1019.99	1077.11
1020.28	1071.26
1020.56	1071.26
1020.85	1074.31
1021.13	1070.56
1021.42	1063.54
1021.70	1074.31
1021.99	1082.26
1022.27	1069.86
1022.55	1096.54
1022.84	1048.56
>>>>>End Processed Spectral Data<<<<<
