SpectraSuite Data File
++++++++++++++++++++++++++++++++++++
Date: Mon Aug 26 10:25:56 PDT 2019
User: corrico
Dark Spectrum Present: No
Reference Spectrum Present: No
Number of Sampled Component Spectra: 1
Spectrometers: USB2+H06089
Integration Time (usec): 10000 (USB2+H06089)
Spectra Averaged: 2 (USB2+H06089)
Boxcar Smoothing: 2 (USB2+H06089)
Correct for Electrical Dark: No (USB2+H06089)
Strobe/Lamp Enabled: No (USB2+H06089)
Correct for Detector Non-linearity: No (USB2+H06089)
Correct for Stray Light: No (USB2+H06089)
Number of Pixels in Processed Spectrum: 2048
>>>>>Begin Processed Spectral Data<<<<<
339.70	993.56
340.07	993.56
340.45	978.11
340.82	962.43
341.19	952.60
341.57	931.07
341.94	928.49
342.31	920.30
342.69	913.51
343.06	899.23
343.43	905.55
343.81	891.28
344.18	884.96
344.55	879.34
344.93	886.83
345.30	892.21
345.67	902.04
346.04	913.75
346.42	932.00
346.79	946.28
347.16	956.34
347.54	968.28
347.91	979.28
348.28	993.56
348.65	996.60
349.03	1001.52
349.40	1006.20
349.77	1012.52
350.14	1010.41
350.52	1020.47
350.89	1024.92
351.26	1035.92
351.63	1033.58
352.01	1042.47
352.38	1043.18
352.75	1048.79
353.12	1051.84
353.50	1056.99
353.87	1060.03
354.24	1065.18
354.61	1066.82
354.98	1071.03
355.36	1083.43
355.73	1083.67
356.10	1079.22
356.47	1084.14
356.84	1080.16
357.22	1075.71
357.59	1073.37
357.96	1078.75
358.33	1075.48
358.70	1061.67
359.08	1058.86
359.45	1061.90
359.82	1058.39
360.19	1054.41
360.56	1062.84
360.94	1066.58
361.31	1068.69
361.68	1062.60
362.05	1066.58
362.42	1078.28
362.79	1071.97
363.16	1077.58
363.54	1080.39
363.91	1082.97
364.28	1073.37
364.65	1071.73
365.02	1066.58
365.39	1072.20
365.76	1063.77
366.14	1064.71
366.51	1076.18
366.88	1069.62
367.25	1066.82
367.62	1072.90
367.99	1075.71
368.36	1070.09
368.73	1065.88
369.10	1065.18
369.48	1073.37
369.85	1070.33
370.22	1074.54
370.59	1082.73
370.96	1082.50
371.33	1072.43
371.70	1070.09
372.07	1061.90
372.44	1069.16
372.81	1068.69
373.18	1072.20
373.55	1079.69
373.93	1090.22
374.30	1080.86
374.67	1084.60
375.04	1076.88
375.41	1079.69
375.78	1074.07
376.15	1076.41
376.52	1077.11
376.89	1082.50
377.26	1081.09
377.63	1084.84
378.00	1091.16
378.37	1088.35
378.74	1078.75
379.11	1066.11
379.48	1069.62
379.85	1075.71
380.22	1072.90
380.59	1077.82
380.96	1077.35
381.33	1068.45
381.70	1047.16
382.07	1058.16
382.44	1066.11
382.81	1067.05
383.18	1074.07
383.55	1081.80
383.92	1078.05
384.29	1073.84
384.66	1093.97
385.03	1086.24
385.40	1096.07
385.77	1099.58
386.14	1085.07
386.51	1070.80
386.88	1072.20
387.25	1063.07
387.62	1057.22
387.99	1068.22
388.36	1066.11
388.73	1068.22
389.10	1067.52
389.46	1063.77
389.83	1069.39
390.20	1080.86
390.57	1074.31
390.94	1077.11
391.31	1085.31
391.68	1083.20
392.05	1070.56
392.42	1075.94
392.79	1066.35
393.16	1061.90
393.53	1061.90
393.89	1071.03
394.26	1067.05
394.63	1068.22
395.00	1071.50
395.37	1074.07
395.74	1072.20
396.11	1078.99
396.48	1089.05
396.84	1085.07
397.21	1078.99
397.58	1078.99
397.95	1074.54
398.32	1074.31
398.69	1069.16
399.06	1071.97
399.42	1067.75
399.79	1072.67
400.16	1063.54
400.53	1065.65
400.90	1071.97
401.27	1078.28
401.64	1069.62
402.00	1073.14
402.37	1081.33
402.74	1077.11
403.11	1083.20
403.48	1092.33
403.84	1096.07
404.21	1093.73
404.58	1097.48
404.95	1091.16
405.32	1094.43
405.68	1086.71
406.05	1089.75
406.42	1080.86
406.79	1072.67
407.16	1074.07
407.52	1076.88
407.89	1071.97
408.26	1074.77
408.63	1086.01
408.99	1075.94
409.36	1078.99
409.73	1075.48
410.10	1078.28
410.47	1076.88
410.83	1077.11
411.20	1079.22
411.57	1083.90
411.94	1079.92
412.30	1077.58
412.67	1075.71
413.04	1071.73
413.40	1074.77
413.77	1075.01
414.14	1065.88
414.51	1068.69
414.87	1072.67
415.24	1062.84
415.61	1070.80
415.97	1074.31
416.34	1074.54
416.71	1068.45
417.08	1080.39
417.44	1073.60
417.81	1072.20
418.18	1072.43
418.54	1075.24
418.91	1064.71
419.28	1060.50
419.64	1060.03
420.01	1064.94
420.38	1067.75
420.74	1066.11
421.11	1069.39
421.48	1077.11
421.84	1073.60
422.21	1077.58
422.58	1082.03
422.94	1080.86
423.31	1076.88
423.68	1081.33
424.04	1075.01
424.41	1083.20
424.77	1085.54
425.14	1089.29
425.51	1075.71
425.87	1073.14
426.24	1072.20
426.61	1074.77
426.97	1070.33
427.34	1084.37
427.70	1092.09
428.07	1077.58
428.44	1071.26
428.80	1077.35
429.17	1071.26
429.53	1072.20
429.90	1077.11
430.27	1074.07
430.63	1064.71
431.00	1063.77
431.36	1054.65
431.73	1062.60
432.09	1065.88
432.46	1074.54
432.83	1076.18
433.19	1073.84
433.56	1075.71
433.92	1078.28
434.29	1085.07
434.65	1081.09
435.02	1094.20
435.38	1094.20
435.75	1092.56
436.11	1076.88
436.48	1074.31
436.84	1068.22
437.21	1068.22
437.57	1074.07
437.94	1083.90
438.30	1090.22
438.67	1082.26
439.03	1076.41
439.40	1072.20
439.76	1064.01
440.13	1064.48
440.49	1068.45
440.86	1065.65
441.22	1066.58
441.59	1059.09
441.95	1058.62
442.32	1069.39
442.68	1077.11
443.05	1076.18
443.41	1080.39
443.78	1082.26
444.14	1072.43
444.51	1073.60
444.87	1067.75
445.24	1073.60
445.60	1082.97
445.96	1084.60
446.33	1082.97
446.69	1087.88
447.06	1086.94
447.42	1076.88
447.79	1075.24
448.15	1071.03
448.51	1066.82
448.88	1064.71
449.24	1069.39
449.61	1070.33
449.97	1071.73
450.33	1073.14
450.70	1077.58
451.06	1072.67
451.43	1079.92
451.79	1077.58
452.15	1076.18
452.52	1077.11
452.88	1069.86
453.24	1064.48
453.61	1060.26
453.97	1057.22
454.34	1053.71
454.70	1061.67
455.06	1064.24
455.43	1064.94
455.79	1073.84
456.15	1075.01
456.52	1075.24
456.88	1065.18
457.24	1064.48
457.61	1063.31
457.97	1057.45
458.33	1051.60
458.70	1067.75
459.06	1075.01
459.42	1073.60
459.79	1070.33
460.15	1075.94
460.51	1074.77
460.88	1081.09
461.24	1083.67
461.60	1089.29
461.96	1079.92
462.33	1077.58
462.69	1064.24
463.05	1062.37
463.42	1067.75
463.78	1069.16
464.14	1060.73
464.50	1066.11
464.87	1071.97
465.23	1067.99
465.59	1073.84
465.95	1082.50
466.32	1078.99
466.68	1072.20
467.04	1073.37
467.40	1074.54
467.77	1069.39
468.13	1069.39
468.49	1069.39
468.85	1077.35
469.22	1076.65
469.58	1079.22
469.94	1081.56
470.30	1093.26
470.66	1082.03
471.03	1075.94
471.39	1074.31
471.75	1084.14
472.11	1073.60
472.47	1073.14
472.84	1076.41
473.20	1078.28
473.56	1077.58
473.92	1083.20
474.28	1079.22
474.65	1099.12
475.01	1100.75
475.37	1095.14
475.73	1096.07
476.09	1109.88
476.45	1100.75
476.81	1093.50
477.18	1094.20
477.54	1094.20
477.90	1091.63
478.26	1080.63
478.62	1084.14
478.98	1081.33
479.34	1071.73
479.71	1071.73
480.07	1075.94
480.43	1076.88
480.79	1067.75
481.15	1076.18
481.51	1073.60
481.87	1069.16
482.23	1069.62
482.59	1078.28
482.96	1070.33
483.32	1068.92
483.68	1060.96
484.04	1057.45
484.40	1058.86
484.76	1057.22
485.12	1056.99
485.48	1071.73
485.84	1069.62
486.20	1064.01
486.56	1078.05
486.92	1088.35
487.28	1085.54
487.64	1092.80
488.00	1092.56
488.37	1091.86
488.73	1081.80
489.09	1071.97
489.45	1069.86
489.81	1076.41
490.17	1067.52
490.53	1065.18
490.89	1078.99
491.25	1077.35
491.61	1082.26
491.97	1080.63
492.33	1081.56
492.69	1075.71
493.05	1076.41
493.41	1073.84
493.77	1078.28
494.13	1082.97
494.49	1081.56
494.85	1087.18
495.21	1080.16
495.57	1076.18
495.93	1078.99
496.29	1096.78
496.64	1092.33
497.00	1105.90
497.36	1104.97
497.72	1103.56
498.08	1095.37
498.44	1095.37
498.80	1079.22
499.16	1079.69
499.52	1076.41
499.88	1071.97
500.24	1075.24
500.60	1085.07
500.96	1083.67
501.32	1085.07
501.68	1085.31
502.03	1083.90
502.39	1085.07
502.75	1095.60
503.11	1089.05
503.47	1083.67
503.83	1079.22
504.19	1064.48
504.55	1054.18
504.91	1065.18
505.26	1062.60
505.62	1074.07
505.98	1080.39
506.34	1084.60
506.70	1077.58
507.06	1080.39
507.42	1081.33
507.78	1078.75
508.13	1086.94
508.49	1084.84
508.85	1082.97
509.21	1073.14
509.57	1080.16
509.93	1078.99
510.28	1084.60
510.64	1091.63
511.00	1094.43
511.36	1088.35
511.72	1088.12
512.07	1083.67
512.43	1086.48
512.79	1083.67
513.15	1087.88
513.51	1089.75
513.86	1098.41
514.22	1093.50
514.58	1096.31
514.94	1092.56
515.30	1088.35
515.65	1085.77
516.01	1084.14
516.37	1087.65
516.73	1096.31
517.08	1100.05
517.44	1096.54
517.80	1092.33
518.16	1086.48
518.51	1084.37
518.87	1080.39
519.23	1080.86
519.59	1100.75
519.94	1102.39
520.30	1107.78
520.66	1108.95
521.01	1100.99
521.37	1085.31
521.73	1083.43
522.09	1076.88
522.44	1079.22
522.80	1095.84
523.16	1103.09
523.51	1109.88
523.87	1111.29
524.23	1094.20
524.58	1080.63
524.94	1073.60
525.30	1071.97
525.65	1076.88
526.01	1093.26
526.37	1105.67
526.72	1105.90
527.08	1100.05
527.44	1102.39
527.79	1101.92
528.15	1101.46
528.51	1105.90
528.86	1096.54
529.22	1090.69
529.58	1093.03
529.93	1086.24
530.29	1094.67
530.65	1104.26
531.00	1097.01
531.36	1082.50
531.71	1087.18
532.07	1069.86
532.43	1079.22
532.78	1085.31
533.14	1102.86
533.49	1105.44
533.85	1122.05
534.21	1116.20
534.56	1123.46
534.92	1108.48
535.27	1096.78
535.63	1096.54
535.98	1092.80
536.34	1086.94
536.69	1094.43
537.05	1098.88
537.41	1091.16
537.76	1088.12
538.12	1084.84
538.47	1074.54
538.83	1080.63
539.18	1082.03
539.54	1085.54
539.89	1082.26
540.25	1096.31
540.60	1096.78
540.96	1091.86
541.31	1097.48
541.67	1103.09
542.02	1090.69
542.38	1080.86
542.73	1083.20
543.09	1082.97
543.44	1079.69
543.80	1092.33
544.15	1096.31
544.51	1099.35
544.86	1094.43
545.22	1095.37
545.57	1092.80
545.93	1090.92
546.28	1079.46
546.64	1081.80
546.99	1082.03
547.35	1076.88
547.70	1074.54
548.05	1074.54
548.41	1075.01
548.76	1068.22
549.12	1069.39
549.47	1066.82
549.83	1074.77
550.18	1068.45
550.53	1075.48
550.89	1082.97
551.24	1084.60
551.60	1079.92
551.95	1087.88
552.30	1084.14
552.66	1082.03
553.01	1090.92
553.37	1092.56
553.72	1085.54
554.07	1094.67
554.43	1083.67
554.78	1084.84
555.13	1096.78
555.49	1099.58
555.84	1091.39
556.19	1096.78
556.55	1091.16
556.90	1076.88
557.26	1074.31
557.61	1070.56
557.96	1074.54
558.32	1076.65
558.67	1082.97
559.02	1083.20
559.37	1090.92
559.73	1082.03
560.08	1078.99
560.43	1077.35
560.79	1078.52
561.14	1073.60
561.49	1076.65
561.85	1079.92
562.20	1087.18
562.55	1086.94
562.90	1085.54
563.26	1097.01
563.61	1094.67
563.96	1088.35
564.32	1083.90
564.67	1083.67
565.02	1080.16
565.37	1079.46
565.73	1082.03
566.08	1087.41
566.43	1088.12
566.78	1072.90
567.14	1074.77
567.49	1074.54
567.84	1071.03
568.19	1072.43
568.54	1081.56
568.90	1076.65
569.25	1067.28
569.60	1067.52
569.95	1068.92
570.31	1065.18
570.66	1070.09
571.01	1068.92
571.36	1068.92
571.71	1078.75
572.06	1084.37
572.42	1088.12
572.77	1098.88
573.12	1104.26
573.47	1092.09
573.82	1090.92
574.18	1084.84
574.53	1074.07
574.88	1069.16
575.23	1069.16
575.58	1069.62
575.93	1069.86
576.28	1075.01
576.64	1076.18
576.99	1084.37
577.34	1076.65
577.69	1071.73
578.04	1074.77
578.39	1076.41
578.74	1075.71
579.09	1079.46
579.44	1086.94
579.80	1087.88
580.15	1082.73
580.50	1075.01
580.85	1078.99
581.20	1079.22
581.55	1075.01
581.90	1087.65
582.25	1094.67
582.60	1093.26
582.95	1089.29
583.30	1098.41
583.65	1093.26
584.00	1100.05
584.35	1102.39
584.71	1103.80
585.06	1094.90
585.41	1098.18
585.76	1082.97
586.11	1084.37
586.46	1078.99
586.81	1079.92
587.16	1072.67
587.51	1077.35
587.86	1077.35
588.21	1083.43
588.56	1092.33
588.91	1096.31
589.26	1082.50
589.61	1081.33
589.96	1080.63
590.31	1075.24
590.66	1082.50
591.01	1096.54
591.36	1103.56
591.71	1105.44
592.06	1106.37
592.41	1095.37
592.76	1094.90
593.10	1079.69
593.45	1080.16
593.80	1081.56
594.15	1081.09
594.50	1079.22
594.85	1086.71
595.20	1083.20
595.55	1083.67
595.90	1089.29
596.25	1096.54
596.60	1091.63
596.95	1093.73
597.30	1097.95
597.64	1152.71
597.99	1152.25
598.34	1156.69
598.69	1148.50
599.04	1137.50
599.39	1077.11
599.74	1074.07
600.09	1067.75
600.44	1073.84
600.78	1072.90
601.13	1073.14
601.48	1079.69
601.83	1075.48
602.18	1080.16
602.53	1077.82
602.88	1078.75
603.22	1067.99
603.57	1077.58
603.92	1071.97
604.27	1076.65
604.62	1064.48
604.97	1070.33
605.31	1069.16
605.66	1079.69
606.01	1082.73
606.36	1090.46
606.71	1091.63
607.05	1088.12
607.40	1081.80
607.75	1088.12
608.10	1095.84
608.44	1091.39
608.79	1095.60
609.14	1089.29
609.49	1082.73
609.84	1087.18
610.18	1088.12
610.53	1091.63
610.88	1104.73
611.23	1110.58
611.57	1111.99
611.92	1116.67
612.27	1111.29
612.62	1108.01
612.96	1096.31
613.31	1085.31
613.66	1085.54
614.00	1089.52
614.35	1081.33
614.70	1080.63
615.05	1083.43
615.39	1084.37
615.74	1091.63
616.09	1092.56
616.43	1087.41
616.78	1088.82
617.13	1081.56
617.47	1081.33
617.82	1082.26
618.17	1096.31
618.51	1093.97
618.86	1089.29
619.21	1072.43
619.55	1064.94
619.90	1056.99
620.25	1054.18
620.59	1061.20
620.94	1069.39
621.29	1076.88
621.63	1078.99
621.98	1082.50
622.32	1088.58
622.67	1091.39
623.02	1099.12
623.36	1096.78
623.71	1098.41
624.05	1090.92
624.40	1085.54
624.75	1085.54
625.09	1090.92
625.44	1090.69
625.78	1096.78
626.13	1101.46
626.48	1096.54
626.82	1095.14
627.17	1090.69
627.51	1091.39
627.86	1082.97
628.20	1082.03
628.55	1082.03
628.89	1079.46
629.24	1071.50
629.58	1073.60
629.93	1074.77
630.28	1077.58
630.62	1071.26
630.97	1075.24
631.31	1069.39
631.66	1065.65
632.00	1061.20
632.35	1072.43
632.69	1071.73
633.04	1072.20
633.38	1073.14
633.73	1080.63
634.07	1076.65
634.42	1076.88
634.76	1088.82
635.11	1086.71
635.45	1075.71
635.79	1068.45
636.14	1065.65
636.48	1061.90
636.83	1070.56
637.17	1074.07
637.52	1095.14
637.86	1097.95
638.21	1096.07
638.55	1099.58
638.89	1099.35
639.24	1085.07
639.58	1089.52
639.93	1094.67
640.27	1083.43
640.61	1081.33
640.96	1094.43
641.30	1082.97
641.65	1078.75
641.99	1086.71
642.33	1085.77
642.68	1079.46
643.02	1082.03
643.37	1081.56
643.71	1075.94
644.05	1078.05
644.40	1083.90
644.74	1083.20
645.08	1088.35
645.43	1087.65
645.77	1082.03
646.11	1069.39
646.46	1070.80
646.80	1058.62
647.14	1061.90
647.49	1068.92
647.83	1071.03
648.17	1074.07
648.52	1087.18
648.86	1077.11
649.20	1081.80
649.55	1069.16
649.89	1072.67
650.23	1070.09
650.57	1076.88
650.92	1075.01
651.26	1098.88
651.60	1093.50
651.95	1090.22
652.29	1082.26
652.63	1082.50
652.97	1069.86
653.32	1073.84
653.66	1082.03
654.00	1084.84
654.34	1080.86
654.69	1083.20
655.03	1070.80
655.37	1063.07
655.71	1064.71
656.05	1061.67
656.40	1065.18
656.74	1069.16
657.08	1073.84
657.42	1075.71
657.76	1077.11
658.11	1075.24
658.45	1084.84
658.79	1082.26
659.13	1090.92
659.47	1098.65
659.82	1102.63
660.16	1096.31
660.50	1095.14
660.84	1084.14
661.18	1085.77
661.52	1078.75
661.87	1084.60
662.21	1083.90
662.55	1082.26
662.89	1083.67
663.23	1079.69
663.57	1075.01
663.91	1081.80
664.25	1084.60
664.60	1078.99
664.94	1088.58
665.28	1078.75
665.62	1069.86
665.96	1072.90
666.30	1072.90
666.64	1074.31
666.98	1081.80
667.32	1089.29
667.66	1087.41
668.01	1089.75
668.35	1074.77
668.69	1079.22
669.03	1072.90
669.37	1074.07
669.71	1068.69
670.05	1083.20
670.39	1072.43
670.73	1076.88
671.07	1075.71
671.41	1070.56
671.75	1066.35
672.09	1067.28
672.43	1070.80
672.77	1076.41
673.11	1081.33
673.45	1080.86
673.79	1082.26
674.13	1075.48
674.47	1066.58
674.81	1063.07
675.15	1059.09
675.49	1058.62
675.83	1059.33
676.17	1076.88
676.51	1082.26
676.85	1090.46
677.19	1098.41
677.53	1103.56
677.87	1091.63
678.21	1087.65
678.55	1085.07
678.89	1079.92
679.23	1071.50
679.57	1081.33
679.90	1086.01
680.24	1084.84
680.58	1087.88
680.92	1087.41
681.26	1074.07
681.60	1086.71
681.94	1089.99
682.28	1094.20
682.62	1095.60
682.96	1099.58
683.29	1081.33
683.63	1082.50
683.97	1076.18
684.31	1078.28
684.65	1075.94
684.99	1076.18
685.33	1071.26
685.67	1066.35
686.00	1071.26
686.34	1074.54
686.68	1075.71
687.02	1075.01
687.36	1079.22
687.70	1072.43
688.03	1075.48
688.37	1070.56
688.71	1076.65
689.05	1075.71
689.39	1078.28
689.72	1080.16
690.06	1095.37
690.40	1097.48
690.74	1104.97
691.08	1106.37
691.41	1096.31
691.75	1088.35
692.09	1081.80
692.43	1088.82
692.76	1091.39
693.10	1092.09
693.44	1099.82
693.78	1086.24
694.11	1068.22
694.45	1060.50
694.79	1054.18
695.13	1042.71
695.46	1051.84
695.80	1062.60
696.14	1059.56
696.48	1077.82
696.81	1083.90
697.15	1095.84
697.49	1095.37
697.82	1095.37
698.16	1088.82
698.50	1082.50
698.83	1068.69
699.17	1067.52
699.51	1080.16
699.84	1073.14
700.18	1069.39
700.52	1081.56
700.85	1078.28
701.19	1067.99
701.53	1059.56
701.86	1069.39
702.20	1056.52
702.54	1059.09
702.87	1063.07
703.21	1070.33
703.55	1077.82
703.88	1091.39
704.22	1088.82
704.55	1087.65
704.89	1095.84
705.23	1083.43
705.56	1078.52
705.90	1077.58
706.23	1075.48
706.57	1071.50
706.91	1077.11
707.24	1078.05
707.58	1081.56
707.91	1081.09
708.25	1082.26
708.58	1074.07
708.92	1078.52
709.26	1082.26
709.59	1084.84
709.93	1087.18
710.26	1098.18
710.60	1098.88
710.93	1090.69
711.27	1085.31
711.60	1078.28
711.94	1071.97
712.27	1066.58
712.61	1078.05
712.94	1095.14
713.28	1089.05
713.61	1094.67
713.95	1096.78
714.28	1088.82
714.62	1071.73
714.95	1080.86
715.29	1083.90
715.62	1084.84
715.96	1086.48
716.29	1089.99
716.63	1084.60
716.96	1079.46
717.29	1082.26
717.63	1071.73
717.96	1072.20
718.30	1074.77
718.63	1066.35
718.97	1061.67
719.30	1074.77
719.63	1073.14
719.97	1066.82
720.30	1072.90
720.64	1075.94
720.97	1058.16
721.30	1062.14
721.64	1082.26
721.97	1084.60
722.31	1079.69
722.64	1086.01
722.97	1084.84
723.31	1068.22
723.64	1067.28
723.97	1061.20
724.31	1076.88
724.64	1079.46
724.98	1081.56
725.31	1078.28
725.64	1082.03
725.98	1072.67
726.31	1064.94
726.64	1063.07
726.97	1066.11
727.31	1072.43
727.64	1069.62
727.97	1068.92
728.31	1075.71
728.64	1069.62
728.97	1061.20
729.31	1074.54
729.64	1083.20
729.97	1092.09
730.30	1095.37
730.64	1100.99
730.97	1084.60
731.30	1079.69
731.63	1071.50
731.97	1075.71
732.30	1077.35
732.63	1081.09
732.96	1083.43
733.30	1075.94
733.63	1078.52
733.96	1072.67
734.29	1072.43
734.63	1075.48
734.96	1086.01
735.29	1079.46
735.62	1082.26
735.95	1090.69
736.29	1091.16
736.62	1100.52
736.95	1103.09
737.28	1104.03
737.61	1114.10
737.94	1105.67
738.28	1093.03
738.61	1089.99
738.94	1087.18
739.27	1075.01
739.60	1079.69
739.93	1084.84
740.27	1098.65
740.60	1099.35
740.93	1095.60
741.26	1096.78
741.59	1092.80
741.92	1073.60
742.25	1076.41
742.58	1067.99
742.91	1065.41
743.25	1057.69
743.58	1064.94
743.91	1057.69
744.24	1067.52
744.57	1072.90
744.90	1084.14
745.23	1088.58
745.56	1089.29
745.89	1087.41
746.22	1087.88
746.55	1084.37
746.88	1079.92
747.21	1079.92
747.54	1079.92
747.87	1081.80
748.20	1080.63
748.53	1082.73
748.87	1083.20
749.20	1082.26
749.53	1082.97
749.86	1080.63
750.19	1077.35
750.52	1075.24
750.85	1073.84
751.18	1060.73
751.51	1064.71
751.84	1068.92
752.16	1076.41
752.49	1075.24
752.82	1081.56
753.15	1083.43
753.48	1079.46
753.81	1074.31
754.14	1075.94
754.47	1079.22
754.80	1071.97
755.13	1075.24
755.46	1078.52
755.79	1087.18
756.12	1081.56
756.45	1080.63
756.78	1079.46
757.11	1079.69
757.43	1070.56
757.76	1072.20
758.09	1074.31
758.42	1078.99
758.75	1084.84
759.08	1086.48
759.41	1089.29
759.74	1088.58
760.07	1082.73
760.39	1086.48
760.72	1094.90
761.05	1094.43
761.38	1098.88
761.71	1100.52
762.04	1087.18
762.36	1078.99
762.69	1078.52
763.02	1079.46
763.35	1073.60
763.68	1069.86
764.01	1070.33
764.33	1068.22
764.66	1061.67
764.99	1064.94
765.32	1079.69
765.65	1082.03
765.97	1085.07
766.30	1089.29
766.63	1082.26
766.96	1080.39
767.28	1081.33
767.61	1078.52
767.94	1077.58
768.27	1089.05
768.59	1082.97
768.92	1082.26
769.25	1077.35
769.58	1084.14
769.90	1076.18
770.23	1069.62
770.56	1063.07
770.89	1070.80
771.21	1065.65
771.54	1061.90
771.87	1081.80
772.19	1085.31
772.52	1081.09
772.85	1082.26
773.17	1079.46
773.50	1063.07
773.83	1059.79
774.15	1057.45
774.48	1058.62
774.81	1066.11
775.13	1067.75
775.46	1069.16
775.79	1081.56
776.11	1085.07
776.44	1082.97
776.77	1086.94
777.09	1094.90
777.42	1088.82
777.74	1076.41
778.07	1086.24
778.40	1085.54
778.72	1086.71
779.05	1085.77
779.37	1088.82
779.70	1085.31
780.03	1086.01
780.35	1080.16
780.68	1082.03
781.00	1082.73
781.33	1083.67
781.65	1077.82
781.98	1071.97
782.31	1072.67
782.63	1072.20
782.96	1067.28
783.28	1079.46
783.61	1085.77
783.93	1082.97
784.26	1091.86
784.58	1093.50
784.91	1081.80
785.23	1080.86
785.56	1074.54
785.88	1063.07
786.21	1063.07
786.53	1067.28
786.86	1066.58
787.18	1075.94
787.51	1082.26
787.83	1082.97
788.16	1082.50
788.48	1079.92
788.81	1082.50
789.13	1086.48
789.46	1087.41
789.78	1083.90
790.10	1089.52
790.43	1075.94
790.75	1078.52
791.08	1074.54
791.40	1075.94
791.73	1080.39
792.05	1089.05
792.37	1077.35
792.70	1079.22
793.02	1078.99
793.35	1070.09
793.67	1072.20
793.99	1065.41
794.32	1067.05
794.64	1070.56
794.96	1072.67
795.29	1069.39
795.61	1089.05
795.93	1091.63
796.26	1093.50
796.58	1091.16
796.91	1094.43
797.23	1090.22
797.55	1087.65
797.87	1085.77
798.20	1089.29
798.52	1074.54
798.84	1070.09
799.17	1077.82
799.49	1069.39
799.81	1066.35
800.14	1073.60
800.46	1071.97
800.78	1062.60
801.10	1063.07
801.43	1061.20
801.75	1067.52
802.07	1065.88
802.40	1068.22
802.72	1078.75
803.04	1087.18
803.36	1079.92
803.69	1078.28
804.01	1071.50
804.33	1067.99
804.65	1067.52
804.97	1081.80
805.30	1089.52
805.62	1094.20
805.94	1087.88
806.26	1089.75
806.58	1083.90
806.91	1077.58
807.23	1083.43
807.55	1088.82
807.87	1085.54
808.19	1088.35
808.52	1097.24
808.84	1095.60
809.16	1097.24
809.48	1098.65
809.80	1093.26
810.12	1080.16
810.44	1084.60
810.77	1081.80
811.09	1076.65
811.41	1081.80
811.73	1093.50
812.05	1080.39
812.37	1083.67
812.69	1085.54
813.01	1078.05
813.33	1074.31
813.66	1080.39
813.98	1070.33
814.30	1080.16
814.62	1079.22
814.94	1079.46
815.26	1083.20
815.58	1093.26
815.90	1079.92
816.22	1090.69
816.54	1089.52
816.86	1067.99
817.18	1072.20
817.50	1081.56
817.82	1071.26
818.14	1067.52
818.46	1081.80
818.78	1068.92
819.10	1058.62
819.42	1056.28
819.74	1053.01
820.06	1048.33
820.38	1049.03
820.70	1052.30
821.02	1055.58
821.34	1061.67
821.66	1077.11
821.98	1082.03
822.30	1078.99
822.62	1085.07
822.94	1080.16
823.26	1071.73
823.58	1075.71
823.90	1082.03
824.22	1072.43
824.54	1087.18
824.86	1086.94
825.18	1082.26
825.50	1081.80
825.81	1091.63
826.13	1081.33
826.45	1079.69
826.77	1082.73
827.09	1083.20
827.41	1082.03
827.73	1083.90
828.05	1078.75
828.36	1074.07
828.68	1073.14
829.00	1067.99
829.32	1070.80
829.64	1072.43
829.96	1078.05
830.28	1077.58
830.59	1082.97
830.91	1090.92
831.23	1092.09
831.55	1093.26
831.87	1090.92
832.19	1094.90
832.50	1085.07
832.82	1089.75
833.14	1086.01
833.46	1088.12
833.78	1079.92
834.09	1086.01
834.41	1089.99
834.73	1096.31
835.05	1104.03
835.36	1103.80
835.68	1091.86
836.00	1093.97
836.32	1096.54
836.63	1091.86
836.95	1093.97
837.27	1094.43
837.59	1086.24
837.90	1080.86
838.22	1079.92
838.54	1073.14
838.85	1074.31
839.17	1066.82
839.49	1065.88
839.80	1062.60
840.12	1069.16
840.44	1068.22
840.76	1077.11
841.07	1075.01
841.39	1077.35
841.71	1077.35
842.02	1085.07
842.34	1092.80
842.65	1094.67
842.97	1094.20
843.29	1099.35
843.60	1102.39
843.92	1096.07
844.24	1091.39
844.55	1089.75
844.87	1089.75
845.18	1084.14
845.50	1082.03
845.82	1082.26
846.13	1081.33
846.45	1079.22
846.76	1079.46
847.08	1080.86
847.40	1079.22
847.71	1076.65
848.03	1074.07
848.34	1067.05
848.66	1064.71
848.97	1071.50
849.29	1070.33
849.60	1070.33
849.92	1075.71
850.24	1078.05
850.55	1067.28
850.87	1073.14
851.18	1071.03
851.50	1071.73
851.81	1074.31
852.13	1090.22
852.44	1090.69
852.76	1088.58
853.07	1082.50
853.39	1080.86
853.70	1078.05
854.01	1077.35
854.33	1073.37
854.64	1081.56
854.96	1071.03
855.27	1064.01
855.59	1062.37
855.90	1068.22
856.22	1058.39
856.53	1068.45
856.84	1072.43
857.16	1080.86
857.47	1077.11
857.79	1087.88
858.10	1091.63
858.41	1093.50
858.73	1085.07
859.04	1092.80
859.36	1090.46
859.67	1080.16
859.98	1073.14
860.30	1076.65
860.61	1077.82
860.92	1073.84
861.24	1077.82
861.55	1085.54
861.87	1083.90
862.18	1079.92
862.49	1087.18
862.81	1087.18
863.12	1077.82
863.43	1078.75
863.74	1081.80
864.06	1081.80
864.37	1084.84
864.68	1080.16
865.00	1076.18
865.31	1071.26
865.62	1066.82
865.94	1067.52
866.25	1072.20
866.56	1076.65
866.87	1072.90
867.19	1073.14
867.50	1078.99
867.81	1076.88
868.12	1069.86
868.44	1073.84
868.75	1069.86
869.06	1059.56
869.37	1068.92
869.68	1072.67
870.00	1070.56
870.31	1078.28
870.62	1075.94
870.93	1077.11
871.24	1077.82
871.56	1077.11
871.87	1069.86
872.18	1065.41
872.49	1052.77
872.80	1040.13
873.12	1051.60
873.43	1047.39
873.74	1055.58
874.05	1070.56
874.36	1090.92
874.67	1079.92
874.98	1089.52
875.29	1093.50
875.61	1090.22
875.92	1075.94
876.23	1082.26
876.54	1076.88
876.85	1077.11
877.16	1071.03
877.47	1081.09
877.78	1085.54
878.09	1085.54
878.40	1094.90
878.72	1092.56
879.03	1083.90
879.34	1080.16
879.65	1083.43
879.96	1078.99
880.27	1085.31
880.58	1094.20
880.89	1092.09
881.20	1082.26
881.51	1082.03
881.82	1073.84
882.13	1069.16
882.44	1065.18
882.75	1080.63
883.06	1077.82
883.37	1085.31
883.68	1085.31
883.99	1086.48
884.30	1076.88
884.61	1075.71
884.92	1079.92
885.23	1080.16
885.54	1079.46
885.85	1081.80
886.16	1083.90
886.47	1083.20
886.78	1089.29
887.08	1094.67
887.39	1096.54
887.70	1089.99
888.01	1089.05
888.32	1093.03
888.63	1090.22
888.94	1095.37
889.25	1097.71
889.56	1088.35
889.87	1075.71
890.17	1079.22
890.48	1071.03
890.79	1071.73
891.10	1083.20
891.41	1075.71
891.72	1066.82
892.03	1070.33
892.34	1069.62
892.64	1075.94
892.95	1092.33
893.26	1095.84
893.57	1094.90
893.88	1096.54
894.18	1088.35
894.49	1089.52
894.80	1084.37
895.11	1078.28
895.42	1065.41
895.72	1073.37
896.03	1056.99
896.34	1057.69
896.65	1065.18
896.96	1071.50
897.26	1060.96
897.57	1074.31
897.88	1084.14
898.19	1081.80
898.49	1084.37
898.80	1079.22
899.11	1078.05
899.41	1075.24
899.72	1074.07
900.03	1080.86
900.34	1082.26
900.64	1081.33
900.95	1090.22
901.26	1093.26
901.56	1089.05
901.87	1092.33
902.18	1097.01
902.48	1092.33
902.79	1100.05
903.10	1092.80
903.40	1099.58
903.71	1090.69
904.02	1088.12
904.32	1079.46
904.63	1085.54
904.94	1075.94
905.24	1079.92
905.55	1077.82
905.85	1076.18
906.16	1070.33
906.47	1074.77
906.77	1070.56
907.08	1064.71
907.38	1064.48
907.69	1080.16
908.00	1080.86
908.30	1084.84
908.61	1085.77
908.91	1088.35
909.22	1081.80
909.52	1079.69
909.83	1086.48
910.14	1093.73
910.44	1090.69
910.75	1089.52
911.05	1094.20
911.36	1080.63
911.66	1075.94
911.97	1075.94
912.27	1072.67
912.58	1066.11
912.88	1073.60
913.19	1067.05
913.49	1067.99
913.80	1066.58
914.10	1064.71
914.41	1071.73
914.71	1075.01
915.01	1073.60
915.32	1077.35
915.62	1082.73
915.93	1072.90
916.23	1079.46
916.54	1088.12
916.84	1089.75
917.15	1089.29
917.45	1094.90
917.75	1101.22
918.06	1099.12
918.36	1103.09
918.67	1103.09
918.97	1098.65
919.27	1090.46
919.58	1081.09
919.88	1070.80
920.18	1067.28
920.49	1068.45
920.79	1063.07
921.10	1073.60
921.40	1068.69
921.70	1071.50
922.01	1078.05
922.31	1081.56
922.61	1083.20
922.92	1091.39
923.22	1089.29
923.52	1084.84
923.82	1085.31
924.13	1075.71
924.43	1075.24
924.73	1071.03
925.04	1054.18
925.34	1057.45
925.64	1067.28
925.94	1069.16
926.25	1074.54
926.55	1094.90
926.85	1097.24
927.15	1089.05
927.46	1098.18
927.76	1096.78
928.06	1085.77
928.36	1077.11
928.67	1079.46
928.97	1058.86
929.27	1062.60
929.57	1069.16
929.87	1073.84
930.18	1068.69
930.48	1077.58
930.78	1078.75
931.08	1081.56
931.38	1085.07
931.69	1096.07
931.99	1095.60
932.29	1090.46
932.59	1088.35
932.89	1089.75
933.19	1091.86
933.49	1084.84
933.80	1085.77
934.10	1087.65
934.40	1084.37
934.70	1061.20
935.00	1066.82
935.30	1055.82
935.60	1047.86
935.90	1054.88
936.20	1064.01
936.50	1066.11
936.81	1079.69
937.11	1081.80
937.41	1078.99
937.71	1084.60
938.01	1095.37
938.31	1083.67
938.61	1080.39
938.91	1065.41
939.21	1055.11
939.51	1040.60
939.81	1053.01
940.11	1053.94
940.41	1066.58
940.71	1071.73
941.01	1073.60
941.31	1085.07
941.61	1089.99
941.91	1082.03
942.21	1093.03
942.51	1098.18
942.81	1087.41
943.11	1089.29
943.41	1087.41
943.71	1078.75
944.01	1075.94
944.31	1077.35
944.61	1072.90
944.90	1081.80
945.20	1089.52
945.50	1088.82
945.80	1081.09
946.10	1080.86
946.40	1081.09
946.70	1078.52
947.00	1083.43
947.30	1090.92
947.60	1091.63
947.89	1090.22
948.19	1085.31
948.49	1085.07
948.79	1081.33
949.09	1085.31
949.39	1090.69
949.69	1097.01
949.98	1099.58
950.28	1098.18
950.58	1105.20
950.88	1105.44
951.18	1101.46
951.48	1097.24
951.77	1103.33
952.07	1092.33
952.37	1081.80
952.67	1079.92
952.97	1081.56
953.26	1078.75
953.56	1083.20
953.86	1084.37
954.16	1086.24
954.45	1090.69
954.75	1082.50
955.05	1073.37
955.35	1070.33
955.64	1074.31
955.94	1060.50
956.24	1068.92
956.54	1078.05
956.83	1081.09
957.13	1071.50
957.43	1073.84
957.72	1068.69
958.02	1064.48
958.32	1063.31
958.61	1072.20
958.91	1079.69
959.21	1081.80
959.50	1075.71
959.80	1071.73
960.10	1063.54
960.39	1068.22
960.69	1066.58
960.99	1068.92
961.28	1074.31
961.58	1078.52
961.87	1075.01
962.17	1075.48
962.47	1078.99
962.76	1081.56
963.06	1086.71
963.36	1083.90
963.65	1085.07
963.95	1091.16
964.24	1091.86
964.54	1078.28
964.83	1068.69
965.13	1077.11
965.42	1066.58
965.72	1063.07
966.02	1063.31
966.31	1081.56
966.61	1071.03
966.90	1077.11
967.20	1081.80
967.49	1089.05
967.79	1072.20
968.08	1075.71
968.38	1070.80
968.67	1073.60
968.97	1078.99
969.26	1076.18
969.56	1074.07
969.85	1076.65
970.15	1069.86
970.44	1075.01
970.74	1082.73
971.03	1077.82
971.32	1085.31
971.62	1086.24
971.91	1072.43
972.21	1066.82
972.50	1069.86
972.80	1063.07
973.09	1062.37
973.38	1064.24
973.68	1068.92
973.97	1072.90
974.27	1081.33
974.56	1093.97
974.85	1089.99
975.15	1083.90
975.44	1081.56
975.73	1075.01
976.03	1065.41
976.32	1063.31
976.61	1075.94
976.91	1076.65
977.20	1080.63
977.49	1077.82
977.79	1082.50
978.08	1072.43
978.37	1068.45
978.67	1063.54
978.96	1061.20
979.25	1067.99
979.55	1081.33
979.84	1083.43
980.13	1090.46
980.42	1091.86
980.72	1081.56
981.01	1071.50
981.30	1067.52
981.59	1060.73
981.89	1063.31
982.18	1072.20
982.47	1072.67
982.76	1073.14
983.06	1067.99
983.35	1066.82
983.64	1076.18
983.93	1078.75
984.22	1086.01
984.52	1083.43
984.81	1091.86
985.10	1085.54
985.39	1094.43
985.68	1094.43
985.97	1097.24
986.27	1085.07
986.56	1085.77
986.85	1078.52
987.14	1080.39
987.43	1081.09
987.72	1086.24
988.01	1093.26
988.31	1102.16
988.60	1099.12
988.89	1099.82
989.18	1089.75
989.47	1085.07
989.76	1073.60
990.05	1076.88
990.34	1073.37
990.63	1089.52
990.92	1091.39
991.21	1098.18
991.51	1092.09
991.80	1095.60
992.09	1088.58
992.38	1074.77
992.67	1078.05
992.96	1078.52
993.25	1083.43
993.54	1070.80
993.83	1075.24
994.12	1058.62
994.41	1052.77
994.70	1043.88
994.99	1062.60
995.28	1067.28
995.57	1069.16
995.86	1081.33
996.15	1082.97
996.44	1078.28
996.73	1065.41
997.02	1077.35
997.31	1071.73
997.59	1073.84
997.88	1079.69
998.17	1087.18
998.46	1079.22
998.75	1082.26
999.04	1078.52
999.33	1064.71
999.62	1062.60
999.91	1057.45
1000.20	1056.75
1000.49	1063.54
1000.77	1064.01
1001.06	1061.67
1001.35	1072.90
1001.64	1068.45
1001.93	1066.11
1002.22	1065.65
1002.51	1075.01
1002.79	1066.11
1003.08	1069.16
1003.37	1076.65
1003.66	1082.50
1003.95	1079.92
1004.23	1089.75
1004.52	1079.46
1004.81	1071.26
1005.10	1076.18
1005.39	1070.56
1005.67	1071.26
1005.96	1082.26
1006.25	1084.84
1006.54	1083.67
1006.83	1086.01
1007.11	1082.03
1007.40	1086.01
1007.69	1085.31
1007.97	1090.69
1008.26	1096.31
1008.55	1100.52
1008.84	1097.01
1009.12	1097.24
1009.41	1082.26
1009.70	1078.52
1009.98	1076.18
1010.27	1074.07
1010.56	1078.28
1010.85	1084.37
1011.13	1092.09
1011.42	1079.46
1011.71	1076.88
1011.99	1074.31
1012.28	1067.52
1012.56	1048.56
1012.85	1056.75
1013.14	1066.35
1013.42	1066.58
1013.71	1073.60
1014.00	1095.14
1014.28	1098.41
1014.57	1100.99
1014.85	1103.56
1015.14	1106.84
1015.43	1101.92
1015.71	1101.22
1016.00	1096.31
1016.28	1099.35
1016.57	1097.24
1016.85	1090.46
1017.14	1080.39
1017.43	1077.35
1017.71	1071.03
1018.00	1072.90
1018.28	1082.03
1018.57	1087.18
1018.85	1092.56
1019.14	1099.58
1019.42	1100.75
1019.71	1094.43
1019.99	1103.56
1020.28	1089.52
1020.56	1077.11
1020.85	1075.24
1021.13	1072.20
1021.42	1066.11
1021.70	1072.90
1021.99	1084.37
1022.27	1089.75
1022.55	1110.58
1022.84	1114.10
>>>>>End Processed Spectral Data<<<<<
