SpectraSuite Data File
++++++++++++++++++++++++++++++++++++
Date: Mon Aug 26 10:25:58 PDT 2019
User: corrico
Dark Spectrum Present: No
Reference Spectrum Present: No
Number of Sampled Component Spectra: 1
Spectrometers: USB2+H06089
Integration Time (usec): 10000 (USB2+H06089)
Spectra Averaged: 2 (USB2+H06089)
Boxcar Smoothing: 2 (USB2+H06089)
Correct for Electrical Dark: No (USB2+H06089)
Strobe/Lamp Enabled: No (USB2+H06089)
Correct for Detector Non-linearity: No (USB2+H06089)
Correct for Stray Light: No (USB2+H06089)
Number of Pixels in Processed Spectrum: 2048
>>>>>Begin Processed Spectral Data<<<<<
339.70	1042.71
340.07	1042.71
340.45	998.71
340.82	974.37
341.19	955.41
341.57	928.02
341.94	925.21
342.31	933.64
342.69	930.13
343.06	924.51
343.43	925.45
343.81	915.62
344.18	903.68
344.55	907.66
344.93	911.40
345.30	921.94
345.67	924.04
346.04	936.21
346.42	943.47
346.79	956.34
347.16	958.68
347.54	963.60
347.91	980.45
348.28	987.71
348.65	988.64
349.03	997.07
349.40	1006.90
349.77	1005.03
350.14	1013.92
350.52	1020.24
350.89	1028.20
351.26	1043.88
351.63	1046.69
352.01	1051.84
352.38	1054.88
352.75	1052.30
353.12	1056.75
353.50	1059.79
353.87	1061.20
354.24	1057.45
354.61	1064.01
354.98	1059.09
355.36	1061.20
355.73	1067.28
356.10	1076.41
356.47	1085.77
356.84	1091.39
357.22	1101.69
357.59	1095.37
357.96	1087.88
358.33	1085.31
358.70	1090.46
359.08	1084.37
359.45	1078.99
359.82	1088.58
360.19	1086.48
360.56	1077.35
360.94	1068.22
361.31	1076.18
361.68	1077.82
362.05	1070.56
362.42	1071.50
362.79	1079.92
363.16	1077.11
363.54	1073.37
363.91	1072.67
364.28	1075.94
364.65	1074.77
365.02	1076.41
365.39	1073.60
365.76	1070.33
366.14	1067.05
366.51	1070.56
366.88	1071.73
367.25	1071.97
367.62	1075.94
367.99	1075.94
368.36	1069.39
368.73	1065.65
369.10	1075.24
369.48	1076.65
369.85	1081.80
370.22	1087.41
370.59	1091.39
370.96	1080.86
371.33	1071.73
371.70	1074.54
372.07	1077.35
372.44	1079.22
372.81	1082.03
373.18	1094.67
373.55	1083.43
373.93	1080.63
374.30	1074.77
374.67	1078.52
375.04	1070.09
375.41	1074.77
375.78	1061.20
376.15	1063.07
376.52	1057.22
376.89	1064.01
377.26	1057.22
377.63	1071.97
378.00	1069.39
378.37	1068.45
378.74	1065.18
379.11	1068.92
379.48	1070.56
379.85	1076.88
380.22	1085.77
380.59	1085.54
380.96	1083.67
381.33	1076.88
381.70	1070.80
382.07	1067.52
382.44	1065.41
382.81	1061.67
383.18	1065.88
383.55	1060.03
383.92	1053.71
384.29	1057.22
384.66	1068.45
385.03	1055.82
385.40	1065.41
385.77	1064.94
386.14	1065.41
386.51	1059.09
386.88	1063.54
387.25	1066.82
387.62	1066.82
387.99	1069.62
388.36	1070.33
388.73	1074.54
389.10	1073.60
389.46	1083.90
389.83	1081.09
390.20	1087.88
390.57	1091.63
390.94	1087.18
391.31	1079.69
391.68	1083.20
392.05	1079.22
392.42	1076.18
392.79	1070.80
393.16	1073.14
393.53	1072.20
393.89	1079.69
394.26	1079.92
394.63	1095.14
395.00	1089.29
395.37	1079.92
395.74	1076.41
396.11	1084.84
396.48	1078.05
396.84	1077.35
397.21	1087.65
397.58	1090.22
397.95	1083.43
398.32	1075.94
398.69	1084.37
399.06	1079.46
399.42	1077.35
399.79	1068.45
400.16	1074.54
400.53	1071.73
400.90	1074.77
401.27	1073.84
401.64	1081.09
402.00	1074.31
402.37	1074.31
402.74	1074.07
403.11	1074.07
403.48	1081.80
403.84	1096.31
404.21	1089.05
404.58	1084.84
404.95	1084.14
405.32	1082.50
405.68	1072.43
406.05	1083.90
406.42	1095.60
406.79	1089.99
407.16	1082.26
407.52	1093.03
407.89	1091.16
408.26	1091.86
408.63	1092.80
408.99	1090.92
409.36	1078.05
409.73	1071.03
410.10	1067.52
410.47	1069.39
410.83	1069.86
411.20	1077.58
411.57	1081.56
411.94	1082.50
412.30	1089.75
412.67	1089.29
413.04	1070.09
413.40	1064.24
413.77	1063.07
414.14	1047.39
414.51	1054.41
414.87	1067.52
415.24	1072.67
415.61	1063.31
415.97	1071.03
416.34	1063.54
416.71	1066.35
417.08	1070.09
417.44	1077.35
417.81	1079.69
418.18	1082.73
418.54	1079.69
418.91	1081.09
419.28	1071.97
419.64	1065.88
420.01	1060.26
420.38	1061.67
420.74	1059.09
421.11	1065.41
421.48	1071.73
421.84	1075.94
422.21	1078.05
422.58	1080.39
422.94	1090.92
423.31	1089.29
423.68	1093.50
424.04	1089.29
424.41	1087.88
424.77	1067.05
425.14	1066.35
425.51	1061.43
425.87	1062.37
426.24	1056.52
426.61	1065.65
426.97	1062.14
427.34	1058.86
427.70	1063.54
428.07	1072.67
428.44	1079.22
428.80	1087.41
429.17	1090.69
429.53	1086.71
429.90	1087.18
430.27	1078.28
430.63	1082.97
431.00	1085.54
431.36	1081.80
431.73	1072.20
432.09	1077.58
432.46	1056.75
432.83	1056.28
433.19	1056.05
433.56	1064.71
433.92	1068.45
434.29	1080.39
434.65	1088.35
435.02	1092.56
435.38	1096.54
435.75	1085.07
436.11	1086.01
436.48	1077.11
436.84	1080.63
437.21	1075.24
437.57	1085.07
437.94	1082.50
438.30	1085.77
438.67	1082.26
439.03	1076.41
439.40	1069.86
439.76	1077.82
440.13	1076.65
440.49	1083.67
440.86	1090.46
441.22	1088.12
441.59	1081.80
441.95	1075.48
442.32	1066.35
442.68	1056.75
443.05	1061.67
443.41	1064.01
443.78	1066.58
444.14	1066.58
444.51	1069.39
444.87	1076.41
445.24	1069.62
445.60	1077.35
445.96	1076.88
446.33	1088.12
446.69	1079.22
447.06	1085.07
447.42	1079.92
447.79	1090.22
448.15	1077.82
448.51	1082.73
448.88	1080.39
449.24	1073.84
449.61	1071.50
449.97	1069.39
450.33	1068.22
450.70	1072.20
451.06	1087.88
451.43	1081.33
451.79	1086.48
452.15	1086.01
452.52	1081.33
452.88	1070.33
453.24	1077.35
453.61	1082.03
453.97	1086.24
454.34	1085.54
454.70	1089.52
455.06	1086.94
455.43	1092.09
455.79	1086.24
456.15	1096.07
456.52	1096.07
456.88	1099.12
457.24	1086.94
457.61	1084.84
457.97	1080.86
458.33	1088.35
458.70	1086.24
459.06	1086.94
459.42	1087.41
459.79	1096.07
460.15	1094.67
460.51	1093.97
460.88	1089.75
461.24	1094.43
461.60	1082.03
461.96	1073.14
462.33	1071.97
462.69	1080.86
463.05	1073.37
463.42	1072.43
463.78	1071.26
464.14	1067.05
464.50	1064.24
464.87	1064.24
465.23	1065.65
465.59	1069.62
465.95	1073.60
466.32	1075.48
466.68	1093.97
467.04	1101.69
467.40	1108.71
467.77	1114.33
468.13	1112.22
468.49	1093.26
468.85	1084.14
469.22	1074.77
469.58	1070.09
469.94	1072.20
470.30	1077.35
470.66	1087.65
471.03	1089.52
471.39	1087.65
471.75	1098.18
472.11	1104.03
472.47	1094.67
472.84	1091.16
473.20	1086.71
473.56	1074.07
473.92	1064.71
474.28	1069.86
474.65	1077.82
475.01	1077.82
475.37	1084.14
475.73	1089.29
476.09	1079.69
476.45	1072.20
476.81	1074.31
477.18	1069.86
477.54	1061.20
477.90	1071.73
478.26	1072.43
478.62	1074.54
478.98	1061.67
479.34	1065.18
479.71	1059.79
480.07	1053.24
480.43	1049.50
480.79	1054.18
481.15	1057.92
481.51	1057.45
481.87	1060.03
482.23	1062.84
482.59	1066.11
482.96	1061.20
483.32	1061.67
483.68	1079.92
484.04	1090.22
484.40	1091.63
484.76	1097.95
485.12	1093.73
485.48	1083.90
485.84	1077.35
486.20	1083.90
486.56	1088.12
486.92	1086.48
487.28	1086.01
487.64	1084.84
488.00	1078.05
488.37	1070.56
488.73	1066.11
489.09	1069.86
489.45	1062.14
489.81	1066.82
490.17	1067.99
490.53	1076.88
490.89	1074.31
491.25	1085.07
491.61	1084.37
491.97	1084.37
492.33	1085.77
492.69	1081.80
493.05	1071.26
493.41	1072.90
493.77	1075.01
494.13	1076.88
494.49	1082.73
494.85	1090.92
495.21	1087.65
495.57	1084.60
495.93	1091.63
496.29	1081.56
496.64	1079.22
497.00	1088.12
497.36	1090.92
497.72	1072.20
498.08	1086.01
498.44	1089.29
498.80	1082.97
499.16	1085.54
499.52	1096.07
499.88	1091.86
500.24	1094.43
500.60	1097.01
500.96	1094.20
501.32	1100.99
501.68	1101.92
502.03	1091.39
502.39	1093.03
502.75	1087.18
503.11	1083.67
503.47	1082.97
503.83	1090.92
504.19	1082.73
504.55	1084.37
504.91	1080.86
505.26	1086.48
505.62	1082.97
505.98	1087.88
506.34	1092.56
506.70	1093.03
507.06	1089.75
507.42	1087.65
507.78	1086.01
508.13	1086.24
508.49	1085.77
508.85	1079.92
509.21	1083.20
509.57	1083.43
509.93	1077.82
510.28	1079.46
510.64	1080.16
511.00	1080.39
511.36	1077.35
511.72	1081.56
512.07	1083.67
512.43	1077.11
512.79	1079.92
513.15	1086.71
513.51	1096.07
513.86	1097.01
514.22	1102.63
514.58	1104.03
514.94	1099.12
515.30	1089.75
515.65	1086.01
516.01	1089.99
516.37	1087.41
516.73	1095.84
517.08	1094.20
517.44	1080.39
517.80	1073.60
518.16	1067.99
518.51	1058.86
518.87	1057.22
519.23	1070.80
519.59	1079.46
519.94	1091.39
520.30	1097.95
520.66	1100.52
521.01	1103.09
521.37	1098.41
521.73	1088.82
522.09	1086.94
522.44	1088.35
522.80	1092.80
523.16	1093.97
523.51	1102.39
523.87	1098.18
524.23	1104.50
524.58	1106.84
524.94	1110.35
525.30	1107.78
525.65	1111.75
526.01	1117.37
526.37	1112.69
526.72	1108.01
527.08	1102.16
527.44	1101.46
527.79	1086.24
528.15	1086.48
528.51	1080.63
528.86	1080.16
529.22	1086.24
529.58	1092.56
529.93	1092.09
530.29	1109.88
530.65	1118.54
531.00	1113.63
531.36	1113.39
531.71	1108.24
532.07	1097.95
532.43	1093.73
532.78	1096.78
533.14	1101.69
533.49	1093.50
533.85	1099.35
534.21	1103.56
534.56	1093.97
534.92	1088.82
535.27	1093.03
535.63	1080.86
535.98	1070.33
536.34	1069.16
536.69	1066.35
537.05	1068.92
537.41	1071.03
537.76	1075.48
538.12	1088.35
538.47	1095.14
538.83	1106.61
539.18	1108.71
539.54	1108.95
539.89	1098.65
540.25	1089.99
540.60	1076.18
540.96	1074.54
541.31	1082.03
541.67	1089.05
542.02	1099.12
542.38	1099.35
542.73	1094.67
543.09	1094.20
543.44	1086.71
543.80	1078.99
544.15	1080.39
544.51	1090.92
544.86	1087.41
545.22	1090.69
545.57	1090.69
545.93	1089.99
546.28	1094.90
546.64	1104.50
546.99	1115.03
547.35	1122.52
547.70	1122.05
548.05	1121.58
548.41	1103.80
548.76	1097.01
549.12	1090.69
549.47	1107.31
549.83	1093.26
550.18	1092.33
550.53	1084.60
550.89	1082.26
551.24	1073.37
551.60	1080.39
551.95	1095.37
552.30	1097.48
552.66	1097.24
553.01	1087.41
553.37	1082.97
553.72	1078.05
554.07	1074.54
554.43	1071.26
554.78	1077.82
555.13	1080.86
555.49	1070.33
555.84	1071.73
556.19	1070.56
556.55	1076.65
556.90	1082.26
557.26	1091.63
557.61	1089.75
557.96	1094.43
558.32	1084.14
558.67	1079.46
559.02	1082.97
559.37	1092.33
559.73	1087.88
560.08	1090.92
560.43	1083.67
560.79	1074.07
561.14	1069.39
561.49	1066.58
561.85	1063.07
562.20	1067.28
562.55	1066.35
562.90	1061.90
563.26	1065.41
563.61	1071.50
563.96	1074.07
564.32	1068.69
564.67	1077.82
565.02	1079.22
565.37	1076.65
565.73	1080.63
566.08	1091.63
566.43	1086.94
566.78	1094.67
567.14	1081.33
567.49	1076.41
567.84	1075.01
568.19	1066.11
568.54	1062.60
568.90	1075.24
569.25	1071.26
569.60	1064.24
569.95	1076.18
570.31	1086.94
570.66	1099.58
571.01	1105.90
571.36	1117.61
571.71	1117.37
572.06	1103.09
572.42	1088.82
572.77	1082.50
573.12	1081.33
573.47	1082.73
573.82	1073.60
574.18	1081.33
574.53	1091.86
574.88	1093.50
575.23	1088.12
575.58	1092.09
575.93	1080.16
576.28	1072.67
576.64	1053.24
576.99	1050.20
577.34	1069.16
577.69	1079.22
578.04	1076.65
578.39	1092.09
578.74	1093.03
579.09	1087.65
579.44	1085.31
579.80	1095.14
580.15	1091.16
580.50	1091.39
580.85	1090.69
581.20	1082.26
581.55	1068.92
581.90	1070.80
582.25	1071.97
582.60	1070.80
582.95	1083.67
583.30	1095.84
583.65	1089.75
584.00	1089.52
584.35	1089.52
584.71	1082.50
585.06	1071.97
585.41	1078.52
585.76	1084.37
586.11	1087.65
586.46	1083.67
586.81	1093.73
587.16	1091.16
587.51	1091.16
587.86	1081.80
588.21	1078.28
588.56	1077.58
588.91	1085.31
589.26	1078.52
589.61	1084.60
589.96	1095.37
590.31	1089.29
590.66	1084.14
591.01	1090.92
591.36	1090.46
591.71	1092.56
592.06	1092.80
592.41	1098.88
592.76	1096.54
593.10	1088.58
593.45	1093.26
593.80	1086.24
594.15	1087.88
594.50	1085.07
594.85	1092.80
595.20	1085.07
595.55	1085.77
595.90	1075.24
596.25	1076.88
596.60	1074.54
596.95	1074.54
597.30	1071.26
597.64	1114.80
597.99	1124.63
598.34	1128.84
598.69	1131.65
599.04	1147.10
599.39	1106.61
599.74	1090.69
600.09	1084.84
600.44	1082.73
600.78	1075.71
601.13	1077.58
601.48	1086.48
601.83	1093.97
602.18	1093.73
602.53	1097.24
602.88	1102.16
603.22	1108.01
603.57	1109.65
603.92	1116.44
604.27	1120.18
604.62	1120.41
604.97	1108.48
605.31	1099.82
605.66	1095.37
606.01	1093.03
606.36	1085.31
606.71	1088.82
607.05	1093.50
607.40	1086.01
607.75	1084.14
608.10	1084.14
608.44	1078.05
608.79	1072.67
609.14	1067.75
609.49	1064.71
609.84	1071.50
610.18	1082.97
610.53	1077.11
610.88	1095.14
611.23	1098.88
611.57	1086.94
611.92	1082.97
612.27	1086.48
612.62	1082.97
612.96	1082.97
613.31	1079.46
613.66	1075.71
614.00	1073.84
614.35	1071.26
614.70	1075.94
615.05	1081.80
615.39	1086.94
615.74	1086.94
616.09	1082.03
616.43	1078.05
616.78	1082.03
617.13	1078.28
617.47	1085.07
617.82	1090.22
618.17	1085.54
618.51	1085.54
618.86	1094.90
619.21	1086.94
619.55	1099.35
619.90	1101.22
620.25	1093.50
620.59	1080.63
620.94	1089.52
621.29	1080.39
621.63	1080.39
621.98	1089.29
622.32	1090.46
622.67	1082.97
623.02	1071.03
623.36	1064.48
623.71	1056.28
624.05	1058.62
624.40	1061.43
624.75	1071.50
625.09	1075.71
625.44	1084.60
625.78	1084.14
626.13	1089.05
626.48	1079.92
626.82	1078.28
627.17	1075.94
627.51	1073.60
627.86	1064.48
628.20	1067.28
628.55	1075.01
628.89	1068.92
629.24	1067.05
629.58	1068.22
629.93	1073.14
630.28	1083.43
630.62	1092.33
630.97	1102.16
631.31	1110.58
631.66	1105.67
632.00	1093.97
632.35	1093.97
632.69	1088.58
633.04	1078.28
633.38	1084.60
633.73	1090.69
634.07	1094.43
634.42	1098.88
634.76	1103.33
635.11	1102.63
635.45	1095.84
635.79	1087.18
636.14	1078.75
636.48	1084.60
636.83	1083.90
637.17	1084.14
637.52	1085.77
637.86	1086.01
638.21	1084.37
638.55	1081.56
638.89	1077.11
639.24	1076.65
639.58	1086.94
639.93	1082.26
640.27	1085.77
640.61	1092.56
640.96	1096.54
641.30	1086.01
641.65	1080.16
641.99	1081.09
642.33	1074.07
642.68	1075.01
643.02	1076.41
643.37	1089.75
643.71	1096.31
644.05	1099.12
644.40	1094.90
644.74	1098.88
645.08	1100.05
645.43	1102.63
645.77	1105.44
646.11	1102.86
646.46	1089.75
646.80	1083.90
647.14	1066.58
647.49	1069.62
647.83	1069.16
648.17	1083.67
648.52	1077.35
648.86	1080.63
649.20	1073.84
649.55	1074.54
649.89	1066.82
650.23	1082.50
650.57	1088.82
650.92	1092.56
651.26	1090.69
651.60	1097.24
651.95	1086.71
652.29	1085.31
652.63	1080.16
652.97	1087.88
653.32	1089.29
653.66	1093.26
654.00	1098.18
654.34	1101.22
654.69	1101.69
655.03	1100.05
655.37	1109.41
655.71	1104.03
656.05	1102.39
656.40	1094.20
656.74	1086.24
657.08	1082.03
657.42	1078.28
657.76	1079.92
658.11	1078.52
658.45	1079.92
658.79	1064.48
659.13	1068.45
659.47	1073.60
659.82	1073.37
660.16	1081.09
660.50	1085.31
660.84	1082.26
661.18	1077.11
661.52	1084.37
661.87	1083.67
662.21	1080.16
662.55	1079.22
662.89	1069.86
663.23	1078.75
663.57	1082.50
663.91	1082.73
664.25	1078.75
664.60	1094.90
664.94	1091.86
665.28	1080.86
665.62	1094.20
665.96	1100.52
666.30	1096.54
666.64	1090.46
666.98	1086.24
667.32	1073.37
667.66	1072.90
668.01	1073.14
668.35	1063.31
668.69	1075.94
669.03	1080.16
669.37	1078.52
669.71	1088.12
670.05	1090.22
670.39	1098.18
670.73	1091.16
671.07	1089.52
671.41	1078.52
671.75	1088.82
672.09	1069.39
672.43	1076.65
672.77	1072.90
673.11	1064.48
673.45	1053.71
673.79	1055.58
674.13	1050.20
674.47	1051.13
674.81	1053.01
675.15	1063.54
675.49	1064.94
675.83	1068.92
676.17	1072.43
676.51	1075.24
676.85	1078.05
677.19	1087.41
677.53	1089.99
677.87	1089.52
678.21	1088.58
678.55	1085.54
678.89	1078.75
679.23	1082.73
679.57	1084.60
679.90	1086.94
680.24	1079.69
680.58	1089.05
680.92	1085.54
681.26	1080.63
681.60	1085.31
681.94	1087.88
682.28	1081.33
682.62	1077.58
682.96	1082.97
683.29	1075.24
683.63	1078.99
683.97	1092.80
684.31	1088.58
684.65	1087.88
684.99	1085.77
685.33	1081.33
685.67	1061.67
686.00	1060.73
686.34	1064.48
686.68	1066.11
687.02	1069.62
687.36	1079.69
687.70	1090.22
688.03	1089.99
688.37	1092.56
688.71	1092.80
689.05	1093.50
689.39	1086.48
689.72	1089.52
690.06	1092.56
690.40	1084.37
690.74	1072.90
691.08	1067.05
691.41	1055.11
691.75	1053.01
692.09	1053.24
692.43	1060.03
692.76	1067.99
693.10	1076.65
693.44	1082.50
693.78	1089.05
694.11	1085.77
694.45	1087.88
694.79	1080.16
695.13	1075.01
695.46	1071.73
695.80	1077.58
696.14	1074.07
696.48	1079.69
696.81	1075.01
697.15	1080.16
697.49	1082.26
697.82	1089.52
698.16	1089.29
698.50	1088.35
698.83	1088.58
699.17	1091.16
699.51	1084.14
699.84	1080.16
700.18	1078.52
700.52	1067.75
700.85	1062.84
701.19	1069.16
701.53	1076.41
701.86	1093.26
702.20	1098.88
702.54	1102.16
702.87	1098.65
703.21	1094.67
703.55	1087.88
703.88	1094.20
704.22	1080.86
704.55	1074.54
704.89	1071.50
705.23	1071.26
705.56	1071.03
705.90	1074.31
706.23	1075.48
706.57	1077.58
706.91	1076.65
707.24	1069.86
707.58	1074.07
707.91	1082.73
708.25	1092.09
708.58	1094.67
708.92	1089.75
709.26	1087.41
709.59	1083.67
709.93	1080.39
710.26	1067.28
710.60	1073.60
710.93	1083.90
711.27	1084.84
711.60	1076.88
711.94	1085.54
712.27	1089.75
712.61	1087.88
712.94	1095.37
713.28	1100.29
713.61	1099.35
713.95	1097.71
714.28	1093.97
714.62	1082.73
714.95	1076.88
715.29	1083.90
715.62	1075.94
715.96	1074.54
716.29	1075.24
716.63	1077.82
716.96	1064.48
717.29	1068.69
717.63	1060.50
717.96	1060.96
718.30	1058.62
718.63	1077.35
718.97	1084.14
719.30	1092.56
719.63	1095.14
719.97	1091.16
720.30	1082.97
720.64	1089.75
720.97	1095.60
721.30	1093.97
721.64	1108.71
721.97	1094.90
722.31	1084.37
722.64	1070.80
722.97	1066.35
723.31	1059.56
723.64	1071.03
723.97	1075.94
724.31	1078.28
724.64	1088.82
724.98	1076.41
725.31	1082.73
725.64	1074.54
725.98	1071.73
726.31	1072.67
726.64	1082.73
726.97	1069.39
727.31	1073.14
727.64	1075.71
727.97	1075.94
728.31	1078.99
728.64	1080.16
728.97	1078.28
729.31	1086.01
729.64	1086.94
729.97	1081.09
730.30	1085.54
730.64	1086.48
730.97	1076.65
731.30	1069.16
731.63	1072.90
731.97	1075.71
732.30	1077.35
732.63	1081.56
732.96	1085.07
733.30	1084.84
733.63	1080.63
733.96	1071.73
734.29	1071.97
734.63	1074.54
734.96	1070.33
735.29	1078.05
735.62	1092.33
735.95	1099.58
736.29	1097.24
736.62	1104.50
736.95	1092.09
737.28	1083.67
737.61	1080.16
737.94	1079.22
738.28	1080.39
738.61	1086.48
738.94	1083.20
739.27	1080.63
739.60	1067.75
739.93	1054.18
740.27	1056.75
740.60	1061.67
740.93	1061.43
741.26	1067.28
741.59	1077.82
741.92	1084.37
742.25	1080.39
742.58	1077.82
742.91	1088.35
743.25	1092.33
743.58	1088.35
743.91	1084.60
744.24	1091.39
744.57	1088.58
744.90	1086.71
745.23	1085.54
745.56	1092.80
745.89	1084.60
746.22	1076.65
746.55	1077.58
746.88	1073.37
747.21	1073.84
747.54	1071.73
747.87	1072.43
748.20	1069.39
748.53	1071.26
748.87	1072.90
749.20	1083.20
749.53	1086.01
749.86	1083.20
750.19	1075.71
750.52	1069.16
750.85	1064.48
751.18	1062.14
751.51	1065.65
751.84	1067.52
752.16	1066.11
752.49	1065.88
752.82	1070.09
753.15	1071.50
753.48	1073.84
753.81	1079.22
754.14	1077.35
754.47	1075.24
754.80	1071.73
755.13	1076.88
755.46	1078.75
755.79	1078.52
756.12	1086.01
756.45	1079.46
756.78	1068.45
757.11	1061.20
757.43	1068.69
757.76	1060.96
758.09	1067.99
758.42	1081.56
758.75	1086.01
759.08	1074.07
759.41	1080.63
759.74	1080.39
760.07	1068.22
760.39	1063.07
760.72	1069.86
761.05	1066.11
761.38	1078.99
761.71	1087.65
762.04	1085.07
762.36	1082.97
762.69	1081.09
763.02	1064.48
763.35	1063.54
763.68	1071.73
764.01	1074.77
764.33	1088.35
764.66	1098.41
764.99	1096.07
765.32	1100.29
765.65	1094.67
765.97	1087.41
766.30	1091.63
766.63	1097.71
766.96	1092.56
767.28	1101.69
767.61	1098.41
767.94	1082.97
768.27	1076.88
768.59	1074.07
768.92	1073.37
769.25	1071.97
769.58	1075.94
769.90	1079.69
770.23	1089.99
770.56	1085.77
770.89	1083.90
771.21	1085.07
771.54	1079.92
771.87	1078.99
772.19	1093.26
772.52	1097.01
772.85	1084.84
773.17	1087.41
773.50	1078.52
773.83	1066.58
774.15	1070.56
774.48	1075.24
774.81	1071.03
775.13	1077.82
775.46	1068.22
775.79	1049.26
776.11	1057.92
776.44	1057.69
776.77	1056.99
777.09	1066.82
777.42	1070.33
777.74	1074.31
778.07	1077.82
778.40	1076.18
778.72	1074.31
779.05	1081.09
779.37	1073.60
779.70	1073.14
780.03	1077.35
780.35	1074.54
780.68	1085.31
781.00	1089.52
781.33	1088.82
781.65	1095.60
781.98	1099.58
782.31	1085.77
782.63	1086.94
782.96	1091.63
783.28	1083.67
783.61	1077.58
783.93	1086.94
784.26	1076.65
784.58	1071.73
784.91	1063.31
785.23	1064.01
785.56	1064.94
785.88	1069.62
786.21	1083.67
786.53	1089.52
786.86	1091.63
787.18	1088.82
787.51	1085.54
787.83	1076.88
788.16	1080.86
788.48	1082.03
788.81	1075.71
789.13	1090.22
789.46	1088.35
789.78	1083.20
790.10	1083.43
790.43	1089.05
790.75	1080.86
791.08	1077.11
791.40	1074.31
791.73	1080.86
792.05	1083.67
792.37	1076.65
792.70	1082.50
793.02	1085.07
793.35	1082.50
793.67	1078.99
793.99	1090.46
794.32	1075.01
794.64	1077.11
794.96	1074.54
795.29	1077.11
795.61	1071.03
795.93	1088.35
796.26	1067.99
796.58	1054.65
796.91	1053.24
797.23	1046.22
797.55	1043.18
797.87	1061.43
798.20	1072.20
798.52	1064.01
798.84	1068.45
799.17	1060.73
799.49	1060.03
799.81	1065.18
800.14	1068.92
800.46	1064.94
800.78	1068.69
801.10	1068.92
801.43	1065.18
801.75	1069.86
802.07	1076.65
802.40	1081.33
802.72	1087.18
803.04	1083.67
803.36	1079.22
803.69	1085.07
804.01	1090.46
804.33	1086.01
804.65	1091.16
804.97	1091.63
805.30	1083.43
805.62	1077.11
805.94	1078.99
806.26	1069.16
806.58	1069.62
806.91	1077.35
807.23	1076.65
807.55	1071.03
807.87	1081.09
808.19	1090.69
808.52	1083.43
808.84	1082.97
809.16	1085.54
809.48	1078.99
809.80	1077.35
810.12	1071.97
810.44	1076.18
810.77	1070.56
811.09	1075.24
811.41	1075.24
811.73	1086.94
812.05	1087.41
812.37	1093.26
812.69	1091.63
813.01	1089.29
813.33	1086.01
813.66	1076.65
813.98	1076.41
814.30	1077.11
814.62	1070.80
814.94	1076.65
815.26	1068.92
815.58	1062.60
815.90	1063.54
816.22	1068.92
816.54	1060.73
816.86	1065.41
817.18	1067.99
817.50	1061.67
817.82	1057.92
818.14	1057.45
818.46	1056.75
818.78	1055.11
819.10	1064.01
819.42	1056.99
819.74	1057.69
820.06	1067.75
820.38	1077.11
820.70	1070.56
821.02	1083.43
821.34	1084.37
821.66	1080.86
821.98	1073.14
822.30	1078.05
822.62	1062.14
822.94	1059.33
823.26	1062.37
823.58	1068.45
823.90	1068.69
824.22	1078.52
824.54	1078.28
824.86	1073.14
825.18	1067.75
825.50	1060.50
825.81	1059.33
826.13	1055.82
826.45	1064.94
826.77	1075.71
827.09	1079.22
827.41	1072.90
827.73	1086.24
828.05	1082.97
828.36	1073.37
828.68	1084.60
829.00	1093.73
829.32	1082.03
829.64	1078.05
829.96	1082.50
830.28	1080.86
830.59	1082.73
830.91	1089.99
831.23	1100.99
831.55	1096.54
831.87	1089.52
832.19	1086.48
832.50	1079.69
832.82	1066.11
833.14	1077.82
833.46	1082.26
833.78	1073.60
834.09	1080.16
834.41	1089.75
834.73	1089.05
835.05	1084.60
835.36	1100.75
835.68	1093.50
836.00	1082.50
836.32	1076.18
836.63	1078.99
836.95	1078.28
837.27	1074.07
837.59	1074.07
837.90	1067.05
838.22	1074.54
838.54	1066.11
838.85	1070.33
839.17	1078.75
839.49	1082.73
839.80	1067.28
840.12	1066.35
840.44	1068.22
840.76	1075.94
841.07	1078.99
841.39	1083.67
841.71	1084.37
842.02	1084.60
842.34	1082.03
842.65	1084.37
842.97	1084.37
843.29	1088.82
843.60	1079.22
843.92	1069.39
844.24	1063.31
844.55	1062.37
844.87	1059.56
845.18	1076.88
845.50	1079.22
845.82	1087.65
846.13	1096.07
846.45	1099.35
846.76	1091.63
847.08	1084.37
847.40	1081.56
847.71	1088.82
848.03	1082.73
848.34	1084.37
848.66	1096.78
848.97	1095.84
849.29	1084.14
849.60	1091.63
849.92	1101.46
850.24	1092.33
850.55	1092.80
850.87	1100.75
851.18	1099.12
851.50	1092.56
851.81	1100.29
852.13	1095.84
852.44	1093.73
852.76	1090.92
853.07	1077.11
853.39	1067.52
853.70	1067.05
854.01	1056.28
854.33	1056.75
854.64	1064.94
854.96	1065.18
855.27	1068.45
855.59	1077.82
855.90	1082.73
856.22	1085.07
856.53	1092.09
856.84	1091.86
857.16	1080.86
857.47	1077.58
857.79	1074.07
858.10	1065.41
858.41	1068.69
858.73	1072.20
859.04	1069.62
859.36	1072.90
859.67	1078.99
859.98	1081.33
860.30	1080.16
860.61	1082.26
860.92	1087.41
861.24	1080.16
861.55	1074.31
861.87	1071.50
862.18	1068.69
862.49	1060.73
862.81	1061.67
863.12	1064.48
863.43	1067.99
863.74	1057.22
864.06	1060.96
864.37	1067.75
864.68	1053.94
865.00	1056.52
865.31	1073.14
865.62	1087.18
865.94	1087.65
866.25	1092.33
866.56	1095.60
866.87	1089.05
867.19	1069.62
867.50	1075.94
867.81	1076.65
868.12	1075.24
868.44	1079.46
868.75	1094.43
869.06	1090.22
869.37	1086.01
869.68	1078.75
870.00	1085.54
870.31	1076.65
870.62	1075.24
870.93	1079.92
871.24	1084.60
871.56	1077.11
871.87	1082.03
872.18	1076.65
872.49	1083.90
872.80	1081.56
873.12	1080.63
873.43	1078.75
873.74	1086.48
874.05	1089.05
874.36	1097.71
874.67	1096.31
874.98	1095.84
875.29	1082.26
875.61	1073.37
875.92	1072.20
876.23	1069.39
876.54	1080.16
876.85	1098.88
877.16	1102.16
877.47	1098.65
877.78	1102.16
878.09	1094.20
878.40	1080.63
878.72	1087.65
879.03	1091.39
879.34	1104.03
879.65	1107.54
879.96	1108.48
880.27	1094.20
880.58	1092.80
880.89	1077.11
881.20	1063.07
881.51	1067.28
881.82	1075.94
882.13	1067.99
882.44	1074.31
882.75	1080.86
883.06	1082.03
883.37	1082.03
883.68	1079.69
883.99	1074.07
884.30	1078.52
884.61	1074.77
884.92	1075.01
885.23	1074.31
885.54	1080.86
885.85	1083.20
886.16	1087.65
886.47	1082.50
886.78	1089.05
887.08	1081.33
887.39	1079.69
887.70	1075.48
888.01	1078.52
888.32	1082.03
888.63	1088.35
888.94	1082.73
889.25	1088.12
889.56	1081.33
889.87	1079.22
890.17	1064.71
890.48	1064.71
890.79	1056.05
891.10	1056.99
891.41	1055.35
891.72	1064.01
892.03	1064.94
892.34	1070.33
892.64	1078.75
892.95	1075.71
893.26	1078.52
893.57	1079.92
893.88	1082.03
894.18	1081.80
894.49	1086.94
894.80	1080.86
895.11	1078.75
895.42	1079.22
895.72	1078.05
896.03	1082.50
896.34	1092.09
896.65	1090.69
896.96	1089.29
897.26	1089.75
897.57	1082.03
897.88	1085.07
898.19	1089.99
898.49	1087.41
898.80	1088.82
899.11	1093.73
899.41	1082.03
899.72	1075.01
900.03	1077.58
900.34	1075.24
900.64	1075.94
900.95	1072.90
901.26	1075.48
901.56	1074.54
901.87	1076.65
902.18	1074.77
902.48	1079.46
902.79	1082.97
903.10	1087.18
903.40	1078.99
903.71	1074.54
904.02	1078.05
904.32	1072.67
904.63	1059.56
904.94	1066.58
905.24	1076.41
905.55	1082.97
905.85	1085.54
906.16	1090.46
906.47	1090.22
906.77	1084.37
907.08	1082.97
907.38	1090.46
907.69	1098.65
908.00	1091.63
908.30	1087.65
908.61	1078.52
908.91	1067.99
909.22	1065.41
909.52	1063.77
909.83	1061.90
910.14	1063.54
910.44	1064.24
910.75	1062.60
911.05	1070.80
911.36	1082.26
911.66	1083.20
911.97	1089.99
912.27	1088.58
912.58	1097.95
912.88	1092.09
913.19	1103.33
913.49	1102.86
913.80	1109.65
914.10	1107.54
914.41	1100.05
914.71	1080.39
915.01	1069.16
915.32	1064.48
915.62	1048.09
915.93	1052.54
916.23	1064.71
916.54	1074.54
916.84	1075.94
917.15	1086.71
917.45	1081.80
917.75	1082.03
918.06	1078.75
918.36	1075.24
918.67	1081.09
918.97	1092.56
919.27	1092.09
919.58	1089.29
919.88	1088.58
920.18	1079.22
920.49	1072.20
920.79	1074.77
921.10	1080.86
921.40	1073.84
921.70	1075.01
922.01	1076.88
922.31	1070.56
922.61	1065.18
922.92	1074.07
923.22	1076.18
923.52	1073.37
923.82	1061.20
924.13	1062.37
924.43	1062.84
924.73	1060.26
925.04	1067.05
925.34	1084.37
925.64	1087.88
925.94	1081.09
926.25	1068.92
926.55	1059.56
926.85	1051.13
927.15	1046.92
927.46	1051.60
927.76	1059.09
928.06	1060.26
928.36	1067.99
928.67	1072.20
928.97	1075.48
929.27	1075.94
929.57	1078.75
929.87	1082.03
930.18	1082.50
930.48	1082.97
930.78	1085.31
931.08	1083.67
931.38	1082.97
931.69	1083.67
931.99	1091.63
932.29	1090.46
932.59	1093.50
932.89	1093.03
933.19	1095.37
933.49	1084.60
933.80	1092.33
934.10	1101.46
934.40	1105.44
934.70	1095.84
935.00	1093.50
935.30	1082.26
935.60	1077.11
935.90	1071.03
936.20	1075.71
936.50	1078.99
936.81	1085.77
937.11	1086.01
937.41	1081.09
937.71	1076.41
938.01	1075.24
938.31	1075.48
938.61	1066.82
938.91	1070.33
939.21	1078.05
939.51	1072.20
939.81	1070.80
940.11	1082.50
940.41	1073.84
940.71	1071.50
941.01	1075.94
941.31	1077.35
941.61	1076.18
941.91	1081.33
942.21	1081.33
942.51	1088.58
942.81	1088.58
943.11	1074.77
943.41	1078.99
943.71	1077.11
944.01	1078.99
944.31	1072.67
944.61	1077.82
944.90	1078.28
945.20	1083.90
945.50	1080.86
945.80	1088.58
946.10	1091.63
946.40	1091.16
946.70	1084.37
947.00	1073.14
947.30	1076.18
947.60	1071.97
947.89	1071.26
948.19	1068.69
948.49	1071.50
948.79	1059.79
949.09	1065.88
949.39	1069.86
949.69	1077.58
949.98	1086.01
950.28	1092.56
950.58	1092.56
950.88	1085.54
951.18	1089.05
951.48	1078.99
951.77	1074.54
952.07	1073.84
952.37	1074.31
952.67	1071.03
952.97	1081.56
953.26	1080.63
953.56	1079.22
953.86	1081.33
954.16	1073.14
954.45	1070.56
954.75	1079.22
955.05	1085.31
955.35	1084.60
955.64	1092.09
955.94	1090.22
956.24	1088.82
956.54	1083.67
956.83	1089.99
957.13	1084.14
957.43	1080.86
957.72	1082.26
958.02	1076.65
958.32	1063.07
958.61	1065.65
958.91	1073.37
959.21	1071.26
959.50	1078.28
959.80	1088.12
960.10	1089.99
960.39	1082.50
960.69	1086.24
960.99	1091.63
961.28	1097.71
961.58	1095.84
961.87	1101.92
962.17	1091.86
962.47	1085.07
962.76	1070.09
963.06	1070.80
963.36	1074.77
963.65	1082.03
963.95	1089.75
964.24	1111.29
964.54	1114.10
964.83	1107.78
965.13	1108.71
965.42	1096.07
965.72	1077.11
966.02	1072.20
966.31	1086.48
966.61	1087.41
966.90	1099.35
967.20	1096.54
967.49	1102.16
967.79	1094.43
968.08	1086.24
968.38	1079.46
968.67	1082.97
968.97	1075.94
969.26	1068.22
969.56	1070.33
969.85	1068.69
970.15	1076.18
970.44	1080.63
970.74	1082.03
971.03	1083.20
971.32	1079.92
971.62	1066.35
971.91	1061.67
972.21	1048.09
972.50	1058.86
972.80	1062.37
973.09	1073.37
973.38	1078.52
973.68	1094.67
973.97	1085.07
974.27	1078.99
974.56	1078.75
974.85	1066.58
975.15	1063.31
975.44	1065.18
975.73	1076.41
976.03	1070.80
976.32	1076.88
976.61	1070.33
976.91	1073.14
977.20	1078.52
977.49	1078.99
977.79	1076.18
978.08	1081.56
978.37	1069.16
978.67	1049.26
978.96	1050.43
979.25	1058.16
979.55	1063.77
979.84	1075.24
980.13	1077.58
980.42	1086.01
980.72	1085.54
981.01	1083.43
981.30	1080.16
981.59	1087.18
981.89	1073.84
982.18	1068.92
982.47	1056.05
982.76	1056.05
983.06	1056.28
983.35	1064.24
983.64	1070.33
983.93	1080.86
984.22	1089.05
984.52	1086.94
984.81	1090.69
985.10	1093.03
985.39	1089.05
985.68	1079.22
985.97	1080.16
986.27	1068.22
986.56	1059.56
986.85	1066.82
987.14	1069.62
987.43	1072.20
987.72	1079.92
988.01	1084.14
988.31	1073.84
988.60	1070.09
988.89	1073.14
989.18	1075.01
989.47	1065.41
989.76	1071.97
990.05	1071.26
990.34	1068.45
990.63	1068.92
990.92	1085.31
991.21	1078.52
991.51	1089.29
991.80	1079.69
992.09	1068.92
992.38	1067.05
992.67	1073.14
992.96	1066.58
993.25	1077.82
993.54	1093.03
993.83	1086.71
994.12	1086.24
994.41	1085.07
994.70	1083.67
994.99	1077.35
995.28	1072.43
995.57	1068.45
995.86	1076.18
996.15	1080.16
996.44	1085.07
996.73	1092.56
997.02	1094.43
997.31	1082.03
997.59	1078.28
997.88	1077.82
998.17	1076.41
998.46	1080.16
998.75	1079.69
999.04	1083.20
999.33	1088.82
999.62	1088.58
999.91	1091.86
1000.20	1094.20
1000.49	1089.52
1000.77	1075.01
1001.06	1071.26
1001.35	1061.20
1001.64	1065.18
1001.93	1052.54
1002.22	1057.22
1002.51	1072.67
1002.79	1077.11
1003.08	1073.14
1003.37	1085.07
1003.66	1085.77
1003.95	1088.82
1004.23	1093.97
1004.52	1094.20
1004.81	1092.09
1005.10	1100.05
1005.39	1082.03
1005.67	1075.71
1005.96	1074.31
1006.25	1076.88
1006.54	1066.35
1006.83	1065.18
1007.11	1073.60
1007.40	1069.62
1007.69	1066.35
1007.97	1056.05
1008.26	1060.26
1008.55	1054.88
1008.84	1053.94
1009.12	1058.16
1009.41	1075.24
1009.70	1085.77
1009.98	1086.71
1010.27	1087.18
1010.56	1087.88
1010.85	1075.24
1011.13	1061.20
1011.42	1062.14
1011.71	1075.94
1011.99	1069.16
1012.28	1073.37
1012.56	1079.92
1012.85	1083.43
1013.14	1078.05
1013.42	1082.73
1013.71	1082.26
1014.00	1082.50
1014.28	1076.41
1014.57	1077.11
1014.85	1083.90
1015.14	1090.69
1015.43	1095.84
1015.71	1090.92
1016.00	1098.18
1016.28	1089.29
1016.57	1082.50
1016.85	1068.69
1017.14	1077.11
1017.43	1070.80
1017.71	1072.43
1018.00	1079.69
1018.28	1084.37
1018.57	1083.43
1018.85	1077.35
1019.14	1082.26
1019.42	1081.09
1019.71	1088.35
1019.99	1079.92
1020.28	1082.03
1020.56	1076.41
1020.85	1081.80
1021.13	1078.52
1021.42	1081.56
1021.70	1084.14
1021.99	1084.60
1022.27	1080.86
1022.55	1075.48
1022.84	1097.71
>>>>>End Processed Spectral Data<<<<<
