SpectraSuite Data File
++++++++++++++++++++++++++++++++++++
Date: Mon Aug 26 10:25:57 PDT 2019
User: corrico
Dark Spectrum Present: No
Reference Spectrum Present: No
Number of Sampled Component Spectra: 1
Spectrometers: USB2+H06089
Integration Time (usec): 10000 (USB2+H06089)
Spectra Averaged: 2 (USB2+H06089)
Boxcar Smoothing: 2 (USB2+H06089)
Correct for Electrical Dark: No (USB2+H06089)
Strobe/Lamp Enabled: No (USB2+H06089)
Correct for Detector Non-linearity: No (USB2+H06089)
Correct for Stray Light: No (USB2+H06089)
Number of Pixels in Processed Spectrum: 2048
>>>>>Begin Processed Spectral Data<<<<<
339.70	1019.30
340.07	1019.30
340.45	988.64
340.82	976.47
341.19	950.26
341.57	926.38
341.94	913.28
342.31	906.26
342.69	889.87
343.06	883.79
343.43	877.23
343.81	876.06
344.18	880.28
344.55	881.91
344.93	888.00
345.30	898.77
345.67	912.81
346.04	921.00
346.42	936.21
346.79	945.81
347.16	948.62
347.54	961.26
347.91	965.24
348.28	974.13
348.65	994.96
349.03	1005.96
349.40	1008.54
349.77	1016.03
350.14	1016.96
350.52	1016.03
350.89	1022.58
351.26	1023.52
351.63	1032.41
352.01	1036.62
352.38	1043.64
352.75	1046.69
353.12	1051.60
353.50	1055.35
353.87	1065.65
354.24	1060.73
354.61	1065.88
354.98	1072.43
355.36	1079.92
355.73	1082.73
356.10	1090.46
356.47	1092.80
356.84	1085.07
357.22	1079.22
357.59	1076.41
357.96	1071.50
358.33	1078.05
358.70	1086.24
359.08	1088.12
359.45	1084.37
359.82	1089.05
360.19	1079.46
360.56	1072.67
360.94	1072.90
361.31	1072.43
361.68	1077.58
362.05	1079.69
362.42	1079.22
362.79	1078.28
363.16	1085.77
363.54	1070.33
363.91	1067.99
364.28	1064.48
364.65	1052.54
365.02	1050.90
365.39	1062.84
365.76	1066.11
366.14	1073.14
366.51	1083.67
366.88	1077.35
367.25	1071.26
367.62	1080.86
367.99	1069.16
368.36	1067.75
368.73	1068.92
369.10	1071.97
369.48	1065.18
369.85	1082.50
370.22	1081.33
370.59	1082.97
370.96	1079.69
371.33	1078.75
371.70	1068.45
372.07	1065.88
372.44	1070.09
372.81	1081.09
373.18	1082.26
373.55	1082.97
373.93	1091.86
374.30	1080.39
374.67	1067.28
375.04	1062.14
375.41	1064.94
375.78	1050.67
376.15	1043.41
376.52	1052.77
376.89	1049.03
377.26	1039.67
377.63	1055.11
378.00	1064.48
378.37	1060.96
378.74	1059.79
379.11	1074.07
379.48	1076.41
379.85	1082.50
380.22	1084.37
380.59	1093.73
380.96	1085.31
381.33	1074.54
381.70	1070.80
382.07	1063.54
382.44	1065.65
382.81	1067.28
383.18	1069.39
383.55	1079.22
383.92	1084.14
384.29	1078.28
384.66	1086.48
385.03	1088.12
385.40	1092.33
385.77	1086.48
386.14	1089.99
386.51	1084.84
386.88	1078.52
387.25	1058.62
387.62	1060.50
387.99	1051.37
388.36	1054.65
388.73	1062.14
389.10	1063.54
389.46	1061.67
389.83	1069.39
390.20	1070.80
390.57	1067.05
390.94	1074.07
391.31	1080.63
391.68	1084.60
392.05	1078.05
392.42	1084.37
392.79	1088.12
393.16	1084.37
393.53	1076.88
393.89	1074.77
394.26	1064.24
394.63	1061.20
395.00	1058.86
395.37	1069.62
395.74	1067.05
396.11	1059.79
396.48	1062.60
396.84	1065.88
397.21	1056.28
397.58	1056.05
397.95	1067.05
398.32	1063.07
398.69	1066.58
399.06	1069.86
399.42	1079.22
399.79	1088.35
400.16	1089.99
400.53	1091.86
400.90	1087.88
401.27	1078.28
401.64	1068.69
402.00	1075.48
402.37	1065.18
402.74	1068.45
403.11	1064.71
403.48	1061.90
403.84	1055.11
404.21	1058.62
404.58	1051.13
404.95	1063.07
405.32	1064.94
405.68	1072.20
406.05	1065.41
406.42	1063.31
406.79	1061.90
407.16	1057.92
407.52	1048.33
407.89	1059.79
408.26	1070.33
408.63	1068.92
408.99	1079.92
409.36	1086.48
409.73	1086.48
410.10	1086.48
410.47	1084.60
410.83	1080.39
411.20	1072.43
411.57	1073.14
411.94	1075.24
412.30	1080.86
412.67	1082.26
413.04	1085.31
413.40	1075.71
413.77	1075.01
414.14	1075.48
414.51	1075.24
414.87	1076.18
415.24	1079.22
415.61	1075.01
415.97	1074.77
416.34	1068.45
416.71	1065.18
417.08	1071.03
417.44	1074.54
417.81	1076.88
418.18	1077.11
418.54	1083.90
418.91	1082.73
419.28	1084.14
419.64	1080.39
420.01	1087.18
420.38	1088.58
420.74	1085.54
421.11	1077.35
421.48	1069.86
421.84	1064.01
422.21	1064.71
422.58	1074.31
422.94	1079.46
423.31	1086.71
423.68	1092.56
424.04	1086.71
424.41	1077.35
424.77	1078.99
425.14	1075.01
425.51	1075.71
425.87	1075.94
426.24	1076.18
426.61	1074.31
426.97	1078.28
427.34	1076.18
427.70	1079.22
428.07	1083.90
428.44	1084.60
428.80	1081.09
429.17	1084.14
429.53	1075.24
429.90	1071.03
430.27	1070.09
430.63	1071.73
431.00	1071.26
431.36	1084.37
431.73	1083.43
432.09	1084.14
432.46	1088.12
432.83	1089.52
433.19	1085.31
433.56	1085.54
433.92	1084.14
434.29	1079.46
434.65	1065.18
435.02	1063.07
435.38	1062.60
435.75	1066.11
436.11	1064.48
436.48	1075.24
436.84	1074.07
437.21	1075.24
437.57	1058.39
437.94	1059.09
438.30	1055.58
438.67	1056.75
439.03	1062.84
439.40	1072.43
439.76	1073.84
440.13	1085.31
440.49	1085.07
440.86	1082.50
441.22	1082.50
441.59	1077.11
441.95	1065.41
442.32	1067.28
442.68	1070.09
443.05	1065.18
443.41	1079.69
443.78	1086.71
444.14	1083.90
444.51	1079.92
444.87	1085.77
445.24	1073.60
445.60	1069.86
445.96	1072.67
446.33	1067.52
446.69	1071.03
447.06	1078.28
447.42	1080.63
447.79	1071.97
448.15	1078.52
448.51	1083.20
448.88	1086.01
449.24	1076.88
449.61	1082.73
449.97	1081.80
450.33	1074.54
450.70	1072.90
451.06	1069.86
451.43	1081.56
451.79	1080.16
452.15	1077.11
452.52	1077.11
452.88	1085.07
453.24	1076.65
453.61	1078.28
453.97	1091.86
454.34	1090.69
454.70	1093.50
455.06	1101.22
455.43	1099.82
455.79	1094.43
456.15	1085.54
456.52	1080.16
456.88	1070.80
457.24	1074.54
457.61	1068.92
457.97	1076.65
458.33	1084.14
458.70	1090.69
459.06	1091.39
459.42	1098.41
459.79	1098.88
460.15	1096.31
460.51	1088.35
460.88	1083.20
461.24	1083.20
461.60	1077.82
461.96	1077.35
462.33	1066.82
462.69	1063.77
463.05	1054.88
463.42	1063.07
463.78	1071.26
464.14	1086.01
464.50	1083.20
464.87	1082.26
465.23	1071.50
465.59	1059.33
465.95	1057.69
466.32	1059.09
466.68	1070.33
467.04	1080.39
467.40	1086.71
467.77	1086.24
468.13	1090.92
468.49	1088.35
468.85	1077.58
469.22	1073.37
469.58	1073.37
469.94	1081.56
470.30	1084.84
470.66	1092.56
471.03	1100.52
471.39	1087.88
471.75	1076.65
472.11	1076.41
472.47	1076.88
472.84	1072.43
473.20	1080.39
473.56	1078.28
473.92	1062.60
474.28	1058.62
474.65	1060.96
475.01	1055.58
475.37	1070.56
475.73	1073.60
476.09	1068.92
476.45	1062.37
476.81	1072.90
477.18	1071.50
477.54	1082.73
477.90	1097.95
478.26	1097.24
478.62	1091.86
478.98	1088.58
479.34	1082.97
479.71	1081.33
480.07	1089.75
480.43	1093.26
480.79	1080.63
481.15	1081.09
481.51	1072.67
481.87	1075.71
482.23	1078.75
482.59	1087.41
482.96	1087.65
483.32	1082.03
483.68	1069.86
484.04	1064.01
484.40	1063.07
484.76	1068.69
485.12	1071.50
485.48	1071.03
485.84	1064.48
486.20	1064.01
486.56	1061.43
486.92	1068.69
487.28	1074.77
487.64	1080.86
488.00	1078.52
488.37	1075.01
488.73	1066.58
489.09	1063.07
489.45	1063.77
489.81	1070.80
490.17	1070.33
490.53	1075.01
490.89	1068.69
491.25	1070.33
491.61	1065.18
491.97	1069.16
492.33	1075.71
492.69	1093.97
493.05	1096.54
493.41	1101.69
493.77	1104.73
494.13	1096.78
494.49	1096.78
494.85	1095.60
495.21	1097.01
495.57	1104.73
495.93	1100.99
496.29	1099.12
496.64	1097.48
497.00	1099.35
497.36	1086.71
497.72	1093.03
498.08	1085.54
498.44	1078.28
498.80	1075.94
499.16	1075.24
499.52	1076.18
499.88	1081.33
500.24	1094.90
500.60	1098.18
500.96	1091.39
501.32	1087.65
501.68	1083.20
502.03	1079.46
502.39	1059.79
502.75	1074.54
503.11	1071.73
503.47	1074.54
503.83	1069.39
504.19	1086.01
504.55	1071.97
504.91	1081.80
505.26	1076.65
505.62	1084.60
505.98	1078.28
506.34	1097.01
506.70	1094.90
507.06	1094.20
507.42	1084.84
507.78	1092.33
508.13	1073.37
508.49	1078.52
508.85	1071.97
509.21	1077.35
509.57	1076.18
509.93	1085.31
510.28	1088.35
510.64	1099.58
511.00	1112.22
511.36	1109.18
511.72	1110.35
512.07	1098.18
512.43	1100.75
512.79	1082.03
513.15	1084.14
513.51	1076.18
513.86	1078.99
514.22	1084.14
514.58	1090.92
514.94	1091.86
515.30	1098.65
515.65	1088.58
516.01	1087.41
516.37	1088.12
516.73	1081.33
517.08	1088.12
517.44	1089.05
517.80	1086.24
518.16	1094.90
518.51	1098.41
518.87	1086.94
519.23	1106.84
519.59	1102.63
519.94	1091.39
520.30	1083.43
520.66	1089.05
521.01	1091.16
521.37	1096.54
521.73	1101.69
522.09	1116.20
522.44	1119.24
522.80	1102.16
523.16	1090.46
523.51	1085.54
523.87	1084.37
524.23	1088.58
524.58	1089.75
524.94	1107.31
525.30	1110.35
525.65	1115.73
526.01	1110.58
526.37	1123.69
526.72	1111.29
527.08	1110.82
527.44	1097.48
527.79	1091.86
528.15	1081.80
528.51	1088.82
528.86	1091.63
529.22	1095.14
529.58	1099.12
529.93	1106.84
530.29	1093.97
530.65	1091.39
531.00	1087.41
531.36	1084.14
531.71	1086.01
532.07	1087.88
532.43	1085.07
532.78	1086.71
533.14	1087.65
533.49	1073.37
533.85	1068.45
534.21	1066.11
534.56	1066.35
534.92	1067.52
535.27	1072.67
535.63	1084.14
535.98	1087.88
536.34	1091.39
536.69	1082.97
537.05	1082.97
537.41	1076.88
537.76	1069.86
538.12	1067.28
538.47	1076.18
538.83	1066.58
539.18	1072.20
539.54	1075.71
539.89	1077.58
540.25	1072.90
540.60	1075.24
540.96	1079.22
541.31	1081.56
541.67	1081.80
542.02	1088.58
542.38	1094.20
542.73	1092.56
543.09	1096.31
543.44	1093.73
543.80	1086.71
544.15	1085.77
544.51	1078.75
544.86	1079.22
545.22	1087.41
545.57	1098.41
545.93	1094.67
546.28	1102.16
546.64	1103.33
546.99	1100.05
547.35	1099.35
547.70	1106.84
548.05	1106.84
548.41	1103.56
548.76	1102.86
549.12	1103.56
549.47	1098.41
549.83	1098.41
550.18	1092.56
550.53	1093.26
550.89	1084.60
551.24	1085.31
551.60	1076.65
551.95	1074.07
552.30	1079.22
552.66	1082.26
553.01	1082.03
553.37	1091.39
553.72	1105.90
554.07	1094.67
554.43	1098.41
554.78	1095.84
555.13	1084.60
555.49	1085.54
555.84	1088.12
556.19	1078.99
556.55	1072.90
556.90	1082.26
557.26	1081.80
557.61	1079.22
557.96	1089.29
558.32	1098.41
558.67	1099.12
559.02	1091.63
559.37	1085.07
559.73	1076.18
560.08	1079.69
560.43	1082.97
560.79	1089.75
561.14	1097.01
561.49	1107.54
561.85	1103.33
562.20	1089.29
562.55	1084.60
562.90	1089.52
563.26	1080.39
563.61	1076.65
563.96	1077.11
564.32	1066.11
564.67	1061.20
565.02	1056.28
565.37	1072.90
565.73	1077.58
566.08	1087.18
566.43	1086.24
566.78	1101.22
567.14	1097.24
567.49	1090.92
567.84	1091.39
568.19	1092.09
568.54	1076.18
568.90	1069.39
569.25	1082.03
569.60	1076.65
569.95	1076.41
570.31	1083.67
570.66	1092.80
571.01	1092.56
571.36	1094.67
571.71	1086.94
572.06	1083.67
572.42	1076.18
572.77	1066.11
573.12	1066.35
573.47	1086.71
573.82	1092.80
574.18	1089.05
574.53	1098.41
574.88	1101.22
575.23	1086.94
575.58	1089.05
575.93	1082.73
576.28	1080.86
576.64	1081.56
576.99	1081.33
577.34	1079.92
577.69	1081.80
578.04	1074.07
578.39	1064.01
578.74	1065.88
579.09	1045.28
579.44	1058.39
579.80	1060.50
580.15	1075.71
580.50	1070.09
580.85	1088.82
581.20	1082.03
581.55	1085.77
581.90	1082.03
582.25	1092.33
582.60	1086.01
582.95	1090.46
583.30	1089.29
583.65	1092.80
584.00	1095.37
584.35	1095.37
584.71	1102.39
585.06	1106.61
585.41	1100.75
585.76	1097.24
586.11	1103.09
586.46	1096.54
586.81	1097.24
587.16	1094.67
587.51	1101.46
587.86	1099.58
588.21	1092.33
588.56	1094.90
588.91	1103.56
589.26	1091.16
589.61	1086.94
589.96	1092.80
590.31	1086.71
590.66	1085.77
591.01	1093.03
591.36	1093.50
591.71	1092.09
592.06	1080.39
592.41	1071.03
592.76	1065.18
593.10	1068.92
593.45	1064.94
593.80	1075.71
594.15	1070.80
594.50	1075.24
594.85	1074.31
595.20	1081.33
595.55	1073.37
595.90	1079.46
596.25	1082.26
596.60	1078.75
596.95	1069.39
597.30	1086.01
597.64	1134.22
597.99	1138.90
598.34	1140.54
598.69	1145.69
599.04	1130.48
599.39	1091.39
599.74	1084.14
600.09	1078.99
600.44	1076.41
600.78	1083.67
601.13	1078.28
601.48	1076.88
601.83	1093.50
602.18	1100.05
602.53	1094.67
602.88	1092.56
603.22	1088.12
603.57	1085.77
603.92	1089.29
604.27	1086.48
604.62	1079.22
604.97	1080.39
605.31	1071.50
605.66	1066.35
606.01	1071.73
606.36	1091.86
606.71	1088.12
607.05	1081.80
607.40	1067.75
607.75	1067.05
608.10	1051.84
608.44	1060.03
608.79	1070.80
609.14	1092.56
609.49	1101.22
609.84	1108.24
610.18	1105.44
610.53	1100.29
610.88	1093.97
611.23	1087.88
611.57	1082.26
611.92	1086.71
612.27	1087.65
612.62	1082.73
612.96	1080.16
613.31	1078.28
613.66	1073.37
614.00	1079.69
614.35	1079.22
614.70	1081.56
615.05	1081.09
615.39	1081.09
615.74	1079.46
616.09	1086.01
616.43	1091.16
616.78	1097.01
617.13	1095.84
617.47	1087.88
617.82	1089.05
618.17	1087.18
618.51	1084.84
618.86	1083.43
619.21	1089.52
619.55	1081.33
619.90	1076.18
620.25	1076.41
620.59	1079.69
620.94	1075.24
621.29	1075.01
621.63	1075.48
621.98	1071.97
622.32	1076.65
622.67	1075.24
623.02	1082.97
623.36	1082.97
623.71	1080.86
624.05	1081.56
624.40	1085.54
624.75	1082.03
625.09	1085.31
625.44	1089.52
625.78	1080.63
626.13	1079.22
626.48	1079.92
626.82	1085.07
627.17	1084.60
627.51	1088.35
627.86	1086.71
628.20	1078.52
628.55	1074.54
628.89	1063.54
629.24	1063.54
629.58	1059.56
629.93	1057.22
630.28	1054.41
630.62	1066.58
630.97	1066.11
631.31	1079.46
631.66	1082.73
632.00	1092.80
632.35	1093.50
632.69	1100.29
633.04	1094.67
633.38	1097.95
633.73	1089.52
634.07	1088.12
634.42	1081.80
634.76	1088.82
635.11	1093.97
635.45	1092.80
635.79	1089.52
636.14	1097.71
636.48	1093.73
636.83	1091.16
637.17	1087.41
637.52	1091.39
637.86	1076.41
638.21	1072.43
638.55	1062.60
638.89	1066.35
639.24	1074.54
639.58	1073.84
639.93	1076.41
640.27	1088.82
640.61	1093.73
640.96	1088.12
641.30	1087.65
641.65	1086.71
641.99	1087.41
642.33	1082.03
642.68	1074.31
643.02	1077.82
643.37	1078.52
643.71	1076.41
644.05	1075.48
644.40	1082.73
644.74	1086.48
645.08	1081.09
645.43	1079.69
645.77	1077.58
646.11	1075.48
646.46	1064.01
646.80	1065.18
647.14	1059.09
647.49	1065.41
647.83	1061.20
648.17	1075.48
648.52	1075.48
648.86	1079.46
649.20	1073.84
649.55	1076.88
649.89	1078.75
650.23	1085.31
650.57	1085.54
650.92	1092.33
651.26	1088.35
651.60	1080.86
651.95	1066.58
652.29	1062.84
652.63	1051.60
652.97	1058.86
653.32	1056.05
653.66	1071.73
654.00	1074.77
654.34	1086.01
654.69	1086.48
655.03	1088.35
655.37	1087.65
655.71	1084.37
656.05	1087.18
656.40	1083.90
656.74	1088.12
657.08	1082.26
657.42	1088.35
657.76	1080.86
658.11	1085.54
658.45	1091.86
658.79	1085.54
659.13	1082.97
659.47	1081.09
659.82	1084.37
660.16	1072.67
660.50	1086.01
660.84	1091.16
661.18	1087.18
661.52	1084.14
661.87	1095.37
662.21	1089.75
662.55	1081.80
662.89	1093.26
663.23	1086.71
663.57	1079.46
663.91	1075.71
664.25	1077.11
664.60	1077.58
664.94	1074.31
665.28	1076.65
665.62	1084.37
665.96	1094.90
666.30	1088.35
666.64	1088.58
666.98	1097.24
667.32	1099.82
667.66	1090.46
668.01	1090.92
668.35	1095.84
668.69	1084.84
669.03	1078.05
669.37	1077.11
669.71	1069.62
670.05	1066.35
670.39	1068.92
670.73	1071.26
671.07	1073.84
671.41	1085.77
671.75	1091.39
672.09	1095.60
672.43	1089.52
672.77	1087.65
673.11	1076.18
673.45	1077.35
673.79	1078.28
674.13	1092.56
674.47	1095.60
674.81	1096.31
675.15	1096.31
675.49	1095.37
675.83	1087.41
676.17	1091.86
676.51	1100.52
676.85	1098.65
677.19	1089.29
677.53	1075.94
677.87	1067.28
678.21	1059.56
678.55	1060.73
678.89	1068.92
679.23	1081.56
679.57	1082.97
679.90	1090.92
680.24	1093.73
680.58	1089.05
680.92	1088.82
681.26	1095.60
681.60	1093.97
681.94	1083.67
682.28	1081.09
682.62	1078.05
682.96	1064.24
683.29	1065.65
683.63	1062.60
683.97	1062.60
684.31	1070.33
684.65	1082.73
684.99	1083.90
685.33	1095.84
685.67	1105.67
686.00	1095.84
686.34	1090.46
686.68	1088.58
687.02	1077.11
687.36	1073.60
687.70	1069.39
688.03	1075.71
688.37	1075.48
688.71	1075.48
689.05	1067.28
689.39	1076.41
689.72	1062.84
690.06	1063.54
690.40	1077.58
690.74	1071.97
691.08	1068.69
691.41	1075.01
691.75	1076.41
692.09	1073.14
692.43	1079.22
692.76	1080.86
693.10	1086.94
693.44	1086.71
693.78	1086.94
694.11	1090.69
694.45	1098.65
694.79	1094.20
695.13	1079.69
695.46	1069.86
695.80	1067.52
696.14	1063.31
696.48	1064.01
696.81	1072.20
697.15	1078.75
697.49	1078.99
697.82	1075.71
698.16	1079.92
698.50	1088.12
698.83	1094.20
699.17	1097.95
699.51	1093.03
699.84	1091.39
700.18	1087.88
700.52	1077.11
700.85	1073.60
701.19	1078.28
701.53	1074.31
701.86	1070.33
702.20	1077.58
702.54	1079.22
702.87	1079.92
703.21	1080.63
703.55	1083.90
703.88	1082.97
704.22	1082.97
704.55	1082.97
704.89	1087.88
705.23	1090.92
705.56	1091.63
705.90	1089.05
706.23	1080.16
706.57	1082.26
706.91	1078.05
707.24	1074.77
707.58	1080.16
707.91	1085.77
708.25	1082.26
708.58	1082.97
708.92	1091.39
709.26	1091.39
709.59	1090.92
709.93	1084.60
710.26	1080.86
710.60	1080.16
710.93	1073.84
711.27	1072.90
711.60	1076.18
711.94	1083.43
712.27	1078.99
712.61	1084.14
712.94	1089.99
713.28	1087.88
713.61	1077.58
713.95	1071.73
714.28	1061.90
714.62	1057.45
714.95	1064.48
715.29	1074.07
715.62	1082.03
715.96	1087.65
716.29	1085.07
716.63	1076.41
716.96	1073.84
717.29	1062.60
717.63	1067.28
717.96	1073.60
718.30	1067.28
718.63	1074.77
718.97	1080.86
719.30	1082.73
719.63	1087.88
719.97	1099.82
720.30	1095.14
720.64	1090.46
720.97	1075.71
721.30	1077.11
721.64	1067.28
721.97	1060.03
722.31	1065.65
722.64	1072.67
722.97	1060.73
723.31	1072.90
723.64	1075.24
723.97	1072.43
724.31	1082.26
724.64	1089.05
724.98	1076.18
725.31	1080.63
725.64	1084.14
725.98	1082.26
726.31	1077.58
726.64	1086.48
726.97	1089.52
727.31	1084.14
727.64	1078.75
727.97	1077.35
728.31	1087.88
728.64	1083.43
728.97	1092.33
729.31	1089.75
729.64	1091.16
729.97	1078.75
730.30	1082.50
730.64	1067.52
730.97	1079.92
731.30	1085.77
731.63	1086.71
731.97	1079.46
732.30	1087.88
732.63	1076.88
732.96	1069.16
733.30	1069.62
733.63	1065.88
733.96	1063.31
734.29	1068.92
734.63	1078.05
734.96	1079.22
735.29	1091.16
735.62	1082.97
735.95	1082.50
736.29	1077.82
736.62	1080.39
736.95	1068.22
737.28	1082.97
737.61	1080.63
737.94	1078.99
738.28	1072.43
738.61	1074.07
738.94	1067.05
739.27	1066.82
739.60	1072.43
739.93	1077.82
740.27	1092.80
740.60	1097.95
740.93	1101.92
741.26	1092.80
741.59	1101.22
741.92	1086.71
742.25	1091.39
742.58	1081.33
742.91	1087.41
743.25	1078.75
743.58	1093.03
743.91	1092.56
744.24	1096.78
744.57	1095.60
744.90	1089.99
745.23	1075.01
745.56	1066.35
745.89	1074.31
746.22	1073.37
746.55	1078.28
746.88	1092.09
747.21	1097.95
747.54	1082.97
747.87	1086.24
748.20	1082.97
748.53	1077.11
748.87	1081.80
749.20	1093.03
749.53	1086.94
749.86	1088.12
750.19	1087.41
750.52	1072.67
750.85	1066.82
751.18	1076.41
751.51	1075.01
751.84	1071.73
752.16	1080.39
752.49	1082.26
752.82	1080.39
753.15	1083.43
753.48	1086.01
753.81	1088.58
754.14	1094.20
754.47	1089.29
754.80	1089.29
755.13	1090.46
755.46	1084.37
755.79	1079.22
756.12	1083.43
756.45	1081.56
756.78	1083.20
757.11	1092.56
757.43	1090.92
757.76	1087.41
758.09	1086.48
758.42	1086.24
758.75	1075.94
759.08	1079.46
759.41	1076.65
759.74	1075.94
760.07	1078.28
760.39	1070.33
760.72	1070.56
761.05	1074.07
761.38	1072.90
761.71	1070.80
762.04	1083.43
762.36	1085.07
762.69	1082.26
763.02	1085.77
763.35	1074.31
763.68	1081.80
764.01	1084.84
764.33	1076.65
764.66	1074.31
764.99	1092.56
765.32	1087.65
765.65	1083.67
765.97	1101.22
766.30	1107.54
766.63	1092.56
766.96	1103.33
767.28	1099.58
767.61	1092.80
767.94	1090.92
768.27	1091.86
768.59	1076.41
768.92	1090.92
769.25	1086.24
769.58	1086.71
769.90	1094.90
770.23	1099.35
770.56	1074.07
770.89	1082.73
771.21	1077.82
771.54	1063.54
771.87	1057.45
772.19	1067.05
772.52	1055.35
772.85	1047.86
773.17	1055.11
773.50	1066.35
773.83	1069.16
774.15	1071.50
774.48	1079.69
774.81	1077.35
775.13	1068.92
775.46	1067.75
775.79	1076.41
776.11	1081.09
776.44	1084.14
776.77	1080.39
777.09	1088.12
777.42	1086.24
777.74	1073.84
778.07	1074.31
778.40	1077.58
778.72	1077.11
779.05	1082.73
779.37	1092.09
779.70	1094.90
780.03	1098.41
780.35	1089.29
780.68	1077.58
781.00	1081.56
781.33	1079.92
781.65	1074.31
781.98	1082.73
782.31	1095.84
782.63	1088.35
782.96	1087.65
783.28	1090.46
783.61	1091.39
783.93	1081.56
784.26	1078.28
784.58	1080.39
784.91	1087.41
785.23	1072.67
785.56	1074.07
785.88	1080.86
786.21	1082.73
786.53	1079.46
786.86	1082.50
787.18	1074.77
787.51	1065.88
787.83	1060.03
788.16	1057.45
788.48	1069.16
788.81	1069.16
789.13	1076.41
789.46	1074.31
789.78	1072.43
790.10	1063.54
790.43	1074.31
790.75	1079.46
791.08	1074.77
791.40	1072.20
791.73	1082.97
792.05	1076.88
792.37	1079.46
792.70	1093.73
793.02	1094.90
793.35	1086.24
793.67	1079.22
793.99	1079.46
794.32	1069.39
794.64	1068.45
794.96	1067.28
795.29	1077.11
795.61	1073.37
795.93	1082.03
796.26	1080.86
796.58	1083.20
796.91	1079.69
797.23	1077.58
797.55	1075.01
797.87	1078.99
798.20	1076.18
798.52	1080.63
798.84	1087.41
799.17	1082.50
799.49	1092.09
799.81	1108.01
800.14	1111.99
800.46	1100.29
800.78	1098.65
801.10	1082.50
801.43	1065.65
801.75	1070.56
802.07	1077.82
802.40	1078.75
802.72	1090.22
803.04	1094.90
803.36	1091.39
803.69	1081.56
804.01	1079.22
804.33	1079.22
804.65	1069.39
804.97	1054.88
805.30	1066.58
805.62	1079.22
805.94	1074.77
806.26	1085.54
806.58	1091.86
806.91	1085.07
807.23	1083.67
807.55	1082.26
807.87	1084.60
808.19	1097.24
808.52	1096.31
808.84	1096.54
809.16	1085.54
809.48	1080.86
809.80	1067.52
810.12	1068.45
810.44	1072.67
810.77	1087.65
811.09	1085.31
811.41	1082.73
811.73	1087.65
812.05	1084.84
812.37	1085.54
812.69	1088.58
813.01	1088.58
813.33	1075.71
813.66	1087.88
813.98	1085.31
814.30	1088.12
814.62	1098.18
814.94	1104.50
815.26	1092.09
815.58	1094.20
815.90	1101.92
816.22	1091.39
816.54	1099.82
816.86	1092.33
817.18	1083.20
817.50	1077.35
817.82	1075.01
818.14	1070.56
818.46	1077.35
818.78	1096.31
819.10	1097.01
819.42	1109.18
819.74	1113.39
820.06	1103.33
820.38	1089.75
820.70	1081.56
821.02	1063.77
821.34	1052.30
821.66	1053.48
821.98	1053.71
822.30	1051.13
822.62	1067.52
822.94	1084.37
823.26	1082.73
823.58	1079.22
823.90	1092.09
824.22	1081.80
824.54	1069.39
824.86	1075.01
825.18	1084.14
825.50	1080.86
825.81	1078.52
826.13	1080.39
826.45	1083.20
826.77	1078.99
827.09	1082.03
827.41	1089.75
827.73	1085.77
828.05	1082.73
828.36	1086.71
828.68	1083.20
829.00	1088.35
829.32	1088.12
829.64	1084.14
829.96	1081.80
830.28	1072.67
830.59	1069.39
830.91	1082.50
831.23	1083.67
831.55	1080.16
831.87	1086.71
832.19	1084.84
832.50	1075.71
832.82	1081.56
833.14	1077.35
833.46	1074.31
833.78	1076.65
834.09	1082.73
834.41	1075.94
834.73	1083.20
835.05	1085.31
835.36	1084.60
835.68	1081.33
836.00	1084.14
836.32	1079.22
836.63	1082.03
836.95	1075.48
837.27	1075.94
837.59	1075.71
837.90	1086.71
838.22	1086.48
838.54	1091.86
838.85	1087.41
839.17	1085.31
839.49	1075.48
839.80	1076.18
840.12	1075.24
840.44	1074.54
840.76	1072.43
841.07	1075.71
841.39	1067.75
841.71	1074.31
842.02	1074.31
842.34	1063.54
842.65	1060.73
842.97	1068.92
843.29	1067.99
843.60	1076.41
843.92	1089.52
844.24	1083.43
844.55	1080.39
844.87	1079.69
845.18	1070.09
845.50	1066.82
845.82	1075.01
846.13	1069.62
846.45	1053.24
846.76	1054.88
847.08	1068.69
847.40	1068.45
847.71	1078.05
848.03	1097.01
848.34	1094.20
848.66	1074.31
848.97	1070.09
849.29	1067.28
849.60	1066.35
849.92	1069.16
850.24	1085.54
850.55	1088.58
850.87	1086.01
851.18	1080.63
851.50	1081.09
851.81	1077.11
852.13	1084.60
852.44	1083.67
852.76	1091.16
853.07	1089.99
853.39	1089.05
853.70	1069.39
854.01	1067.75
854.33	1072.20
854.64	1076.88
854.96	1067.05
855.27	1082.03
855.59	1095.37
855.90	1088.12
856.22	1095.60
856.53	1105.67
856.84	1106.84
857.16	1096.54
857.47	1082.97
857.79	1079.92
858.10	1082.73
858.41	1086.01
858.73	1087.18
859.04	1093.73
859.36	1094.67
859.67	1098.65
859.98	1092.80
860.30	1086.94
860.61	1088.12
860.92	1084.84
861.24	1075.48
861.55	1072.43
861.87	1075.48
862.18	1082.03
862.49	1079.46
862.81	1081.56
863.12	1074.31
863.43	1072.90
863.74	1071.26
864.06	1064.24
864.37	1065.88
864.68	1073.84
865.00	1079.69
865.31	1080.39
865.62	1080.39
865.94	1074.07
866.25	1078.05
866.56	1074.54
866.87	1073.37
867.19	1074.31
867.50	1081.33
867.81	1081.09
868.12	1081.09
868.44	1078.75
868.75	1086.24
869.06	1077.35
869.37	1067.05
869.68	1074.07
870.00	1071.26
870.31	1071.50
870.62	1082.73
870.93	1101.22
871.24	1092.80
871.56	1090.22
871.87	1085.31
872.18	1082.26
872.49	1071.97
872.80	1076.41
873.12	1079.69
873.43	1084.60
873.74	1091.39
874.05	1091.16
874.36	1096.31
874.67	1098.18
874.98	1099.58
875.29	1096.78
875.61	1105.20
875.92	1091.39
876.23	1091.16
876.54	1086.94
876.85	1075.24
877.16	1059.09
877.47	1070.56
877.78	1061.90
878.09	1057.92
878.40	1066.11
878.72	1062.60
879.03	1051.13
879.34	1058.86
879.65	1063.77
879.96	1060.96
880.27	1073.14
880.58	1075.24
880.89	1066.35
881.20	1061.20
881.51	1057.69
881.82	1059.33
882.13	1058.39
882.44	1067.99
882.75	1071.03
883.06	1076.41
883.37	1081.33
883.68	1088.35
883.99	1091.16
884.30	1089.99
884.61	1091.16
884.92	1085.31
885.23	1092.09
885.54	1090.69
885.85	1086.48
886.16	1087.65
886.47	1088.58
886.78	1077.82
887.08	1075.48
887.39	1079.69
887.70	1073.60
888.01	1066.82
888.32	1071.26
888.63	1078.05
888.94	1082.73
889.25	1093.73
889.56	1092.09
889.87	1082.26
890.17	1077.58
890.48	1069.39
890.79	1065.18
891.10	1073.37
891.41	1079.22
891.72	1082.73
892.03	1096.54
892.34	1094.43
892.64	1090.46
892.95	1101.46
893.26	1093.97
893.57	1083.43
893.88	1083.43
894.18	1086.94
894.49	1076.65
894.80	1085.07
895.11	1088.35
895.42	1085.77
895.72	1078.05
896.03	1084.37
896.34	1082.73
896.65	1083.43
896.96	1082.73
897.26	1085.77
897.57	1085.07
897.88	1079.46
898.19	1082.97
898.49	1084.60
898.80	1086.48
899.11	1088.35
899.41	1086.01
899.72	1084.14
900.03	1088.12
900.34	1085.54
900.64	1082.26
900.95	1084.60
901.26	1077.11
901.56	1067.52
901.87	1062.60
902.18	1064.24
902.48	1068.69
902.79	1077.82
903.10	1082.73
903.40	1088.58
903.71	1082.26
904.02	1075.94
904.32	1071.97
904.63	1072.90
904.94	1073.84
905.24	1071.03
905.55	1067.99
905.85	1067.75
906.16	1068.69
906.47	1078.75
906.77	1081.80
907.08	1090.69
907.38	1093.03
907.69	1097.71
908.00	1090.92
908.30	1093.03
908.61	1091.39
908.91	1083.90
909.22	1061.43
909.52	1055.11
909.83	1051.37
910.14	1045.75
910.44	1050.43
910.75	1059.33
911.05	1060.73
911.36	1071.26
911.66	1066.58
911.97	1056.99
912.27	1075.94
912.58	1080.16
912.88	1077.82
913.19	1083.20
913.49	1090.92
913.80	1077.35
914.10	1082.50
914.41	1081.33
914.71	1088.12
915.01	1091.63
915.32	1099.35
915.62	1095.37
915.93	1088.82
916.23	1086.01
916.54	1089.75
916.84	1086.01
917.15	1084.84
917.45	1083.43
917.75	1076.41
918.06	1071.26
918.36	1074.07
918.67	1076.41
918.97	1078.28
919.27	1089.52
919.58	1092.56
919.88	1090.92
920.18	1087.65
920.49	1083.20
920.79	1077.35
921.10	1077.82
921.40	1078.75
921.70	1088.35
922.01	1087.65
922.31	1086.01
922.61	1085.31
922.92	1081.09
923.22	1069.16
923.52	1071.73
923.82	1071.03
924.13	1067.05
924.43	1069.86
924.73	1070.80
925.04	1071.50
925.34	1075.01
925.64	1075.24
925.94	1082.03
926.25	1082.26
926.55	1086.71
926.85	1085.07
927.15	1087.18
927.46	1081.33
927.76	1079.92
928.06	1077.35
928.36	1087.41
928.67	1090.69
928.97	1094.67
929.27	1104.03
929.57	1110.58
929.87	1108.48
930.18	1101.46
930.48	1098.65
930.78	1098.88
931.08	1092.09
931.38	1081.80
931.69	1086.48
931.99	1083.20
932.29	1083.67
932.59	1080.16
932.89	1082.03
933.19	1082.97
933.49	1078.75
933.80	1070.80
934.10	1071.97
934.40	1071.03
934.70	1074.07
935.00	1071.03
935.30	1073.84
935.60	1074.77
935.90	1079.92
936.20	1070.56
936.50	1076.88
936.81	1067.75
937.11	1067.75
937.41	1068.45
937.71	1069.86
938.01	1071.50
938.31	1082.97
938.61	1085.31
938.91	1088.12
939.21	1091.86
939.51	1091.63
939.81	1085.54
940.11	1090.22
940.41	1085.77
940.71	1084.37
941.01	1091.39
941.31	1097.48
941.61	1102.63
941.91	1101.22
942.21	1098.18
942.51	1090.22
942.81	1083.20
943.11	1071.73
943.41	1066.11
943.71	1068.45
944.01	1066.35
944.31	1071.26
944.61	1067.75
944.90	1072.90
945.20	1070.80
945.50	1068.22
945.80	1064.71
946.10	1066.82
946.40	1077.11
946.70	1082.26
947.00	1092.09
947.30	1088.82
947.60	1096.07
947.89	1089.75
948.19	1086.01
948.49	1082.73
948.79	1084.60
949.09	1086.71
949.39	1089.52
949.69	1088.58
949.98	1084.60
950.28	1091.39
950.58	1084.14
950.88	1065.65
951.18	1062.14
951.48	1066.58
951.77	1060.96
952.07	1066.11
952.37	1067.28
952.67	1080.39
952.97	1081.09
953.26	1083.67
953.56	1083.43
953.86	1092.33
954.16	1077.58
954.45	1071.03
954.75	1069.39
955.05	1069.86
955.35	1074.77
955.64	1075.01
955.94	1076.65
956.24	1078.52
956.54	1072.90
956.83	1069.62
957.13	1089.99
957.43	1090.22
957.72	1092.56
958.02	1099.12
958.32	1097.48
958.61	1080.39
958.91	1090.22
959.21	1076.88
959.50	1070.33
959.80	1066.58
960.10	1071.03
960.39	1057.92
960.69	1070.56
960.99	1070.33
961.28	1078.52
961.58	1076.88
961.87	1078.28
962.17	1086.01
962.47	1077.11
962.76	1071.97
963.06	1076.18
963.36	1086.71
963.65	1078.75
963.95	1085.07
964.24	1091.86
964.54	1093.50
964.83	1086.24
965.13	1074.31
965.42	1083.67
965.72	1083.43
966.02	1082.73
966.31	1079.22
966.61	1092.56
966.90	1090.22
967.20	1091.16
967.49	1085.31
967.79	1086.24
968.08	1076.18
968.38	1067.05
968.67	1064.01
968.97	1055.35
969.26	1062.14
969.56	1064.48
969.85	1071.97
970.15	1078.99
970.44	1082.03
970.74	1062.60
971.03	1067.75
971.32	1067.99
971.62	1060.96
971.91	1069.62
972.21	1084.37
972.50	1081.33
972.80	1074.77
973.09	1074.31
973.38	1075.94
973.68	1079.22
973.97	1086.24
974.27	1085.77
974.56	1092.09
974.85	1094.90
975.15	1089.29
975.44	1081.56
975.73	1095.37
976.03	1090.46
976.32	1080.16
976.61	1083.90
976.91	1087.65
977.20	1082.97
977.49	1079.22
977.79	1088.82
978.08	1089.99
978.37	1085.77
978.67	1078.05
978.96	1085.54
979.25	1072.20
979.55	1079.92
979.84	1087.18
980.13	1075.48
980.42	1078.05
980.72	1086.94
981.01	1077.11
981.30	1065.65
981.59	1084.14
981.89	1077.35
982.18	1079.92
982.47	1075.24
982.76	1078.75
983.06	1085.54
983.35	1082.73
983.64	1075.94
983.93	1073.14
984.22	1069.86
984.52	1067.05
984.81	1066.58
985.10	1067.52
985.39	1081.80
985.68	1096.54
985.97	1094.67
986.27	1106.84
986.56	1113.39
986.85	1106.84
987.14	1097.24
987.43	1092.56
987.72	1089.05
988.01	1079.92
988.31	1073.37
988.60	1080.16
988.89	1083.43
989.18	1077.11
989.47	1077.82
989.76	1089.52
990.05	1089.05
990.34	1083.67
990.63	1086.24
990.92	1099.12
991.21	1092.80
991.51	1089.52
991.80	1084.37
992.09	1086.94
992.38	1087.18
992.67	1088.58
992.96	1082.97
993.25	1099.82
993.54	1084.14
993.83	1084.37
994.12	1078.28
994.41	1088.35
994.70	1075.71
994.99	1093.97
995.28	1079.22
995.57	1084.84
995.86	1081.56
996.15	1080.86
996.44	1085.77
996.73	1090.92
997.02	1087.18
997.31	1082.03
997.59	1076.65
997.88	1066.82
998.17	1063.54
998.46	1071.50
998.75	1079.22
999.04	1089.29
999.33	1088.12
999.62	1093.97
999.91	1094.20
1000.20	1075.71
1000.49	1071.26
1000.77	1067.28
1001.06	1065.88
1001.35	1057.22
1001.64	1073.84
1001.93	1080.16
1002.22	1091.16
1002.51	1081.09
1002.79	1089.05
1003.08	1088.12
1003.37	1087.65
1003.66	1077.11
1003.95	1079.92
1004.23	1079.22
1004.52	1071.03
1004.81	1064.94
1005.10	1070.56
1005.39	1079.46
1005.67	1079.46
1005.96	1085.77
1006.25	1088.12
1006.54	1090.69
1006.83	1092.80
1007.11	1084.84
1007.40	1078.52
1007.69	1087.41
1007.97	1081.09
1008.26	1067.52
1008.55	1073.84
1008.84	1080.16
1009.12	1075.01
1009.41	1086.94
1009.70	1094.90
1009.98	1099.35
1010.27	1100.29
1010.56	1097.95
1010.85	1085.54
1011.13	1084.60
1011.42	1075.48
1011.71	1075.48
1011.99	1080.63
1012.28	1090.22
1012.56	1086.01
1012.85	1091.16
1013.14	1082.50
1013.42	1073.60
1013.71	1058.39
1014.00	1057.45
1014.28	1052.54
1014.57	1064.01
1014.85	1064.48
1015.14	1075.71
1015.43	1086.94
1015.71	1094.67
1016.00	1089.75
1016.28	1090.69
1016.57	1091.63
1016.85	1090.92
1017.14	1086.01
1017.43	1087.88
1017.71	1094.67
1018.00	1089.99
1018.28	1091.63
1018.57	1089.29
1018.85	1082.73
1019.14	1083.20
1019.42	1082.97
1019.71	1079.22
1019.99	1077.82
1020.28	1087.88
1020.56	1093.26
1020.85	1099.35
1021.13	1093.26
1021.42	1102.63
1021.70	1105.20
1021.99	1105.67
1022.27	1100.75
1022.55	1130.48
1022.84	1090.69
>>>>>End Processed Spectral Data<<<<<
