SpectraSuite Data File
++++++++++++++++++++++++++++++++++++
Date: Mon Aug 26 10:25:56 PDT 2019
User: corrico
Dark Spectrum Present: No
Reference Spectrum Present: No
Number of Sampled Component Spectra: 1
Spectrometers: USB2+H06089
Integration Time (usec): 10000 (USB2+H06089)
Spectra Averaged: 2 (USB2+H06089)
Boxcar Smoothing: 2 (USB2+H06089)
Correct for Electrical Dark: No (USB2+H06089)
Strobe/Lamp Enabled: No (USB2+H06089)
Correct for Detector Non-linearity: No (USB2+H06089)
Correct for Stray Light: No (USB2+H06089)
Number of Pixels in Processed Spectrum: 2048
>>>>>Begin Processed Spectral Data<<<<<
339.70	1049.73
340.07	1049.73
340.45	1009.00
340.82	987.00
341.19	960.32
341.57	928.72
341.94	908.60
342.31	907.66
342.69	906.26
343.06	905.79
343.43	911.17
343.81	917.49
344.18	913.04
344.55	908.60
344.93	923.11
345.30	928.26
345.67	934.58
346.04	945.81
346.42	955.64
346.79	955.41
347.16	962.19
347.54	976.00
347.91	990.28
348.28	999.41
348.65	1001.75
349.03	1009.94
349.40	1020.94
349.77	1022.11
350.14	1028.43
350.52	1040.60
350.89	1044.82
351.26	1035.45
351.63	1046.69
352.01	1049.50
352.38	1051.13
352.75	1056.52
353.12	1073.84
353.50	1074.77
353.87	1074.07
354.24	1076.18
354.61	1081.09
354.98	1078.52
355.36	1066.82
355.73	1068.22
356.10	1071.50
356.47	1059.09
356.84	1052.07
357.22	1056.52
357.59	1059.79
357.96	1056.28
358.33	1058.16
358.70	1064.24
359.08	1062.37
359.45	1059.56
359.82	1064.94
360.19	1071.73
360.56	1073.60
360.94	1076.88
361.31	1085.77
361.68	1081.09
362.05	1085.31
362.42	1093.26
362.79	1104.26
363.16	1093.50
363.54	1094.90
363.91	1098.18
364.28	1087.88
364.65	1076.41
365.02	1084.37
365.39	1079.69
365.76	1064.48
366.14	1065.65
366.51	1072.90
366.88	1070.56
367.25	1072.90
367.62	1079.92
367.99	1076.88
368.36	1068.69
368.73	1066.11
369.10	1054.41
369.48	1058.39
369.85	1054.65
370.22	1055.58
370.59	1060.96
370.96	1068.45
371.33	1075.01
371.70	1081.56
372.07	1077.58
372.44	1068.45
372.81	1069.62
373.18	1059.56
373.55	1061.67
373.93	1062.84
374.30	1069.39
374.67	1071.26
375.04	1072.43
375.41	1067.28
375.78	1080.16
376.15	1088.35
376.52	1078.52
376.89	1083.43
377.26	1085.07
377.63	1082.97
378.00	1069.62
378.37	1077.11
378.74	1075.01
379.11	1075.94
379.48	1072.43
379.85	1081.80
380.22	1083.67
380.59	1077.11
380.96	1075.01
381.33	1073.14
381.70	1061.90
382.07	1058.86
382.44	1061.20
382.81	1064.48
383.18	1065.18
383.55	1080.86
383.92	1083.20
384.29	1082.03
384.66	1084.14
385.03	1088.35
385.40	1081.33
385.77	1078.99
386.14	1083.67
386.51	1078.05
386.88	1069.16
387.25	1065.65
387.62	1069.62
387.99	1067.05
388.36	1066.82
388.73	1068.22
389.10	1066.11
389.46	1069.16
389.83	1072.20
390.20	1072.90
390.57	1069.86
390.94	1071.73
391.31	1073.14
391.68	1066.35
392.05	1064.48
392.42	1061.90
392.79	1060.50
393.16	1063.31
393.53	1067.75
393.89	1062.37
394.26	1070.33
394.63	1082.26
395.00	1075.48
395.37	1075.24
395.74	1083.43
396.11	1082.26
396.48	1071.03
396.84	1073.60
397.21	1074.31
397.58	1078.75
397.95	1079.22
398.32	1091.63
398.69	1085.54
399.06	1079.69
399.42	1075.24
399.79	1075.24
400.16	1074.31
400.53	1074.07
400.90	1079.22
401.27	1082.26
401.64	1076.18
402.00	1060.26
402.37	1063.31
402.74	1058.86
403.11	1047.86
403.48	1050.43
403.84	1052.54
404.21	1054.65
404.58	1055.35
404.95	1061.67
405.32	1062.37
405.68	1069.62
406.05	1071.73
406.42	1077.35
406.79	1089.75
407.16	1098.65
407.52	1097.24
407.89	1092.80
408.26	1083.67
408.63	1077.82
408.99	1066.11
409.36	1063.31
409.73	1061.20
410.10	1063.07
410.47	1060.73
410.83	1068.45
411.20	1066.58
411.57	1072.90
411.94	1072.67
412.30	1075.48
412.67	1072.90
413.04	1076.18
413.40	1076.18
413.77	1082.73
414.14	1086.48
414.51	1097.71
414.87	1100.75
415.24	1100.05
415.61	1098.65
415.97	1089.99
416.34	1076.18
416.71	1072.20
417.08	1072.67
417.44	1072.90
417.81	1068.69
418.18	1069.16
418.54	1072.90
418.91	1073.14
419.28	1065.18
419.64	1078.28
420.01	1082.50
420.38	1072.20
420.74	1060.50
421.11	1072.43
421.48	1059.09
421.84	1055.58
422.21	1063.77
422.58	1066.82
422.94	1067.52
423.31	1067.75
423.68	1070.56
424.04	1076.18
424.41	1087.88
424.77	1086.48
425.14	1089.05
425.51	1093.03
425.87	1086.24
426.24	1082.97
426.61	1075.94
426.97	1080.16
427.34	1079.69
427.70	1085.31
428.07	1075.48
428.44	1077.82
428.80	1076.65
429.17	1076.41
429.53	1074.31
429.90	1083.20
430.27	1085.77
430.63	1086.24
431.00	1079.46
431.36	1071.97
431.73	1067.05
432.09	1076.88
432.46	1084.14
432.83	1083.43
433.19	1090.46
433.56	1094.43
433.92	1081.80
434.29	1070.09
434.65	1078.75
435.02	1082.03
435.38	1092.56
435.75	1095.60
436.11	1096.54
436.48	1093.50
436.84	1086.94
437.21	1072.67
437.57	1068.69
437.94	1071.73
438.30	1071.50
438.67	1077.82
439.03	1092.09
439.40	1094.67
439.76	1093.97
440.13	1091.16
440.49	1089.52
440.86	1079.69
441.22	1081.80
441.59	1085.31
441.95	1081.33
442.32	1077.35
442.68	1074.31
443.05	1076.41
443.41	1068.45
443.78	1077.58
444.14	1088.35
444.51	1094.67
444.87	1085.07
445.24	1090.69
445.60	1088.82
445.96	1081.80
446.33	1078.05
446.69	1078.75
447.06	1072.20
447.42	1067.28
447.79	1063.07
448.15	1061.90
448.51	1071.97
448.88	1075.24
449.24	1076.88
449.61	1084.60
449.97	1083.20
450.33	1075.71
450.70	1076.88
451.06	1078.05
451.43	1073.14
451.79	1076.65
452.15	1079.92
452.52	1073.37
452.88	1071.26
453.24	1070.80
453.61	1066.35
453.97	1067.52
454.34	1078.28
454.70	1083.20
455.06	1082.50
455.43	1080.16
455.79	1082.26
456.15	1079.92
456.52	1073.84
456.88	1068.22
457.24	1068.69
457.61	1070.09
457.97	1074.77
458.33	1084.37
458.70	1082.97
459.06	1084.14
459.42	1089.75
459.79	1091.39
460.15	1084.60
460.51	1088.12
460.88	1090.46
461.24	1077.58
461.60	1073.14
461.96	1072.43
462.33	1079.46
462.69	1067.52
463.05	1066.35
463.42	1064.71
463.78	1064.01
464.14	1056.75
464.50	1070.09
464.87	1077.35
465.23	1072.20
465.59	1071.50
465.95	1073.60
466.32	1072.90
466.68	1073.84
467.04	1085.31
467.40	1081.80
467.77	1083.20
468.13	1087.65
468.49	1078.99
468.85	1068.92
469.22	1069.62
469.58	1062.14
469.94	1059.79
470.30	1063.77
470.66	1071.03
471.03	1071.03
471.39	1083.43
471.75	1082.73
472.11	1087.18
472.47	1086.01
472.84	1088.82
473.20	1087.88
473.56	1092.80
473.92	1088.82
474.28	1089.52
474.65	1087.88
475.01	1088.58
475.37	1087.18
475.73	1086.94
476.09	1083.43
476.45	1083.90
476.81	1081.33
477.18	1083.20
477.54	1078.28
477.90	1080.86
478.26	1084.84
478.62	1090.22
478.98	1084.60
479.34	1085.07
479.71	1081.09
480.07	1082.26
480.43	1080.39
480.79	1077.11
481.15	1077.82
481.51	1077.11
481.87	1085.07
482.23	1080.63
482.59	1079.69
482.96	1082.03
483.32	1087.18
483.68	1073.37
484.04	1073.84
484.40	1076.88
484.76	1075.94
485.12	1068.45
485.48	1074.31
485.84	1073.14
486.20	1072.90
486.56	1088.12
486.92	1099.82
487.28	1093.26
487.64	1087.18
488.00	1088.58
488.37	1071.03
488.73	1063.07
489.09	1062.37
489.45	1067.52
489.81	1069.86
490.17	1064.71
490.53	1053.48
490.89	1060.03
491.25	1063.54
491.61	1063.07
491.97	1073.60
492.33	1094.90
492.69	1086.48
493.05	1082.26
493.41	1085.31
493.77	1075.01
494.13	1064.01
494.49	1070.09
494.85	1065.18
495.21	1053.94
495.57	1062.14
495.93	1061.20
496.29	1064.24
496.64	1074.31
497.00	1069.16
497.36	1073.14
497.72	1087.65
498.08	1088.12
498.44	1087.18
498.80	1100.99
499.16	1099.82
499.52	1100.75
499.88	1094.90
500.24	1088.35
500.60	1087.65
500.96	1085.77
501.32	1068.22
501.68	1062.14
502.03	1068.69
502.39	1065.41
502.75	1061.67
503.11	1060.73
503.47	1076.88
503.83	1071.50
504.19	1073.37
504.55	1081.33
504.91	1088.35
505.26	1083.20
505.62	1078.52
505.98	1079.69
506.34	1075.71
506.70	1077.82
507.06	1083.43
507.42	1099.12
507.78	1097.24
508.13	1106.84
508.49	1107.07
508.85	1104.03
509.21	1097.71
509.57	1090.46
509.93	1078.28
510.28	1075.71
510.64	1078.75
511.00	1079.46
511.36	1091.39
511.72	1099.35
512.07	1088.58
512.43	1084.37
512.79	1090.22
513.15	1086.48
513.51	1074.31
513.86	1094.43
514.22	1095.60
514.58	1089.05
514.94	1085.77
515.30	1100.52
515.65	1091.63
516.01	1093.97
516.37	1092.33
516.73	1098.41
517.08	1088.82
517.44	1089.99
517.80	1090.46
518.16	1090.46
518.51	1090.69
518.87	1097.24
519.23	1099.58
519.59	1092.33
519.94	1099.82
520.30	1102.63
520.66	1100.75
521.01	1091.86
521.37	1095.84
521.73	1085.77
522.09	1083.20
522.44	1090.92
522.80	1091.39
523.16	1096.31
523.51	1108.24
523.87	1110.82
524.23	1098.65
524.58	1109.88
524.94	1099.58
525.30	1090.46
525.65	1086.94
526.01	1094.20
526.37	1092.33
526.72	1093.03
527.08	1099.35
527.44	1092.80
527.79	1091.16
528.15	1093.73
528.51	1094.20
528.86	1090.92
529.22	1101.46
529.58	1104.03
529.93	1094.67
530.29	1094.67
530.65	1097.01
531.00	1097.01
531.36	1093.73
531.71	1098.41
532.07	1100.75
532.43	1096.31
532.78	1089.99
533.14	1097.71
533.49	1090.69
533.85	1103.56
534.21	1111.99
534.56	1115.27
534.92	1108.71
535.27	1117.61
535.63	1109.41
535.98	1102.86
536.34	1093.50
536.69	1094.90
537.05	1093.26
537.41	1097.24
537.76	1098.65
538.12	1100.99
538.47	1095.84
538.83	1100.29
539.18	1096.78
539.54	1086.94
539.89	1092.33
540.25	1096.31
540.60	1087.18
540.96	1083.20
541.31	1079.69
541.67	1076.88
542.02	1063.54
542.38	1062.84
542.73	1058.86
543.09	1072.20
543.44	1072.67
543.80	1082.97
544.15	1097.48
544.51	1105.90
544.86	1110.82
545.22	1106.84
545.57	1105.90
545.93	1096.31
546.28	1084.60
546.64	1070.56
546.99	1079.46
547.35	1074.54
547.70	1063.31
548.05	1074.77
548.41	1081.56
548.76	1069.39
549.12	1075.48
549.47	1087.65
549.83	1089.99
550.18	1088.35
550.53	1088.35
550.89	1089.29
551.24	1090.46
551.60	1074.31
551.95	1072.43
552.30	1079.22
552.66	1077.58
553.01	1067.05
553.37	1075.48
553.72	1070.09
554.07	1066.82
554.43	1067.28
554.78	1088.12
555.13	1090.22
555.49	1095.37
555.84	1090.92
556.19	1091.39
556.55	1068.45
556.90	1070.09
557.26	1071.03
557.61	1078.99
557.96	1075.71
558.32	1078.52
558.67	1077.82
559.02	1086.24
559.37	1087.88
559.73	1090.22
560.08	1097.01
560.43	1093.03
560.79	1092.80
561.14	1094.43
561.49	1100.52
561.85	1098.88
562.20	1102.63
562.55	1091.63
562.90	1079.46
563.26	1078.75
563.61	1075.24
563.96	1068.22
564.32	1074.31
564.67	1085.77
565.02	1082.97
565.37	1087.41
565.73	1083.90
566.08	1072.90
566.43	1076.65
566.78	1073.37
567.14	1062.60
567.49	1073.37
567.84	1074.77
568.19	1065.65
568.54	1074.07
568.90	1076.41
569.25	1074.31
569.60	1084.37
569.95	1085.54
570.31	1075.94
570.66	1084.60
571.01	1082.26
571.36	1081.80
571.71	1090.22
572.06	1095.14
572.42	1098.18
572.77	1091.39
573.12	1089.29
573.47	1086.71
573.82	1081.56
574.18	1077.58
574.53	1088.12
574.88	1080.63
575.23	1076.41
575.58	1075.94
575.93	1073.60
576.28	1067.28
576.64	1081.56
576.99	1088.35
577.34	1089.05
577.69	1081.80
578.04	1087.41
578.39	1081.80
578.74	1082.03
579.09	1084.60
579.44	1096.07
579.80	1092.56
580.15	1086.01
580.50	1081.33
580.85	1079.92
581.20	1082.03
581.55	1081.56
581.90	1088.58
582.25	1086.94
582.60	1088.58
582.95	1084.60
583.30	1095.60
583.65	1092.09
584.00	1089.29
584.35	1090.22
584.71	1083.90
585.06	1075.24
585.41	1076.18
585.76	1081.33
586.11	1080.86
586.46	1088.58
586.81	1084.84
587.16	1091.16
587.51	1086.24
587.86	1083.90
588.21	1084.37
588.56	1092.09
588.91	1080.39
589.26	1090.69
589.61	1091.63
589.96	1093.03
590.31	1086.24
590.66	1079.92
591.01	1068.69
591.36	1070.56
591.71	1067.05
592.06	1065.41
592.41	1081.80
592.76	1088.12
593.10	1089.52
593.45	1091.39
593.80	1098.88
594.15	1091.63
594.50	1086.94
594.85	1081.80
595.20	1074.77
595.55	1068.45
595.90	1070.33
596.25	1068.45
596.60	1064.48
596.95	1071.50
597.30	1065.41
597.64	1118.78
597.99	1127.67
598.34	1130.01
598.69	1118.31
599.04	1119.48
599.39	1062.14
599.74	1044.58
600.09	1050.20
600.44	1055.11
600.78	1070.09
601.13	1077.35
601.48	1097.01
601.83	1089.52
602.18	1092.33
602.53	1081.09
602.88	1079.22
603.22	1078.05
603.57	1082.03
603.92	1087.18
604.27	1086.71
604.62	1090.22
604.97	1082.03
605.31	1080.63
605.66	1081.80
606.01	1087.88
606.36	1084.14
606.71	1079.46
607.05	1072.90
607.40	1063.77
607.75	1060.03
608.10	1064.71
608.44	1072.67
608.79	1081.56
609.14	1088.12
609.49	1090.22
609.84	1089.05
610.18	1080.63
610.53	1079.69
610.88	1079.92
611.23	1087.65
611.57	1084.37
611.92	1100.05
612.27	1104.03
612.62	1107.78
612.96	1101.46
613.31	1101.92
613.66	1091.63
614.00	1086.01
614.35	1082.97
614.70	1086.71
615.05	1098.18
615.39	1104.50
615.74	1111.99
616.09	1118.31
616.43	1120.88
616.78	1113.16
617.13	1115.97
617.47	1115.73
617.82	1101.22
618.17	1090.92
618.51	1089.99
618.86	1093.26
619.21	1092.09
619.55	1097.48
619.90	1103.56
620.25	1103.09
620.59	1086.48
620.94	1086.71
621.29	1084.60
621.63	1085.31
621.98	1077.58
622.32	1087.18
622.67	1082.03
623.02	1080.63
623.36	1077.58
623.71	1082.03
624.05	1075.24
624.40	1057.69
624.75	1055.82
625.09	1047.62
625.44	1056.52
625.78	1053.71
626.13	1075.24
626.48	1084.37
626.82	1096.78
627.17	1084.60
627.51	1091.16
627.86	1083.20
628.20	1064.48
628.55	1059.79
628.89	1070.56
629.24	1071.97
629.58	1071.03
629.93	1078.99
630.28	1069.62
630.62	1063.07
630.97	1060.50
631.31	1069.86
631.66	1074.31
632.00	1084.60
632.35	1086.24
632.69	1092.09
633.04	1087.41
633.38	1085.07
633.73	1081.56
634.07	1082.50
634.42	1073.60
634.76	1065.65
635.11	1069.62
635.45	1063.31
635.79	1048.79
636.14	1049.73
636.48	1065.88
636.83	1061.67
637.17	1074.07
637.52	1082.97
637.86	1088.12
638.21	1079.22
638.55	1078.75
638.89	1068.45
639.24	1065.88
639.58	1059.56
639.93	1057.69
640.27	1070.80
640.61	1075.94
640.96	1085.54
641.30	1091.16
641.65	1089.29
641.99	1078.75
642.33	1080.63
642.68	1068.45
643.02	1060.73
643.37	1063.31
643.71	1067.52
644.05	1068.45
644.40	1077.82
644.74	1077.35
645.08	1082.73
645.43	1083.20
645.77	1082.26
646.11	1067.52
646.46	1072.90
646.80	1067.75
647.14	1070.09
647.49	1068.22
647.83	1075.94
648.17	1075.71
648.52	1086.71
648.86	1077.35
649.20	1080.16
649.55	1088.35
649.89	1092.80
650.23	1086.94
650.57	1087.65
650.92	1083.67
651.26	1089.75
651.60	1086.01
651.95	1078.52
652.29	1079.92
652.63	1080.63
652.97	1073.37
653.32	1080.39
653.66	1082.50
654.00	1085.07
654.34	1083.20
654.69	1086.01
655.03	1091.39
655.37	1091.63
655.71	1095.14
656.05	1103.33
656.40	1099.82
656.74	1085.31
657.08	1087.88
657.42	1086.48
657.76	1071.50
658.11	1067.99
658.45	1072.67
658.79	1066.35
659.13	1065.88
659.47	1075.48
659.82	1074.31
660.16	1067.05
660.50	1069.62
660.84	1065.88
661.18	1063.54
661.52	1062.37
661.87	1070.56
662.21	1075.94
662.55	1073.60
662.89	1075.24
663.23	1074.07
663.57	1073.84
663.91	1074.54
664.25	1083.43
664.60	1080.39
664.94	1084.37
665.28	1075.71
665.62	1067.05
665.96	1059.33
666.30	1064.94
666.64	1064.48
666.98	1069.86
667.32	1075.01
667.66	1077.82
668.01	1074.77
668.35	1078.75
668.69	1072.43
669.03	1074.07
669.37	1074.31
669.71	1076.41
670.05	1080.39
670.39	1092.33
670.73	1085.77
671.07	1079.22
671.41	1079.46
671.75	1074.07
672.09	1071.50
672.43	1076.88
672.77	1083.90
673.11	1090.46
673.45	1076.88
673.79	1081.09
674.13	1087.88
674.47	1084.14
674.81	1077.35
675.15	1090.22
675.49	1082.03
675.83	1068.45
676.17	1071.97
676.51	1070.56
676.85	1078.75
677.19	1075.94
677.53	1079.22
677.87	1076.41
678.21	1070.09
678.55	1058.16
678.89	1070.33
679.23	1068.22
679.57	1069.39
679.90	1081.56
680.24	1076.65
680.58	1071.50
680.92	1077.35
681.26	1081.56
681.60	1067.05
681.94	1078.52
682.28	1068.92
682.62	1067.05
682.96	1069.86
683.29	1076.41
683.63	1083.90
683.97	1087.41
684.31	1087.41
684.65	1090.69
684.99	1093.26
685.33	1076.41
685.67	1073.37
686.00	1063.54
686.34	1061.67
686.68	1063.31
687.02	1080.63
687.36	1096.07
687.70	1105.20
688.03	1094.67
688.37	1100.05
688.71	1087.41
689.05	1073.14
689.39	1079.92
689.72	1087.18
690.06	1080.63
690.40	1079.46
690.74	1081.56
691.08	1075.48
691.41	1069.62
691.75	1066.82
692.09	1066.58
692.43	1065.65
692.76	1062.14
693.10	1065.18
693.44	1070.09
693.78	1068.45
694.11	1071.26
694.45	1069.62
694.79	1071.73
695.13	1067.75
695.46	1067.28
695.80	1068.92
696.14	1073.60
696.48	1071.26
696.81	1063.54
697.15	1065.88
697.49	1059.33
697.82	1072.20
698.16	1071.50
698.50	1082.73
698.83	1085.31
699.17	1082.50
699.51	1068.69
699.84	1059.56
700.18	1049.96
700.52	1053.94
700.85	1063.77
701.19	1064.48
701.53	1064.48
701.86	1066.11
702.20	1058.62
702.54	1059.09
702.87	1062.14
703.21	1071.26
703.55	1079.22
703.88	1082.73
704.22	1082.26
704.55	1080.39
704.89	1075.24
705.23	1070.56
705.56	1066.11
705.90	1061.43
706.23	1061.90
706.57	1077.11
706.91	1077.58
707.24	1086.71
707.58	1091.39
707.91	1087.65
708.25	1077.11
708.58	1086.71
708.92	1080.63
709.26	1079.69
709.59	1087.88
709.93	1090.92
710.26	1080.63
710.60	1081.80
710.93	1095.14
711.27	1080.63
711.60	1086.48
711.94	1094.90
712.27	1089.99
712.61	1067.52
712.94	1076.65
713.28	1069.86
713.61	1055.58
713.95	1057.69
714.28	1068.22
714.62	1075.24
714.95	1071.26
715.29	1078.28
715.62	1072.20
715.96	1071.73
716.29	1058.62
716.63	1062.84
716.96	1065.18
717.29	1066.82
717.63	1063.77
717.96	1067.75
718.30	1068.45
718.63	1068.45
718.97	1072.43
719.30	1067.75
719.63	1073.84
719.97	1071.26
720.30	1073.37
720.64	1078.75
720.97	1083.90
721.30	1082.97
721.64	1084.84
721.97	1073.60
722.31	1083.20
722.64	1090.46
722.97	1081.56
723.31	1078.99
723.64	1097.71
723.97	1081.80
724.31	1078.28
724.64	1084.60
724.98	1076.65
725.31	1074.07
725.64	1082.73
725.98	1078.75
726.31	1079.69
726.64	1084.60
726.97	1072.20
727.31	1068.92
727.64	1066.82
727.97	1078.05
728.31	1084.14
728.64	1087.65
728.97	1090.46
729.31	1098.41
729.64	1097.24
729.97	1095.14
730.30	1100.75
730.64	1099.35
730.97	1097.24
731.30	1086.24
731.63	1086.01
731.97	1081.80
732.30	1077.82
732.63	1084.37
732.96	1090.22
733.30	1079.69
733.63	1077.82
733.96	1077.11
734.29	1069.62
734.63	1070.56
734.96	1082.26
735.29	1090.22
735.62	1077.58
735.95	1080.86
736.29	1077.35
736.62	1067.28
736.95	1062.84
737.28	1077.58
737.61	1066.82
737.94	1063.77
738.28	1071.50
738.61	1076.41
738.94	1075.01
739.27	1089.75
739.60	1092.33
739.93	1094.43
740.27	1089.05
740.60	1093.73
740.93	1089.29
741.26	1083.43
741.59	1086.94
741.92	1077.11
742.25	1070.33
742.58	1063.77
742.91	1066.82
743.25	1065.18
743.58	1074.07
743.91	1075.71
744.24	1073.60
744.57	1080.63
744.90	1083.20
745.23	1081.56
745.56	1083.43
745.89	1087.65
746.22	1085.31
746.55	1077.11
746.88	1068.92
747.21	1071.50
747.54	1066.58
747.87	1058.62
748.20	1069.86
748.53	1074.31
748.87	1073.60
749.20	1083.90
749.53	1088.35
749.86	1080.39
750.19	1088.58
750.52	1093.26
750.85	1091.39
751.18	1097.01
751.51	1089.75
751.84	1087.18
752.16	1081.80
752.49	1081.33
752.82	1078.75
753.15	1086.94
753.48	1083.67
753.81	1089.05
754.14	1087.41
754.47	1079.92
754.80	1085.07
755.13	1091.39
755.46	1099.82
755.79	1089.05
756.12	1087.18
756.45	1085.77
756.78	1083.67
757.11	1064.48
757.43	1076.41
757.76	1086.24
758.09	1069.16
758.42	1068.45
758.75	1071.73
759.08	1067.52
759.41	1063.77
759.74	1082.26
760.07	1079.46
760.39	1090.69
760.72	1090.92
761.05	1086.01
761.38	1077.11
761.71	1077.35
762.04	1059.56
762.36	1065.18
762.69	1058.16
763.02	1048.33
763.35	1053.48
763.68	1057.92
764.01	1050.90
764.33	1055.82
764.66	1064.71
764.99	1061.20
765.32	1058.16
765.65	1060.96
765.97	1064.71
766.30	1065.88
766.63	1061.67
766.96	1068.92
767.28	1068.22
767.61	1076.41
767.94	1088.58
768.27	1089.75
768.59	1088.35
768.92	1086.94
769.25	1078.99
769.58	1071.50
769.90	1074.07
770.23	1075.01
770.56	1079.22
770.89	1069.39
771.21	1068.22
771.54	1060.26
771.87	1058.86
772.19	1057.22
772.52	1071.50
772.85	1069.86
773.17	1074.54
773.50	1068.69
773.83	1073.14
774.15	1069.39
774.48	1065.41
774.81	1075.71
775.13	1079.69
775.46	1065.88
775.79	1068.45
776.11	1070.33
776.44	1067.28
776.77	1075.71
777.09	1089.52
777.42	1090.22
777.74	1094.67
778.07	1085.77
778.40	1079.69
778.72	1081.33
779.05	1078.99
779.37	1078.99
779.70	1077.58
780.03	1079.92
780.35	1074.77
780.68	1071.50
781.00	1067.05
781.33	1075.94
781.65	1075.48
781.98	1075.24
782.31	1079.22
782.63	1072.20
782.96	1074.77
783.28	1079.22
783.61	1069.62
783.93	1074.07
784.26	1067.52
784.58	1059.09
784.91	1056.28
785.23	1065.65
785.56	1064.94
785.88	1081.80
786.21	1071.03
786.53	1066.82
786.86	1061.43
787.18	1054.65
787.51	1057.45
787.83	1077.35
788.16	1075.48
788.48	1082.03
788.81	1088.35
789.13	1086.01
789.46	1078.05
789.78	1087.18
790.10	1082.97
790.43	1086.71
790.75	1089.99
791.08	1091.16
791.40	1089.29
791.73	1097.48
792.05	1091.63
792.37	1093.50
792.70	1090.92
793.02	1086.94
793.35	1075.48
793.67	1070.09
793.99	1061.67
794.32	1065.41
794.64	1068.92
794.96	1071.26
795.29	1068.69
795.61	1071.26
795.93	1066.82
796.26	1065.41
796.58	1076.88
796.91	1083.43
797.23	1080.16
797.55	1079.22
797.87	1075.24
798.20	1059.09
798.52	1059.33
798.84	1058.39
799.17	1065.18
799.49	1063.31
799.81	1073.60
800.14	1075.94
800.46	1077.58
800.78	1067.28
801.10	1064.01
801.43	1063.31
801.75	1062.84
802.07	1057.92
802.40	1070.09
802.72	1075.48
803.04	1071.73
803.36	1075.94
803.69	1073.84
804.01	1067.28
804.33	1072.20
804.65	1066.11
804.97	1061.43
805.30	1068.92
805.62	1067.75
805.94	1057.45
806.26	1057.22
806.58	1047.39
806.91	1044.58
807.23	1056.75
807.55	1060.50
807.87	1072.43
808.19	1084.14
808.52	1089.99
808.84	1087.88
809.16	1091.39
809.48	1088.35
809.80	1087.88
810.12	1089.52
810.44	1080.86
810.77	1069.16
811.09	1070.09
811.41	1078.52
811.73	1065.88
812.05	1074.31
812.37	1086.48
812.69	1094.67
813.01	1081.80
813.33	1085.31
813.66	1084.37
813.98	1084.60
814.30	1078.28
814.62	1083.90
814.94	1094.43
815.26	1091.86
815.58	1089.75
815.90	1083.67
816.22	1085.07
816.54	1081.09
816.86	1083.67
817.18	1088.82
817.50	1094.20
817.82	1097.95
818.14	1097.24
818.46	1090.46
818.78	1089.52
819.10	1086.48
819.42	1073.84
819.74	1074.77
820.06	1076.65
820.38	1077.35
820.70	1081.80
821.02	1086.48
821.34	1081.80
821.66	1084.84
821.98	1082.26
822.30	1080.16
822.62	1087.18
822.94	1097.01
823.26	1097.01
823.58	1089.52
823.90	1084.84
824.22	1076.65
824.54	1075.01
824.86	1069.86
825.18	1079.69
825.50	1087.65
825.81	1083.20
826.13	1083.20
826.45	1086.48
826.77	1086.24
827.09	1083.20
827.41	1090.46
827.73	1087.18
828.05	1091.16
828.36	1092.33
828.68	1084.84
829.00	1079.69
829.32	1068.22
829.64	1064.01
829.96	1061.90
830.28	1065.41
830.59	1061.43
830.91	1067.99
831.23	1069.39
831.55	1066.11
831.87	1059.56
832.19	1071.03
832.50	1075.24
832.82	1079.69
833.14	1082.73
833.46	1100.29
833.78	1100.29
834.09	1098.65
834.41	1085.54
834.73	1073.14
835.05	1061.90
835.36	1053.01
835.68	1053.24
836.00	1061.20
836.32	1069.39
836.63	1071.73
836.95	1078.28
837.27	1077.58
837.59	1078.52
837.90	1088.35
838.22	1087.88
838.54	1082.73
838.85	1086.48
839.17	1079.69
839.49	1073.84
839.80	1075.94
840.12	1086.24
840.44	1086.94
840.76	1088.82
841.07	1084.84
841.39	1080.86
841.71	1078.99
842.02	1066.82
842.34	1071.97
842.65	1077.58
842.97	1080.39
843.29	1065.65
843.60	1074.54
843.92	1078.75
844.24	1072.90
844.55	1076.65
844.87	1094.43
845.18	1103.56
845.50	1100.75
845.82	1102.39
846.13	1100.29
846.45	1088.82
846.76	1085.54
847.08	1088.58
847.40	1095.37
847.71	1092.09
848.03	1100.05
848.34	1089.29
848.66	1078.52
848.97	1071.50
849.29	1070.80
849.60	1057.45
849.92	1062.37
850.24	1067.99
850.55	1069.62
850.87	1068.92
851.18	1078.99
851.50	1080.39
851.81	1073.14
852.13	1073.84
852.44	1070.33
852.76	1078.05
853.07	1084.14
853.39	1097.95
853.70	1100.99
854.01	1105.20
854.33	1091.63
854.64	1078.05
854.96	1066.35
855.27	1065.65
855.59	1063.31
855.90	1078.75
856.22	1093.26
856.53	1087.88
856.84	1081.09
857.16	1094.67
857.47	1085.07
857.79	1085.77
858.10	1101.46
858.41	1110.82
858.73	1098.41
859.04	1104.73
859.36	1096.54
859.67	1089.29
859.98	1086.71
860.30	1082.97
860.61	1075.01
860.92	1077.11
861.24	1084.14
861.55	1086.24
861.87	1084.60
862.18	1087.41
862.49	1086.01
862.81	1080.16
863.12	1081.09
863.43	1090.22
863.74	1083.90
864.06	1080.16
864.37	1080.39
864.68	1063.77
865.00	1060.73
865.31	1065.41
865.62	1062.84
865.94	1052.07
866.25	1057.92
866.56	1058.62
866.87	1061.90
867.19	1065.18
867.50	1079.22
867.81	1076.88
868.12	1077.11
868.44	1072.43
868.75	1078.52
869.06	1081.56
869.37	1085.07
869.68	1089.75
870.00	1094.67
870.31	1082.97
870.62	1075.71
870.93	1077.58
871.24	1079.92
871.56	1076.18
871.87	1085.77
872.18	1082.97
872.49	1080.86
872.80	1071.73
873.12	1071.97
873.43	1068.45
873.74	1070.56
874.05	1067.05
874.36	1069.39
874.67	1072.20
874.98	1066.35
875.29	1070.09
875.61	1068.92
875.92	1071.73
876.23	1072.43
876.54	1078.05
876.85	1073.37
877.16	1079.46
877.47	1080.39
877.78	1074.07
878.09	1077.35
878.40	1076.18
878.72	1066.11
879.03	1057.22
879.34	1056.75
879.65	1050.20
879.96	1052.07
880.27	1065.88
880.58	1071.97
880.89	1070.56
881.20	1073.84
881.51	1077.11
881.82	1071.03
882.13	1073.84
882.44	1076.41
882.75	1076.65
883.06	1081.80
883.37	1083.20
883.68	1082.73
883.99	1082.73
884.30	1082.73
884.61	1075.24
884.92	1080.63
885.23	1085.07
885.54	1087.41
885.85	1079.69
886.16	1081.33
886.47	1077.82
886.78	1074.07
887.08	1074.77
887.39	1088.58
887.70	1085.77
888.01	1087.65
888.32	1074.77
888.63	1066.58
888.94	1064.01
889.25	1062.60
889.56	1064.01
889.87	1075.48
890.17	1086.94
890.48	1085.54
890.79	1095.14
891.10	1100.29
891.41	1095.60
891.72	1093.03
892.03	1089.29
892.34	1090.46
892.64	1081.80
892.95	1082.03
893.26	1076.65
893.57	1079.92
893.88	1078.52
894.18	1078.05
894.49	1085.07
894.80	1090.22
895.11	1084.60
895.42	1078.99
895.72	1079.69
896.03	1075.01
896.34	1071.03
896.65	1083.20
896.96	1085.07
897.26	1086.24
897.57	1078.52
897.88	1082.97
898.19	1080.63
898.49	1083.20
898.80	1082.73
899.11	1094.20
899.41	1089.99
899.72	1087.65
900.03	1087.18
900.34	1090.46
900.64	1084.60
900.95	1078.28
901.26	1073.84
901.56	1074.07
901.87	1077.11
902.18	1084.14
902.48	1092.33
902.79	1089.05
903.10	1081.80
903.40	1075.71
903.71	1067.75
904.02	1057.22
904.32	1059.79
904.63	1062.84
904.94	1065.65
905.24	1060.26
905.55	1071.97
905.85	1074.54
906.16	1074.54
906.47	1075.94
906.77	1078.05
907.08	1075.71
907.38	1071.73
907.69	1059.79
908.00	1055.82
908.30	1065.65
908.61	1058.39
908.91	1067.28
909.22	1077.58
909.52	1071.97
909.83	1069.16
910.14	1071.03
910.44	1074.54
910.75	1076.88
911.05	1087.65
911.36	1089.05
911.66	1100.52
911.97	1090.22
912.27	1089.29
912.58	1083.90
912.88	1080.63
913.19	1075.48
913.49	1074.07
913.80	1067.99
914.10	1070.80
914.41	1069.39
914.71	1062.84
915.01	1061.90
915.32	1068.92
915.62	1067.28
915.93	1067.99
916.23	1066.35
916.54	1073.14
916.84	1071.50
917.15	1070.09
917.45	1073.14
917.75	1080.39
918.06	1082.97
918.36	1083.67
918.67	1077.82
918.97	1072.20
919.27	1067.52
919.58	1055.35
919.88	1058.62
920.18	1059.09
920.49	1066.11
920.79	1075.71
921.10	1078.05
921.40	1076.88
921.70	1084.14
922.01	1082.50
922.31	1081.09
922.61	1082.50
922.92	1078.75
923.22	1073.60
923.52	1085.31
923.82	1084.14
924.13	1092.09
924.43	1089.75
924.73	1091.39
925.04	1081.09
925.34	1074.31
925.64	1078.28
925.94	1084.60
926.25	1093.50
926.55	1101.22
926.85	1114.10
927.15	1106.14
927.46	1115.03
927.76	1114.33
928.06	1113.63
928.36	1102.39
928.67	1100.99
928.97	1090.22
929.27	1094.67
929.57	1083.20
929.87	1086.71
930.18	1086.48
930.48	1090.22
930.78	1087.65
931.08	1085.77
931.38	1088.35
931.69	1085.31
931.99	1071.97
932.29	1064.71
932.59	1074.77
932.89	1070.56
933.19	1078.52
933.49	1086.71
933.80	1088.35
934.10	1082.97
934.40	1080.86
934.70	1077.82
935.00	1078.99
935.30	1076.41
935.60	1078.52
935.90	1077.11
936.20	1072.67
936.50	1076.18
936.81	1071.73
937.11	1068.69
937.41	1074.77
937.71	1075.71
938.01	1065.88
938.31	1064.48
938.61	1056.75
938.91	1046.22
939.21	1050.43
939.51	1061.20
939.81	1067.28
940.11	1077.82
940.41	1087.18
940.71	1087.41
941.01	1086.94
941.31	1090.69
941.61	1095.84
941.91	1100.05
942.21	1097.48
942.51	1093.03
942.81	1091.16
943.11	1088.35
943.41	1083.67
943.71	1080.16
944.01	1085.54
944.31	1081.80
944.61	1079.92
944.90	1078.75
945.20	1079.46
945.50	1071.50
945.80	1077.11
946.10	1081.09
946.40	1088.12
946.70	1089.52
947.00	1087.88
947.30	1088.12
947.60	1082.73
947.89	1062.14
948.19	1065.18
948.49	1072.67
948.79	1067.05
949.09	1061.43
949.39	1081.56
949.69	1082.73
949.98	1080.39
950.28	1094.67
950.58	1086.48
950.88	1078.75
951.18	1082.50
951.48	1082.03
951.77	1074.77
952.07	1074.54
952.37	1081.33
952.67	1076.88
952.97	1067.99
953.26	1067.52
953.56	1078.28
953.86	1071.73
954.16	1068.92
954.45	1077.11
954.75	1082.50
955.05	1081.09
955.35	1086.71
955.64	1095.60
955.94	1095.60
956.24	1090.22
956.54	1088.35
956.83	1079.46
957.13	1080.63
957.43	1085.07
957.72	1078.05
958.02	1082.26
958.32	1088.35
958.61	1075.94
958.91	1073.14
959.21	1077.35
959.50	1079.46
959.80	1081.56
960.10	1086.94
960.39	1090.22
960.69	1093.73
960.99	1095.84
961.28	1086.01
961.58	1086.01
961.87	1083.67
962.17	1070.80
962.47	1073.60
962.76	1089.99
963.06	1098.18
963.36	1097.95
963.65	1104.03
963.95	1098.18
964.24	1090.69
964.54	1083.67
964.83	1076.18
965.13	1080.16
965.42	1074.07
965.72	1069.39
966.02	1069.62
966.31	1068.69
966.61	1067.52
966.90	1072.20
967.20	1082.03
967.49	1080.16
967.79	1098.18
968.08	1095.60
968.38	1094.20
968.67	1088.12
968.97	1087.65
969.26	1075.24
969.56	1068.69
969.85	1064.94
970.15	1058.39
970.44	1054.18
970.74	1053.48
971.03	1047.39
971.32	1057.69
971.62	1052.07
971.91	1054.65
972.21	1051.13
972.50	1062.84
972.80	1055.58
973.09	1063.31
973.38	1066.58
973.68	1068.69
973.97	1080.39
974.27	1083.67
974.56	1092.80
974.85	1088.82
975.15	1093.50
975.44	1073.84
975.73	1073.84
976.03	1071.26
976.32	1082.50
976.61	1078.52
976.91	1093.50
977.20	1093.03
977.49	1088.12
977.79	1075.71
978.08	1080.16
978.37	1074.54
978.67	1070.80
978.96	1076.88
979.25	1075.71
979.55	1077.58
979.84	1080.63
980.13	1091.39
980.42	1080.39
980.72	1089.75
981.01	1072.67
981.30	1071.73
981.59	1068.92
981.89	1072.43
982.18	1056.05
982.47	1064.01
982.76	1063.54
983.06	1057.45
983.35	1066.11
983.64	1082.03
983.93	1089.99
984.22	1092.09
984.52	1092.33
984.81	1090.46
985.10	1089.99
985.39	1084.84
985.68	1082.97
985.97	1082.50
986.27	1080.16
986.56	1078.52
986.85	1075.71
987.14	1069.39
987.43	1073.84
987.72	1071.73
988.01	1073.84
988.31	1078.28
988.60	1084.14
988.89	1084.60
989.18	1092.09
989.47	1097.71
989.76	1099.58
990.05	1100.52
990.34	1096.07
990.63	1092.56
990.92	1077.58
991.21	1076.88
991.51	1069.86
991.80	1070.33
992.09	1069.86
992.38	1082.26
992.67	1078.28
992.96	1071.97
993.25	1079.22
993.54	1079.22
993.83	1063.54
994.12	1064.01
994.41	1068.69
994.70	1065.18
994.99	1061.20
995.28	1072.90
995.57	1072.90
995.86	1082.97
996.15	1080.86
996.44	1087.18
996.73	1087.65
997.02	1092.80
997.31	1091.86
997.59	1096.54
997.88	1092.33
998.17	1086.94
998.46	1091.63
998.75	1082.26
999.04	1082.26
999.33	1085.77
999.62	1082.97
999.91	1077.35
1000.20	1089.99
1000.49	1086.94
1000.77	1073.84
1001.06	1081.09
1001.35	1079.22
1001.64	1067.28
1001.93	1058.16
1002.22	1066.35
1002.51	1070.33
1002.79	1070.56
1003.08	1083.43
1003.37	1101.69
1003.66	1099.58
1003.95	1089.05
1004.23	1093.97
1004.52	1090.92
1004.81	1075.24
1005.10	1080.16
1005.39	1078.05
1005.67	1075.48
1005.96	1065.88
1006.25	1067.99
1006.54	1064.01
1006.83	1069.86
1007.11	1068.69
1007.40	1067.05
1007.69	1069.62
1007.97	1059.79
1008.26	1047.86
1008.55	1043.64
1008.84	1050.20
1009.12	1046.92
1009.41	1062.14
1009.70	1061.67
1009.98	1063.54
1010.27	1062.14
1010.56	1064.94
1010.85	1062.14
1011.13	1078.75
1011.42	1083.20
1011.71	1081.09
1011.99	1086.94
1012.28	1084.14
1012.56	1083.20
1012.85	1084.60
1013.14	1086.94
1013.42	1082.73
1013.71	1089.29
1014.00	1092.09
1014.28	1093.73
1014.57	1091.86
1014.85	1088.82
1015.14	1081.56
1015.43	1082.26
1015.71	1082.03
1016.00	1090.92
1016.28	1098.18
1016.57	1109.88
1016.85	1113.63
1017.14	1105.67
1017.43	1099.58
1017.71	1093.03
1018.00	1081.80
1018.28	1067.05
1018.57	1066.11
1018.85	1069.62
1019.14	1074.54
1019.42	1077.58
1019.71	1083.20
1019.99	1085.77
1020.28	1085.31
1020.56	1078.75
1020.85	1068.92
1021.13	1066.82
1021.42	1072.43
1021.70	1065.18
1021.99	1067.28
1022.27	1077.58
1022.55	1071.97
1022.84	1081.33
>>>>>End Processed Spectral Data<<<<<
