SpectraSuite Data File
++++++++++++++++++++++++++++++++++++
Date: Mon Aug 26 10:25:56 PDT 2019
User: corrico
Dark Spectrum Present: No
Reference Spectrum Present: No
Number of Sampled Component Spectra: 1
Spectrometers: USB2+H06089
Integration Time (usec): 10000 (USB2+H06089)
Spectra Averaged: 2 (USB2+H06089)
Boxcar Smoothing: 2 (USB2+H06089)
Correct for Electrical Dark: No (USB2+H06089)
Strobe/Lamp Enabled: No (USB2+H06089)
Correct for Detector Non-linearity: No (USB2+H06089)
Correct for Stray Light: No (USB2+H06089)
Number of Pixels in Processed Spectrum: 2048
>>>>>Begin Processed Spectral Data<<<<<
339.70	1033.35
340.07	1033.35
340.45	1005.49
340.82	980.45
341.19	958.22
341.57	932.00
341.94	928.02
342.31	920.77
342.69	923.81
343.06	906.96
343.43	899.00
343.81	896.89
344.18	906.49
344.55	908.83
344.93	922.41
345.30	941.83
345.67	940.43
346.04	939.49
346.42	942.07
346.79	950.96
347.16	951.66
347.54	961.73
347.91	968.51
348.28	973.19
348.65	990.28
349.03	992.62
349.40	1001.75
349.77	1015.32
350.14	1032.41
350.52	1042.24
350.89	1061.20
351.26	1067.99
351.63	1070.80
352.01	1068.45
352.38	1067.75
352.75	1074.31
353.12	1071.50
353.50	1082.03
353.87	1089.99
354.24	1086.94
354.61	1083.67
354.98	1083.67
355.36	1071.73
355.73	1054.18
356.10	1056.75
356.47	1057.22
356.84	1068.22
357.22	1081.56
357.59	1089.52
357.96	1091.86
358.33	1086.48
358.70	1089.29
359.08	1071.03
359.45	1086.94
359.82	1087.65
360.19	1083.20
360.56	1073.84
360.94	1082.26
361.31	1071.73
361.68	1071.03
362.05	1074.07
362.42	1078.52
362.79	1078.52
363.16	1076.18
363.54	1080.39
363.91	1081.33
364.28	1077.35
364.65	1078.05
365.02	1078.52
365.39	1064.94
365.76	1072.20
366.14	1078.05
366.51	1076.18
366.88	1083.43
367.25	1092.56
367.62	1089.99
367.99	1083.67
368.36	1082.97
368.73	1073.84
369.10	1062.37
369.48	1055.35
369.85	1057.22
370.22	1054.65
370.59	1059.09
370.96	1058.39
371.33	1060.96
371.70	1052.30
372.07	1055.11
372.44	1063.31
372.81	1073.14
373.18	1073.37
373.55	1080.86
373.93	1081.56
374.30	1075.71
374.67	1070.80
375.04	1079.92
375.41	1071.03
375.78	1076.65
376.15	1077.58
376.52	1079.46
376.89	1075.24
377.26	1084.60
377.63	1071.97
378.00	1071.50
378.37	1074.77
378.74	1074.07
379.11	1072.20
379.48	1069.62
379.85	1056.28
380.22	1057.45
380.59	1057.22
380.96	1055.82
381.33	1065.88
381.70	1073.60
382.07	1074.07
382.44	1073.84
382.81	1074.07
383.18	1072.20
383.55	1075.01
383.92	1067.99
384.29	1060.73
384.66	1069.62
385.03	1075.48
385.40	1076.65
385.77	1086.71
386.14	1089.05
386.51	1072.67
386.88	1053.48
387.25	1043.88
387.62	1026.79
387.99	1034.28
388.36	1046.69
388.73	1058.16
389.10	1066.11
389.46	1077.82
389.83	1074.07
390.20	1075.48
390.57	1071.03
390.94	1080.39
391.31	1081.09
391.68	1074.31
392.05	1064.01
392.42	1076.18
392.79	1072.43
393.16	1075.94
393.53	1075.01
393.89	1074.77
394.26	1070.56
394.63	1069.86
395.00	1059.79
395.37	1068.69
395.74	1068.45
396.11	1070.80
396.48	1064.01
396.84	1071.73
397.21	1076.18
397.58	1084.60
397.95	1087.65
398.32	1099.35
398.69	1099.82
399.06	1100.52
399.42	1098.65
399.79	1089.29
400.16	1087.18
400.53	1085.77
400.90	1083.90
401.27	1090.22
401.64	1089.29
402.00	1081.33
402.37	1081.33
402.74	1069.39
403.11	1053.48
403.48	1049.26
403.84	1046.22
404.21	1034.05
404.58	1041.77
404.95	1052.30
405.32	1063.31
405.68	1072.43
406.05	1083.67
406.42	1085.31
406.79	1091.86
407.16	1087.18
407.52	1084.60
407.89	1077.82
408.26	1065.18
408.63	1053.24
408.99	1043.88
409.36	1039.20
409.73	1040.60
410.10	1053.48
410.47	1060.96
410.83	1076.65
411.20	1078.28
411.57	1081.56
411.94	1076.65
412.30	1070.56
412.67	1069.86
413.04	1065.88
413.40	1059.56
413.77	1058.39
414.14	1061.43
414.51	1057.69
414.87	1065.88
415.24	1070.33
415.61	1069.39
415.97	1082.03
416.34	1076.18
416.71	1071.50
417.08	1076.41
417.44	1085.31
417.81	1083.43
418.18	1089.75
418.54	1095.14
418.91	1092.09
419.28	1088.35
419.64	1082.03
420.01	1079.92
420.38	1076.41
420.74	1085.54
421.11	1086.24
421.48	1086.01
421.84	1096.54
422.21	1097.24
422.58	1096.31
422.94	1090.92
423.31	1083.90
423.68	1074.07
424.04	1067.28
424.41	1053.71
424.77	1056.28
425.14	1055.82
425.51	1053.48
425.87	1062.60
426.24	1067.75
426.61	1063.54
426.97	1068.69
427.34	1072.67
427.70	1066.11
428.07	1081.33
428.44	1085.77
428.80	1089.99
429.17	1083.67
429.53	1087.65
429.90	1080.63
430.27	1086.24
430.63	1080.16
431.00	1091.86
431.36	1090.92
431.73	1087.18
432.09	1088.12
432.46	1096.54
432.83	1087.41
433.19	1093.97
433.56	1089.52
433.92	1089.75
434.29	1086.94
434.65	1096.78
435.02	1095.60
435.38	1094.20
435.75	1094.90
436.11	1090.92
436.48	1091.86
436.84	1091.39
437.21	1086.94
437.57	1076.88
437.94	1067.28
438.30	1066.58
438.67	1072.90
439.03	1089.29
439.40	1084.84
439.76	1088.58
440.13	1075.94
440.49	1066.82
440.86	1052.77
441.22	1060.96
441.59	1069.86
441.95	1073.14
442.32	1071.03
442.68	1071.50
443.05	1076.65
443.41	1072.43
443.78	1071.03
444.14	1067.99
444.51	1085.07
444.87	1090.46
445.24	1086.01
445.60	1086.48
445.96	1090.22
446.33	1076.88
446.69	1071.03
447.06	1073.14
447.42	1082.50
447.79	1084.37
448.15	1085.31
448.51	1080.16
448.88	1087.88
449.24	1084.37
449.61	1082.73
449.97	1082.03
450.33	1075.48
450.70	1074.07
451.06	1069.86
451.43	1072.67
451.79	1074.07
452.15	1074.54
452.52	1079.92
452.88	1075.48
453.24	1078.52
453.61	1087.65
453.97	1091.63
454.34	1086.94
454.70	1093.97
455.06	1087.41
455.43	1078.52
455.79	1077.82
456.15	1064.01
456.52	1056.99
456.88	1052.07
457.24	1050.90
457.61	1053.24
457.97	1055.82
458.33	1068.92
458.70	1069.39
459.06	1072.67
459.42	1077.82
459.79	1081.56
460.15	1080.86
460.51	1097.01
460.88	1083.20
461.24	1083.43
461.60	1085.31
461.96	1084.60
462.33	1065.88
462.69	1078.75
463.05	1075.24
463.42	1073.37
463.78	1066.11
464.14	1074.77
464.50	1073.14
464.87	1080.16
465.23	1082.03
465.59	1085.31
465.95	1074.31
466.32	1066.82
466.68	1063.07
467.04	1064.71
467.40	1055.82
467.77	1062.60
468.13	1079.69
468.49	1080.16
468.85	1080.86
469.22	1088.82
469.58	1091.16
469.94	1083.20
470.30	1085.77
470.66	1075.24
471.03	1064.71
471.39	1059.79
471.75	1049.50
472.11	1035.69
472.47	1044.11
472.84	1059.56
473.20	1066.35
473.56	1071.26
473.92	1079.46
474.28	1090.46
474.65	1084.14
475.01	1080.86
475.37	1089.29
475.73	1090.22
476.09	1082.26
476.45	1084.60
476.81	1085.31
477.18	1071.50
477.54	1074.54
477.90	1071.50
478.26	1075.48
478.62	1082.50
478.98	1091.63
479.34	1088.12
479.71	1092.56
480.07	1076.88
480.43	1064.94
480.79	1063.77
481.15	1056.99
481.51	1051.13
481.87	1056.28
482.23	1065.18
482.59	1069.86
482.96	1079.22
483.32	1074.54
483.68	1084.37
484.04	1076.88
484.40	1075.24
484.76	1083.20
485.12	1092.80
485.48	1092.09
485.84	1097.24
486.20	1100.29
486.56	1077.11
486.92	1066.11
487.28	1060.26
487.64	1063.77
488.00	1059.56
488.37	1075.24
488.73	1078.52
489.09	1078.99
489.45	1075.24
489.81	1075.94
490.17	1068.22
490.53	1072.90
490.89	1075.94
491.25	1080.39
491.61	1078.75
491.97	1081.80
492.33	1085.31
492.69	1080.63
493.05	1072.90
493.41	1083.67
493.77	1089.75
494.13	1083.20
494.49	1077.11
494.85	1079.69
495.21	1070.33
495.57	1070.80
495.93	1068.69
496.29	1076.65
496.64	1075.24
497.00	1075.71
497.36	1076.41
497.72	1084.84
498.08	1087.88
498.44	1093.97
498.80	1093.50
499.16	1089.75
499.52	1090.46
499.88	1097.95
500.24	1097.01
500.60	1091.16
500.96	1091.39
501.32	1089.52
501.68	1081.09
502.03	1080.16
502.39	1091.86
502.75	1091.86
503.11	1096.31
503.47	1097.24
503.83	1094.20
504.19	1082.97
504.55	1075.48
504.91	1066.58
505.26	1063.54
505.62	1071.26
505.98	1074.31
506.34	1083.90
506.70	1089.29
507.06	1083.20
507.42	1072.43
507.78	1079.69
508.13	1082.26
508.49	1086.94
508.85	1092.09
509.21	1095.60
509.57	1089.99
509.93	1083.43
510.28	1071.97
510.64	1077.11
511.00	1073.84
511.36	1079.69
511.72	1076.65
512.07	1085.77
512.43	1084.37
512.79	1090.46
513.15	1093.73
513.51	1100.29
513.86	1094.67
514.22	1099.12
514.58	1097.24
514.94	1086.01
515.30	1076.65
515.65	1079.46
516.01	1077.11
516.37	1088.35
516.73	1094.43
517.08	1104.50
517.44	1100.75
517.80	1098.88
518.16	1097.01
518.51	1090.69
518.87	1092.09
519.23	1100.99
519.59	1105.90
519.94	1112.92
520.30	1119.24
520.66	1108.48
521.01	1104.03
521.37	1108.71
521.73	1092.33
522.09	1100.29
522.44	1106.84
522.80	1103.80
523.16	1092.33
523.51	1104.73
523.87	1091.39
524.23	1083.20
524.58	1082.03
524.94	1081.56
525.30	1071.26
525.65	1081.56
526.01	1089.99
526.37	1098.41
526.72	1100.75
527.08	1110.35
527.44	1104.73
527.79	1106.37
528.15	1093.26
528.51	1096.78
528.86	1089.05
529.22	1085.54
529.58	1093.97
529.93	1094.43
530.29	1092.33
530.65	1093.73
531.00	1095.60
531.36	1083.43
531.71	1097.24
532.07	1096.54
532.43	1098.18
532.78	1102.63
533.14	1102.86
533.49	1090.22
533.85	1086.24
534.21	1073.84
534.56	1066.58
534.92	1066.35
535.27	1075.01
535.63	1086.24
535.98	1093.97
536.34	1107.54
536.69	1105.67
537.05	1095.60
537.41	1089.99
537.76	1092.09
538.12	1077.82
538.47	1080.86
538.83	1091.86
539.18	1093.03
539.54	1086.94
539.89	1096.31
540.25	1106.14
540.60	1104.26
540.96	1090.69
541.31	1095.84
541.67	1084.37
542.02	1077.58
542.38	1079.22
542.73	1084.14
543.09	1075.48
543.44	1081.09
543.80	1075.48
544.15	1067.28
544.51	1069.39
544.86	1074.07
545.22	1075.94
545.57	1071.73
545.93	1068.22
546.28	1068.92
546.64	1074.77
546.99	1068.69
547.35	1077.82
547.70	1086.48
548.05	1093.73
548.41	1090.92
548.76	1103.56
549.12	1096.54
549.47	1090.46
549.83	1083.20
550.18	1078.75
550.53	1074.31
550.89	1072.67
551.24	1078.28
551.60	1078.28
551.95	1081.33
552.30	1078.52
552.66	1089.99
553.01	1096.31
553.37	1103.33
553.72	1105.20
554.07	1104.50
554.43	1106.14
554.78	1108.48
555.13	1106.84
555.49	1095.60
555.84	1094.43
556.19	1088.35
556.55	1083.90
556.90	1075.94
557.26	1086.24
557.61	1086.71
557.96	1084.84
558.32	1079.22
558.67	1081.09
559.02	1081.09
559.37	1084.84
559.73	1082.26
560.08	1075.48
560.43	1076.18
560.79	1072.20
561.14	1064.24
561.49	1066.35
561.85	1075.01
562.20	1078.99
562.55	1080.16
562.90	1085.54
563.26	1083.43
563.61	1082.50
563.96	1069.16
564.32	1072.43
564.67	1077.11
565.02	1083.67
565.37	1071.73
565.73	1076.41
566.08	1073.37
566.43	1067.75
566.78	1061.67
567.14	1072.43
567.49	1075.94
567.84	1077.35
568.19	1069.16
568.54	1072.20
568.90	1073.37
569.25	1079.22
569.60	1082.73
569.95	1087.41
570.31	1086.24
570.66	1088.35
571.01	1083.20
571.36	1086.24
571.71	1093.50
572.06	1103.33
572.42	1100.75
572.77	1107.31
573.12	1098.41
573.47	1096.54
573.82	1078.52
574.18	1083.67
574.53	1075.24
574.88	1071.50
575.23	1064.71
575.58	1071.03
575.93	1063.54
576.28	1066.11
576.64	1065.18
576.99	1066.35
577.34	1070.33
577.69	1066.11
578.04	1065.88
578.39	1075.94
578.74	1077.82
579.09	1071.73
579.44	1069.86
579.80	1075.94
580.15	1076.65
580.50	1087.65
580.85	1095.60
581.20	1112.22
581.55	1110.12
581.90	1114.33
582.25	1101.46
582.60	1093.97
582.95	1078.28
583.30	1072.67
583.65	1056.52
584.00	1052.30
584.35	1061.43
584.71	1063.77
585.06	1059.33
585.41	1074.54
585.76	1079.69
586.11	1078.99
586.46	1078.28
586.81	1086.94
587.16	1083.43
587.51	1081.09
587.86	1075.48
588.21	1079.46
588.56	1080.86
588.91	1078.05
589.26	1089.05
589.61	1091.63
589.96	1082.50
590.31	1079.69
590.66	1078.99
591.01	1077.35
591.36	1074.31
591.71	1078.75
592.06	1082.73
592.41	1075.71
592.76	1061.67
593.10	1061.90
593.45	1063.07
593.80	1059.79
594.15	1068.22
594.50	1075.94
594.85	1074.31
595.20	1077.11
595.55	1077.82
595.90	1076.18
596.25	1079.46
596.60	1090.69
596.95	1100.75
597.30	1093.73
597.64	1152.71
597.99	1156.22
598.34	1141.95
598.69	1123.69
599.04	1123.69
599.39	1071.26
599.74	1070.56
600.09	1078.75
600.44	1100.75
600.78	1106.61
601.13	1102.63
601.48	1100.52
601.83	1098.88
602.18	1085.07
602.53	1081.80
602.88	1079.69
603.22	1076.88
603.57	1081.80
603.92	1083.20
604.27	1087.65
604.62	1085.07
604.97	1076.41
605.31	1067.28
605.66	1069.86
606.01	1073.37
606.36	1080.63
606.71	1097.71
607.05	1099.58
607.40	1101.69
607.75	1097.24
608.10	1093.73
608.44	1082.73
608.79	1082.50
609.14	1086.24
609.49	1082.97
609.84	1081.33
610.18	1084.37
610.53	1092.56
610.88	1084.84
611.23	1087.65
611.57	1098.41
611.92	1100.05
612.27	1098.65
612.62	1099.58
612.96	1102.16
613.31	1092.09
613.66	1089.29
614.00	1089.75
614.35	1087.41
614.70	1089.05
615.05	1081.33
615.39	1087.41
615.74	1091.63
616.09	1098.65
616.43	1091.16
616.78	1100.05
617.13	1090.69
617.47	1086.94
617.82	1077.11
618.17	1080.63
618.51	1077.35
618.86	1089.99
619.21	1080.16
619.55	1083.43
619.90	1084.37
620.25	1075.71
620.59	1069.62
620.94	1076.88
621.29	1075.24
621.63	1075.48
621.98	1092.56
622.32	1101.69
622.67	1105.44
623.02	1104.26
623.36	1104.73
623.71	1106.37
624.05	1095.60
624.40	1096.07
624.75	1105.44
625.09	1102.63
625.44	1088.82
625.78	1091.63
626.13	1081.80
626.48	1080.63
626.82	1082.73
627.17	1089.52
627.51	1090.69
627.86	1088.58
628.20	1075.01
628.55	1070.33
628.89	1067.52
629.24	1054.65
629.58	1052.77
629.93	1051.37
630.28	1055.35
630.62	1060.50
630.97	1071.03
631.31	1080.16
631.66	1097.95
632.00	1102.16
632.35	1098.18
632.69	1099.12
633.04	1090.46
633.38	1091.39
633.73	1082.03
634.07	1080.63
634.42	1070.33
634.76	1073.60
635.11	1060.50
635.45	1063.31
635.79	1070.33
636.14	1086.01
636.48	1097.95
636.83	1101.69
637.17	1099.12
637.52	1084.84
637.86	1081.33
638.21	1082.03
638.55	1086.24
638.89	1096.31
639.24	1103.56
639.58	1106.37
639.93	1100.05
640.27	1105.44
640.61	1106.14
640.96	1110.12
641.30	1108.95
641.65	1118.07
641.99	1106.37
642.33	1099.82
642.68	1095.14
643.02	1088.82
643.37	1074.77
643.71	1072.20
644.05	1066.82
644.40	1074.77
644.74	1067.28
645.08	1071.26
645.43	1072.90
645.77	1075.94
646.11	1062.14
646.46	1066.35
646.80	1062.84
647.14	1070.80
647.49	1080.63
647.83	1093.50
648.17	1100.29
648.52	1107.31
648.86	1108.01
649.20	1104.03
649.55	1095.84
649.89	1091.63
650.23	1079.46
650.57	1073.14
650.92	1072.20
651.26	1085.07
651.60	1083.43
651.95	1079.69
652.29	1089.29
652.63	1086.71
652.97	1080.16
653.32	1079.46
653.66	1085.31
654.00	1071.26
654.34	1063.31
654.69	1055.82
655.03	1058.16
655.37	1059.33
655.71	1064.01
656.05	1074.07
656.40	1075.01
656.74	1077.58
657.08	1074.77
657.42	1076.65
657.76	1086.24
658.11	1088.82
658.45	1094.90
658.79	1106.37
659.13	1112.92
659.47	1103.33
659.82	1110.12
660.16	1100.99
660.50	1098.18
660.84	1089.99
661.18	1092.09
661.52	1082.03
661.87	1088.58
662.21	1085.77
662.55	1080.16
662.89	1074.54
663.23	1089.99
663.57	1091.16
663.91	1084.84
664.25	1083.43
664.60	1079.92
664.94	1058.86
665.28	1051.13
665.62	1059.79
665.96	1068.45
666.30	1071.73
666.64	1085.77
666.98	1095.37
667.32	1086.71
667.66	1086.71
668.01	1093.97
668.35	1089.75
668.69	1081.56
669.03	1082.50
669.37	1079.46
669.71	1075.24
670.05	1074.77
670.39	1071.26
670.73	1071.50
671.07	1068.45
671.41	1063.31
671.75	1062.84
672.09	1062.14
672.43	1068.92
672.77	1069.16
673.11	1069.86
673.45	1059.56
673.79	1063.31
674.13	1052.30
674.47	1047.86
674.81	1055.82
675.15	1063.07
675.49	1054.88
675.83	1063.77
676.17	1066.82
676.51	1059.79
676.85	1057.45
677.19	1057.92
677.53	1058.39
677.87	1068.69
678.21	1069.16
678.55	1072.43
678.89	1080.63
679.23	1079.22
679.57	1077.11
679.90	1082.26
680.24	1079.46
680.58	1078.52
680.92	1078.52
681.26	1075.01
681.60	1074.07
681.94	1084.37
682.28	1086.01
682.62	1091.16
682.96	1101.22
683.29	1102.39
683.63	1104.97
683.97	1110.58
684.31	1112.69
684.65	1110.82
684.99	1114.10
685.33	1108.01
685.67	1105.67
686.00	1096.54
686.34	1098.18
686.68	1089.75
687.02	1088.12
687.36	1086.71
687.70	1090.22
688.03	1085.31
688.37	1092.09
688.71	1092.56
689.05	1087.41
689.39	1089.29
689.72	1084.60
690.06	1069.16
690.40	1066.58
690.74	1067.99
691.08	1061.67
691.41	1056.52
691.75	1078.99
692.09	1077.82
692.43	1076.65
692.76	1083.67
693.10	1091.39
693.44	1072.43
693.78	1075.94
694.11	1077.11
694.45	1079.22
694.79	1077.58
695.13	1076.88
695.46	1076.65
695.80	1076.18
696.14	1075.01
696.48	1076.88
696.81	1089.99
697.15	1086.24
697.49	1096.31
697.82	1088.82
698.16	1080.63
698.50	1073.37
698.83	1076.18
699.17	1071.03
699.51	1071.26
699.84	1071.73
700.18	1071.73
700.52	1077.11
700.85	1082.26
701.19	1093.73
701.53	1097.71
701.86	1097.48
702.20	1089.52
702.54	1081.33
702.87	1086.24
703.21	1088.82
703.55	1086.01
703.88	1088.35
704.22	1082.97
704.55	1066.11
704.89	1057.45
705.23	1064.71
705.56	1072.20
705.90	1071.26
706.23	1076.88
706.57	1084.14
706.91	1080.39
707.24	1073.84
707.58	1089.52
707.91	1086.24
708.25	1083.20
708.58	1090.22
708.92	1090.46
709.26	1071.03
709.59	1069.62
709.93	1075.71
710.26	1062.60
710.60	1055.82
710.93	1063.77
711.27	1071.97
711.60	1073.14
711.94	1080.16
712.27	1093.50
712.61	1088.35
712.94	1082.97
713.28	1082.03
713.61	1084.37
713.95	1087.18
714.28	1092.80
714.62	1087.18
714.95	1084.37
715.29	1083.90
715.62	1082.97
715.96	1084.37
716.29	1092.33
716.63	1095.14
716.96	1087.18
717.29	1074.07
717.63	1068.22
717.96	1070.33
718.30	1072.20
718.63	1081.09
718.97	1092.56
719.30	1097.71
719.63	1093.50
719.97	1099.82
720.30	1097.71
720.64	1093.50
720.97	1091.16
721.30	1096.31
721.64	1091.39
721.97	1091.63
722.31	1086.01
722.64	1089.05
722.97	1078.99
723.31	1070.09
723.64	1081.80
723.97	1082.03
724.31	1085.07
724.64	1077.35
724.98	1083.90
725.31	1068.22
725.64	1066.11
725.98	1054.65
726.31	1062.84
726.64	1052.77
726.97	1053.48
727.31	1056.05
727.64	1059.09
727.97	1060.50
728.31	1070.56
728.64	1068.22
728.97	1071.73
729.31	1075.71
729.64	1087.88
729.97	1083.90
730.30	1091.86
730.64	1080.63
730.97	1078.99
731.30	1064.48
731.63	1075.01
731.97	1062.37
732.30	1073.84
732.63	1069.86
732.96	1076.88
733.30	1071.97
733.63	1084.84
733.96	1089.75
734.29	1098.18
734.63	1086.48
734.96	1077.82
735.29	1085.07
735.62	1082.50
735.95	1091.63
736.29	1097.01
736.62	1094.67
736.95	1087.65
737.28	1079.46
737.61	1075.24
737.94	1077.35
738.28	1089.29
738.61	1083.67
738.94	1089.99
739.27	1085.31
739.60	1092.80
739.93	1088.12
740.27	1092.56
740.60	1090.92
740.93	1088.35
741.26	1086.48
741.59	1090.22
741.92	1089.75
742.25	1090.22
742.58	1094.67
742.91	1078.99
743.25	1065.65
743.58	1051.13
743.91	1043.64
744.24	1046.92
744.57	1062.84
744.90	1077.35
745.23	1097.95
745.56	1096.78
745.89	1091.86
746.22	1082.50
746.55	1071.03
746.88	1063.31
747.21	1067.75
747.54	1064.01
747.87	1066.58
748.20	1071.26
748.53	1073.84
748.87	1082.26
749.20	1084.84
749.53	1087.18
749.86	1090.69
750.19	1085.31
750.52	1078.75
750.85	1077.11
751.18	1075.01
751.51	1067.75
751.84	1073.14
752.16	1071.50
752.49	1070.33
752.82	1071.03
753.15	1067.52
753.48	1061.90
753.81	1069.62
754.14	1066.35
754.47	1062.84
754.80	1065.88
755.13	1067.75
755.46	1065.65
755.79	1066.11
756.12	1082.73
756.45	1092.09
756.78	1091.16
757.11	1082.03
757.43	1095.60
757.76	1097.71
758.09	1090.22
758.42	1092.33
758.75	1108.71
759.08	1107.07
759.41	1101.69
759.74	1105.20
760.07	1109.41
760.39	1094.20
760.72	1091.16
761.05	1075.71
761.38	1081.09
761.71	1080.39
762.04	1092.33
762.36	1083.90
762.69	1090.46
763.02	1084.60
763.35	1079.22
763.68	1073.60
764.01	1076.41
764.33	1076.88
764.66	1079.46
764.99	1076.65
765.32	1073.84
765.65	1067.99
765.97	1068.69
766.30	1073.60
766.63	1079.92
766.96	1081.80
767.28	1089.29
767.61	1086.48
767.94	1081.56
768.27	1078.52
768.59	1076.88
768.92	1070.33
769.25	1067.75
769.58	1062.37
769.90	1061.67
770.23	1060.26
770.56	1068.92
770.89	1079.92
771.21	1086.01
771.54	1085.54
771.87	1087.18
772.19	1083.67
772.52	1066.82
772.85	1062.37
773.17	1065.41
773.50	1071.26
773.83	1070.33
774.15	1078.05
774.48	1075.94
774.81	1076.88
775.13	1071.73
775.46	1070.09
775.79	1070.80
776.11	1070.09
776.44	1062.84
776.77	1065.41
777.09	1076.88
777.42	1084.60
777.74	1082.50
778.07	1082.73
778.40	1086.94
778.72	1077.11
779.05	1075.94
779.37	1088.82
779.70	1098.88
780.03	1091.39
780.35	1090.22
780.68	1090.92
781.00	1086.94
781.33	1078.52
781.65	1087.18
781.98	1093.03
782.31	1088.58
782.63	1094.43
782.96	1105.20
783.28	1095.84
783.61	1097.24
783.93	1095.84
784.26	1084.37
784.58	1078.75
784.91	1088.35
785.23	1086.24
785.56	1090.92
785.88	1096.78
786.21	1080.39
786.53	1083.90
786.86	1078.52
787.18	1076.18
787.51	1077.58
787.83	1081.80
788.16	1068.45
788.48	1067.75
788.81	1071.73
789.13	1072.90
789.46	1083.90
789.78	1086.48
790.10	1089.29
790.43	1085.07
790.75	1075.24
791.08	1063.31
791.40	1061.67
791.73	1078.52
792.05	1079.22
792.37	1085.31
792.70	1089.75
793.02	1094.20
793.35	1076.65
793.67	1065.88
793.99	1061.20
794.32	1065.41
794.64	1060.50
794.96	1055.35
795.29	1057.92
795.61	1052.54
795.93	1051.13
796.26	1047.39
796.58	1058.86
796.91	1059.79
797.23	1070.09
797.55	1075.71
797.87	1077.11
798.20	1084.84
798.52	1085.54
798.84	1082.73
799.17	1076.41
799.49	1083.20
799.81	1077.58
800.14	1089.99
800.46	1098.18
800.78	1102.39
801.10	1099.82
801.43	1088.12
801.75	1077.35
802.07	1073.60
802.40	1071.26
802.72	1070.09
803.04	1076.88
803.36	1082.73
803.69	1086.48
804.01	1097.71
804.33	1095.60
804.65	1098.65
804.97	1099.35
805.30	1093.50
805.62	1082.50
805.94	1085.77
806.26	1075.24
806.58	1068.22
806.91	1058.62
807.23	1062.84
807.55	1054.18
807.87	1065.65
808.19	1064.71
808.52	1068.69
808.84	1067.52
809.16	1077.11
809.48	1076.18
809.80	1079.46
810.12	1086.94
810.44	1093.50
810.77	1098.18
811.09	1094.90
811.41	1101.92
811.73	1100.75
812.05	1102.63
812.37	1106.84
812.69	1104.97
813.01	1089.75
813.33	1087.18
813.66	1080.63
813.98	1078.99
814.30	1080.63
814.62	1097.01
814.94	1099.58
815.26	1094.67
815.58	1090.92
815.90	1097.24
816.22	1095.84
816.54	1103.56
816.86	1105.20
817.18	1109.65
817.50	1107.07
817.82	1102.86
818.14	1104.50
818.46	1102.63
818.78	1099.12
819.10	1091.86
819.42	1088.12
819.74	1071.03
820.06	1081.56
820.38	1076.65
820.70	1074.54
821.02	1075.24
821.34	1081.80
821.66	1066.82
821.98	1068.69
822.30	1075.01
822.62	1077.82
822.94	1078.52
823.26	1090.46
823.58	1088.58
823.90	1087.41
824.22	1077.82
824.54	1067.75
824.86	1070.09
825.18	1067.05
825.50	1067.99
825.81	1079.46
826.13	1082.97
826.45	1075.24
826.77	1072.43
827.09	1071.73
827.41	1072.90
827.73	1078.05
828.05	1078.99
828.36	1090.22
828.68	1086.94
829.00	1083.67
829.32	1084.84
829.64	1084.60
829.96	1078.75
830.28	1078.05
830.59	1075.01
830.91	1070.33
831.23	1070.56
831.55	1078.52
831.87	1081.33
832.19	1079.92
832.50	1075.24
832.82	1073.14
833.14	1069.62
833.46	1070.33
833.78	1082.50
834.09	1092.33
834.41	1090.92
834.73	1083.90
835.05	1082.97
835.36	1078.05
835.68	1072.90
836.00	1080.86
836.32	1079.46
836.63	1078.52
836.95	1073.14
837.27	1081.56
837.59	1069.62
837.90	1076.41
838.22	1064.94
838.54	1060.50
838.85	1052.30
839.17	1052.77
839.49	1050.90
839.80	1063.77
840.12	1067.99
840.44	1064.94
840.76	1078.99
841.07	1074.54
841.39	1076.65
841.71	1085.77
842.02	1093.73
842.34	1084.84
842.65	1089.75
842.97	1080.63
843.29	1070.56
843.60	1061.90
843.92	1061.43
844.24	1067.28
844.55	1073.60
844.87	1079.92
845.18	1087.41
845.50	1091.16
845.82	1090.69
846.13	1089.52
846.45	1080.16
846.76	1082.26
847.08	1087.18
847.40	1084.37
847.71	1084.84
848.03	1094.90
848.34	1089.75
848.66	1077.35
848.97	1068.92
849.29	1077.82
849.60	1081.33
849.92	1090.69
850.24	1095.14
850.55	1103.09
850.87	1098.41
851.18	1089.05
851.50	1085.54
851.81	1088.58
852.13	1089.75
852.44	1089.99
852.76	1088.35
853.07	1083.43
853.39	1087.41
853.70	1088.12
854.01	1078.75
854.33	1076.41
854.64	1079.46
854.96	1079.46
855.27	1068.45
855.59	1074.07
855.90	1083.90
856.22	1081.33
856.53	1079.92
856.84	1090.46
857.16	1087.88
857.47	1085.07
857.79	1090.22
858.10	1083.43
858.41	1078.75
858.73	1078.52
859.04	1083.20
859.36	1078.05
859.67	1074.77
859.98	1065.88
860.30	1071.03
860.61	1066.82
860.92	1062.60
861.24	1061.20
861.55	1072.67
861.87	1063.31
862.18	1053.48
862.49	1045.05
862.81	1047.39
863.12	1038.03
863.43	1052.30
863.74	1063.31
864.06	1076.88
864.37	1073.84
864.68	1078.52
865.00	1066.58
865.31	1074.54
865.62	1080.86
865.94	1085.54
866.25	1086.24
866.56	1088.35
866.87	1086.94
867.19	1081.33
867.50	1090.46
867.81	1093.03
868.12	1089.05
868.44	1074.31
868.75	1061.90
869.06	1056.05
869.37	1050.67
869.68	1056.99
870.00	1063.31
870.31	1084.60
870.62	1084.60
870.93	1090.92
871.24	1082.03
871.56	1079.69
871.87	1081.56
872.18	1082.03
872.49	1081.33
872.80	1086.48
873.12	1080.63
873.43	1069.62
873.74	1060.03
874.05	1068.92
874.36	1071.03
874.67	1077.11
874.98	1073.14
875.29	1088.35
875.61	1081.80
875.92	1081.09
876.23	1083.20
876.54	1090.46
876.85	1093.50
877.16	1090.22
877.47	1092.80
877.78	1095.84
878.09	1088.35
878.40	1068.69
878.72	1068.45
879.03	1072.67
879.34	1071.73
879.65	1071.26
879.96	1080.39
880.27	1075.48
880.58	1068.92
880.89	1072.67
881.20	1068.69
881.51	1076.88
881.82	1085.07
882.13	1084.14
882.44	1077.82
882.75	1088.12
883.06	1087.41
883.37	1088.82
883.68	1086.24
883.99	1087.41
884.30	1081.56
884.61	1071.50
884.92	1065.88
885.23	1062.37
885.54	1059.79
885.85	1065.88
886.16	1065.41
886.47	1074.07
886.78	1076.18
887.08	1082.03
887.39	1075.01
887.70	1080.16
888.01	1073.37
888.32	1090.69
888.63	1076.41
888.94	1077.58
889.25	1076.88
889.56	1078.99
889.87	1059.33
890.17	1069.39
890.48	1071.50
890.79	1072.90
891.10	1071.03
891.41	1083.67
891.72	1085.31
892.03	1088.12
892.34	1081.80
892.64	1075.94
892.95	1069.86
893.26	1063.77
893.57	1054.65
893.88	1057.92
894.18	1067.52
894.49	1077.58
894.80	1080.16
895.11	1079.92
895.42	1080.39
895.72	1075.24
896.03	1072.67
896.34	1069.16
896.65	1072.90
896.96	1070.09
897.26	1075.71
897.57	1067.05
897.88	1074.31
898.19	1082.26
898.49	1082.03
898.80	1081.56
899.11	1084.60
899.41	1080.86
899.72	1080.16
900.03	1092.80
900.34	1085.07
900.64	1093.73
900.95	1099.12
901.26	1098.41
901.56	1084.60
901.87	1091.86
902.18	1084.60
902.48	1077.58
902.79	1073.14
903.10	1070.09
903.40	1073.14
903.71	1069.16
904.02	1066.35
904.32	1063.77
904.63	1077.35
904.94	1072.20
905.24	1073.84
905.55	1083.90
905.85	1079.92
906.16	1065.88
906.47	1072.67
906.77	1078.52
907.08	1075.94
907.38	1091.39
907.69	1098.88
908.00	1094.20
908.30	1088.35
908.61	1087.18
908.91	1089.05
909.22	1096.78
909.52	1092.80
909.83	1090.69
910.14	1090.46
910.44	1091.39
910.75	1096.78
911.05	1092.33
911.36	1091.86
911.66	1090.92
911.97	1086.24
912.27	1072.67
912.58	1086.24
912.88	1091.39
913.19	1093.97
913.49	1101.69
913.80	1110.58
914.10	1107.78
914.41	1109.65
914.71	1115.03
915.01	1106.84
915.32	1102.16
915.62	1099.35
915.93	1093.73
916.23	1082.03
916.54	1080.16
916.84	1078.52
917.15	1075.01
917.45	1075.48
917.75	1081.80
918.06	1080.86
918.36	1076.41
918.67	1073.84
918.97	1076.65
919.27	1075.01
919.58	1063.77
919.88	1063.77
920.18	1061.90
920.49	1059.79
920.79	1054.41
921.10	1059.79
921.40	1048.79
921.70	1057.22
922.01	1066.58
922.31	1076.65
922.61	1083.20
922.92	1092.80
923.22	1088.82
923.52	1087.18
923.82	1081.33
924.13	1088.58
924.43	1097.71
924.73	1092.80
925.04	1088.82
925.34	1083.43
925.64	1071.50
925.94	1060.96
926.25	1056.28
926.55	1047.62
926.85	1049.73
927.15	1053.48
927.46	1056.05
927.76	1066.11
928.06	1073.84
928.36	1067.52
928.67	1074.31
928.97	1074.07
929.27	1078.28
929.57	1081.56
929.87	1100.99
930.18	1090.92
930.48	1096.54
930.78	1091.86
931.08	1099.82
931.38	1092.80
931.69	1092.56
931.99	1087.41
932.29	1096.07
932.59	1093.97
932.89	1095.14
933.19	1093.50
933.49	1091.86
933.80	1079.92
934.10	1069.16
934.40	1070.33
934.70	1074.07
935.00	1086.01
935.30	1091.39
935.60	1090.22
935.90	1079.46
936.20	1078.52
936.50	1058.86
936.81	1054.18
937.11	1057.45
937.41	1062.37
937.71	1058.16
938.01	1061.20
938.31	1063.77
938.61	1061.20
938.91	1059.09
939.21	1060.03
939.51	1065.65
939.81	1062.37
940.11	1054.65
940.41	1054.65
940.71	1054.18
941.01	1057.45
941.31	1051.60
941.61	1063.07
941.91	1068.92
942.21	1074.77
942.51	1083.67
942.81	1096.78
943.11	1087.18
943.41	1085.07
943.71	1083.90
944.01	1085.77
944.31	1085.07
944.61	1092.09
944.90	1093.73
945.20	1090.69
945.50	1089.05
945.80	1086.71
946.10	1084.14
946.40	1084.84
946.70	1085.54
947.00	1078.99
947.30	1073.37
947.60	1062.60
947.89	1053.01
948.19	1062.60
948.49	1056.75
948.79	1060.26
949.09	1075.01
949.39	1083.20
949.69	1085.54
949.98	1089.75
950.28	1097.71
950.58	1092.09
950.88	1086.01
951.18	1084.60
951.48	1075.24
951.77	1071.26
952.07	1073.14
952.37	1072.90
952.67	1060.73
952.97	1073.84
953.26	1075.24
953.56	1072.90
953.86	1079.69
954.16	1079.22
954.45	1072.67
954.75	1068.22
955.05	1081.33
955.35	1075.01
955.64	1077.58
955.94	1075.94
956.24	1063.77
956.54	1055.35
956.83	1056.52
957.13	1053.94
957.43	1058.16
957.72	1073.84
958.02	1075.94
958.32	1071.97
958.61	1064.94
958.91	1062.60
959.21	1053.48
959.50	1048.09
959.80	1044.35
960.10	1055.11
960.39	1057.69
960.69	1064.94
960.99	1079.69
961.28	1086.24
961.58	1092.56
961.87	1090.69
962.17	1090.22
962.47	1081.56
962.76	1090.92
963.06	1088.82
963.36	1084.60
963.65	1096.78
963.95	1098.65
964.24	1101.46
964.54	1096.78
964.83	1091.86
965.13	1080.86
965.42	1083.43
965.72	1076.88
966.02	1080.86
966.31	1088.35
966.61	1073.37
966.90	1058.39
967.20	1056.99
967.49	1069.62
967.79	1065.88
968.08	1074.54
968.38	1081.80
968.67	1077.11
968.97	1064.71
969.26	1062.37
969.56	1074.07
969.85	1078.05
970.15	1089.75
970.44	1083.20
970.74	1089.75
971.03	1088.58
971.32	1083.20
971.62	1083.67
971.91	1095.84
972.21	1097.71
972.50	1091.86
972.80	1099.82
973.09	1085.77
973.38	1080.86
973.68	1090.46
973.97	1092.56
974.27	1084.37
974.56	1084.84
974.85	1077.82
975.15	1061.67
975.44	1060.96
975.73	1057.69
976.03	1059.56
976.32	1074.54
976.61	1085.31
976.91	1083.67
977.20	1085.54
977.49	1079.92
977.79	1065.88
978.08	1061.43
978.37	1067.99
978.67	1067.52
978.96	1077.11
979.25	1081.80
979.55	1085.07
979.84	1080.63
980.13	1080.39
980.42	1082.50
980.72	1080.63
981.01	1082.03
981.30	1078.52
981.59	1086.94
981.89	1081.56
982.18	1078.75
982.47	1068.22
982.76	1062.84
983.06	1048.79
983.35	1056.28
983.64	1064.48
983.93	1073.37
984.22	1075.48
984.52	1096.78
984.81	1095.84
985.10	1085.07
985.39	1078.05
985.68	1071.73
985.97	1067.28
986.27	1066.35
986.56	1067.99
986.85	1068.22
987.14	1078.28
987.43	1071.97
987.72	1072.67
988.01	1070.33
988.31	1077.82
988.60	1074.31
988.89	1080.63
989.18	1084.37
989.47	1092.80
989.76	1089.52
990.05	1091.86
990.34	1081.33
990.63	1069.86
990.92	1056.28
991.21	1051.84
991.51	1059.79
991.80	1068.69
992.09	1067.99
992.38	1075.71
992.67	1075.48
992.96	1072.43
993.25	1066.58
993.54	1080.16
993.83	1077.11
994.12	1079.92
994.41	1073.14
994.70	1072.43
994.99	1069.16
995.28	1077.82
995.57	1083.67
995.86	1088.82
996.15	1088.82
996.44	1086.24
996.73	1082.73
997.02	1079.46
997.31	1080.16
997.59	1084.37
997.88	1078.28
998.17	1073.60
998.46	1078.99
998.75	1077.35
999.04	1078.99
999.33	1077.11
999.62	1083.90
999.91	1083.43
1000.20	1080.63
1000.49	1081.09
1000.77	1096.78
1001.06	1101.22
1001.35	1091.63
1001.64	1097.01
1001.93	1090.22
1002.22	1080.86
1002.51	1067.28
1002.79	1067.99
1003.08	1063.07
1003.37	1065.88
1003.66	1078.05
1003.95	1091.16
1004.23	1093.50
1004.52	1099.35
1004.81	1094.43
1005.10	1074.07
1005.39	1067.52
1005.67	1062.84
1005.96	1058.86
1006.25	1074.54
1006.54	1084.60
1006.83	1084.14
1007.11	1087.41
1007.40	1084.37
1007.69	1070.09
1007.97	1062.60
1008.26	1060.73
1008.55	1074.31
1008.84	1081.33
1009.12	1077.35
1009.41	1087.65
1009.70	1083.43
1009.98	1078.28
1010.27	1065.88
1010.56	1075.71
1010.85	1074.07
1011.13	1081.80
1011.42	1075.94
1011.71	1086.24
1011.99	1096.78
1012.28	1093.26
1012.56	1104.97
1012.85	1096.54
1013.14	1093.73
1013.42	1087.18
1013.71	1089.29
1014.00	1078.52
1014.28	1088.35
1014.57	1092.80
1014.85	1082.97
1015.14	1079.92
1015.43	1073.60
1015.71	1076.65
1016.00	1085.07
1016.28	1087.65
1016.57	1075.94
1016.85	1071.26
1017.14	1073.60
1017.43	1070.33
1017.71	1068.69
1018.00	1078.28
1018.28	1093.73
1018.57	1089.75
1018.85	1081.09
1019.14	1092.09
1019.42	1096.07
1019.71	1088.12
1019.99	1091.39
1020.28	1093.73
1020.56	1082.03
1020.85	1088.58
1021.13	1095.37
1021.42	1085.07
1021.70	1084.37
1021.99	1080.16
1022.27	1076.18
1022.55	1046.22
1022.84	1095.37
>>>>>End Processed Spectral Data<<<<<
