SpectraSuite Data File
++++++++++++++++++++++++++++++++++++
Date: Mon Aug 26 10:25:57 PDT 2019
User: corrico
Dark Spectrum Present: No
Reference Spectrum Present: No
Number of Sampled Component Spectra: 1
Spectrometers: USB2+H06089
Integration Time (usec): 10000 (USB2+H06089)
Spectra Averaged: 2 (USB2+H06089)
Boxcar Smoothing: 2 (USB2+H06089)
Correct for Electrical Dark: No (USB2+H06089)
Strobe/Lamp Enabled: No (USB2+H06089)
Correct for Detector Non-linearity: No (USB2+H06089)
Correct for Stray Light: No (USB2+H06089)
Number of Pixels in Processed Spectrum: 2048
>>>>>Begin Processed Spectral Data<<<<<
339.70	1046.22
340.07	1046.22
340.45	998.24
340.82	980.92
341.19	951.19
341.57	928.26
341.94	926.85
342.31	920.53
342.69	913.98
343.06	917.72
343.43	910.94
343.81	910.47
344.18	920.30
344.55	917.49
344.93	906.49
345.30	915.62
345.67	922.64
346.04	932.70
346.42	934.81
346.79	960.09
347.16	967.58
347.54	967.11
347.91	969.68
348.28	985.13
348.65	993.32
349.03	995.90
349.40	1008.54
349.77	1019.54
350.14	1031.71
350.52	1032.64
350.89	1040.13
351.26	1041.54
351.63	1046.69
352.01	1058.16
352.38	1067.75
352.75	1061.67
353.12	1070.56
353.50	1064.01
353.87	1050.20
354.24	1045.75
354.61	1060.73
354.98	1062.60
355.36	1076.88
355.73	1079.22
356.10	1081.56
356.47	1089.05
356.84	1081.33
357.22	1072.90
357.59	1075.48
357.96	1070.80
358.33	1062.37
358.70	1070.56
359.08	1075.94
359.45	1072.43
359.82	1079.46
360.19	1088.12
360.56	1081.09
360.94	1069.86
361.31	1071.26
361.68	1071.26
362.05	1064.24
362.42	1076.18
362.79	1078.99
363.16	1092.09
363.54	1087.65
363.91	1079.92
364.28	1073.84
364.65	1078.05
365.02	1065.65
365.39	1065.41
365.76	1075.94
366.14	1075.94
366.51	1068.92
366.88	1069.16
367.25	1061.43
367.62	1057.45
367.99	1041.54
368.36	1051.84
368.73	1049.26
369.10	1064.24
369.48	1066.35
369.85	1082.97
370.22	1080.16
370.59	1076.65
370.96	1078.52
371.33	1071.73
371.70	1067.05
372.07	1060.96
372.44	1058.86
372.81	1057.92
373.18	1063.77
373.55	1065.41
373.93	1069.16
374.30	1078.05
374.67	1077.11
375.04	1066.35
375.41	1065.18
375.78	1051.60
376.15	1049.03
376.52	1042.47
376.89	1047.86
377.26	1042.24
377.63	1059.56
378.00	1058.39
378.37	1063.54
378.74	1065.18
379.11	1071.03
379.48	1071.26
379.85	1069.39
380.22	1065.65
380.59	1058.62
380.96	1055.82
381.33	1053.94
381.70	1052.77
382.07	1053.01
382.44	1065.88
382.81	1076.88
383.18	1073.37
383.55	1075.71
383.92	1078.05
384.29	1074.54
384.66	1066.35
385.03	1069.39
385.40	1072.43
385.77	1066.82
386.14	1070.33
386.51	1085.77
386.88	1088.82
387.25	1074.31
387.62	1072.67
387.99	1056.52
388.36	1059.79
388.73	1053.24
389.10	1068.69
389.46	1072.20
389.83	1089.52
390.20	1067.05
390.57	1069.39
390.94	1069.86
391.31	1075.24
391.68	1071.73
392.05	1073.60
392.42	1076.18
392.79	1072.67
393.16	1075.71
393.53	1067.28
393.89	1075.24
394.26	1069.16
394.63	1078.52
395.00	1069.62
395.37	1077.11
395.74	1071.97
396.11	1076.65
396.48	1067.52
396.84	1071.73
397.21	1072.43
397.58	1072.20
397.95	1064.24
398.32	1061.90
398.69	1062.37
399.06	1069.39
399.42	1073.60
399.79	1079.69
400.16	1084.84
400.53	1072.43
400.90	1059.56
401.27	1056.28
401.64	1050.20
402.00	1048.33
402.37	1061.43
402.74	1065.88
403.11	1064.01
403.48	1075.71
403.84	1080.16
404.21	1084.37
404.58	1079.92
404.95	1077.82
405.32	1068.92
405.68	1066.58
406.05	1065.41
406.42	1070.56
406.79	1075.94
407.16	1082.50
407.52	1081.56
407.89	1071.73
408.26	1065.41
408.63	1065.88
408.99	1066.58
409.36	1067.52
409.73	1067.75
410.10	1075.01
410.47	1086.71
410.83	1078.75
411.20	1077.58
411.57	1078.52
411.94	1080.16
412.30	1069.39
412.67	1058.86
413.04	1069.39
413.40	1074.07
413.77	1077.58
414.14	1069.62
414.51	1088.58
414.87	1083.67
415.24	1084.60
415.61	1079.22
415.97	1082.26
416.34	1072.20
416.71	1071.03
417.08	1071.03
417.44	1068.69
417.81	1072.67
418.18	1072.43
418.54	1069.16
418.91	1064.71
419.28	1063.07
419.64	1054.41
420.01	1056.28
420.38	1065.88
420.74	1064.48
421.11	1071.03
421.48	1075.94
421.84	1081.56
422.21	1067.28
422.58	1066.35
422.94	1072.67
423.31	1074.31
423.68	1075.94
424.04	1088.35
424.41	1087.65
424.77	1078.05
425.14	1076.65
425.51	1091.86
425.87	1085.07
426.24	1089.05
426.61	1086.48
426.97	1090.46
427.34	1069.16
427.70	1068.45
428.07	1067.99
428.44	1065.41
428.80	1063.07
429.17	1073.84
429.53	1085.77
429.90	1080.39
430.27	1081.56
430.63	1078.99
431.00	1071.26
431.36	1065.18
431.73	1067.52
432.09	1074.77
432.46	1080.63
432.83	1088.58
433.19	1084.60
433.56	1103.09
433.92	1094.90
434.29	1095.37
434.65	1098.88
435.02	1104.73
435.38	1096.54
435.75	1093.03
436.11	1082.97
436.48	1079.22
436.84	1076.18
437.21	1073.84
437.57	1089.05
437.94	1097.95
438.30	1086.94
438.67	1082.73
439.03	1078.05
439.40	1067.75
439.76	1065.41
440.13	1073.84
440.49	1076.18
440.86	1078.28
441.22	1074.07
441.59	1070.09
441.95	1067.75
442.32	1066.58
442.68	1067.28
443.05	1078.75
443.41	1074.31
443.78	1075.48
444.14	1093.73
444.51	1091.39
444.87	1078.05
445.24	1091.39
445.60	1084.84
445.96	1060.50
446.33	1060.73
446.69	1077.58
447.06	1081.09
447.42	1077.35
447.79	1080.16
448.15	1086.48
448.51	1089.29
448.88	1078.28
449.24	1083.43
449.61	1080.39
449.97	1078.28
450.33	1063.07
450.70	1064.48
451.06	1074.54
451.43	1077.58
451.79	1069.62
452.15	1075.48
452.52	1075.24
452.88	1074.77
453.24	1077.35
453.61	1084.14
453.97	1082.03
454.34	1091.16
454.70	1089.29
455.06	1094.90
455.43	1092.56
455.79	1095.84
456.15	1087.18
456.52	1084.84
456.88	1082.26
457.24	1080.16
457.61	1076.88
457.97	1067.52
458.33	1059.09
458.70	1063.07
459.06	1067.05
459.42	1075.24
459.79	1096.54
460.15	1105.44
460.51	1093.26
460.88	1093.26
461.24	1093.26
461.60	1076.88
461.96	1072.43
462.33	1069.62
462.69	1055.58
463.05	1043.88
463.42	1052.77
463.78	1059.56
464.14	1068.45
464.50	1086.24
464.87	1093.26
465.23	1093.26
465.59	1089.99
465.95	1096.31
466.32	1097.48
466.68	1098.88
467.04	1090.92
467.40	1093.03
467.77	1086.01
468.13	1079.22
468.49	1072.43
468.85	1067.75
469.22	1059.56
469.58	1053.01
469.94	1046.22
470.30	1054.88
470.66	1066.58
471.03	1072.20
471.39	1079.46
471.75	1084.14
472.11	1083.90
472.47	1084.37
472.84	1074.07
473.20	1078.75
473.56	1085.31
473.92	1078.28
474.28	1076.18
474.65	1078.05
475.01	1077.11
475.37	1078.52
475.73	1085.77
476.09	1084.84
476.45	1097.01
476.81	1100.99
477.18	1098.65
477.54	1100.05
477.90	1089.52
478.26	1096.31
478.62	1086.94
478.98	1087.41
479.34	1083.43
479.71	1096.31
480.07	1094.90
480.43	1090.22
480.79	1090.69
481.15	1096.78
481.51	1092.33
481.87	1081.56
482.23	1078.05
482.59	1073.60
482.96	1065.65
483.32	1066.35
483.68	1065.88
484.04	1081.80
484.40	1087.65
484.76	1089.52
485.12	1092.09
485.48	1097.24
485.84	1089.05
486.20	1076.41
486.56	1075.71
486.92	1076.65
487.28	1067.75
487.64	1068.22
488.00	1071.26
488.37	1063.31
488.73	1056.52
489.09	1064.01
489.45	1072.90
489.81	1074.54
490.17	1072.43
490.53	1071.73
490.89	1075.01
491.25	1063.54
491.61	1068.45
491.97	1076.65
492.33	1086.48
492.69	1090.92
493.05	1096.78
493.41	1098.65
493.77	1096.07
494.13	1089.99
494.49	1078.28
494.85	1080.86
495.21	1077.58
495.57	1080.39
495.93	1083.43
496.29	1082.50
496.64	1071.73
497.00	1072.67
497.36	1071.97
497.72	1079.69
498.08	1084.37
498.44	1082.50
498.80	1076.65
499.16	1066.82
499.52	1050.90
499.88	1057.92
500.24	1067.28
500.60	1082.26
500.96	1096.07
501.32	1104.50
501.68	1096.07
502.03	1089.05
502.39	1075.94
502.75	1068.69
503.11	1067.52
503.47	1064.24
503.83	1068.69
504.19	1066.35
504.55	1073.84
504.91	1082.26
505.26	1082.26
505.62	1086.48
505.98	1093.73
506.34	1089.99
506.70	1076.65
507.06	1087.65
507.42	1084.14
507.78	1086.24
508.13	1097.24
508.49	1101.69
508.85	1095.14
509.21	1095.14
509.57	1091.86
509.93	1077.11
510.28	1075.01
510.64	1078.52
511.00	1081.09
511.36	1077.58
511.72	1085.31
512.07	1085.31
512.43	1082.50
512.79	1082.50
513.15	1096.31
513.51	1084.37
513.86	1093.50
514.22	1095.37
514.58	1087.41
514.94	1074.07
515.30	1075.94
515.65	1068.22
516.01	1062.14
516.37	1065.41
516.73	1061.43
517.08	1068.69
517.44	1068.22
517.80	1075.48
518.16	1082.03
518.51	1082.03
518.87	1090.22
519.23	1097.71
519.59	1093.73
519.94	1089.75
520.30	1097.01
520.66	1079.46
521.01	1077.82
521.37	1082.97
521.73	1092.09
522.09	1095.37
522.44	1117.37
522.80	1116.90
523.16	1108.71
523.51	1113.63
523.87	1117.14
524.23	1112.46
524.58	1115.03
524.94	1123.46
525.30	1115.03
525.65	1107.31
526.01	1098.41
526.37	1101.69
526.72	1098.65
527.08	1093.26
527.44	1097.01
527.79	1108.01
528.15	1106.37
528.51	1108.48
528.86	1114.09
529.22	1110.12
529.58	1091.63
529.93	1089.99
530.29	1077.35
530.65	1074.77
531.00	1073.84
531.36	1077.82
531.71	1077.35
532.07	1085.54
532.43	1085.77
532.78	1081.09
533.14	1082.73
533.49	1082.50
533.85	1084.14
534.21	1077.82
534.56	1089.29
534.92	1092.80
535.27	1099.82
535.63	1109.65
535.98	1113.63
536.34	1118.07
536.69	1122.75
537.05	1112.22
537.41	1102.63
537.76	1095.14
538.12	1088.12
538.47	1081.80
538.83	1085.54
539.18	1082.73
539.54	1090.92
539.89	1082.03
540.25	1083.90
540.60	1077.11
540.96	1087.18
541.31	1088.12
541.67	1102.63
542.02	1095.37
542.38	1100.52
542.73	1082.03
543.09	1082.03
543.44	1076.88
543.80	1083.90
544.15	1075.48
544.51	1071.26
544.86	1071.26
545.22	1067.99
545.57	1058.86
545.93	1052.77
546.28	1058.39
546.64	1057.22
546.99	1057.22
547.35	1069.39
547.70	1083.43
548.05	1093.03
548.41	1095.37
548.76	1090.46
549.12	1077.58
549.47	1071.50
549.83	1068.45
550.18	1069.16
550.53	1075.48
550.89	1078.99
551.24	1095.60
551.60	1101.46
551.95	1103.80
552.30	1107.54
552.66	1108.24
553.01	1092.56
553.37	1090.46
553.72	1085.31
554.07	1078.28
554.43	1088.12
554.78	1090.92
555.13	1089.05
555.49	1092.09
555.84	1099.58
556.19	1089.75
556.55	1086.71
556.90	1081.09
557.26	1075.48
557.61	1071.26
557.96	1075.24
558.32	1074.77
558.67	1078.52
559.02	1083.20
559.37	1077.82
559.73	1079.69
560.08	1086.71
560.43	1077.11
560.79	1078.05
561.14	1091.39
561.49	1092.56
561.85	1091.39
562.20	1094.67
562.55	1087.41
562.90	1079.46
563.26	1077.35
563.61	1068.45
563.96	1081.09
564.32	1078.75
564.67	1077.11
565.02	1071.73
565.37	1076.18
565.73	1078.05
566.08	1083.20
566.43	1079.46
566.78	1083.20
567.14	1077.58
567.49	1071.50
567.84	1066.11
568.19	1066.11
568.54	1066.82
568.90	1079.46
569.25	1084.84
569.60	1083.67
569.95	1083.20
570.31	1080.39
570.66	1076.18
571.01	1075.01
571.36	1086.48
571.71	1085.07
572.06	1091.39
572.42	1099.12
572.77	1100.29
573.12	1094.90
573.47	1101.46
573.82	1088.58
574.18	1090.22
574.53	1084.14
574.88	1095.14
575.23	1097.48
575.58	1107.78
575.93	1099.58
576.28	1100.05
576.64	1087.88
576.99	1082.97
577.34	1081.09
577.69	1077.58
578.04	1070.33
578.39	1071.50
578.74	1070.80
579.09	1077.58
579.44	1082.03
579.80	1080.63
580.15	1083.20
580.50	1079.22
580.85	1065.41
581.20	1058.86
581.55	1075.48
581.90	1069.16
582.25	1078.75
582.60	1088.12
582.95	1084.60
583.30	1078.05
583.65	1089.75
584.00	1093.73
584.35	1089.05
584.71	1096.78
585.06	1098.18
585.41	1089.05
585.76	1081.09
586.11	1088.82
586.46	1074.31
586.81	1066.35
587.16	1063.07
587.51	1060.73
587.86	1060.26
588.21	1075.71
588.56	1072.90
588.91	1073.37
589.26	1075.01
589.61	1075.01
589.96	1076.65
590.31	1079.92
590.66	1080.39
591.01	1078.28
591.36	1075.24
591.71	1075.94
592.06	1073.84
592.41	1079.69
592.76	1081.33
593.10	1076.41
593.45	1076.41
593.80	1087.41
594.15	1084.60
594.50	1085.07
594.85	1089.75
595.20	1089.75
595.55	1073.14
595.90	1078.05
596.25	1077.82
596.60	1077.82
596.95	1075.94
597.30	1082.26
597.64	1134.46
597.99	1145.22
598.34	1152.25
598.69	1151.08
599.04	1165.12
599.39	1105.90
599.74	1100.52
600.09	1096.78
600.44	1093.03
600.78	1083.90
601.13	1082.97
601.48	1072.43
601.83	1065.88
602.18	1066.58
602.53	1067.75
602.88	1078.99
603.22	1086.01
603.57	1092.80
603.92	1089.29
604.27	1078.52
604.62	1064.01
604.97	1061.90
605.31	1055.82
605.66	1064.24
606.01	1074.31
606.36	1083.20
606.71	1086.01
607.05	1084.60
607.40	1079.92
607.75	1084.60
608.10	1089.29
608.44	1093.26
608.79	1100.29
609.14	1104.73
609.49	1115.97
609.84	1116.67
610.18	1116.90
610.53	1113.16
610.88	1109.88
611.23	1094.90
611.57	1097.48
611.92	1098.41
612.27	1099.12
612.62	1105.20
612.96	1098.88
613.31	1091.63
613.66	1084.37
614.00	1081.09
614.35	1075.94
614.70	1079.69
615.05	1079.22
615.39	1081.56
615.74	1084.60
616.09	1084.60
616.43	1086.48
616.78	1083.90
617.13	1076.18
617.47	1073.84
617.82	1070.80
618.17	1060.73
618.51	1062.60
618.86	1074.31
619.21	1081.80
619.55	1080.16
619.90	1088.35
620.25	1085.07
620.59	1077.35
620.94	1073.14
621.29	1076.88
621.63	1075.71
621.98	1076.88
622.32	1080.86
622.67	1074.54
623.02	1077.58
623.36	1075.71
623.71	1076.18
624.05	1073.60
624.40	1080.16
624.75	1071.03
625.09	1066.58
625.44	1064.48
625.78	1071.03
626.13	1075.01
626.48	1089.99
626.82	1101.92
627.17	1101.46
627.51	1100.99
627.86	1103.09
628.20	1091.63
628.55	1089.52
628.89	1092.80
629.24	1090.92
629.58	1084.14
629.93	1087.18
630.28	1081.56
630.62	1074.77
630.97	1073.84
631.31	1073.14
631.66	1081.56
632.00	1092.09
632.35	1096.31
632.69	1097.24
633.04	1103.09
633.38	1090.92
633.73	1086.01
634.07	1083.43
634.42	1087.18
634.76	1081.33
635.11	1085.54
635.45	1072.67
635.79	1086.48
636.14	1085.31
636.48	1081.33
636.83	1091.63
637.17	1097.48
637.52	1099.35
637.86	1084.84
638.21	1090.92
638.55	1083.20
638.89	1087.88
639.24	1074.07
639.58	1077.35
639.93	1069.39
640.27	1063.31
640.61	1062.37
640.96	1055.82
641.30	1054.88
641.65	1063.77
641.99	1064.71
642.33	1056.52
642.68	1066.58
643.02	1071.03
643.37	1064.94
643.71	1058.16
644.05	1069.39
644.40	1067.28
644.74	1071.50
645.08	1082.26
645.43	1097.48
645.77	1097.71
646.11	1097.24
646.46	1098.18
646.80	1091.63
647.14	1090.22
647.49	1089.52
647.83	1081.80
648.17	1086.94
648.52	1084.60
648.86	1086.01
649.20	1092.09
649.55	1098.65
649.89	1084.14
650.23	1075.24
650.57	1070.56
650.92	1061.43
651.26	1064.94
651.60	1066.11
651.95	1077.11
652.29	1078.28
652.63	1084.14
652.97	1083.90
653.32	1081.09
653.66	1074.07
654.00	1081.09
654.34	1075.48
654.69	1070.33
655.03	1084.84
655.37	1086.71
655.71	1068.45
656.05	1065.88
656.40	1077.82
656.74	1066.35
657.08	1082.03
657.42	1088.82
657.76	1097.95
658.11	1085.31
658.45	1081.80
658.79	1066.58
659.13	1062.84
659.47	1059.33
659.82	1065.65
660.16	1065.41
660.50	1069.62
660.84	1076.18
661.18	1070.09
661.52	1071.97
661.87	1080.16
662.21	1081.56
662.55	1076.18
662.89	1076.65
663.23	1072.90
663.57	1077.35
663.91	1078.52
664.25	1087.18
664.60	1095.84
664.94	1094.90
665.28	1096.07
665.62	1093.26
665.96	1089.99
666.30	1077.58
666.64	1075.24
666.98	1071.50
667.32	1069.86
667.66	1074.54
668.01	1075.48
668.35	1077.11
668.69	1076.41
669.03	1080.86
669.37	1081.56
669.71	1080.86
670.05	1085.31
670.39	1081.80
670.73	1078.05
671.07	1075.24
671.41	1080.16
671.75	1082.97
672.09	1092.33
672.43	1089.99
672.77	1089.99
673.11	1090.69
673.45	1087.18
673.79	1082.73
674.13	1077.11
674.47	1071.03
674.81	1070.56
675.15	1080.63
675.49	1078.28
675.83	1085.54
676.17	1090.22
676.51	1094.67
676.85	1087.18
677.19	1080.63
677.53	1081.80
677.87	1074.31
678.21	1079.69
678.55	1075.94
678.89	1080.39
679.23	1079.22
679.57	1079.92
679.90	1075.24
680.24	1078.28
680.58	1076.88
680.92	1075.94
681.26	1078.75
681.60	1082.26
681.94	1087.88
682.28	1092.09
682.62	1101.92
682.96	1114.56
683.29	1110.12
683.63	1099.82
683.97	1093.26
684.31	1085.77
684.65	1081.33
684.99	1082.97
685.33	1080.63
685.67	1093.03
686.00	1096.78
686.34	1094.90
686.68	1091.39
687.02	1092.33
687.36	1087.41
687.70	1075.48
688.03	1069.86
688.37	1061.90
688.71	1067.75
689.05	1066.58
689.39	1071.97
689.72	1083.67
690.06	1094.90
690.40	1095.60
690.74	1097.48
691.08	1095.37
691.41	1082.26
691.75	1085.54
692.09	1087.65
692.43	1088.58
692.76	1098.88
693.10	1098.41
693.44	1100.29
693.78	1104.03
694.11	1097.01
694.45	1089.75
694.79	1089.52
695.13	1069.39
695.46	1060.26
695.80	1055.82
696.14	1059.09
696.48	1058.86
696.81	1070.09
697.15	1075.01
697.49	1088.12
697.82	1096.54
698.16	1103.80
698.50	1102.16
698.83	1093.03
699.17	1088.58
699.51	1079.22
699.84	1066.58
700.18	1070.33
700.52	1067.75
700.85	1062.60
701.19	1059.79
701.53	1063.31
701.86	1055.58
702.20	1056.05
702.54	1061.67
702.87	1067.52
703.21	1068.22
703.55	1080.63
703.88	1087.88
704.22	1078.05
704.55	1075.01
704.89	1080.16
705.23	1067.28
705.56	1061.67
705.90	1059.33
706.23	1061.67
706.57	1061.43
706.91	1068.45
707.24	1079.46
707.58	1096.54
707.91	1098.41
708.25	1105.20
708.58	1097.71
708.92	1095.14
709.26	1094.43
709.59	1096.54
709.93	1084.60
710.26	1088.12
710.60	1079.22
710.93	1073.84
711.27	1066.11
711.60	1071.97
711.94	1071.26
712.27	1074.54
712.61	1079.69
712.94	1084.37
713.28	1086.24
713.61	1093.73
713.95	1098.65
714.28	1086.24
714.62	1074.07
714.95	1067.05
715.29	1056.75
715.62	1046.22
715.96	1051.13
716.29	1065.88
716.63	1063.77
716.96	1066.58
717.29	1069.62
717.63	1061.43
717.96	1045.05
718.30	1049.03
718.63	1051.37
718.97	1050.67
719.30	1060.26
719.63	1073.84
719.97	1080.86
720.30	1078.28
720.64	1079.46
720.97	1072.90
721.30	1077.58
721.64	1067.05
721.97	1069.39
722.31	1072.67
722.64	1076.41
722.97	1067.28
723.31	1069.62
723.64	1074.07
723.97	1082.03
724.31	1084.60
724.64	1093.73
724.98	1096.54
725.31	1083.43
725.64	1078.05
725.98	1081.33
726.31	1074.07
726.64	1073.60
726.97	1080.86
727.31	1082.73
727.64	1080.16
727.97	1071.97
728.31	1073.60
728.64	1071.26
728.97	1053.01
729.31	1042.24
729.64	1041.77
729.97	1038.50
730.30	1044.11
730.64	1062.37
730.97	1067.99
731.30	1070.33
731.63	1071.50
731.97	1073.37
732.30	1065.88
732.63	1075.24
732.96	1079.69
733.30	1086.24
733.63	1090.46
733.96	1099.58
734.29	1095.84
734.63	1090.92
734.96	1085.54
735.29	1085.07
735.62	1073.60
735.95	1072.43
736.29	1079.69
736.62	1078.28
736.95	1074.07
737.28	1075.94
737.61	1083.43
737.94	1085.31
738.28	1086.48
738.61	1089.75
738.94	1101.22
739.27	1101.46
739.60	1102.63
739.93	1101.69
740.27	1094.43
740.60	1082.97
740.93	1071.50
741.26	1068.92
741.59	1078.28
741.92	1084.84
742.25	1097.95
742.58	1111.29
742.91	1115.27
743.25	1100.75
743.58	1097.71
743.91	1081.56
744.24	1072.43
744.57	1062.84
744.90	1065.88
745.23	1067.05
745.56	1085.31
745.89	1083.20
746.22	1086.01
746.55	1092.33
746.88	1094.67
747.21	1090.46
747.54	1089.75
747.87	1093.73
748.20	1093.73
748.53	1085.54
748.87	1078.75
749.20	1081.33
749.53	1077.35
749.86	1071.73
750.19	1081.80
750.52	1071.26
750.85	1075.24
751.18	1069.86
751.51	1073.14
751.84	1074.07
752.16	1093.03
752.49	1092.09
752.82	1100.75
753.15	1089.99
753.48	1091.86
753.81	1079.92
754.14	1075.24
754.47	1071.97
754.80	1077.58
755.13	1070.80
755.46	1078.99
755.79	1075.24
756.12	1067.99
756.45	1066.58
756.78	1069.62
757.11	1067.75
757.43	1083.43
757.76	1087.18
758.09	1097.48
758.42	1080.16
758.75	1066.82
759.08	1057.22
759.41	1062.60
759.74	1054.65
760.07	1058.86
760.39	1066.82
760.72	1053.94
761.05	1048.33
761.38	1051.13
761.71	1055.82
762.04	1058.62
762.36	1069.86
762.69	1077.35
763.02	1069.86
763.35	1080.86
763.68	1083.67
764.01	1080.63
764.33	1086.01
764.66	1103.33
764.99	1098.65
765.32	1095.60
765.65	1092.33
765.97	1072.67
766.30	1061.90
766.63	1054.88
766.96	1052.07
767.28	1062.37
767.61	1068.22
767.94	1065.65
768.27	1072.67
768.59	1064.71
768.92	1060.26
769.25	1067.05
769.58	1071.03
769.90	1071.26
770.23	1078.99
770.56	1074.77
770.89	1069.39
771.21	1071.73
771.54	1067.75
771.87	1069.39
772.19	1071.73
772.52	1076.41
772.85	1068.92
773.17	1064.94
773.50	1059.33
773.83	1054.88
774.15	1050.20
774.48	1048.33
774.81	1046.92
775.13	1057.45
775.46	1064.01
775.79	1077.58
776.11	1090.46
776.44	1099.12
776.77	1087.88
777.09	1090.69
777.42	1084.84
777.74	1087.88
778.07	1079.69
778.40	1093.03
778.72	1085.77
779.05	1082.73
779.37	1072.67
779.70	1073.37
780.03	1060.26
780.35	1074.31
780.68	1080.86
781.00	1093.26
781.33	1098.18
781.65	1101.46
781.98	1089.29
782.31	1083.67
782.63	1070.09
782.96	1071.03
783.28	1070.56
783.61	1073.14
783.93	1074.54
784.26	1077.82
784.58	1071.03
784.91	1077.82
785.23	1085.54
785.56	1088.35
785.88	1084.60
786.21	1089.29
786.53	1081.56
786.86	1075.71
787.18	1070.56
787.51	1074.31
787.83	1068.22
788.16	1077.58
788.48	1077.11
788.81	1075.94
789.13	1073.37
789.46	1071.50
789.78	1064.71
790.10	1062.84
790.43	1064.48
790.75	1066.35
791.08	1075.01
791.40	1082.73
791.73	1096.07
792.05	1092.33
792.37	1103.80
792.70	1104.50
793.02	1092.80
793.35	1085.54
793.67	1090.92
793.99	1080.16
794.32	1083.90
794.64	1088.35
794.96	1077.58
795.29	1078.28
795.61	1075.01
795.93	1069.39
796.26	1076.41
796.58	1081.09
796.91	1075.48
797.23	1079.69
797.55	1083.43
797.87	1077.11
798.20	1073.60
798.52	1071.50
798.84	1066.11
799.17	1060.96
799.49	1065.65
799.81	1066.82
800.14	1074.07
800.46	1073.14
800.78	1074.54
801.10	1072.43
801.43	1085.31
801.75	1081.80
802.07	1085.31
802.40	1095.84
802.72	1099.82
803.04	1091.16
803.36	1094.43
803.69	1093.73
804.01	1078.75
804.33	1078.28
804.65	1075.71
804.97	1073.14
805.30	1071.26
805.62	1081.33
805.94	1082.73
806.26	1089.05
806.58	1091.16
806.91	1097.71
807.23	1097.24
807.55	1091.39
807.87	1090.22
808.19	1085.07
808.52	1090.69
808.84	1084.14
809.16	1088.82
809.48	1084.84
809.80	1085.07
810.12	1077.82
810.44	1078.75
810.77	1071.03
811.09	1068.69
811.41	1073.60
811.73	1071.97
812.05	1069.16
812.37	1067.75
812.69	1069.16
813.01	1062.84
813.33	1057.69
813.66	1060.50
813.98	1072.90
814.30	1068.69
814.62	1069.62
814.94	1081.56
815.26	1081.09
815.58	1074.77
815.90	1076.41
816.22	1081.33
816.54	1069.86
816.86	1077.35
817.18	1080.86
817.50	1091.16
817.82	1086.71
818.14	1088.58
818.46	1075.48
818.78	1071.26
819.10	1075.71
819.42	1070.56
819.74	1073.84
820.06	1074.77
820.38	1073.14
820.70	1061.43
821.02	1065.88
821.34	1069.62
821.66	1071.73
821.98	1065.18
822.30	1068.22
822.62	1066.11
822.94	1064.48
823.26	1069.86
823.58	1073.84
823.90	1071.03
824.22	1082.03
824.54	1072.43
824.86	1069.39
825.18	1073.14
825.50	1077.58
825.81	1071.73
826.13	1080.16
826.45	1076.18
826.77	1070.56
827.09	1058.39
827.41	1056.05
827.73	1053.94
828.05	1062.14
828.36	1062.84
828.68	1072.43
829.00	1079.22
829.32	1074.07
829.64	1062.37
829.96	1071.26
830.28	1078.05
830.59	1078.75
830.91	1077.82
831.23	1088.58
831.55	1076.88
831.87	1064.24
832.19	1062.14
832.50	1068.45
832.82	1070.09
833.14	1085.31
833.46	1088.58
833.78	1090.92
834.09	1089.29
834.41	1088.58
834.73	1078.28
835.05	1075.01
835.36	1067.05
835.68	1070.09
836.00	1064.48
836.32	1065.18
836.63	1062.37
836.95	1069.62
837.27	1070.33
837.59	1071.50
837.90	1076.18
838.22	1081.09
838.54	1084.37
838.85	1090.69
839.17	1091.16
839.49	1085.07
839.80	1089.52
840.12	1086.94
840.44	1086.71
840.76	1090.92
841.07	1089.99
841.39	1092.33
841.71	1083.20
842.02	1083.67
842.34	1077.35
842.65	1082.50
842.97	1082.03
843.29	1095.37
843.60	1079.69
843.92	1092.09
844.24	1091.39
844.55	1090.92
844.87	1079.69
845.18	1089.52
845.50	1088.12
845.82	1093.73
846.13	1089.05
846.45	1091.39
846.76	1088.82
847.08	1080.86
847.40	1077.82
847.71	1079.46
848.03	1081.09
848.34	1072.43
848.66	1071.73
848.97	1063.31
849.29	1056.75
849.60	1054.88
849.92	1056.52
850.24	1056.75
850.55	1053.71
850.87	1060.03
851.18	1065.65
851.50	1068.45
851.81	1066.82
852.13	1072.90
852.44	1079.69
852.76	1072.90
853.07	1073.37
853.39	1075.71
853.70	1079.22
854.01	1057.69
854.33	1052.54
854.64	1056.28
854.96	1050.67
855.27	1057.69
855.59	1070.33
855.90	1075.94
856.22	1073.37
856.53	1064.71
856.84	1055.11
857.16	1057.45
857.47	1060.03
857.79	1062.37
858.10	1075.01
858.41	1075.01
858.73	1079.69
859.04	1079.92
859.36	1073.14
859.67	1080.63
859.98	1082.26
860.30	1087.41
860.61	1097.24
860.92	1104.73
861.24	1099.82
861.55	1097.71
861.87	1086.94
862.18	1078.75
862.49	1083.43
862.81	1078.99
863.12	1083.67
863.43	1089.75
863.74	1098.18
864.06	1098.18
864.37	1105.44
864.68	1102.16
865.00	1094.90
865.31	1085.54
865.62	1082.26
865.94	1082.26
866.25	1082.97
866.56	1082.50
866.87	1075.24
867.19	1073.37
867.50	1082.73
867.81	1084.60
868.12	1094.43
868.44	1098.88
868.75	1096.54
869.06	1083.20
869.37	1082.50
869.68	1081.56
870.00	1085.77
870.31	1083.43
870.62	1082.26
870.93	1079.22
871.24	1067.05
871.56	1071.26
871.87	1081.80
872.18	1088.35
872.49	1088.12
872.80	1088.12
873.12	1082.26
873.43	1072.20
873.74	1069.16
874.05	1065.18
874.36	1070.33
874.67	1063.07
874.98	1065.88
875.29	1064.48
875.61	1073.14
875.92	1070.09
876.23	1064.24
876.54	1068.22
876.85	1060.73
877.16	1062.14
877.47	1063.54
877.78	1072.43
878.09	1072.43
878.40	1080.16
878.72	1068.45
879.03	1062.14
879.34	1065.88
879.65	1062.84
879.96	1069.62
880.27	1077.58
880.58	1093.97
880.89	1095.14
881.20	1091.63
881.51	1086.94
881.82	1089.52
882.13	1083.43
882.44	1075.71
882.75	1075.94
883.06	1070.09
883.37	1069.62
883.68	1067.52
883.99	1072.90
884.30	1078.99
884.61	1080.63
884.92	1083.43
885.23	1072.90
885.54	1071.03
885.85	1060.73
886.16	1054.65
886.47	1048.09
886.78	1068.45
887.08	1073.14
887.39	1079.22
887.70	1091.63
888.01	1097.71
888.32	1083.90
888.63	1087.41
888.94	1095.37
889.25	1086.71
889.56	1080.63
889.87	1088.82
890.17	1078.52
890.48	1072.43
890.79	1076.65
891.10	1077.11
891.41	1081.33
891.72	1090.69
892.03	1091.16
892.34	1083.20
892.64	1089.52
892.95	1088.35
893.26	1074.77
893.57	1073.14
893.88	1088.82
894.18	1081.09
894.49	1076.65
894.80	1088.58
895.11	1089.52
895.42	1085.07
895.72	1080.86
896.03	1081.33
896.34	1070.09
896.65	1075.94
896.96	1082.26
897.26	1093.50
897.57	1096.54
897.88	1106.61
898.19	1106.84
898.49	1105.90
898.80	1102.86
899.11	1091.86
899.41	1091.86
899.72	1077.82
900.03	1066.58
900.34	1061.43
900.64	1058.39
900.95	1057.69
901.26	1070.56
901.56	1068.45
901.87	1065.41
902.18	1073.84
902.48	1076.65
902.79	1072.43
903.10	1079.22
903.40	1089.29
903.71	1096.31
904.02	1089.52
904.32	1088.82
904.63	1089.05
904.94	1092.80
905.24	1090.22
905.55	1097.24
905.85	1096.78
906.16	1101.22
906.47	1091.63
906.77	1091.86
907.08	1093.03
907.38	1093.73
907.69	1091.63
908.00	1099.82
908.30	1086.48
908.61	1071.03
908.91	1076.65
909.22	1074.54
909.52	1070.80
909.83	1086.48
910.14	1097.95
910.44	1089.05
910.75	1085.77
911.05	1073.60
911.36	1074.07
911.66	1072.67
911.97	1079.46
912.27	1082.73
912.58	1089.52
912.88	1078.52
913.19	1084.84
913.49	1086.71
913.80	1089.75
914.10	1091.16
914.41	1097.24
914.71	1082.03
915.01	1063.54
915.32	1072.90
915.62	1078.05
915.93	1074.31
916.23	1089.29
916.54	1102.39
916.84	1095.14
917.15	1092.56
917.45	1089.75
917.75	1081.09
918.06	1086.01
918.36	1071.73
918.67	1063.54
918.97	1072.43
919.27	1070.80
919.58	1062.14
919.88	1067.99
920.18	1071.73
920.49	1067.05
920.79	1068.22
921.10	1080.39
921.40	1080.39
921.70	1085.31
922.01	1090.22
922.31	1098.65
922.61	1089.52
922.92	1092.56
923.22	1095.37
923.52	1083.67
923.82	1083.20
924.13	1084.37
924.43	1085.31
924.73	1080.63
925.04	1087.18
925.34	1085.07
925.64	1088.35
925.94	1089.29
926.25	1098.41
926.55	1104.97
926.85	1098.88
927.15	1096.07
927.46	1098.41
927.76	1094.90
928.06	1089.75
928.36	1096.07
928.67	1093.97
928.97	1089.29
929.27	1084.60
929.57	1078.28
929.87	1074.77
930.18	1075.48
930.48	1075.48
930.78	1071.73
931.08	1085.07
931.38	1076.65
931.69	1078.75
931.99	1081.80
932.29	1078.52
932.59	1075.01
932.89	1083.67
933.19	1088.12
933.49	1075.94
933.80	1089.29
934.10	1089.05
934.40	1083.67
934.70	1084.37
935.00	1094.20
935.30	1088.82
935.60	1085.54
935.90	1083.67
936.20	1082.26
936.50	1073.60
936.81	1078.28
937.11	1080.86
937.41	1087.88
937.71	1083.90
938.01	1095.37
938.31	1095.84
938.61	1097.24
938.91	1094.43
939.21	1088.58
939.51	1080.16
939.81	1070.09
940.11	1067.05
940.41	1071.03
940.71	1071.97
941.01	1079.22
941.31	1077.58
941.61	1078.28
941.91	1070.09
942.21	1066.35
942.51	1060.96
942.81	1063.54
943.11	1060.73
943.41	1065.88
943.71	1067.28
944.01	1059.09
944.31	1055.11
944.61	1052.07
944.90	1057.69
945.20	1059.56
945.50	1065.65
945.80	1064.01
946.10	1068.92
946.40	1065.18
946.70	1067.28
947.00	1071.97
947.30	1082.26
947.60	1073.37
947.89	1067.75
948.19	1075.48
948.49	1069.62
948.79	1067.05
949.09	1077.35
949.39	1082.50
949.69	1081.09
949.98	1088.12
950.28	1085.54
950.58	1084.84
950.88	1082.03
951.18	1079.22
951.48	1070.33
951.77	1074.31
952.07	1068.45
952.37	1075.94
952.67	1078.52
952.97	1078.75
953.26	1076.65
953.56	1083.67
953.86	1077.11
954.16	1069.16
954.45	1067.99
954.75	1067.75
955.05	1070.09
955.35	1064.71
955.64	1075.94
955.94	1083.90
956.24	1084.84
956.54	1083.20
956.83	1094.20
957.13	1098.41
957.43	1099.82
957.72	1101.22
958.02	1092.56
958.32	1088.35
958.61	1073.14
958.91	1077.11
959.21	1075.71
959.50	1070.80
959.80	1067.75
960.10	1074.07
960.39	1073.84
960.69	1072.43
960.99	1081.33
961.28	1086.71
961.58	1086.24
961.87	1070.80
962.17	1066.35
962.47	1072.90
962.76	1075.71
963.06	1075.01
963.36	1089.75
963.65	1101.46
963.95	1100.05
964.24	1091.16
964.54	1093.26
964.83	1091.63
965.13	1086.71
965.42	1073.84
965.72	1087.88
966.02	1090.92
966.31	1087.65
966.61	1087.65
966.90	1089.29
967.20	1085.54
967.49	1073.84
967.79	1064.01
968.08	1058.86
968.38	1072.20
968.67	1058.16
968.97	1056.99
969.26	1070.33
969.56	1070.56
969.85	1058.86
970.15	1065.18
970.44	1073.84
970.74	1071.03
971.03	1080.63
971.32	1089.29
971.62	1091.16
971.91	1095.37
972.21	1091.63
972.50	1085.54
972.80	1087.18
973.09	1088.35
973.38	1083.67
973.68	1079.92
973.97	1088.35
974.27	1093.97
974.56	1092.56
974.85	1091.63
975.15	1102.16
975.44	1087.88
975.73	1073.14
976.03	1071.26
976.32	1075.01
976.61	1061.90
976.91	1062.37
977.20	1066.82
977.49	1068.22
977.79	1066.82
978.08	1077.35
978.37	1083.43
978.67	1089.52
978.96	1089.52
979.25	1084.60
979.55	1080.39
979.84	1074.77
980.13	1057.69
980.42	1063.07
980.72	1062.84
981.01	1067.05
981.30	1071.26
981.59	1075.94
981.89	1082.73
982.18	1089.05
982.47	1089.99
982.76	1092.09
983.06	1094.67
983.35	1089.05
983.64	1076.18
983.93	1071.97
984.22	1064.71
984.52	1063.77
984.81	1064.48
985.10	1081.33
985.39	1079.69
985.68	1090.92
985.97	1101.69
986.27	1095.37
986.56	1082.26
986.85	1089.52
987.14	1085.31
987.43	1087.65
987.72	1086.01
988.01	1089.99
988.31	1087.65
988.60	1080.63
988.89	1078.52
989.18	1078.52
989.47	1074.07
989.76	1077.58
990.05	1086.01
990.34	1090.69
990.63	1103.09
990.92	1101.92
991.21	1092.56
991.51	1093.26
991.80	1080.16
992.09	1066.11
992.38	1072.43
992.67	1071.26
992.96	1069.86
993.25	1071.73
993.54	1077.11
993.83	1071.03
994.12	1077.82
994.41	1075.94
994.70	1077.58
994.99	1078.52
995.28	1078.28
995.57	1074.07
995.86	1073.84
996.15	1070.56
996.44	1065.65
996.73	1062.37
997.02	1057.45
997.31	1064.94
997.59	1062.60
997.88	1065.88
998.17	1073.37
998.46	1077.35
998.75	1067.52
999.04	1074.54
999.33	1069.16
999.62	1069.16
999.91	1078.05
1000.20	1089.29
1000.49	1086.01
1000.77	1095.84
1001.06	1096.54
1001.35	1093.26
1001.64	1087.41
1001.93	1079.92
1002.22	1073.14
1002.51	1085.77
1002.79	1079.92
1003.08	1085.31
1003.37	1088.12
1003.66	1097.71
1003.95	1091.86
1004.23	1094.67
1004.52	1091.63
1004.81	1094.90
1005.10	1084.60
1005.39	1072.90
1005.67	1067.99
1005.96	1057.45
1006.25	1056.99
1006.54	1055.58
1006.83	1059.56
1007.11	1068.22
1007.40	1080.63
1007.69	1083.67
1007.97	1090.92
1008.26	1095.84
1008.55	1094.20
1008.84	1094.67
1009.12	1105.90
1009.41	1107.54
1009.70	1108.48
1009.98	1110.35
1010.27	1101.22
1010.56	1093.73
1010.85	1078.05
1011.13	1082.26
1011.42	1075.94
1011.71	1077.58
1011.99	1078.28
1012.28	1084.37
1012.56	1074.07
1012.85	1077.35
1013.14	1078.05
1013.42	1069.39
1013.71	1075.48
1014.00	1074.31
1014.28	1071.03
1014.57	1060.96
1014.85	1061.90
1015.14	1060.03
1015.43	1053.71
1015.71	1060.50
1016.00	1074.07
1016.28	1078.52
1016.57	1076.41
1016.85	1091.86
1017.14	1087.88
1017.43	1077.58
1017.71	1064.24
1018.00	1060.03
1018.28	1055.11
1018.57	1058.16
1018.85	1069.39
1019.14	1079.92
1019.42	1080.16
1019.71	1073.84
1019.99	1079.69
1020.28	1082.50
1020.56	1078.28
1020.85	1074.54
1021.13	1080.63
1021.42	1072.67
1021.70	1064.24
1021.99	1070.80
1022.27	1081.56
1022.55	1088.35
1022.84	1089.52
>>>>>End Processed Spectral Data<<<<<
