SpectraSuite Data File
++++++++++++++++++++++++++++++++++++
Date: Mon Aug 26 10:25:58 PDT 2019
User: corrico
Dark Spectrum Present: No
Reference Spectrum Present: No
Number of Sampled Component Spectra: 1
Spectrometers: USB2+H06089
Integration Time (usec): 10000 (USB2+H06089)
Spectra Averaged: 2 (USB2+H06089)
Boxcar Smoothing: 2 (USB2+H06089)
Correct for Electrical Dark: No (USB2+H06089)
Strobe/Lamp Enabled: No (USB2+H06089)
Correct for Detector Non-linearity: No (USB2+H06089)
Correct for Stray Light: No (USB2+H06089)
Number of Pixels in Processed Spectrum: 2048
>>>>>Begin Processed Spectral Data<<<<<
339.70	1048.56
340.07	1048.56
340.45	1016.26
340.82	998.94
341.19	973.19
341.57	946.75
341.94	933.64
342.31	913.75
342.69	900.40
343.06	895.72
343.43	894.55
343.81	894.55
344.18	902.28
344.55	909.30
344.93	918.89
345.30	920.77
345.67	927.55
346.04	933.64
346.42	938.55
346.79	943.70
347.16	963.13
347.54	974.60
347.91	982.79
348.28	992.62
348.65	991.92
349.03	989.81
349.40	996.13
349.77	1000.81
350.14	1013.92
350.52	1021.64
350.89	1028.20
351.26	1032.64
351.63	1039.90
352.01	1029.84
352.38	1040.84
352.75	1046.92
353.12	1062.84
353.50	1072.20
353.87	1093.73
354.24	1091.86
354.61	1096.54
354.98	1090.92
355.36	1080.86
355.73	1069.86
356.10	1077.82
356.47	1079.92
356.84	1070.80
357.22	1076.88
357.59	1079.92
357.96	1070.80
358.33	1063.77
358.70	1070.80
359.08	1078.52
359.45	1069.62
359.82	1082.73
360.19	1083.67
360.56	1078.75
360.94	1073.84
361.31	1088.82
361.68	1085.77
362.05	1084.14
362.42	1087.88
362.79	1094.20
363.16	1074.54
363.54	1072.20
363.91	1070.80
364.28	1064.94
364.65	1046.69
365.02	1058.62
365.39	1061.43
365.76	1062.14
366.14	1073.37
366.51	1088.58
366.88	1087.18
367.25	1076.65
367.62	1079.46
367.99	1074.31
368.36	1067.99
368.73	1065.41
369.10	1069.39
369.48	1067.99
369.85	1062.60
370.22	1060.03
370.59	1053.01
370.96	1056.05
371.33	1058.39
371.70	1072.20
372.07	1082.73
372.44	1086.94
372.81	1082.97
373.18	1078.99
373.55	1065.88
373.93	1053.94
374.30	1067.28
374.67	1072.90
375.04	1082.97
375.41	1080.39
375.78	1089.05
376.15	1074.31
376.52	1062.14
376.89	1059.56
377.26	1069.39
377.63	1065.65
378.00	1076.18
378.37	1085.77
378.74	1081.09
379.11	1070.80
379.48	1060.96
379.85	1059.79
380.22	1065.41
380.59	1064.01
380.96	1071.26
381.33	1080.16
381.70	1074.54
382.07	1057.69
382.44	1053.94
382.81	1047.86
383.18	1047.62
383.55	1042.24
383.92	1049.96
384.29	1053.24
384.66	1054.88
385.03	1053.94
385.40	1065.65
385.77	1065.18
386.14	1071.97
386.51	1067.75
386.88	1067.05
387.25	1059.79
387.62	1052.54
387.99	1041.30
388.36	1050.20
388.73	1054.65
389.10	1065.18
389.46	1077.82
389.83	1083.90
390.20	1089.99
390.57	1094.20
390.94	1082.97
391.31	1085.54
391.68	1092.09
392.05	1076.18
392.42	1063.07
392.79	1069.86
393.16	1073.14
393.53	1074.54
393.89	1083.20
394.26	1081.80
394.63	1078.75
395.00	1074.77
395.37	1065.41
395.74	1071.26
396.11	1077.35
396.48	1068.69
396.84	1066.11
397.21	1067.52
397.58	1050.67
397.95	1052.77
398.32	1063.31
398.69	1075.01
399.06	1078.75
399.42	1092.80
399.79	1097.24
400.16	1097.71
400.53	1085.07
400.90	1082.03
401.27	1086.94
401.64	1088.58
402.00	1089.29
402.37	1097.48
402.74	1107.07
403.11	1097.24
403.48	1097.95
403.84	1102.63
404.21	1093.73
404.58	1090.69
404.95	1095.14
405.32	1084.84
405.68	1084.14
406.05	1084.37
406.42	1073.37
406.79	1060.50
407.16	1067.28
407.52	1062.37
407.89	1070.09
408.26	1071.97
408.63	1080.16
408.99	1073.37
409.36	1071.97
409.73	1073.84
410.10	1076.88
410.47	1082.26
410.83	1085.07
411.20	1086.71
411.57	1079.22
411.94	1078.99
412.30	1080.63
412.67	1080.86
413.04	1082.50
413.40	1074.77
413.77	1073.60
414.14	1075.24
414.51	1077.58
414.87	1077.35
415.24	1081.33
415.61	1093.73
415.97	1086.71
416.34	1098.18
416.71	1095.37
417.08	1098.41
417.44	1081.80
417.81	1071.97
418.18	1064.01
418.54	1067.52
418.91	1067.28
419.28	1069.39
419.64	1083.43
420.01	1081.56
420.38	1086.94
420.74	1085.54
421.11	1089.75
421.48	1096.54
421.84	1093.03
422.21	1081.56
422.58	1080.39
422.94	1067.52
423.31	1055.11
423.68	1059.33
424.04	1064.71
424.41	1058.62
424.77	1058.86
425.14	1064.24
425.51	1067.52
425.87	1064.48
426.24	1075.01
426.61	1080.63
426.97	1080.63
427.34	1066.11
427.70	1072.43
428.07	1064.71
428.44	1068.22
428.80	1062.14
429.17	1074.07
429.53	1069.39
429.90	1077.35
430.27	1073.60
430.63	1063.77
431.00	1057.22
431.36	1060.26
431.73	1060.96
432.09	1057.92
432.46	1071.97
432.83	1071.03
433.19	1072.20
433.56	1059.09
433.92	1075.94
434.29	1086.71
434.65	1087.88
435.02	1079.69
435.38	1097.01
435.75	1087.88
436.11	1068.92
436.48	1080.16
436.84	1082.03
437.21	1077.35
437.57	1074.77
437.94	1081.80
438.30	1069.16
438.67	1064.94
439.03	1060.26
439.40	1063.07
439.76	1064.71
440.13	1064.48
440.49	1067.05
440.86	1072.43
441.22	1075.71
441.59	1081.56
441.95	1084.84
442.32	1079.69
442.68	1078.75
443.05	1075.01
443.41	1071.97
443.78	1066.58
444.14	1078.05
444.51	1068.69
444.87	1077.35
445.24	1080.39
445.60	1087.41
445.96	1078.99
446.33	1081.80
446.69	1077.35
447.06	1067.52
447.42	1073.37
447.79	1082.03
448.15	1086.94
448.51	1083.67
448.88	1085.77
449.24	1079.92
449.61	1077.11
449.97	1076.18
450.33	1079.46
450.70	1079.22
451.06	1077.35
451.43	1078.99
451.79	1088.35
452.15	1075.94
452.52	1071.97
452.88	1075.48
453.24	1068.92
453.61	1055.82
453.97	1066.58
454.34	1073.60
454.70	1066.11
455.06	1068.69
455.43	1075.94
455.79	1079.92
456.15	1075.24
456.52	1082.97
456.88	1084.84
457.24	1080.16
457.61	1080.86
457.97	1088.35
458.33	1089.75
458.70	1089.29
459.06	1089.75
459.42	1086.48
459.79	1081.09
460.15	1086.71
460.51	1090.92
460.88	1092.09
461.24	1089.29
461.60	1089.99
461.96	1079.69
462.33	1077.58
462.69	1086.01
463.05	1083.67
463.42	1085.54
463.78	1080.86
464.14	1074.07
464.50	1063.54
464.87	1068.69
465.23	1072.67
465.59	1076.18
465.95	1093.73
466.32	1089.05
466.68	1083.90
467.04	1068.45
467.40	1067.99
467.77	1051.84
468.13	1062.84
468.49	1069.39
468.85	1082.50
469.22	1082.03
469.58	1082.73
469.94	1077.58
470.30	1066.35
470.66	1067.75
471.03	1072.20
471.39	1076.41
471.75	1079.22
472.11	1089.29
472.47	1092.33
472.84	1090.22
473.20	1081.56
473.56	1083.67
473.92	1079.69
474.28	1073.60
474.65	1074.54
475.01	1076.65
475.37	1067.52
475.73	1073.60
476.09	1080.16
476.45	1074.31
476.81	1077.11
477.18	1072.43
477.54	1071.03
477.90	1064.94
478.26	1068.92
478.62	1070.33
478.98	1079.69
479.34	1082.26
479.71	1074.77
480.07	1073.14
480.43	1075.48
480.79	1073.14
481.15	1067.28
481.51	1082.26
481.87	1075.48
482.23	1070.09
482.59	1078.75
482.96	1088.58
483.32	1072.67
483.68	1093.73
484.04	1094.20
484.40	1088.58
484.76	1083.90
485.12	1086.94
485.48	1076.18
485.84	1077.82
486.20	1071.97
486.56	1070.09
486.92	1075.94
487.28	1073.14
487.64	1073.14
488.00	1085.31
488.37	1086.71
488.73	1081.09
489.09	1084.37
489.45	1091.86
489.81	1095.14
490.17	1096.07
490.53	1101.69
490.89	1103.09
491.25	1097.24
491.61	1085.31
491.97	1079.92
492.33	1077.58
492.69	1080.16
493.05	1082.26
493.41	1085.07
493.77	1084.84
494.13	1089.52
494.49	1086.71
494.85	1087.18
495.21	1086.48
495.57	1083.20
495.93	1083.20
496.29	1078.75
496.64	1075.71
497.00	1081.80
497.36	1082.97
497.72	1082.26
498.08	1089.75
498.44	1086.24
498.80	1083.20
499.16	1090.69
499.52	1082.26
499.88	1073.14
500.24	1077.58
500.60	1069.62
500.96	1066.35
501.32	1065.65
501.68	1058.16
502.03	1051.37
502.39	1050.67
502.75	1041.54
503.11	1045.05
503.47	1052.07
503.83	1059.79
504.19	1073.14
504.55	1076.88
504.91	1078.75
505.26	1083.90
505.62	1080.63
505.98	1075.48
506.34	1077.58
506.70	1084.37
507.06	1086.94
507.42	1089.05
507.78	1083.90
508.13	1082.97
508.49	1083.20
508.85	1090.92
509.21	1101.46
509.57	1102.63
509.93	1108.48
510.28	1099.58
510.64	1094.43
511.00	1083.90
511.36	1085.31
511.72	1086.01
512.07	1087.41
512.43	1082.26
512.79	1085.54
513.15	1081.80
513.51	1083.43
513.86	1079.92
514.22	1087.18
514.58	1085.77
514.94	1095.60
515.30	1094.67
515.65	1100.75
516.01	1095.60
516.37	1091.86
516.73	1083.67
517.08	1082.73
517.44	1079.46
517.80	1074.07
518.16	1083.43
518.51	1086.24
518.87	1090.92
519.23	1102.39
519.59	1108.95
519.94	1100.52
520.30	1109.65
520.66	1097.71
521.01	1084.14
521.37	1091.63
521.73	1089.29
522.09	1077.35
522.44	1087.41
522.80	1089.05
523.16	1083.43
523.51	1087.65
523.87	1093.03
524.23	1085.07
524.58	1087.18
524.94	1088.12
525.30	1092.09
525.65	1099.35
526.01	1115.73
526.37	1125.10
526.72	1117.37
527.08	1118.07
527.44	1100.99
527.79	1086.48
528.15	1082.73
528.51	1084.37
528.86	1085.31
529.22	1093.73
529.58	1100.05
529.93	1089.75
530.29	1099.12
530.65	1096.78
531.00	1096.78
531.36	1092.33
531.71	1106.14
532.07	1099.35
532.43	1093.03
532.78	1096.31
533.14	1099.35
533.49	1089.75
533.85	1097.24
534.21	1097.71
534.56	1097.24
534.92	1100.75
535.27	1094.43
535.63	1086.24
535.98	1093.50
536.34	1094.43
536.69	1097.24
537.05	1105.90
537.41	1099.12
537.76	1097.95
538.12	1095.37
538.47	1088.58
538.83	1090.46
539.18	1088.82
539.54	1082.03
539.89	1084.37
540.25	1078.52
540.60	1078.52
540.96	1085.54
541.31	1096.31
541.67	1104.50
542.02	1097.95
542.38	1094.67
542.73	1096.78
543.09	1082.26
543.44	1073.37
543.80	1081.09
544.15	1082.50
544.51	1078.05
544.86	1084.37
545.22	1084.14
545.57	1080.16
545.93	1074.07
546.28	1076.65
546.64	1070.56
546.99	1068.22
547.35	1071.03
547.70	1078.52
548.05	1084.60
548.41	1089.99
548.76	1087.88
549.12	1089.75
549.47	1089.29
549.83	1087.88
550.18	1097.48
550.53	1098.18
550.89	1087.18
551.24	1078.99
551.60	1076.88
551.95	1079.69
552.30	1092.56
552.66	1105.44
553.01	1109.18
553.37	1104.97
553.72	1097.24
554.07	1090.22
554.43	1089.52
554.78	1097.71
555.13	1100.05
555.49	1097.24
555.84	1088.82
556.19	1082.73
556.55	1073.14
556.90	1073.37
557.26	1074.54
557.61	1078.75
557.96	1087.18
558.32	1105.90
558.67	1112.46
559.02	1114.56
559.37	1113.16
559.73	1114.56
560.08	1105.20
560.43	1094.67
560.79	1090.46
561.14	1093.03
561.49	1089.99
561.85	1086.48
562.20	1091.63
562.55	1094.90
562.90	1094.67
563.26	1098.65
563.61	1091.39
563.96	1088.12
564.32	1079.22
564.67	1082.03
565.02	1071.97
565.37	1083.90
565.73	1080.86
566.08	1088.82
566.43	1088.12
566.78	1090.46
567.14	1081.56
567.49	1071.50
567.84	1073.37
568.19	1062.84
568.54	1067.75
568.90	1073.60
569.25	1084.60
569.60	1084.14
569.95	1095.84
570.31	1098.18
570.66	1103.09
571.01	1098.88
571.36	1102.16
571.71	1100.75
572.06	1093.97
572.42	1084.37
572.77	1096.78
573.12	1094.90
573.47	1086.24
573.82	1098.18
574.18	1092.09
574.53	1087.18
574.88	1087.65
575.23	1096.31
575.58	1089.99
575.93	1096.54
576.28	1098.65
576.64	1097.71
576.99	1092.56
577.34	1095.60
577.69	1098.41
578.04	1099.12
578.39	1096.31
578.74	1099.35
579.09	1091.86
579.44	1090.92
579.80	1088.12
580.15	1085.54
580.50	1087.18
580.85	1090.69
581.20	1085.77
581.55	1085.07
581.90	1082.26
582.25	1075.24
582.60	1071.50
582.95	1076.88
583.30	1071.03
583.65	1079.22
584.00	1073.84
584.35	1073.37
584.71	1074.77
585.06	1082.97
585.41	1075.24
585.76	1083.90
586.11	1084.84
586.46	1081.09
586.81	1075.01
587.16	1082.73
587.51	1079.22
587.86	1073.37
588.21	1070.80
588.56	1078.05
588.91	1076.65
589.26	1079.69
589.61	1086.24
589.96	1095.84
590.31	1087.18
590.66	1084.60
591.01	1089.99
591.36	1086.24
591.71	1078.99
592.06	1088.35
592.41	1087.88
592.76	1096.54
593.10	1098.41
593.45	1097.01
593.80	1094.20
594.15	1099.82
594.50	1088.12
594.85	1088.58
595.20	1085.31
595.55	1088.82
595.90	1087.18
596.25	1089.29
596.60	1082.50
596.95	1085.07
597.30	1077.58
597.64	1132.12
597.99	1126.50
598.34	1138.90
598.69	1137.97
599.04	1144.05
599.39	1084.37
599.74	1085.54
600.09	1086.24
600.44	1096.31
600.78	1100.29
601.13	1115.73
601.48	1110.82
601.83	1099.82
602.18	1087.65
602.53	1082.26
602.88	1071.50
603.22	1076.88
603.57	1088.35
603.92	1094.67
604.27	1086.94
604.62	1081.09
604.97	1082.26
605.31	1076.88
605.66	1081.80
606.01	1081.80
606.36	1087.65
606.71	1087.88
607.05	1080.63
607.40	1075.71
607.75	1084.14
608.10	1079.92
608.44	1079.22
608.79	1080.16
609.14	1081.80
609.49	1081.56
609.84	1081.80
610.18	1078.52
610.53	1082.26
610.88	1078.99
611.23	1080.16
611.57	1078.52
611.92	1082.26
612.27	1090.92
612.62	1085.54
612.96	1082.26
613.31	1081.33
613.66	1086.94
614.00	1071.26
614.35	1079.69
614.70	1080.16
615.05	1080.16
615.39	1080.39
615.74	1084.60
616.09	1081.80
616.43	1083.90
616.78	1097.95
617.13	1086.71
617.47	1095.14
617.82	1096.31
618.17	1094.90
618.51	1090.46
618.86	1095.84
619.21	1090.69
619.55	1094.43
619.90	1092.56
620.25	1093.50
620.59	1088.82
620.94	1093.97
621.29	1094.67
621.63	1093.26
621.98	1093.97
622.32	1100.75
622.67	1096.54
623.02	1085.77
623.36	1092.09
623.71	1087.41
624.05	1088.12
624.40	1088.82
624.75	1096.78
625.09	1092.33
625.44	1090.92
625.78	1086.94
626.13	1079.46
626.48	1080.63
626.82	1089.75
627.17	1089.75
627.51	1096.78
627.86	1112.22
628.20	1113.39
628.55	1106.61
628.89	1104.03
629.24	1095.37
629.58	1097.01
629.93	1090.92
630.28	1081.33
630.62	1086.01
630.97	1089.75
631.31	1084.60
631.66	1090.92
632.00	1093.26
632.35	1091.16
632.69	1089.99
633.04	1088.58
633.38	1085.77
633.73	1086.01
634.07	1080.86
634.42	1085.31
634.76	1086.01
635.11	1076.88
635.45	1076.65
635.79	1076.18
636.14	1075.48
636.48	1071.97
636.83	1077.35
637.17	1080.16
637.52	1080.39
637.86	1078.52
638.21	1083.20
638.55	1082.03
638.89	1088.35
639.24	1092.80
639.58	1089.52
639.93	1085.54
640.27	1095.14
640.61	1090.22
640.96	1086.94
641.30	1081.56
641.65	1074.07
641.99	1072.20
642.33	1071.73
642.68	1074.54
643.02	1072.20
643.37	1078.99
643.71	1080.63
644.05	1079.46
644.40	1081.80
644.74	1086.24
645.08	1086.71
645.43	1072.90
645.77	1067.75
646.11	1063.07
646.46	1070.80
646.80	1070.09
647.14	1079.46
647.49	1087.88
647.83	1097.48
648.17	1086.01
648.52	1085.77
648.86	1085.31
649.20	1081.56
649.55	1067.28
649.89	1064.94
650.23	1057.92
650.57	1063.07
650.92	1071.73
651.26	1079.22
651.60	1094.90
651.95	1102.63
652.29	1099.58
652.63	1097.01
652.97	1093.50
653.32	1080.63
653.66	1082.03
654.00	1076.88
654.34	1078.75
654.69	1074.07
655.03	1084.37
655.37	1089.29
655.71	1086.24
656.05	1081.56
656.40	1087.65
656.74	1086.48
657.08	1076.65
657.42	1077.11
657.76	1074.54
658.11	1076.41
658.45	1080.16
658.79	1077.11
659.13	1079.69
659.47	1087.88
659.82	1091.86
660.16	1078.75
660.50	1082.26
660.84	1082.26
661.18	1072.43
661.52	1070.09
661.87	1069.16
662.21	1078.75
662.55	1092.33
662.89	1104.03
663.23	1097.71
663.57	1097.48
663.91	1092.56
664.25	1080.39
664.60	1076.88
664.94	1076.41
665.28	1079.92
665.62	1071.97
665.96	1067.99
666.30	1066.82
666.64	1071.03
666.98	1079.22
667.32	1086.01
667.66	1086.94
668.01	1083.43
668.35	1076.41
668.69	1069.39
669.03	1069.39
669.37	1078.05
669.71	1086.48
670.05	1100.52
670.39	1105.90
670.73	1101.22
671.07	1091.39
671.41	1082.03
671.75	1083.90
672.09	1074.07
672.43	1079.92
672.77	1079.69
673.11	1071.97
673.45	1063.77
673.79	1067.05
674.13	1053.94
674.47	1059.09
674.81	1069.16
675.15	1064.71
675.49	1071.03
675.83	1086.94
676.17	1083.67
676.51	1086.71
676.85	1096.54
677.19	1094.20
677.53	1084.84
677.87	1094.67
678.21	1086.24
678.55	1083.67
678.89	1074.77
679.23	1078.99
679.57	1070.80
679.90	1073.84
680.24	1078.99
680.58	1097.01
680.92	1096.07
681.26	1102.39
681.60	1107.07
681.94	1090.46
682.28	1080.16
682.62	1081.80
682.96	1071.50
683.29	1069.16
683.63	1078.28
683.97	1082.50
684.31	1083.90
684.65	1088.12
684.99	1089.75
685.33	1088.82
685.67	1083.20
686.00	1082.03
686.34	1076.65
686.68	1070.56
687.02	1068.92
687.36	1063.54
687.70	1061.43
688.03	1066.11
688.37	1070.33
688.71	1071.50
689.05	1073.14
689.39	1068.69
689.72	1067.75
690.06	1068.69
690.40	1077.58
690.74	1092.56
691.08	1102.39
691.41	1108.24
691.75	1106.61
692.09	1111.99
692.43	1110.35
692.76	1108.24
693.10	1112.46
693.44	1118.78
693.78	1112.22
694.11	1099.35
694.45	1100.29
694.79	1089.75
695.13	1084.37
695.46	1079.69
695.80	1086.01
696.14	1084.60
696.48	1094.67
696.81	1095.60
697.15	1084.14
697.49	1088.35
697.82	1078.28
698.16	1070.33
698.50	1068.22
698.83	1075.94
699.17	1064.48
699.51	1080.63
699.84	1086.24
700.18	1074.77
700.52	1075.01
700.85	1081.56
701.19	1072.90
701.53	1066.35
701.86	1070.56
702.20	1074.54
702.54	1072.43
702.87	1080.39
703.21	1075.94
703.55	1080.16
703.88	1073.84
704.22	1077.11
704.55	1073.37
704.89	1081.33
705.23	1087.65
705.56	1086.71
705.90	1083.67
706.23	1089.99
706.57	1091.39
706.91	1087.65
707.24	1096.78
707.58	1103.80
707.91	1089.75
708.25	1086.01
708.58	1083.67
708.92	1082.50
709.26	1076.88
709.59	1079.22
709.93	1082.50
710.26	1090.22
710.60	1086.24
710.93	1082.50
711.27	1078.52
711.60	1081.80
711.94	1075.94
712.27	1087.41
712.61	1088.35
712.94	1100.52
713.28	1093.73
713.61	1086.94
713.95	1075.94
714.28	1071.03
714.62	1068.45
714.95	1071.50
715.29	1081.56
715.62	1083.20
715.96	1090.22
716.29	1088.12
716.63	1084.60
716.96	1078.05
717.29	1072.67
717.63	1078.75
717.96	1083.20
718.30	1078.99
718.63	1084.60
718.97	1085.54
719.30	1086.01
719.63	1078.28
719.97	1083.90
720.30	1085.54
720.64	1091.39
720.97	1083.67
721.30	1086.71
721.64	1082.03
721.97	1080.16
722.31	1081.80
722.64	1087.41
722.97	1088.82
723.31	1093.03
723.64	1087.88
723.97	1076.65
724.31	1079.22
724.64	1075.01
724.98	1076.88
725.31	1075.01
725.64	1078.52
725.98	1082.97
726.31	1088.12
726.64	1090.69
726.97	1096.54
727.31	1100.52
727.64	1092.56
727.97	1095.14
728.31	1091.16
728.64	1090.22
728.97	1095.37
729.31	1087.18
729.64	1080.39
729.97	1084.14
730.30	1078.99
730.64	1085.77
730.97	1087.88
731.30	1090.69
731.63	1091.63
731.97	1090.22
732.30	1072.90
732.63	1074.31
732.96	1072.90
733.30	1074.07
733.63	1076.18
733.96	1090.46
734.29	1089.52
734.63	1093.73
734.96	1081.80
735.29	1079.22
735.62	1069.62
735.95	1068.69
736.29	1055.58
736.62	1057.45
736.95	1069.62
737.28	1074.07
737.61	1081.56
737.94	1086.01
738.28	1093.97
738.61	1086.94
738.94	1089.99
739.27	1091.39
739.60	1097.95
739.93	1092.09
740.27	1092.33
740.60	1084.60
740.93	1075.24
741.26	1074.54
741.59	1072.90
741.92	1078.99
742.25	1067.75
742.58	1076.88
742.91	1079.69
743.25	1091.86
743.58	1075.71
743.91	1079.22
744.24	1086.01
744.57	1089.99
744.90	1085.07
745.23	1102.63
745.56	1104.73
745.89	1098.41
746.22	1089.75
746.55	1086.01
746.88	1085.54
747.21	1099.35
747.54	1106.84
747.87	1112.22
748.20	1110.58
748.53	1114.10
748.87	1100.29
749.20	1099.12
749.53	1095.60
749.86	1090.69
750.19	1086.94
750.52	1100.52
750.85	1086.94
751.18	1090.69
751.51	1100.05
751.84	1093.03
752.16	1086.48
752.49	1094.20
752.82	1086.01
753.15	1091.63
753.48	1095.14
753.81	1090.22
754.14	1083.67
754.47	1090.69
754.80	1079.69
755.13	1075.94
755.46	1081.80
755.79	1086.48
756.12	1079.22
756.45	1074.77
756.78	1084.84
757.11	1091.16
757.43	1089.05
757.76	1090.92
758.09	1104.26
758.42	1098.88
758.75	1090.46
759.08	1090.22
759.41	1093.73
759.74	1082.03
760.07	1083.20
760.39	1086.48
760.72	1097.24
761.05	1095.60
761.38	1108.01
761.71	1114.10
762.04	1117.14
762.36	1104.03
762.69	1096.54
763.02	1089.75
763.35	1073.14
763.68	1071.03
764.01	1071.97
764.33	1075.01
764.66	1070.09
764.99	1083.20
765.32	1081.09
765.65	1073.84
765.97	1082.03
766.30	1075.94
766.63	1078.05
766.96	1069.16
767.28	1079.22
767.61	1076.18
767.94	1086.48
768.27	1079.46
768.59	1085.07
768.92	1088.35
769.25	1086.94
769.58	1091.86
769.90	1094.90
770.23	1095.14
770.56	1098.88
770.89	1102.63
771.21	1095.60
771.54	1099.82
771.87	1101.69
772.19	1099.35
772.52	1094.20
772.85	1097.48
773.17	1087.41
773.50	1082.73
773.83	1074.07
774.15	1073.37
774.48	1075.01
774.81	1075.94
775.13	1079.92
775.46	1076.18
775.79	1077.82
776.11	1077.35
776.44	1080.39
776.77	1086.24
777.09	1080.63
777.42	1081.80
777.74	1088.58
778.07	1081.56
778.40	1077.35
778.72	1087.18
779.05	1082.50
779.37	1076.65
779.70	1088.82
780.03	1083.20
780.35	1084.60
780.68	1089.52
781.00	1082.03
781.33	1074.07
781.65	1076.88
781.98	1077.11
782.31	1079.46
782.63	1079.92
782.96	1078.99
783.28	1084.14
783.61	1074.77
783.93	1067.28
784.26	1069.39
784.58	1069.86
784.91	1066.11
785.23	1077.11
785.56	1075.94
785.88	1072.67
786.21	1071.73
786.53	1069.16
786.86	1067.05
787.18	1076.41
787.51	1080.86
787.83	1082.73
788.16	1091.16
788.48	1093.03
788.81	1090.46
789.13	1087.88
789.46	1092.56
789.78	1092.09
790.10	1084.14
790.43	1092.80
790.75	1093.26
791.08	1093.50
791.40	1092.09
791.73	1106.84
792.05	1100.52
792.37	1096.31
792.70	1087.18
793.02	1085.31
793.35	1077.11
793.67	1069.16
793.99	1082.50
794.32	1085.07
794.64	1088.12
794.96	1090.22
795.29	1091.16
795.61	1088.58
795.93	1093.73
796.26	1090.69
796.58	1091.86
796.91	1092.09
797.23	1079.69
797.55	1078.05
797.87	1070.33
798.20	1062.60
798.52	1064.01
798.84	1074.77
799.17	1071.50
799.49	1078.05
799.81	1072.43
800.14	1078.75
800.46	1078.05
800.78	1075.24
801.10	1077.82
801.43	1087.41
801.75	1080.86
802.07	1078.75
802.40	1083.67
802.72	1078.99
803.04	1078.99
803.36	1083.67
803.69	1081.09
804.01	1077.82
804.33	1083.43
804.65	1091.63
804.97	1085.54
805.30	1101.92
805.62	1108.24
805.94	1100.75
806.26	1090.69
806.58	1093.03
806.91	1069.86
807.23	1061.67
807.55	1062.84
807.87	1065.18
808.19	1065.65
808.52	1075.01
808.84	1077.82
809.16	1076.18
809.48	1073.84
809.80	1070.33
810.12	1070.33
810.44	1075.01
810.77	1073.37
811.09	1072.43
811.41	1076.88
811.73	1066.58
812.05	1058.86
812.37	1061.67
812.69	1071.50
813.01	1072.20
813.33	1082.50
813.66	1083.20
813.98	1083.90
814.30	1071.26
814.62	1072.43
814.94	1075.71
815.26	1074.54
815.58	1066.82
815.90	1077.35
816.22	1070.56
816.54	1069.62
816.86	1080.86
817.18	1091.39
817.50	1090.69
817.82	1086.24
818.14	1085.77
818.46	1079.92
818.78	1074.77
819.10	1083.67
819.42	1100.29
819.74	1102.16
820.06	1100.05
820.38	1101.22
820.70	1085.77
821.02	1063.54
821.34	1052.30
821.66	1054.65
821.98	1059.33
822.30	1076.41
822.62	1087.88
822.94	1098.18
823.26	1097.48
823.58	1091.63
823.90	1077.58
824.22	1077.58
824.54	1078.99
824.86	1085.31
825.18	1090.69
825.50	1093.50
825.81	1090.92
826.13	1082.73
826.45	1071.73
826.77	1075.01
827.09	1073.60
827.41	1078.52
827.73	1086.48
828.05	1096.54
828.36	1095.14
828.68	1100.52
829.00	1100.05
829.32	1103.56
829.64	1098.41
829.96	1094.67
830.28	1089.99
830.59	1083.43
830.91	1082.03
831.23	1085.07
831.55	1079.22
831.87	1082.26
832.19	1088.82
832.50	1084.37
832.82	1076.65
833.14	1079.92
833.46	1074.07
833.78	1077.11
834.09	1081.80
834.41	1092.56
834.73	1097.01
835.05	1096.78
835.36	1098.65
835.68	1090.22
836.00	1078.99
836.32	1075.94
836.63	1078.05
836.95	1074.31
837.27	1072.43
837.59	1071.97
837.90	1063.77
838.22	1058.62
838.54	1061.90
838.85	1068.92
839.17	1081.56
839.49	1083.90
839.80	1092.09
840.12	1083.43
840.44	1084.84
840.76	1082.73
841.07	1088.58
841.39	1085.07
841.71	1089.52
842.02	1077.35
842.34	1075.71
842.65	1074.07
842.97	1079.46
843.29	1075.94
843.60	1083.67
843.92	1076.88
844.24	1089.29
844.55	1080.16
844.87	1078.28
845.18	1083.20
845.50	1090.46
845.82	1079.92
846.13	1088.82
846.45	1087.65
846.76	1076.88
847.08	1068.22
847.40	1071.97
847.71	1062.84
848.03	1065.88
848.34	1072.90
848.66	1080.86
848.97	1080.86
849.29	1078.99
849.60	1094.90
849.92	1098.18
850.24	1084.37
850.55	1084.14
850.87	1086.24
851.18	1083.43
851.50	1082.50
851.81	1085.31
852.13	1085.07
852.44	1079.69
852.76	1071.03
853.07	1073.84
853.39	1076.65
853.70	1071.03
854.01	1073.60
854.33	1079.69
854.64	1067.28
854.96	1071.97
855.27	1075.71
855.59	1080.86
855.90	1076.18
856.22	1084.60
856.53	1075.48
856.84	1069.16
857.16	1063.07
857.47	1055.82
857.79	1060.26
858.10	1065.41
858.41	1071.50
858.73	1080.16
859.04	1077.11
859.36	1075.48
859.67	1076.18
859.98	1066.11
860.30	1065.18
860.61	1079.69
860.92	1076.88
861.24	1083.90
861.55	1097.24
861.87	1097.71
862.18	1089.99
862.49	1091.63
862.81	1085.54
863.12	1086.24
863.43	1080.39
863.74	1084.37
864.06	1082.50
864.37	1085.31
864.68	1084.84
865.00	1086.71
865.31	1087.65
865.62	1079.92
865.94	1077.11
866.25	1082.73
866.56	1081.56
866.87	1089.29
867.19	1091.16
867.50	1093.50
867.81	1077.11
868.12	1073.84
868.44	1065.41
868.75	1064.48
869.06	1054.88
869.37	1062.14
869.68	1072.90
870.00	1071.03
870.31	1072.90
870.62	1090.22
870.93	1086.24
871.24	1077.58
871.56	1075.71
871.87	1080.63
872.18	1073.14
872.49	1072.43
872.80	1077.58
873.12	1082.97
873.43	1074.54
873.74	1073.84
874.05	1081.80
874.36	1081.56
874.67	1080.16
874.98	1090.46
875.29	1091.86
875.61	1084.84
875.92	1086.94
876.23	1082.26
876.54	1082.26
876.85	1086.71
877.16	1088.58
877.47	1091.39
877.78	1091.16
878.09	1083.43
878.40	1077.58
878.72	1074.77
879.03	1071.03
879.34	1064.24
879.65	1060.50
879.96	1061.20
880.27	1060.96
880.58	1067.52
880.89	1081.80
881.20	1096.54
881.51	1096.31
881.82	1094.43
882.13	1082.73
882.44	1081.09
882.75	1069.16
883.06	1071.26
883.37	1082.50
883.68	1082.03
883.99	1081.09
884.30	1084.14
884.61	1080.63
884.92	1069.86
885.23	1071.50
885.54	1072.90
885.85	1071.50
886.16	1072.67
886.47	1083.20
886.78	1089.99
887.08	1090.92
887.39	1097.71
887.70	1106.14
888.01	1100.75
888.32	1100.52
888.63	1090.22
888.94	1082.97
889.25	1080.86
889.56	1074.77
889.87	1073.37
890.17	1078.52
890.48	1080.39
890.79	1072.43
891.10	1078.75
891.41	1086.24
891.72	1089.52
892.03	1091.63
892.34	1094.67
892.64	1092.09
892.95	1070.80
893.26	1063.54
893.57	1075.71
893.88	1071.73
894.18	1071.50
894.49	1086.48
894.80	1089.05
895.11	1079.46
895.42	1078.99
895.72	1082.03
896.03	1075.48
896.34	1078.05
896.65	1082.73
896.96	1070.33
897.26	1065.88
897.57	1063.31
897.88	1066.82
898.19	1067.05
898.49	1088.12
898.80	1100.29
899.11	1102.86
899.41	1096.78
899.72	1092.80
900.03	1080.86
900.34	1067.99
900.64	1070.80
900.95	1070.09
901.26	1059.56
901.56	1064.71
901.87	1067.99
902.18	1071.97
902.48	1077.35
902.79	1086.71
903.10	1087.18
903.40	1091.86
903.71	1096.31
904.02	1093.73
904.32	1092.80
904.63	1093.26
904.94	1089.99
905.24	1082.26
905.55	1080.16
905.85	1063.54
906.16	1060.03
906.47	1054.18
906.77	1057.92
907.08	1066.58
907.38	1076.65
907.69	1077.82
908.00	1082.97
908.30	1079.69
908.61	1067.52
908.91	1073.60
909.22	1075.94
909.52	1083.90
909.83	1081.80
910.14	1089.29
910.44	1086.71
910.75	1089.52
911.05	1087.18
911.36	1085.31
911.66	1086.48
911.97	1093.03
912.27	1088.35
912.58	1091.86
912.88	1095.84
913.19	1096.07
913.49	1092.56
913.80	1102.86
914.10	1096.54
914.41	1082.97
914.71	1076.18
915.01	1080.39
915.32	1087.65
915.62	1074.77
915.93	1088.82
916.23	1087.41
916.54	1087.88
916.84	1071.50
917.15	1075.71
917.45	1070.09
917.75	1078.99
918.06	1070.33
918.36	1072.67
918.67	1077.35
918.97	1086.01
919.27	1084.60
919.58	1088.58
919.88	1088.82
920.18	1098.88
920.49	1089.29
920.79	1083.90
921.10	1089.75
921.40	1086.94
921.70	1079.22
922.01	1084.60
922.31	1084.84
922.61	1078.99
922.92	1076.18
923.22	1071.03
923.52	1076.88
923.82	1086.01
924.13	1084.14
924.43	1086.48
924.73	1091.86
925.04	1086.24
925.34	1069.39
925.64	1072.90
925.94	1077.82
926.25	1074.77
926.55	1078.75
926.85	1083.90
927.15	1079.22
927.46	1080.86
927.76	1078.75
928.06	1071.50
928.36	1075.01
928.67	1070.80
928.97	1070.56
929.27	1071.26
929.57	1068.92
929.87	1070.80
930.18	1079.46
930.48	1077.58
930.78	1086.71
931.08	1090.46
931.38	1089.05
931.69	1083.67
931.99	1085.31
932.29	1080.63
932.59	1082.73
932.89	1081.33
933.19	1073.60
933.49	1072.67
933.80	1076.65
934.10	1080.39
934.40	1083.43
934.70	1092.56
935.00	1081.80
935.30	1076.65
935.60	1066.11
935.90	1063.31
936.20	1071.50
936.50	1070.80
936.81	1065.41
937.11	1071.26
937.41	1075.48
937.71	1066.35
938.01	1074.54
938.31	1083.90
938.61	1083.67
938.91	1075.48
939.21	1070.56
939.51	1076.88
939.81	1068.45
940.11	1064.94
940.41	1072.90
940.71	1076.65
941.01	1074.31
941.31	1081.80
941.61	1076.41
941.91	1075.24
942.21	1081.09
942.51	1078.05
942.81	1079.92
943.11	1086.94
943.41	1084.84
943.71	1073.37
944.01	1075.94
944.31	1076.41
944.61	1082.73
944.90	1077.35
945.20	1082.26
945.50	1075.71
945.80	1074.07
946.10	1071.26
946.40	1080.63
946.70	1083.67
947.00	1083.43
947.30	1075.48
947.60	1075.24
947.89	1072.20
948.19	1074.07
948.49	1081.80
948.79	1094.20
949.09	1097.48
949.39	1092.56
949.69	1096.31
949.98	1096.31
950.28	1085.54
950.58	1082.73
950.88	1081.56
951.18	1076.65
951.48	1071.73
951.77	1067.28
952.07	1070.09
952.37	1080.86
952.67	1074.31
952.97	1072.67
953.26	1078.05
953.56	1069.62
953.86	1059.33
954.16	1068.69
954.45	1066.82
954.75	1076.65
955.05	1076.65
955.35	1081.33
955.64	1081.56
955.94	1079.22
956.24	1074.31
956.54	1068.45
956.83	1077.58
957.13	1073.84
957.43	1076.65
957.72	1071.97
958.02	1088.82
958.32	1073.84
958.61	1079.69
958.91	1082.97
959.21	1085.07
959.50	1071.50
959.80	1086.01
960.10	1088.82
960.39	1094.20
960.69	1095.60
960.99	1103.09
961.28	1091.39
961.58	1082.50
961.87	1078.99
962.17	1069.62
962.47	1067.99
962.76	1065.41
963.06	1060.50
963.36	1055.58
963.65	1055.11
963.95	1061.43
964.24	1066.11
964.54	1072.67
964.83	1076.88
965.13	1082.03
965.42	1080.39
965.72	1092.80
966.02	1091.39
966.31	1082.73
966.61	1086.48
966.90	1088.35
967.20	1069.39
967.49	1078.05
967.79	1088.58
968.08	1086.24
968.38	1078.52
968.67	1077.82
968.97	1069.16
969.26	1066.11
969.56	1070.80
969.85	1071.50
970.15	1076.88
970.44	1074.31
970.74	1072.43
971.03	1068.22
971.32	1072.90
971.62	1075.94
971.91	1082.50
972.21	1082.97
972.50	1088.35
972.80	1093.03
973.09	1103.33
973.38	1105.44
973.68	1105.20
973.97	1102.39
974.27	1103.09
974.56	1097.48
974.85	1096.54
975.15	1100.29
975.44	1090.92
975.73	1088.35
976.03	1083.43
976.32	1078.28
976.61	1073.14
976.91	1077.35
977.20	1075.48
977.49	1079.69
977.79	1082.50
978.08	1081.33
978.37	1087.65
978.67	1084.84
978.96	1077.58
979.25	1076.88
979.55	1072.67
979.84	1073.14
980.13	1070.33
980.42	1067.28
980.72	1070.33
981.01	1082.97
981.30	1085.77
981.59	1075.24
981.89	1088.58
982.18	1078.05
982.47	1075.01
982.76	1071.97
983.06	1086.71
983.35	1070.80
983.64	1073.84
983.93	1079.22
984.22	1078.99
984.52	1082.26
984.81	1083.90
985.10	1094.20
985.39	1077.35
985.68	1082.26
985.97	1078.28
986.27	1092.09
986.56	1091.16
986.85	1104.50
987.14	1098.65
987.43	1098.88
987.72	1092.80
988.01	1093.97
988.31	1091.39
988.60	1083.20
988.89	1085.54
989.18	1081.33
989.47	1079.92
989.76	1086.71
990.05	1092.80
990.34	1092.33
990.63	1091.39
990.92	1090.92
991.21	1079.92
991.51	1068.92
991.80	1062.14
992.09	1074.07
992.38	1073.37
992.67	1075.01
992.96	1091.63
993.25	1090.46
993.54	1084.14
993.83	1075.01
994.12	1077.11
994.41	1069.16
994.70	1072.20
994.99	1068.92
995.28	1084.14
995.57	1083.43
995.86	1083.90
996.15	1087.18
996.44	1091.39
996.73	1084.84
997.02	1088.12
997.31	1096.31
997.59	1095.14
997.88	1086.94
998.17	1086.48
998.46	1082.26
998.75	1083.90
999.04	1085.77
999.33	1090.92
999.62	1084.14
999.91	1083.43
1000.20	1069.39
1000.49	1066.11
1000.77	1066.35
1001.06	1071.03
1001.35	1077.58
1001.64	1083.43
1001.93	1081.33
1002.22	1089.75
1002.51	1095.37
1002.79	1093.03
1003.08	1090.22
1003.37	1085.77
1003.66	1083.20
1003.95	1075.48
1004.23	1077.58
1004.52	1082.97
1004.81	1093.73
1005.10	1088.12
1005.39	1094.90
1005.67	1092.56
1005.96	1089.29
1006.25	1080.63
1006.54	1079.22
1006.83	1074.31
1007.11	1084.37
1007.40	1086.48
1007.69	1094.67
1007.97	1097.48
1008.26	1103.33
1008.55	1102.63
1008.84	1105.44
1009.12	1094.67
1009.41	1101.69
1009.70	1090.22
1009.98	1082.73
1010.27	1072.20
1010.56	1079.92
1010.85	1067.75
1011.13	1073.37
1011.42	1068.92
1011.71	1067.99
1011.99	1070.33
1012.28	1081.09
1012.56	1081.09
1012.85	1076.65
1013.14	1087.65
1013.42	1093.26
1013.71	1091.86
1014.00	1087.65
1014.28	1093.26
1014.57	1087.65
1014.85	1071.03
1015.14	1064.48
1015.43	1062.37
1015.71	1071.50
1016.00	1076.41
1016.28	1087.41
1016.57	1082.03
1016.85	1088.35
1017.14	1086.71
1017.43	1087.18
1017.71	1087.65
1018.00	1093.26
1018.28	1094.43
1018.57	1084.60
1018.85	1080.86
1019.14	1071.97
1019.42	1072.20
1019.71	1065.41
1019.99	1073.60
1020.28	1082.50
1020.56	1085.77
1020.85	1078.99
1021.13	1085.77
1021.42	1089.99
1021.70	1082.26
1021.99	1088.35
1022.27	1093.50
1022.55	1101.22
1022.84	1066.11
>>>>>End Processed Spectral Data<<<<<
