SpectraSuite Data File
++++++++++++++++++++++++++++++++++++
Date: Mon Aug 26 10:25:59 PDT 2019
User: corrico
Dark Spectrum Present: No
Reference Spectrum Present: No
Number of Sampled Component Spectra: 1
Spectrometers: USB2+H06089
Integration Time (usec): 10000 (USB2+H06089)
Spectra Averaged: 2 (USB2+H06089)
Boxcar Smoothing: 2 (USB2+H06089)
Correct for Electrical Dark: No (USB2+H06089)
Strobe/Lamp Enabled: No (USB2+H06089)
Correct for Detector Non-linearity: No (USB2+H06089)
Correct for Stray Light: No (USB2+H06089)
Number of Pixels in Processed Spectrum: 2048
>>>>>Begin Processed Spectral Data<<<<<
339.70	1043.88
340.07	1043.88
340.45	1008.77
340.82	975.07
341.19	956.81
341.57	934.81
341.94	927.32
342.31	916.32
342.69	923.34
343.06	908.83
343.43	901.81
343.81	903.68
344.18	907.43
344.55	906.49
344.93	912.34
345.30	928.26
345.67	934.34
346.04	938.79
346.42	954.94
346.79	965.00
347.16	961.49
347.54	957.98
347.91	963.83
348.28	967.11
348.65	975.77
349.03	985.13
349.40	1005.73
349.77	1019.30
350.14	1029.37
350.52	1034.28
350.89	1044.82
351.26	1044.58
351.63	1055.82
352.01	1055.58
352.38	1058.86
352.75	1060.50
353.12	1065.41
353.50	1065.41
353.87	1073.60
354.24	1087.41
354.61	1085.31
354.98	1093.26
355.36	1085.54
355.73	1084.37
356.10	1085.77
356.47	1091.63
356.84	1086.24
357.22	1088.58
357.59	1084.14
357.96	1078.28
358.33	1082.26
358.70	1085.77
359.08	1085.07
359.45	1091.86
359.82	1079.69
360.19	1080.39
360.56	1076.41
360.94	1081.09
361.31	1071.73
361.68	1086.71
362.05	1081.80
362.42	1079.22
362.79	1074.31
363.16	1075.24
363.54	1054.18
363.91	1050.67
364.28	1049.73
364.65	1060.50
365.02	1063.07
365.39	1080.39
365.76	1075.24
366.14	1074.54
366.51	1065.41
366.88	1061.90
367.25	1045.99
367.62	1051.84
367.99	1051.84
368.36	1042.94
368.73	1042.47
369.10	1056.05
369.48	1056.52
369.85	1056.28
370.22	1064.01
370.59	1066.82
370.96	1066.82
371.33	1059.56
371.70	1075.71
372.07	1076.65
372.44	1078.05
372.81	1079.46
373.18	1080.16
373.55	1068.69
373.93	1064.01
374.30	1057.69
374.67	1056.75
375.04	1055.11
375.41	1050.20
375.78	1058.86
376.15	1068.69
376.52	1067.75
376.89	1079.46
377.26	1080.16
377.63	1079.46
378.00	1074.54
378.37	1079.46
378.74	1078.05
379.11	1083.90
379.48	1088.82
379.85	1088.12
380.22	1079.92
380.59	1071.97
380.96	1072.67
381.33	1066.11
381.70	1067.75
382.07	1068.45
382.44	1064.71
382.81	1059.79
383.18	1060.50
383.55	1055.82
383.92	1056.52
384.29	1066.35
384.66	1061.67
385.03	1060.96
385.40	1066.35
385.77	1069.62
386.14	1072.90
386.51	1075.24
386.88	1071.26
387.25	1074.07
387.62	1074.77
387.99	1062.60
388.36	1064.71
388.73	1060.73
389.10	1055.35
389.46	1064.94
389.83	1074.77
390.20	1082.97
390.57	1079.22
390.94	1074.77
391.31	1059.79
391.68	1062.37
392.05	1054.65
392.42	1064.94
392.79	1074.54
393.16	1078.99
393.53	1064.24
393.89	1055.35
394.26	1053.71
394.63	1040.13
395.00	1038.73
395.37	1048.33
395.74	1060.96
396.11	1070.56
396.48	1085.54
396.84	1078.52
397.21	1078.75
397.58	1073.14
397.95	1066.11
398.32	1059.33
398.69	1068.69
399.06	1071.26
399.42	1068.69
399.79	1071.73
400.16	1075.48
400.53	1084.37
400.90	1084.37
401.27	1089.75
401.64	1093.03
402.00	1092.56
402.37	1079.69
402.74	1083.90
403.11	1089.29
403.48	1087.88
403.84	1086.24
404.21	1093.50
404.58	1093.97
404.95	1093.03
405.32	1084.14
405.68	1090.46
406.05	1072.90
406.42	1062.37
406.79	1062.60
407.16	1066.58
407.52	1057.92
407.89	1079.22
408.26	1081.33
408.63	1080.39
408.99	1080.86
409.36	1080.16
409.73	1067.28
410.10	1072.90
410.47	1068.22
410.83	1066.35
411.20	1071.26
411.57	1069.62
411.94	1061.20
412.30	1065.18
412.67	1067.75
413.04	1059.33
413.40	1064.94
413.77	1070.33
414.14	1061.20
414.51	1064.01
414.87	1076.65
415.24	1077.82
415.61	1082.73
415.97	1096.54
416.34	1099.12
416.71	1095.84
417.08	1098.88
417.44	1092.09
417.81	1084.14
418.18	1084.60
418.54	1077.35
418.91	1071.03
419.28	1067.05
419.64	1065.88
420.01	1068.69
420.38	1072.67
420.74	1080.16
421.11	1081.09
421.48	1080.86
421.84	1073.37
422.21	1074.77
422.58	1072.20
422.94	1064.94
423.31	1060.96
423.68	1054.41
424.04	1056.28
424.41	1050.43
424.77	1063.77
425.14	1060.26
425.51	1062.84
425.87	1054.41
426.24	1054.41
426.61	1057.45
426.97	1068.22
427.34	1072.43
427.70	1081.80
428.07	1085.54
428.44	1082.97
428.80	1080.16
429.17	1079.92
429.53	1073.60
429.90	1063.77
430.27	1068.69
430.63	1067.52
431.00	1062.14
431.36	1056.28
431.73	1064.71
432.09	1056.52
432.46	1058.86
432.83	1067.75
433.19	1076.41
433.56	1080.86
433.92	1080.63
434.29	1080.16
434.65	1064.48
435.02	1069.39
435.38	1076.88
435.75	1074.54
436.11	1073.84
436.48	1084.60
436.84	1085.07
437.21	1072.67
437.57	1080.63
437.94	1089.29
438.30	1090.46
438.67	1084.37
439.03	1084.14
439.40	1077.58
439.76	1074.31
440.13	1071.50
440.49	1071.73
440.86	1075.24
441.22	1073.37
441.59	1076.65
441.95	1071.50
442.32	1075.71
442.68	1076.65
443.05	1082.97
443.41	1076.88
443.78	1082.26
444.14	1079.46
444.51	1063.54
444.87	1062.60
445.24	1054.65
445.60	1059.33
445.96	1063.31
446.33	1086.01
446.69	1089.52
447.06	1097.95
447.42	1099.12
447.79	1097.48
448.15	1092.56
448.51	1086.71
448.88	1086.24
449.24	1087.41
449.61	1090.92
449.97	1083.43
450.33	1088.58
450.70	1089.99
451.06	1090.22
451.43	1099.35
451.79	1099.82
452.15	1100.75
452.52	1098.18
452.88	1079.46
453.24	1061.43
453.61	1058.86
453.97	1053.01
454.34	1052.54
454.70	1063.54
455.06	1060.03
455.43	1062.84
455.79	1058.16
456.15	1060.96
456.52	1059.33
456.88	1063.77
457.24	1064.24
457.61	1071.03
457.97	1070.33
458.33	1067.52
458.70	1068.69
459.06	1064.48
459.42	1071.26
459.79	1077.11
460.15	1085.54
460.51	1081.80
460.88	1093.50
461.24	1085.31
461.60	1077.11
461.96	1071.03
462.33	1079.92
462.69	1076.18
463.05	1076.88
463.42	1083.90
463.78	1093.73
464.14	1088.58
464.50	1087.65
464.87	1090.22
465.23	1085.54
465.59	1076.65
465.95	1079.46
466.32	1069.86
466.68	1060.50
467.04	1065.41
467.40	1068.92
467.77	1061.43
468.13	1067.99
468.49	1075.48
468.85	1065.65
469.22	1069.16
469.58	1083.67
469.94	1078.99
470.30	1077.82
470.66	1080.63
471.03	1074.31
471.39	1067.05
471.75	1071.03
472.11	1080.63
472.47	1088.58
472.84	1096.78
473.20	1094.90
473.56	1093.26
473.92	1075.24
474.28	1063.77
474.65	1059.56
475.01	1064.71
475.37	1066.35
475.73	1072.90
476.09	1081.33
476.45	1086.48
476.81	1086.48
477.18	1088.35
477.54	1101.92
477.90	1092.80
478.26	1070.09
478.62	1062.37
478.98	1058.62
479.34	1041.07
479.71	1053.48
480.07	1070.56
480.43	1067.28
480.79	1070.09
481.15	1077.58
481.51	1074.31
481.87	1063.77
482.23	1071.73
482.59	1069.16
482.96	1072.67
483.32	1076.88
483.68	1086.01
484.04	1081.33
484.40	1091.63
484.76	1088.58
485.12	1084.84
485.48	1081.56
485.84	1090.22
486.20	1088.12
486.56	1082.97
486.92	1078.99
487.28	1089.29
487.64	1084.60
488.00	1082.26
488.37	1092.56
488.73	1095.84
489.09	1097.95
489.45	1103.09
489.81	1104.97
490.17	1095.84
490.53	1093.97
490.89	1083.20
491.25	1079.22
491.61	1075.24
491.97	1074.31
492.33	1072.43
492.69	1071.97
493.05	1068.45
493.41	1066.82
493.77	1064.71
494.13	1066.82
494.49	1082.03
494.85	1075.01
495.21	1074.54
495.57	1080.86
495.93	1071.50
496.29	1057.69
496.64	1067.28
497.00	1075.01
497.36	1076.65
497.72	1097.01
498.08	1104.73
498.44	1103.80
498.80	1098.65
499.16	1095.60
499.52	1085.07
499.88	1076.65
500.24	1082.03
500.60	1078.05
500.96	1081.56
501.32	1082.50
501.68	1089.99
502.03	1082.73
502.39	1091.39
502.75	1087.88
503.11	1087.18
503.47	1078.28
503.83	1077.11
504.19	1065.88
504.55	1069.62
504.91	1075.01
505.26	1075.01
505.62	1084.37
505.98	1097.48
506.34	1094.90
506.70	1082.03
507.06	1085.77
507.42	1085.07
507.78	1077.11
508.13	1067.75
508.49	1071.03
508.85	1064.48
509.21	1067.99
509.57	1066.35
509.93	1074.31
510.28	1071.03
510.64	1086.01
511.00	1076.18
511.36	1087.88
511.72	1093.26
512.07	1105.20
512.43	1096.07
512.79	1103.56
513.15	1094.43
513.51	1093.97
513.86	1089.05
514.22	1089.99
514.58	1083.90
514.94	1078.28
515.30	1075.94
515.65	1066.11
516.01	1059.79
516.37	1064.24
516.73	1080.39
517.08	1082.97
517.44	1092.80
517.80	1107.78
518.16	1106.14
518.51	1102.63
518.87	1102.86
519.23	1109.88
519.59	1093.03
519.94	1095.14
520.30	1087.65
520.66	1085.31
521.01	1068.45
521.37	1080.86
521.73	1084.60
522.09	1088.82
522.44	1087.41
522.80	1094.90
523.16	1087.65
523.51	1080.86
523.87	1086.94
524.23	1098.65
524.58	1108.71
524.94	1114.56
525.30	1110.12
525.65	1105.67
526.01	1089.75
526.37	1089.29
526.72	1089.99
527.08	1090.69
527.44	1082.73
527.79	1096.54
528.15	1090.22
528.51	1090.46
528.86	1108.01
529.22	1122.99
529.58	1114.33
529.93	1122.05
530.29	1125.56
530.65	1115.97
531.00	1108.48
531.36	1104.97
531.71	1097.95
532.07	1087.18
532.43	1077.58
532.78	1078.99
533.14	1089.75
533.49	1090.69
533.85	1100.05
534.21	1102.63
534.56	1096.31
534.92	1089.52
535.27	1088.58
535.63	1085.77
535.98	1091.16
536.34	1096.31
536.69	1097.48
537.05	1091.16
537.41	1091.63
537.76	1088.35
538.12	1078.99
538.47	1083.20
538.83	1082.03
539.18	1075.71
539.54	1082.03
539.89	1083.90
540.25	1082.03
540.60	1083.43
540.96	1088.12
541.31	1086.01
541.67	1090.22
542.02	1087.18
542.38	1106.14
542.73	1099.35
543.09	1104.50
543.44	1115.73
543.80	1121.82
544.15	1105.44
544.51	1111.99
544.86	1107.78
545.22	1100.05
545.57	1094.67
545.93	1097.95
546.28	1092.33
546.64	1085.31
546.99	1077.35
547.35	1077.58
547.70	1079.22
548.05	1085.54
548.41	1087.88
548.76	1097.24
549.12	1098.41
549.47	1098.18
549.83	1095.14
550.18	1091.63
550.53	1088.58
550.89	1088.82
551.24	1082.97
551.60	1082.97
551.95	1087.88
552.30	1074.07
552.66	1075.01
553.01	1073.60
553.37	1083.67
553.72	1086.94
554.07	1100.52
554.43	1095.84
554.78	1102.16
555.13	1088.12
555.49	1084.84
555.84	1084.14
556.19	1089.75
556.55	1088.82
556.90	1087.41
557.26	1086.48
557.61	1088.82
557.96	1071.73
558.32	1073.37
558.67	1074.07
559.02	1067.52
559.37	1065.65
559.73	1069.86
560.08	1071.26
560.43	1076.88
560.79	1083.90
561.14	1079.22
561.49	1092.09
561.85	1087.65
562.20	1086.94
562.55	1073.14
562.90	1072.43
563.26	1071.26
563.61	1083.43
563.96	1080.63
564.32	1088.12
564.67	1089.52
565.02	1091.63
565.37	1082.03
565.73	1096.07
566.08	1113.16
566.43	1122.05
566.78	1119.01
567.14	1112.69
567.49	1102.86
567.84	1090.22
568.19	1081.56
568.54	1076.41
568.90	1076.88
569.25	1077.11
569.60	1073.84
569.95	1080.63
570.31	1085.54
570.66	1096.31
571.01	1095.37
571.36	1103.33
571.71	1094.90
572.06	1092.09
572.42	1086.01
572.77	1085.31
573.12	1079.22
573.47	1081.56
573.82	1080.16
574.18	1079.22
574.53	1083.90
574.88	1093.50
575.23	1094.67
575.58	1103.09
575.93	1113.63
576.28	1112.22
576.64	1101.92
576.99	1108.48
577.34	1103.56
577.69	1085.31
578.04	1082.26
578.39	1082.50
578.74	1078.99
579.09	1074.77
579.44	1085.31
579.80	1087.18
580.15	1090.46
580.50	1087.41
580.85	1094.43
581.20	1090.92
581.55	1093.50
581.90	1095.37
582.25	1089.29
582.60	1082.03
582.95	1093.03
583.30	1084.60
583.65	1086.71
584.00	1082.97
584.35	1086.48
584.71	1081.56
585.06	1086.48
585.41	1085.54
585.76	1101.22
586.11	1092.09
586.46	1087.41
586.81	1090.22
587.16	1073.84
587.51	1067.05
587.86	1077.58
588.21	1079.22
588.56	1077.11
588.91	1093.50
589.26	1097.71
589.61	1094.20
589.96	1086.94
590.31	1087.41
590.66	1082.26
591.01	1082.50
591.36	1074.54
591.71	1082.26
592.06	1082.97
592.41	1080.86
592.76	1080.16
593.10	1094.20
593.45	1091.63
593.80	1088.58
594.15	1088.12
594.50	1085.31
594.85	1073.84
595.20	1071.50
595.55	1077.35
595.90	1083.90
596.25	1086.48
596.60	1089.99
596.95	1096.54
597.30	1092.80
597.64	1128.84
597.99	1129.78
598.34	1135.16
598.69	1126.27
599.04	1125.80
599.39	1088.58
599.74	1090.22
600.09	1088.12
600.44	1084.60
600.78	1078.52
601.13	1066.58
601.48	1065.41
601.83	1057.45
602.18	1063.77
602.53	1069.16
602.88	1081.09
603.22	1086.71
603.57	1092.09
603.92	1097.71
604.27	1088.35
604.62	1077.58
604.97	1067.99
605.31	1067.99
605.66	1061.43
606.01	1068.45
606.36	1074.77
606.71	1071.03
607.05	1067.99
607.40	1079.22
607.75	1081.09
608.10	1078.99
608.44	1086.48
608.79	1100.52
609.14	1097.71
609.49	1093.26
609.84	1104.73
610.18	1107.07
610.53	1104.73
610.88	1101.46
611.23	1100.29
611.57	1092.33
611.92	1085.31
612.27	1084.14
612.62	1083.67
612.96	1088.82
613.31	1089.99
613.66	1092.33
614.00	1084.60
614.35	1077.82
614.70	1071.03
615.05	1070.80
615.39	1078.05
615.74	1076.18
616.09	1083.20
616.43	1086.01
616.78	1089.75
617.13	1078.75
617.47	1079.22
617.82	1082.03
618.17	1083.43
618.51	1081.56
618.86	1090.69
619.21	1094.90
619.55	1089.52
619.90	1093.50
620.25	1074.54
620.59	1067.52
620.94	1068.45
621.29	1063.31
621.63	1050.20
621.98	1072.20
622.32	1073.60
622.67	1072.20
623.02	1079.46
623.36	1097.24
623.71	1094.67
624.05	1087.41
624.40	1088.82
624.75	1090.69
625.09	1090.46
625.44	1092.33
625.78	1091.39
626.13	1086.24
626.48	1075.94
626.82	1072.20
627.17	1067.52
627.51	1074.07
627.86	1078.99
628.20	1095.14
628.55	1090.22
628.89	1091.63
629.24	1095.84
629.58	1102.86
629.93	1086.01
630.28	1085.77
630.62	1087.41
630.97	1081.09
631.31	1072.90
631.66	1089.52
632.00	1095.14
632.35	1091.63
632.69	1085.07
633.04	1083.20
633.38	1078.05
633.73	1077.82
634.07	1086.94
634.42	1103.56
634.76	1107.54
635.11	1108.24
635.45	1100.29
635.79	1094.67
636.14	1074.54
636.48	1070.56
636.83	1062.14
637.17	1066.35
637.52	1058.16
637.86	1073.37
638.21	1066.35
638.55	1071.97
638.89	1066.58
639.24	1070.80
639.58	1072.67
639.93	1078.52
640.27	1072.20
640.61	1086.48
640.96	1084.84
641.30	1086.24
641.65	1092.09
641.99	1106.37
642.33	1093.73
642.68	1102.16
643.02	1099.35
643.37	1098.65
643.71	1090.92
644.05	1089.05
644.40	1074.77
644.74	1070.56
645.08	1067.28
645.43	1063.54
645.77	1061.20
646.11	1061.67
646.46	1062.84
646.80	1065.65
647.14	1071.03
647.49	1064.94
647.83	1074.31
648.17	1071.50
648.52	1069.16
648.86	1055.11
649.20	1063.31
649.55	1063.07
649.89	1065.65
650.23	1056.05
650.57	1065.65
650.92	1063.07
651.26	1061.67
651.60	1065.18
651.95	1074.54
652.29	1071.73
652.63	1080.86
652.97	1078.52
653.32	1077.58
653.66	1085.31
654.00	1092.33
654.34	1100.29
654.69	1108.71
655.03	1114.10
655.37	1106.37
655.71	1100.29
656.05	1096.07
656.40	1092.80
656.74	1084.84
657.08	1092.56
657.42	1099.12
657.76	1090.92
658.11	1079.92
658.45	1082.97
658.79	1075.94
659.13	1082.73
659.47	1089.05
659.82	1101.92
660.16	1101.46
660.50	1109.88
660.84	1095.84
661.18	1090.92
661.52	1088.35
661.87	1086.24
662.21	1093.26
662.55	1095.37
662.89	1102.86
663.23	1107.07
663.57	1101.46
663.91	1083.20
664.25	1086.94
664.60	1078.52
664.94	1072.90
665.28	1081.09
665.62	1085.07
665.96	1075.71
666.30	1082.50
666.64	1086.48
666.98	1082.73
667.32	1087.18
667.66	1095.37
668.01	1092.09
668.35	1087.65
668.69	1078.05
669.03	1070.80
669.37	1071.97
669.71	1074.54
670.05	1074.54
670.39	1083.43
670.73	1087.88
671.07	1084.37
671.41	1084.60
671.75	1088.35
672.09	1089.52
672.43	1082.50
672.77	1084.14
673.11	1075.24
673.45	1076.41
673.79	1078.99
674.13	1077.82
674.47	1075.71
674.81	1086.48
675.15	1082.26
675.49	1077.82
675.83	1084.14
676.17	1094.67
676.51	1095.60
676.85	1092.80
677.19	1097.01
677.53	1099.35
677.87	1086.24
678.21	1076.41
678.55	1076.65
678.89	1069.39
679.23	1060.03
679.57	1067.99
679.90	1073.60
680.24	1079.92
680.58	1087.65
680.92	1093.73
681.26	1094.20
681.60	1096.31
681.94	1090.22
682.28	1087.88
682.62	1088.35
682.96	1078.75
683.29	1079.46
683.63	1085.31
683.97	1084.37
684.31	1077.35
684.65	1079.46
684.99	1077.82
685.33	1072.90
685.67	1076.65
686.00	1080.63
686.34	1081.56
686.68	1073.14
687.02	1074.07
687.36	1076.41
687.70	1083.20
688.03	1085.77
688.37	1092.33
688.71	1082.26
689.05	1089.75
689.39	1079.92
689.72	1078.52
690.06	1075.94
690.40	1085.31
690.74	1064.48
691.08	1064.48
691.41	1061.90
691.75	1059.56
692.09	1059.33
692.43	1065.88
692.76	1068.22
693.10	1076.41
693.44	1075.24
693.78	1075.01
694.11	1075.71
694.45	1083.43
694.79	1080.39
695.13	1085.54
695.46	1082.03
695.80	1083.43
696.14	1078.75
696.48	1074.77
696.81	1064.94
697.15	1068.45
697.49	1062.37
697.82	1068.92
698.16	1076.18
698.50	1096.31
698.83	1095.84
699.17	1098.88
699.51	1092.80
699.84	1094.43
700.18	1086.71
700.52	1085.31
700.85	1096.31
701.19	1092.56
701.53	1085.54
701.86	1083.43
702.20	1081.09
702.54	1064.24
702.87	1064.71
703.21	1059.33
703.55	1063.77
703.88	1065.41
704.22	1069.16
704.55	1071.97
704.89	1074.31
705.23	1069.62
705.56	1063.07
705.90	1076.65
706.23	1081.33
706.57	1084.84
706.91	1089.05
707.24	1109.18
707.58	1104.73
707.91	1097.24
708.25	1093.26
708.58	1090.22
708.92	1085.77
709.26	1084.37
709.59	1090.69
709.93	1091.16
710.26	1088.82
710.60	1088.12
710.93	1080.39
711.27	1078.75
711.60	1082.50
711.94	1085.07
712.27	1078.75
712.61	1089.52
712.94	1085.77
713.28	1098.18
713.61	1100.52
713.95	1096.54
714.28	1093.03
714.62	1086.94
714.95	1072.67
715.29	1058.39
715.62	1071.97
715.96	1068.92
716.29	1067.75
716.63	1068.22
716.96	1081.33
717.29	1079.22
717.63	1079.22
717.96	1079.92
718.30	1077.35
718.63	1069.86
718.97	1057.22
719.30	1057.45
719.63	1065.65
719.97	1071.26
720.30	1084.84
720.64	1082.97
720.97	1085.07
721.30	1082.50
721.64	1085.31
721.97	1078.99
722.31	1086.94
722.64	1091.63
722.97	1095.84
723.31	1092.09
723.64	1091.16
723.97	1093.26
724.31	1082.03
724.64	1076.65
724.98	1066.35
725.31	1074.07
725.64	1078.28
725.98	1079.22
726.31	1082.03
726.64	1097.24
726.97	1091.16
727.31	1084.60
727.64	1086.01
727.97	1090.46
728.31	1085.54
728.64	1087.18
728.97	1088.82
729.31	1097.24
729.64	1092.80
729.97	1092.80
730.30	1085.77
730.64	1086.48
730.97	1086.24
731.30	1088.82
731.63	1085.07
731.97	1083.67
732.30	1090.92
732.63	1092.80
732.96	1089.52
733.30	1092.56
733.63	1093.26
733.96	1075.24
734.29	1065.41
734.63	1066.58
734.96	1071.03
735.29	1082.03
735.62	1097.01
735.95	1099.35
736.29	1094.20
736.62	1094.43
736.95	1086.01
737.28	1081.80
737.61	1084.84
737.94	1099.35
738.28	1092.56
738.61	1093.26
738.94	1094.90
739.27	1097.71
739.60	1094.67
739.93	1093.73
740.27	1103.09
740.60	1097.95
740.93	1089.52
741.26	1079.22
741.59	1078.75
741.92	1066.58
742.25	1070.56
742.58	1068.92
742.91	1073.14
743.25	1075.24
743.58	1087.88
743.91	1097.95
744.24	1104.50
744.57	1102.39
744.90	1107.07
745.23	1097.71
745.56	1089.29
745.89	1090.92
746.22	1094.20
746.55	1079.92
746.88	1079.69
747.21	1080.39
747.54	1077.58
747.87	1073.60
748.20	1089.99
748.53	1080.39
748.87	1078.28
749.20	1071.50
749.53	1080.16
749.86	1075.48
750.19	1088.35
750.52	1085.07
750.85	1087.18
751.18	1082.03
751.51	1077.58
751.84	1077.82
752.16	1080.39
752.49	1085.77
752.82	1091.16
753.15	1096.07
753.48	1101.22
753.81	1100.99
754.14	1104.97
754.47	1104.73
754.80	1098.41
755.13	1082.73
755.46	1092.33
755.79	1086.48
756.12	1083.67
756.45	1081.09
756.78	1081.09
757.11	1065.65
757.43	1067.75
757.76	1066.11
758.09	1069.16
758.42	1076.18
758.75	1078.28
759.08	1063.31
759.41	1066.82
759.74	1071.73
760.07	1070.80
760.39	1074.07
760.72	1083.43
761.05	1082.50
761.38	1084.60
761.71	1083.43
762.04	1085.31
762.36	1084.14
762.69	1079.22
763.02	1082.03
763.35	1089.99
763.68	1093.97
764.01	1097.24
764.33	1101.46
764.66	1098.65
764.99	1084.60
765.32	1080.39
765.65	1078.28
765.97	1079.46
766.30	1068.45
766.63	1079.69
766.96	1080.39
767.28	1074.77
767.61	1067.05
767.94	1077.82
768.27	1077.82
768.59	1077.58
768.92	1101.22
769.25	1101.46
769.58	1094.67
769.90	1090.46
770.23	1094.67
770.56	1080.86
770.89	1082.03
771.21	1088.82
771.54	1085.54
771.87	1082.03
772.19	1081.09
772.52	1082.03
772.85	1073.37
773.17	1070.33
773.50	1063.54
773.83	1057.92
774.15	1062.14
774.48	1065.65
774.81	1076.18
775.13	1082.73
775.46	1089.52
775.79	1082.26
776.11	1073.84
776.44	1072.43
776.77	1069.39
777.09	1061.90
777.42	1075.48
777.74	1090.46
778.07	1089.05
778.40	1095.84
778.72	1100.99
779.05	1094.67
779.37	1093.73
779.70	1086.94
780.03	1089.75
780.35	1089.99
780.68	1083.90
781.00	1086.71
781.33	1097.95
781.65	1096.78
781.98	1104.73
782.31	1101.46
782.63	1096.31
782.96	1085.77
783.28	1078.05
783.61	1060.26
783.93	1062.84
784.26	1053.71
784.58	1054.18
784.91	1055.11
785.23	1056.05
785.56	1064.94
785.88	1071.97
786.21	1083.20
786.53	1087.65
786.86	1099.58
787.18	1094.20
787.51	1097.24
787.83	1079.69
788.16	1070.56
788.48	1073.37
788.81	1079.69
789.13	1082.73
789.46	1106.84
789.78	1114.10
790.10	1108.95
790.43	1098.65
790.75	1090.22
791.08	1074.77
791.40	1073.14
791.73	1074.07
792.05	1078.28
792.37	1084.60
792.70	1086.24
793.02	1079.46
793.35	1080.86
793.67	1079.69
793.99	1083.20
794.32	1084.14
794.64	1097.24
794.96	1094.43
795.29	1096.78
795.61	1100.05
795.93	1094.90
796.26	1088.12
796.58	1089.29
796.91	1083.43
797.23	1077.58
797.55	1085.07
797.87	1085.77
798.20	1085.31
798.52	1084.14
798.84	1072.20
799.17	1075.94
799.49	1074.07
799.81	1066.82
800.14	1080.63
800.46	1093.50
800.78	1093.26
801.10	1097.24
801.43	1101.92
801.75	1097.71
802.07	1092.80
802.40	1086.94
802.72	1082.03
803.04	1099.82
803.36	1099.35
803.69	1089.52
804.01	1087.18
804.33	1081.33
804.65	1068.45
804.97	1068.69
805.30	1086.94
805.62	1082.97
805.94	1094.90
806.26	1099.12
806.58	1097.48
806.91	1083.90
807.23	1093.97
807.55	1083.90
807.87	1076.18
808.19	1081.80
808.52	1087.65
808.84	1080.63
809.16	1085.31
809.48	1084.60
809.80	1069.39
810.12	1064.48
810.44	1070.09
810.77	1075.24
811.09	1086.01
811.41	1095.14
811.73	1103.56
812.05	1105.67
812.37	1099.12
812.69	1083.43
813.01	1085.07
813.33	1084.60
813.66	1074.54
813.98	1076.65
814.30	1082.97
814.62	1077.35
814.94	1065.18
815.26	1074.54
815.58	1072.90
815.90	1064.71
816.22	1067.05
816.54	1070.33
816.86	1062.14
817.18	1065.18
817.50	1079.69
817.82	1072.67
818.14	1077.58
818.46	1081.80
818.78	1079.22
819.10	1081.33
819.42	1081.09
819.74	1085.77
820.06	1077.82
820.38	1079.46
820.70	1070.80
821.02	1071.03
821.34	1061.20
821.66	1067.99
821.98	1071.73
822.30	1069.62
822.62	1078.52
822.94	1077.11
823.26	1074.54
823.58	1075.71
823.90	1077.82
824.22	1074.54
824.54	1079.92
824.86	1087.65
825.18	1082.97
825.50	1086.94
825.81	1086.94
826.13	1093.73
826.45	1084.60
826.77	1085.54
827.09	1081.56
827.41	1080.86
827.73	1078.28
828.05	1091.39
828.36	1082.73
828.68	1086.24
829.00	1082.03
829.32	1080.16
829.64	1075.71
829.96	1078.05
830.28	1064.01
830.59	1075.01
830.91	1067.52
831.23	1058.39
831.55	1062.14
831.87	1075.24
832.19	1069.62
832.50	1076.41
832.82	1088.82
833.14	1093.97
833.46	1094.20
833.78	1091.16
834.09	1098.18
834.41	1083.20
834.73	1078.28
835.05	1070.09
835.36	1076.18
835.68	1072.20
836.00	1078.99
836.32	1078.52
836.63	1079.46
836.95	1074.07
837.27	1073.37
837.59	1075.48
837.90	1069.86
838.22	1075.48
838.54	1080.39
838.85	1074.07
839.17	1068.45
839.49	1070.33
839.80	1068.69
840.12	1053.48
840.44	1055.11
840.76	1063.31
841.07	1068.45
841.39	1072.20
841.71	1078.99
842.02	1082.26
842.34	1072.67
842.65	1067.75
842.97	1068.22
843.29	1085.54
843.60	1078.05
843.92	1085.07
844.24	1083.20
844.55	1089.05
844.87	1080.16
845.18	1081.09
845.50	1071.26
845.82	1073.37
846.13	1063.77
846.45	1055.11
846.76	1067.99
847.08	1083.43
847.40	1089.52
847.71	1092.80
848.03	1091.39
848.34	1079.22
848.66	1076.41
848.97	1066.82
849.29	1070.09
849.60	1075.48
849.92	1077.11
850.24	1070.33
850.55	1083.43
850.87	1078.52
851.18	1080.86
851.50	1088.12
851.81	1100.29
852.13	1101.46
852.44	1102.86
852.76	1097.24
853.07	1088.58
853.39	1078.05
853.70	1071.26
854.01	1071.50
854.33	1078.52
854.64	1078.28
854.96	1075.24
855.27	1071.03
855.59	1059.79
855.90	1067.75
856.22	1079.92
856.53	1088.58
856.84	1090.92
857.16	1096.78
857.47	1093.03
857.79	1089.29
858.10	1090.22
858.41	1078.52
858.73	1083.67
859.04	1083.20
859.36	1069.39
859.67	1054.18
859.98	1063.31
860.30	1067.75
860.61	1068.92
860.92	1074.31
861.24	1082.50
861.55	1078.28
861.87	1072.20
862.18	1066.82
862.49	1070.09
862.81	1064.24
863.12	1074.31
863.43	1083.20
863.74	1079.92
864.06	1076.65
864.37	1089.05
864.68	1091.39
865.00	1083.90
865.31	1093.97
865.62	1090.69
865.94	1087.18
866.25	1084.14
866.56	1079.22
866.87	1066.35
867.19	1077.11
867.50	1075.71
867.81	1075.71
868.12	1077.58
868.44	1081.80
868.75	1079.69
869.06	1075.71
869.37	1071.50
869.68	1069.16
870.00	1072.43
870.31	1069.86
870.62	1073.84
870.93	1070.80
871.24	1073.60
871.56	1065.88
871.87	1068.45
872.18	1068.45
872.49	1074.07
872.80	1079.22
873.12	1082.73
873.43	1088.12
873.74	1091.16
874.05	1098.41
874.36	1096.07
874.67	1103.56
874.98	1094.90
875.29	1093.03
875.61	1085.07
875.92	1075.94
876.23	1068.45
876.54	1080.16
876.85	1080.86
877.16	1080.63
877.47	1081.80
877.78	1081.09
878.09	1075.94
878.40	1076.88
878.72	1083.20
879.03	1089.29
879.34	1089.75
879.65	1097.48
879.96	1089.75
880.27	1077.82
880.58	1080.39
880.89	1082.73
881.20	1063.54
881.51	1074.77
881.82	1086.48
882.13	1087.18
882.44	1092.80
882.75	1104.97
883.06	1096.07
883.37	1103.56
883.68	1094.90
883.99	1086.71
884.30	1082.26
884.61	1082.26
884.92	1081.56
885.23	1092.56
885.54	1095.14
885.85	1092.80
886.16	1093.97
886.47	1083.90
886.78	1078.05
887.08	1084.14
887.39	1086.24
887.70	1094.90
888.01	1092.09
888.32	1088.58
888.63	1078.28
888.94	1068.22
889.25	1054.65
889.56	1061.43
889.87	1058.39
890.17	1054.41
890.48	1067.05
890.79	1066.82
891.10	1058.86
891.41	1063.07
891.72	1071.73
892.03	1070.80
892.34	1073.14
892.64	1069.86
892.95	1069.16
893.26	1064.71
893.57	1062.84
893.88	1066.82
894.18	1076.18
894.49	1082.97
894.80	1088.58
895.11	1089.99
895.42	1082.26
895.72	1072.43
896.03	1072.67
896.34	1067.75
896.65	1063.77
896.96	1073.84
897.26	1078.75
897.57	1071.03
897.88	1081.09
898.19	1081.09
898.49	1076.41
898.80	1075.71
899.11	1080.16
899.41	1068.69
899.72	1079.46
900.03	1075.94
900.34	1075.94
900.64	1073.84
900.95	1076.65
901.26	1069.86
901.56	1080.16
901.87	1091.86
902.18	1100.52
902.48	1105.90
902.79	1097.48
903.10	1096.78
903.40	1076.18
903.71	1075.48
904.02	1075.94
904.32	1075.48
904.63	1075.71
904.94	1084.14
905.24	1085.07
905.55	1074.77
905.85	1075.01
906.16	1075.24
906.47	1083.90
906.77	1078.28
907.08	1078.05
907.38	1083.20
907.69	1081.56
908.00	1075.94
908.30	1073.84
908.61	1080.63
908.91	1084.84
909.22	1084.37
909.52	1091.63
909.83	1089.05
910.14	1090.69
910.44	1096.78
910.75	1095.14
911.05	1092.80
911.36	1093.50
911.66	1104.50
911.97	1100.29
912.27	1091.39
912.58	1089.29
912.88	1086.94
913.19	1085.77
913.49	1090.69
913.80	1095.37
914.10	1093.26
914.41	1097.01
914.71	1089.29
915.01	1086.94
915.32	1090.22
915.62	1088.12
915.93	1076.18
916.23	1070.56
916.54	1066.35
916.84	1061.20
917.15	1065.18
917.45	1085.31
917.75	1086.01
918.06	1075.24
918.36	1083.90
918.67	1079.46
918.97	1073.14
919.27	1078.75
919.58	1089.99
919.88	1094.90
920.18	1091.16
920.49	1094.67
920.79	1101.22
921.10	1099.12
921.40	1096.78
921.70	1100.05
922.01	1101.22
922.31	1089.29
922.61	1093.50
922.92	1094.20
923.22	1094.90
923.52	1084.60
923.82	1090.22
924.13	1093.03
924.43	1091.39
924.73	1089.99
925.04	1102.16
925.34	1100.05
925.64	1087.65
925.94	1097.95
926.25	1097.24
926.55	1090.46
926.85	1077.35
927.15	1084.37
927.46	1077.82
927.76	1078.52
928.06	1072.90
928.36	1083.20
928.67	1088.35
928.97	1078.05
929.27	1084.14
929.57	1091.39
929.87	1089.29
930.18	1081.09
930.48	1095.37
930.78	1091.16
931.08	1098.41
931.38	1094.90
931.69	1100.05
931.99	1088.35
932.29	1086.01
932.59	1082.97
932.89	1096.31
933.19	1083.90
933.49	1080.16
933.80	1073.14
934.10	1066.35
934.40	1062.14
934.70	1076.88
935.00	1090.92
935.30	1107.54
935.60	1111.52
935.90	1110.12
936.20	1106.61
936.50	1091.39
936.81	1089.99
937.11	1087.41
937.41	1086.48
937.71	1084.84
938.01	1076.88
938.31	1079.69
938.61	1077.82
938.91	1069.39
939.21	1059.79
939.51	1066.11
939.81	1062.37
940.11	1068.92
940.41	1074.54
940.71	1077.35
941.01	1085.07
941.31	1074.77
941.61	1067.75
941.91	1070.80
942.21	1073.84
942.51	1072.67
942.81	1074.77
943.11	1077.82
943.41	1074.77
943.71	1073.14
944.01	1085.77
944.31	1086.94
944.61	1089.99
944.90	1093.03
945.20	1098.41
945.50	1084.84
945.80	1086.01
946.10	1074.77
946.40	1077.82
946.70	1068.45
947.00	1070.33
947.30	1069.62
947.60	1079.92
947.89	1075.94
948.19	1078.99
948.49	1082.97
948.79	1081.56
949.09	1078.28
949.39	1079.92
949.69	1072.43
949.98	1069.86
950.28	1077.82
950.58	1075.01
950.88	1077.58
951.18	1093.26
951.48	1085.31
951.77	1086.24
952.07	1088.35
952.37	1080.39
952.67	1072.67
952.97	1080.63
953.26	1073.60
953.56	1073.84
953.86	1078.05
954.16	1083.67
954.45	1072.90
954.75	1071.97
955.05	1060.26
955.35	1057.69
955.64	1051.60
955.94	1064.94
956.24	1068.69
956.54	1089.99
956.83	1094.43
957.13	1103.33
957.43	1106.61
957.72	1102.63
958.02	1098.18
958.32	1098.41
958.61	1092.09
958.91	1088.12
959.21	1089.29
959.50	1079.46
959.80	1085.54
960.10	1083.90
960.39	1080.86
960.69	1085.54
960.99	1093.03
961.28	1087.18
961.58	1088.82
961.87	1085.31
962.17	1083.43
962.47	1083.90
962.76	1082.03
963.06	1086.48
963.36	1097.48
963.65	1095.37
963.95	1093.03
964.24	1095.14
964.54	1099.12
964.83	1086.71
965.13	1092.80
965.42	1092.33
965.72	1085.77
966.02	1086.24
966.31	1094.43
966.61	1103.09
966.90	1104.26
967.20	1096.78
967.49	1082.26
967.79	1081.80
968.08	1062.84
968.38	1067.05
968.67	1077.11
968.97	1092.09
969.26	1085.07
969.56	1093.50
969.85	1093.03
970.15	1097.24
970.44	1091.86
970.74	1092.56
971.03	1082.97
971.32	1080.16
971.62	1074.31
971.91	1074.54
972.21	1071.73
972.50	1084.60
972.80	1086.48
973.09	1084.14
973.38	1092.33
973.68	1095.60
973.97	1097.24
974.27	1092.09
974.56	1098.41
974.85	1086.71
975.15	1086.71
975.44	1079.46
975.73	1085.77
976.03	1089.05
976.32	1089.75
976.61	1094.67
976.91	1093.26
977.20	1086.24
977.49	1082.73
977.79	1084.14
978.08	1077.11
978.37	1077.35
978.67	1067.75
978.96	1064.71
979.25	1060.26
979.55	1063.77
979.84	1065.65
980.13	1078.05
980.42	1080.86
980.72	1089.29
981.01	1095.37
981.30	1095.37
981.59	1096.54
981.89	1093.73
982.18	1090.22
982.47	1090.22
982.76	1087.65
983.06	1083.67
983.35	1082.03
983.64	1072.43
983.93	1066.58
984.22	1070.09
984.52	1064.71
984.81	1066.58
985.10	1076.18
985.39	1071.73
985.68	1069.86
985.97	1077.11
986.27	1078.52
986.56	1076.41
986.85	1083.90
987.14	1079.46
987.43	1080.86
987.72	1080.39
988.01	1077.11
988.31	1086.24
988.60	1091.16
988.89	1091.86
989.18	1082.73
989.47	1093.03
989.76	1083.67
990.05	1081.33
990.34	1077.35
990.63	1085.77
990.92	1080.39
991.21	1078.99
991.51	1074.31
991.80	1068.45
992.09	1081.80
992.38	1076.88
992.67	1077.82
992.96	1087.18
993.25	1101.92
993.54	1091.16
993.83	1091.16
994.12	1090.69
994.41	1080.16
994.70	1075.24
994.99	1078.75
995.28	1088.58
995.57	1086.48
995.86	1094.90
996.15	1093.03
996.44	1083.90
996.73	1071.97
997.02	1072.20
997.31	1066.58
997.59	1057.22
997.88	1060.26
998.17	1063.07
998.46	1064.01
998.75	1062.60
999.04	1083.43
999.33	1080.39
999.62	1076.65
999.91	1072.67
1000.20	1078.52
1000.49	1070.56
1000.77	1077.35
1001.06	1088.12
1001.35	1089.99
1001.64	1089.75
1001.93	1077.58
1002.22	1069.86
1002.51	1065.18
1002.79	1066.58
1003.08	1064.71
1003.37	1065.88
1003.66	1069.16
1003.95	1078.75
1004.23	1075.71
1004.52	1076.88
1004.81	1087.41
1005.10	1080.86
1005.39	1078.28
1005.67	1078.75
1005.96	1073.60
1006.25	1071.26
1006.54	1074.07
1006.83	1068.22
1007.11	1071.50
1007.40	1076.18
1007.69	1085.54
1007.97	1094.43
1008.26	1095.37
1008.55	1106.84
1008.84	1102.39
1009.12	1095.60
1009.41	1097.48
1009.70	1095.14
1009.98	1092.09
1010.27	1102.86
1010.56	1097.48
1010.85	1087.41
1011.13	1088.35
1011.42	1081.80
1011.71	1078.05
1011.99	1076.41
1012.28	1082.50
1012.56	1089.99
1012.85	1091.86
1013.14	1090.22
1013.42	1095.84
1013.71	1088.58
1014.00	1085.07
1014.28	1084.84
1014.57	1082.73
1014.85	1087.41
1015.14	1096.07
1015.43	1097.24
1015.71	1089.05
1016.00	1084.84
1016.28	1077.35
1016.57	1077.82
1016.85	1072.67
1017.14	1082.50
1017.43	1078.28
1017.71	1083.90
1018.00	1086.24
1018.28	1090.22
1018.57	1076.65
1018.85	1079.22
1019.14	1073.14
1019.42	1063.77
1019.71	1060.03
1019.99	1070.09
1020.28	1078.05
1020.56	1084.84
1020.85	1086.48
1021.13	1080.63
1021.42	1082.50
1021.70	1078.99
1021.99	1067.52
1022.27	1070.09
1022.55	1055.58
1022.84	1080.16
>>>>>End Processed Spectral Data<<<<<
