SpectraSuite Data File
++++++++++++++++++++++++++++++++++++
Date: Mon Aug 26 10:25:55 PDT 2019
User: corrico
Dark Spectrum Present: No
Reference Spectrum Present: No
Number of Sampled Component Spectra: 1
Spectrometers: USB2+H06089
Integration Time (usec): 10000 (USB2+H06089)
Spectra Averaged: 2 (USB2+H06089)
Boxcar Smoothing: 2 (USB2+H06089)
Correct for Electrical Dark: No (USB2+H06089)
Strobe/Lamp Enabled: No (USB2+H06089)
Correct for Detector Non-linearity: No (USB2+H06089)
Correct for Stray Light: No (USB2+H06089)
Number of Pixels in Processed Spectrum: 2048
>>>>>Begin Processed Spectral Data<<<<<
339.70	1015.79
340.07	1015.79
340.45	988.41
340.82	965.00
341.19	940.90
341.57	922.64
341.94	912.34
342.31	904.85
342.69	908.36
343.06	910.47
343.43	908.13
343.81	905.55
344.18	912.11
344.55	910.23
344.93	912.57
345.30	922.17
345.67	940.90
346.04	944.41
346.42	958.45
346.79	972.96
347.16	970.62
347.54	960.32
347.91	968.51
348.28	972.02
348.65	972.49
349.03	997.07
349.40	1006.66
349.77	1018.84
350.14	1023.05
350.52	1028.67
350.89	1028.90
351.26	1035.92
351.63	1038.03
352.01	1043.18
352.38	1051.37
352.75	1053.94
353.12	1064.71
353.50	1064.71
353.87	1078.05
354.24	1081.09
354.61	1085.31
354.98	1078.99
355.36	1080.63
355.73	1072.90
356.10	1073.14
356.47	1068.69
356.84	1077.82
357.22	1090.22
357.59	1093.73
357.96	1097.48
358.33	1089.29
358.70	1090.22
359.08	1090.22
359.45	1094.43
359.82	1089.75
360.19	1094.20
360.56	1095.84
360.94	1093.97
361.31	1082.50
361.68	1080.63
362.05	1078.52
362.42	1070.09
362.79	1060.26
363.16	1068.22
363.54	1068.45
363.91	1071.26
364.28	1073.14
364.65	1072.90
365.02	1067.75
365.39	1064.71
365.76	1065.18
366.14	1061.67
366.51	1066.82
366.88	1065.41
367.25	1067.28
367.62	1072.20
367.99	1082.73
368.36	1075.24
368.73	1069.62
369.10	1073.60
369.48	1069.62
369.85	1066.35
370.22	1070.33
370.59	1067.75
370.96	1059.09
371.33	1050.43
371.70	1047.16
372.07	1053.48
372.44	1064.94
372.81	1067.99
373.18	1071.97
373.55	1077.35
373.93	1076.18
374.30	1075.71
374.67	1081.33
375.04	1086.71
375.41	1080.39
375.78	1074.77
376.15	1070.09
376.52	1064.94
376.89	1067.28
377.26	1057.92
377.63	1056.28
378.00	1062.60
378.37	1065.65
378.74	1058.86
379.11	1064.24
379.48	1071.50
379.85	1067.52
380.22	1064.48
380.59	1062.14
380.96	1067.28
381.33	1063.07
381.70	1069.39
382.07	1070.33
382.44	1081.33
382.81	1075.71
383.18	1062.84
383.55	1056.99
383.92	1060.50
384.29	1049.73
384.66	1052.77
385.03	1066.82
385.40	1071.73
385.77	1073.14
386.14	1077.58
386.51	1082.50
386.88	1074.54
387.25	1071.97
387.62	1068.45
387.99	1071.73
388.36	1076.41
388.73	1078.52
389.10	1076.18
389.46	1075.24
389.83	1070.33
390.20	1056.99
390.57	1060.50
390.94	1064.01
391.31	1068.92
391.68	1069.62
392.05	1077.58
392.42	1079.69
392.79	1075.71
393.16	1072.67
393.53	1069.86
393.89	1057.45
394.26	1054.41
394.63	1053.71
395.00	1047.62
395.37	1052.30
395.74	1058.62
396.11	1058.62
396.48	1061.90
396.84	1063.77
397.21	1065.18
397.58	1074.07
397.95	1070.33
398.32	1071.97
398.69	1071.26
399.06	1071.97
399.42	1066.82
399.79	1080.63
400.16	1083.90
400.53	1088.35
400.90	1078.99
401.27	1080.39
401.64	1071.03
402.00	1056.75
402.37	1065.65
402.74	1067.05
403.11	1067.52
403.48	1064.48
403.84	1081.33
404.21	1080.39
404.58	1084.84
404.95	1084.37
405.32	1089.05
405.68	1085.07
406.05	1079.46
406.42	1075.48
406.79	1055.11
407.16	1053.48
407.52	1045.05
407.89	1042.47
408.26	1045.99
408.63	1061.20
408.99	1062.60
409.36	1069.16
409.73	1069.62
410.10	1071.97
410.47	1081.09
410.83	1081.56
411.20	1087.18
411.57	1085.07
411.94	1086.48
412.30	1070.33
412.67	1065.65
413.04	1058.16
413.40	1054.65
413.77	1049.50
414.14	1066.11
414.51	1080.63
414.87	1075.94
415.24	1086.48
415.61	1095.84
415.97	1091.39
416.34	1072.20
416.71	1075.94
417.08	1072.90
417.44	1064.01
417.81	1060.03
418.18	1061.20
418.54	1067.99
418.91	1067.52
419.28	1064.24
419.64	1057.92
420.01	1067.99
420.38	1056.52
420.74	1056.05
421.11	1060.96
421.48	1070.56
421.84	1071.03
422.21	1072.90
422.58	1072.43
422.94	1078.99
423.31	1083.43
423.68	1081.80
424.04	1083.67
424.41	1091.39
424.77	1083.43
425.14	1068.22
425.51	1073.14
425.87	1074.31
426.24	1067.99
426.61	1068.92
426.97	1081.09
427.34	1080.86
427.70	1087.88
428.07	1085.07
428.44	1082.26
428.80	1085.07
429.17	1083.67
429.53	1077.35
429.90	1081.80
430.27	1095.60
430.63	1095.14
431.00	1096.54
431.36	1101.46
431.73	1098.65
432.09	1086.71
432.46	1085.07
432.83	1072.20
433.19	1074.07
433.56	1063.77
433.92	1065.88
434.29	1066.58
434.65	1077.11
435.02	1070.33
435.38	1087.65
435.75	1091.39
436.11	1087.88
436.48	1089.05
436.84	1093.73
437.21	1087.18
437.57	1088.12
437.94	1089.52
438.30	1091.86
438.67	1088.12
439.03	1091.39
439.40	1090.69
439.76	1093.97
440.13	1082.50
440.49	1088.58
440.86	1088.35
441.22	1086.94
441.59	1081.56
441.95	1096.07
442.32	1091.86
442.68	1093.73
443.05	1095.14
443.41	1093.03
443.78	1082.03
444.14	1073.37
444.51	1058.86
444.87	1060.03
445.24	1051.13
445.60	1059.09
445.96	1069.86
446.33	1082.03
446.69	1078.05
447.06	1092.56
447.42	1090.92
447.79	1086.01
448.15	1085.31
448.51	1076.88
448.88	1064.71
449.24	1060.73
449.61	1060.50
449.97	1051.37
450.33	1061.43
450.70	1069.39
451.06	1068.22
451.43	1066.82
451.79	1065.88
452.15	1071.73
452.52	1079.22
452.88	1090.92
453.24	1097.48
453.61	1113.86
453.97	1109.88
454.34	1104.97
454.70	1092.09
455.06	1096.07
455.43	1088.82
455.79	1076.65
456.15	1074.54
456.52	1080.63
456.88	1081.33
457.24	1080.86
457.61	1085.77
457.97	1081.33
458.33	1079.46
458.70	1066.35
459.06	1071.26
459.42	1074.77
459.79	1079.69
460.15	1076.18
460.51	1084.84
460.88	1078.05
461.24	1071.26
461.60	1074.77
461.96	1073.84
462.33	1068.69
462.69	1078.52
463.05	1094.20
463.42	1101.92
463.78	1100.75
464.14	1095.60
464.50	1090.22
464.87	1077.35
465.23	1065.41
465.59	1071.73
465.95	1076.88
466.32	1069.39
466.68	1070.80
467.04	1072.67
467.40	1071.73
467.77	1067.99
468.13	1073.14
468.49	1083.43
468.85	1084.14
469.22	1088.35
469.58	1091.16
469.94	1084.84
470.30	1077.82
470.66	1071.73
471.03	1067.05
471.39	1071.50
471.75	1073.37
472.11	1067.99
472.47	1079.92
472.84	1085.77
473.20	1082.03
473.56	1086.48
473.92	1090.22
474.28	1079.92
474.65	1068.92
475.01	1074.77
475.37	1067.75
475.73	1072.20
476.09	1073.60
476.45	1076.41
476.81	1079.46
477.18	1084.14
477.54	1075.71
477.90	1083.43
478.26	1096.07
478.62	1083.43
478.98	1086.94
479.34	1087.18
479.71	1083.43
480.07	1067.99
480.43	1069.16
480.79	1068.92
481.15	1061.90
481.51	1057.45
481.87	1060.50
482.23	1059.56
482.59	1062.14
482.96	1075.01
483.32	1076.41
483.68	1077.11
484.04	1077.82
484.40	1084.37
484.76	1079.69
485.12	1083.67
485.48	1074.77
485.84	1085.54
486.20	1074.54
486.56	1079.69
486.92	1081.80
487.28	1078.05
487.64	1076.65
488.00	1077.58
488.37	1076.65
488.73	1073.14
489.09	1086.71
489.45	1075.71
489.81	1071.03
490.17	1076.88
490.53	1069.39
490.89	1064.24
491.25	1063.31
491.61	1073.60
491.97	1060.03
492.33	1075.24
492.69	1073.37
493.05	1087.41
493.41	1089.52
493.77	1099.82
494.13	1086.48
494.49	1096.78
494.85	1091.16
495.21	1087.88
495.57	1090.22
495.93	1090.22
496.29	1087.41
496.64	1082.26
497.00	1080.16
497.36	1073.37
497.72	1070.33
498.08	1069.39
498.44	1085.31
498.80	1086.24
499.16	1094.90
499.52	1100.05
499.88	1098.18
500.24	1090.69
500.60	1086.48
500.96	1082.50
501.32	1089.75
501.68	1084.37
502.03	1075.24
502.39	1072.67
502.75	1064.24
503.11	1052.54
503.47	1056.05
503.83	1056.05
504.19	1068.22
504.55	1078.05
504.91	1087.41
505.26	1090.46
505.62	1098.18
505.98	1087.18
506.34	1087.41
506.70	1093.03
507.06	1097.24
507.42	1095.14
507.78	1100.52
508.13	1090.69
508.49	1084.84
508.85	1076.88
509.21	1073.37
509.57	1074.77
509.93	1068.45
510.28	1070.80
510.64	1075.01
511.00	1085.31
511.36	1081.56
511.72	1096.78
512.07	1094.20
512.43	1088.82
512.79	1078.75
513.15	1076.88
513.51	1074.77
513.86	1077.82
514.22	1082.97
514.58	1093.50
514.94	1088.82
515.30	1087.41
515.65	1093.73
516.01	1090.46
516.37	1080.86
516.73	1088.58
517.08	1089.52
517.44	1079.69
517.80	1089.99
518.16	1099.58
518.51	1093.26
518.87	1093.50
519.23	1096.54
519.59	1086.01
519.94	1080.63
520.30	1088.12
520.66	1080.86
521.01	1087.18
521.37	1098.41
521.73	1093.50
522.09	1098.65
522.44	1109.18
522.80	1099.35
523.16	1092.09
523.51	1085.07
523.87	1082.97
524.23	1080.86
524.58	1067.52
524.94	1075.24
525.30	1090.92
525.65	1078.52
526.01	1083.43
526.37	1096.07
526.72	1093.73
527.08	1087.88
527.44	1095.84
527.79	1088.82
528.15	1093.50
528.51	1093.03
528.86	1097.24
529.22	1100.05
529.58	1102.16
529.93	1109.18
530.29	1108.95
530.65	1106.84
531.00	1108.24
531.36	1102.16
531.71	1096.54
532.07	1104.73
532.43	1104.03
532.78	1100.75
533.14	1105.44
533.49	1104.26
533.85	1088.58
534.21	1092.80
534.56	1098.41
534.92	1104.50
535.27	1101.22
535.63	1103.09
535.98	1095.84
536.34	1087.88
536.69	1087.65
537.05	1083.90
537.41	1089.29
537.76	1091.63
538.12	1094.20
538.47	1095.84
538.83	1108.48
539.18	1104.03
539.54	1104.03
539.89	1101.22
540.25	1087.65
540.60	1086.01
540.96	1089.29
541.31	1093.26
541.67	1098.18
542.02	1097.01
542.38	1090.46
542.73	1094.67
543.09	1100.29
543.44	1103.80
543.80	1105.20
544.15	1104.03
544.51	1097.24
544.86	1086.01
545.22	1076.18
545.57	1081.56
545.93	1078.99
546.28	1078.75
546.64	1079.22
546.99	1076.88
547.35	1083.90
547.70	1088.82
548.05	1087.88
548.41	1096.54
548.76	1100.29
549.12	1097.01
549.47	1090.22
549.83	1087.88
550.18	1073.84
550.53	1071.50
550.89	1063.54
551.24	1073.37
551.60	1075.01
551.95	1075.94
552.30	1078.28
552.66	1076.18
553.01	1071.26
553.37	1071.73
553.72	1078.75
554.07	1078.75
554.43	1086.48
554.78	1085.07
555.13	1089.75
555.49	1088.12
555.84	1087.18
556.19	1082.97
556.55	1087.65
556.90	1078.52
557.26	1077.82
557.61	1086.48
557.96	1095.60
558.32	1090.22
558.67	1087.41
559.02	1083.20
559.37	1079.46
559.73	1076.41
560.08	1082.50
560.43	1098.88
560.79	1106.61
561.14	1101.22
561.49	1101.22
561.85	1093.50
562.20	1094.20
562.55	1086.94
562.90	1086.01
563.26	1089.75
563.61	1089.29
563.96	1085.31
564.32	1100.29
564.67	1105.44
565.02	1102.16
565.37	1108.95
565.73	1105.44
566.08	1091.86
566.43	1089.75
566.78	1080.39
567.14	1079.69
567.49	1078.75
567.84	1079.46
568.19	1090.22
568.54	1093.73
568.90	1088.58
569.25	1081.56
569.60	1075.48
569.95	1062.60
570.31	1064.24
570.66	1060.73
571.01	1062.84
571.36	1070.33
571.71	1070.09
572.06	1073.37
572.42	1082.97
572.77	1084.37
573.12	1079.69
573.47	1072.43
573.82	1064.94
574.18	1060.03
574.53	1067.05
574.88	1074.54
575.23	1082.26
575.58	1091.16
575.93	1096.78
576.28	1094.20
576.64	1086.48
576.99	1088.35
577.34	1087.41
577.69	1076.65
578.04	1072.43
578.39	1084.84
578.74	1082.03
579.09	1082.50
579.44	1087.65
579.80	1079.69
580.15	1069.16
580.50	1072.90
580.85	1071.03
581.20	1081.56
581.55	1095.84
581.90	1099.35
582.25	1100.29
582.60	1094.90
582.95	1082.26
583.30	1080.86
583.65	1079.92
584.00	1073.37
584.35	1080.39
584.71	1090.46
585.06	1091.16
585.41	1092.09
585.76	1104.03
586.11	1095.60
586.46	1083.90
586.81	1073.84
587.16	1080.16
587.51	1079.22
587.86	1087.41
588.21	1092.33
588.56	1094.67
588.91	1083.90
589.26	1082.50
589.61	1075.94
589.96	1074.77
590.31	1080.63
590.66	1081.80
591.01	1076.41
591.36	1071.97
591.71	1075.01
592.06	1077.58
592.41	1077.58
592.76	1084.84
593.10	1092.09
593.45	1095.37
593.80	1097.01
594.15	1096.78
594.50	1088.35
594.85	1087.41
595.20	1078.99
595.55	1072.20
595.90	1068.69
596.25	1072.90
596.60	1076.18
596.95	1074.07
597.30	1070.80
597.64	1135.63
597.99	1133.05
598.34	1143.12
598.69	1145.93
599.04	1151.31
599.39	1093.26
599.74	1097.95
600.09	1087.18
600.44	1082.73
600.78	1073.84
601.13	1074.07
601.48	1071.97
601.83	1072.90
602.18	1077.11
602.53	1078.99
602.88	1078.75
603.22	1068.69
603.57	1069.86
603.92	1075.48
604.27	1072.20
604.62	1062.60
604.97	1071.73
605.31	1067.99
605.66	1060.73
606.01	1075.24
606.36	1087.65
606.71	1085.07
607.05	1082.03
607.40	1087.41
607.75	1084.84
608.10	1078.99
608.44	1083.90
608.79	1101.46
609.14	1101.22
609.49	1100.99
609.84	1100.99
610.18	1105.67
610.53	1086.24
610.88	1091.16
611.23	1095.60
611.57	1098.88
611.92	1092.56
612.27	1093.73
612.62	1092.33
612.96	1084.60
613.31	1093.73
613.66	1086.94
614.00	1095.60
614.35	1091.86
614.70	1094.90
615.05	1084.37
615.39	1089.75
615.74	1089.29
616.09	1090.22
616.43	1086.48
616.78	1089.99
617.13	1082.50
617.47	1077.11
617.82	1075.71
618.17	1074.77
618.51	1073.37
618.86	1078.75
619.21	1069.16
619.55	1069.62
619.90	1074.77
620.25	1071.26
620.59	1078.99
620.94	1089.05
621.29	1087.41
621.63	1080.86
621.98	1077.82
622.32	1063.54
622.67	1065.65
623.02	1075.48
623.36	1077.35
623.71	1081.56
624.05	1095.37
624.40	1098.18
624.75	1081.80
625.09	1084.60
625.44	1083.90
625.78	1078.28
626.13	1079.46
626.48	1079.46
626.82	1084.84
627.17	1097.24
627.51	1098.88
627.86	1085.77
628.20	1093.26
628.55	1077.58
628.89	1053.48
629.24	1048.33
629.58	1057.92
629.93	1055.11
630.28	1063.31
630.62	1074.31
630.97	1082.26
631.31	1086.01
631.66	1082.73
632.00	1086.24
632.35	1087.41
632.69	1092.33
633.04	1082.26
633.38	1093.73
633.73	1091.16
634.07	1090.92
634.42	1083.90
634.76	1081.09
635.11	1076.65
635.45	1074.77
635.79	1075.24
636.14	1071.50
636.48	1082.97
636.83	1084.84
637.17	1079.92
637.52	1076.41
637.86	1077.82
638.21	1076.65
638.55	1061.90
638.89	1058.86
639.24	1067.75
639.58	1057.69
639.93	1062.14
640.27	1080.16
640.61	1086.71
640.96	1075.48
641.30	1091.39
641.65	1086.94
641.99	1089.52
642.33	1097.01
642.68	1103.80
643.02	1104.97
643.37	1107.07
643.71	1094.20
644.05	1091.63
644.40	1098.18
644.74	1099.82
645.08	1091.39
645.43	1092.09
645.77	1086.94
646.11	1071.26
646.46	1053.94
646.80	1055.11
647.14	1050.90
647.49	1058.62
647.83	1069.16
648.17	1076.88
648.52	1080.63
648.86	1086.01
649.20	1079.46
649.55	1081.80
649.89	1087.41
650.23	1097.71
650.57	1100.29
650.92	1106.37
651.26	1107.07
651.60	1101.22
651.95	1097.24
652.29	1091.86
652.63	1087.41
652.97	1084.60
653.32	1083.43
653.66	1071.50
654.00	1075.48
654.34	1073.60
654.69	1063.77
655.03	1069.86
655.37	1074.54
655.71	1065.18
656.05	1067.52
656.40	1073.84
656.74	1059.33
657.08	1064.94
657.42	1083.43
657.76	1080.86
658.11	1084.84
658.45	1082.73
658.79	1078.05
659.13	1059.33
659.47	1064.48
659.82	1071.26
660.16	1082.03
660.50	1088.12
660.84	1104.03
661.18	1100.52
661.52	1087.41
661.87	1084.37
662.21	1077.35
662.55	1069.86
662.89	1064.71
663.23	1069.16
663.57	1067.52
663.91	1065.88
664.25	1063.77
664.60	1066.35
664.94	1065.65
665.28	1078.52
665.62	1082.03
665.96	1076.18
666.30	1078.52
666.64	1073.37
666.98	1066.11
667.32	1064.24
667.66	1067.28
668.01	1071.73
668.35	1075.48
668.69	1070.09
669.03	1060.50
669.37	1065.41
669.71	1067.52
670.05	1060.96
670.39	1061.90
670.73	1059.33
671.07	1061.43
671.41	1053.01
671.75	1056.28
672.09	1053.24
672.43	1064.94
672.77	1065.65
673.11	1067.28
673.45	1069.16
673.79	1083.43
674.13	1082.03
674.47	1087.65
674.81	1088.35
675.15	1093.73
675.49	1093.26
675.83	1093.26
676.17	1090.92
676.51	1089.29
676.85	1088.35
677.19	1080.86
677.53	1068.22
677.87	1058.16
678.21	1061.43
678.55	1064.94
678.89	1070.09
679.23	1083.20
679.57	1087.18
679.90	1089.52
680.24	1084.60
680.58	1086.24
680.92	1077.58
681.26	1080.63
681.60	1080.16
681.94	1073.60
682.28	1077.82
682.62	1091.16
682.96	1089.75
683.29	1090.92
683.63	1093.03
683.97	1075.94
684.31	1072.20
684.65	1075.24
684.99	1078.28
685.33	1083.90
685.67	1090.69
686.00	1087.18
686.34	1080.16
686.68	1068.92
687.02	1068.69
687.36	1069.16
687.70	1070.33
688.03	1075.48
688.37	1075.71
688.71	1073.84
689.05	1073.60
689.39	1076.88
689.72	1078.28
690.06	1084.37
690.40	1082.50
690.74	1088.12
691.08	1078.75
691.41	1077.82
691.75	1073.84
692.09	1076.65
692.43	1069.16
692.76	1068.22
693.10	1067.52
693.44	1071.73
693.78	1068.92
694.11	1071.50
694.45	1081.80
694.79	1075.01
695.13	1082.26
695.46	1081.56
695.80	1086.48
696.14	1088.82
696.48	1089.52
696.81	1090.46
697.15	1094.90
697.49	1082.73
697.82	1083.67
698.16	1093.73
698.50	1086.01
698.83	1079.69
699.17	1082.26
699.51	1073.37
699.84	1065.18
700.18	1058.16
700.52	1058.62
700.85	1061.43
701.19	1064.24
701.53	1068.45
701.86	1068.92
702.20	1071.50
702.54	1067.05
702.87	1071.97
703.21	1068.69
703.55	1079.92
703.88	1090.92
704.22	1095.37
704.55	1089.99
704.89	1092.80
705.23	1087.41
705.56	1081.80
705.90	1086.48
706.23	1090.46
706.57	1082.97
706.91	1080.63
707.24	1078.75
707.58	1076.65
707.91	1072.20
708.25	1080.63
708.58	1081.80
708.92	1078.75
709.26	1072.67
709.59	1080.16
709.93	1074.54
710.26	1071.97
710.60	1076.65
710.93	1079.46
711.27	1070.09
711.60	1076.88
711.94	1075.71
712.27	1078.05
712.61	1078.75
712.94	1077.11
713.28	1068.22
713.61	1080.63
713.95	1070.33
714.28	1072.90
714.62	1076.41
714.95	1075.71
715.29	1068.92
715.62	1071.50
715.96	1071.73
716.29	1075.24
716.63	1081.56
716.96	1077.82
717.29	1083.20
717.63	1084.60
717.96	1084.14
718.30	1091.63
718.63	1090.92
718.97	1090.22
719.30	1088.12
719.63	1087.41
719.97	1082.26
720.30	1086.24
720.64	1080.16
720.97	1075.24
721.30	1078.99
721.64	1080.39
721.97	1080.63
722.31	1078.75
722.64	1072.90
722.97	1065.65
723.31	1070.33
723.64	1064.71
723.97	1070.80
724.31	1086.48
724.64	1097.48
724.98	1091.16
725.31	1098.41
725.64	1102.63
725.98	1088.58
726.31	1084.60
726.64	1083.90
726.97	1086.48
727.31	1080.39
727.64	1086.01
727.97	1088.12
728.31	1083.67
728.64	1067.99
728.97	1066.35
729.31	1058.39
729.64	1051.60
729.97	1046.45
730.30	1051.84
730.64	1063.07
730.97	1071.73
731.30	1074.54
731.63	1086.48
731.97	1094.43
732.30	1095.14
732.63	1095.60
732.96	1093.73
733.30	1085.31
733.63	1087.18
733.96	1072.90
734.29	1071.50
734.63	1080.63
734.96	1096.54
735.29	1096.31
735.62	1091.39
735.95	1095.84
736.29	1087.41
736.62	1087.88
736.95	1083.43
737.28	1099.35
737.61	1097.48
737.94	1097.01
738.28	1097.95
738.61	1103.09
738.94	1098.65
739.27	1096.54
739.60	1104.03
739.93	1102.86
740.27	1101.46
740.60	1099.12
740.93	1111.29
741.26	1100.75
741.59	1090.46
741.92	1081.56
742.25	1080.86
742.58	1064.48
742.91	1060.73
743.25	1058.39
743.58	1059.56
743.91	1059.33
744.24	1059.56
744.57	1065.18
744.90	1073.60
745.23	1079.22
745.56	1080.39
745.89	1089.99
746.22	1087.18
746.55	1078.99
746.88	1071.26
747.21	1060.50
747.54	1059.33
747.87	1068.92
748.20	1067.52
748.53	1074.07
748.87	1089.99
749.20	1093.26
749.53	1082.26
749.86	1091.16
750.19	1085.54
750.52	1085.77
750.85	1086.71
751.18	1100.52
751.51	1086.48
751.84	1099.12
752.16	1096.54
752.49	1094.90
752.82	1089.05
753.15	1092.33
753.48	1080.16
753.81	1076.88
754.14	1078.05
754.47	1080.86
754.80	1085.07
755.13	1081.33
755.46	1078.28
755.79	1077.35
756.12	1083.43
756.45	1089.99
756.78	1089.99
757.11	1092.80
757.43	1094.20
757.76	1086.24
758.09	1072.20
758.42	1072.43
758.75	1074.54
759.08	1069.39
759.41	1059.79
759.74	1067.05
760.07	1075.01
760.39	1069.86
760.72	1066.35
761.05	1075.01
761.38	1084.37
761.71	1087.41
762.04	1099.35
762.36	1100.52
762.69	1102.16
763.02	1093.50
763.35	1089.52
763.68	1081.09
764.01	1084.37
764.33	1084.60
764.66	1077.11
764.99	1078.05
765.32	1078.52
765.65	1076.65
765.97	1055.58
766.30	1067.28
766.63	1058.86
766.96	1055.82
767.28	1059.79
767.61	1077.58
767.94	1074.07
768.27	1088.82
768.59	1095.14
768.92	1093.50
769.25	1093.26
769.58	1088.35
769.90	1080.86
770.23	1076.88
770.56	1083.43
770.89	1082.73
771.21	1093.03
771.54	1096.31
771.87	1091.63
772.19	1073.84
772.52	1072.43
772.85	1060.26
773.17	1060.73
773.50	1077.58
773.83	1091.63
774.15	1089.29
774.48	1096.31
774.81	1098.18
775.13	1088.82
775.46	1077.82
775.79	1079.69
776.11	1081.80
776.44	1067.99
776.77	1073.60
777.09	1079.46
777.42	1080.63
777.74	1087.88
778.07	1085.07
778.40	1082.50
778.72	1083.20
779.05	1085.31
779.37	1069.86
779.70	1074.54
780.03	1071.97
780.35	1068.45
780.68	1068.69
781.00	1075.94
781.33	1087.65
781.65	1087.18
781.98	1088.82
782.31	1085.54
782.63	1078.28
782.96	1071.03
783.28	1066.82
783.61	1071.73
783.93	1076.18
784.26	1078.05
784.58	1075.01
784.91	1080.86
785.23	1078.99
785.56	1069.39
785.88	1072.67
786.21	1088.12
786.53	1076.88
786.86	1076.18
787.18	1085.54
787.51	1088.58
787.83	1069.39
788.16	1076.65
788.48	1080.86
788.81	1079.92
789.13	1073.37
789.46	1076.88
789.78	1080.16
790.10	1079.92
790.43	1082.03
790.75	1080.16
791.08	1085.07
791.40	1084.14
791.73	1082.03
792.05	1073.60
792.37	1082.03
792.70	1089.29
793.02	1094.20
793.35	1093.50
793.67	1093.26
793.99	1091.63
794.32	1084.84
794.64	1082.97
794.96	1083.90
795.29	1081.09
795.61	1081.56
795.93	1086.94
796.26	1074.77
796.58	1071.03
796.91	1075.24
797.23	1081.09
797.55	1075.24
797.87	1082.03
798.20	1078.52
798.52	1073.37
798.84	1061.90
799.17	1055.58
799.49	1060.03
799.81	1058.62
800.14	1062.60
800.46	1067.05
800.78	1077.82
801.10	1070.80
801.43	1072.20
801.75	1085.31
802.07	1083.20
802.40	1074.07
802.72	1083.67
803.04	1094.90
803.36	1087.88
803.69	1088.12
804.01	1094.67
804.33	1088.35
804.65	1077.35
804.97	1080.16
805.30	1081.80
805.62	1076.18
805.94	1078.75
806.26	1084.14
806.58	1090.46
806.91	1086.94
807.23	1085.07
807.55	1084.37
807.87	1081.33
808.19	1066.35
808.52	1068.45
808.84	1069.86
809.16	1064.48
809.48	1066.35
809.80	1067.75
810.12	1073.14
810.44	1074.54
810.77	1072.67
811.09	1071.26
811.41	1076.41
811.73	1070.33
812.05	1071.73
812.37	1069.62
812.69	1076.18
813.01	1074.07
813.33	1075.94
813.66	1073.60
813.98	1077.82
814.30	1067.28
814.62	1074.07
814.94	1075.94
815.26	1072.43
815.58	1074.54
815.90	1083.20
816.22	1077.82
816.54	1082.26
816.86	1079.22
817.18	1084.60
817.50	1079.46
817.82	1082.73
818.14	1081.33
818.46	1083.20
818.78	1083.67
819.10	1086.71
819.42	1097.24
819.74	1093.03
820.06	1096.78
820.38	1091.86
820.70	1092.56
821.02	1076.88
821.34	1074.07
821.66	1085.31
821.98	1092.33
822.30	1092.80
822.62	1089.99
822.94	1092.33
823.26	1080.86
823.58	1075.94
823.90	1066.11
824.22	1072.90
824.54	1076.18
824.86	1085.54
825.18	1075.48
825.50	1086.24
825.81	1081.80
826.13	1071.73
826.45	1064.71
826.77	1076.88
827.09	1070.56
827.41	1072.67
827.73	1080.39
828.05	1086.71
828.36	1085.77
828.68	1098.88
829.00	1098.41
829.32	1093.73
829.64	1087.18
829.96	1087.65
830.28	1079.69
830.59	1073.37
830.91	1069.39
831.23	1063.54
831.55	1048.79
831.87	1047.16
832.19	1049.26
832.50	1053.24
832.82	1056.52
833.14	1074.77
833.46	1075.24
833.78	1083.20
834.09	1092.09
834.41	1100.99
834.73	1091.86
835.05	1093.97
835.36	1090.22
835.68	1087.88
836.00	1075.71
836.32	1070.80
836.63	1061.67
836.95	1062.37
837.27	1068.92
837.59	1070.56
837.90	1085.07
838.22	1094.43
838.54	1098.18
838.85	1093.50
839.17	1098.65
839.49	1096.07
839.80	1088.58
840.12	1077.35
840.44	1078.28
840.76	1081.09
841.07	1073.84
841.39	1084.14
841.71	1090.92
842.02	1083.67
842.34	1073.37
842.65	1073.14
842.97	1064.01
843.29	1070.33
843.60	1076.88
843.92	1083.20
844.24	1088.82
844.55	1093.73
844.87	1087.65
845.18	1086.48
845.50	1091.16
845.82	1089.29
846.13	1092.56
846.45	1097.48
846.76	1097.48
847.08	1095.60
847.40	1097.95
847.71	1087.88
848.03	1084.60
848.34	1086.71
848.66	1093.97
848.97	1086.24
849.29	1090.92
849.60	1077.11
849.92	1073.37
850.24	1064.94
850.55	1072.67
850.87	1071.50
851.18	1084.14
851.50	1077.11
851.81	1083.20
852.13	1086.01
852.44	1084.84
852.76	1084.14
853.07	1091.39
853.39	1071.03
853.70	1068.92
854.01	1072.20
854.33	1066.11
854.64	1060.73
854.96	1081.80
855.27	1077.11
855.59	1074.54
855.90	1080.86
856.22	1084.60
856.53	1065.18
856.84	1071.97
857.16	1072.67
857.47	1077.35
857.79	1078.28
858.10	1087.18
858.41	1079.46
858.73	1080.39
859.04	1073.37
859.36	1076.65
859.67	1080.39
859.98	1076.65
860.30	1072.43
860.61	1077.58
860.92	1074.54
861.24	1077.11
861.55	1088.58
861.87	1080.63
862.18	1080.63
862.49	1078.28
862.81	1074.54
863.12	1062.60
863.43	1073.60
863.74	1066.35
864.06	1066.82
864.37	1059.79
864.68	1069.16
865.00	1073.14
865.31	1075.71
865.62	1073.60
865.94	1083.43
866.25	1079.69
866.56	1078.75
866.87	1080.39
867.19	1086.01
867.50	1080.39
867.81	1087.18
868.12	1085.54
868.44	1079.69
868.75	1073.60
869.06	1077.11
869.37	1072.67
869.68	1068.45
870.00	1069.62
870.31	1064.71
870.62	1064.48
870.93	1063.31
871.24	1072.43
871.56	1082.50
871.87	1092.33
872.18	1101.69
872.49	1109.65
872.80	1098.65
873.12	1088.58
873.43	1088.58
873.74	1083.20
874.05	1074.31
874.36	1074.77
874.67	1076.41
874.98	1076.41
875.29	1075.71
875.61	1087.18
875.92	1095.60
876.23	1099.58
876.54	1092.56
876.85	1097.01
877.16	1086.94
877.47	1090.46
877.78	1089.99
878.09	1102.39
878.40	1089.05
878.72	1098.65
879.03	1094.43
879.34	1087.88
879.65	1082.50
879.96	1084.60
880.27	1080.16
880.58	1081.80
880.89	1091.39
881.20	1083.43
881.51	1086.94
881.82	1079.69
882.13	1079.69
882.44	1074.07
882.75	1079.69
883.06	1083.67
883.37	1077.35
883.68	1070.09
883.99	1070.80
884.30	1070.56
884.61	1068.92
884.92	1082.26
885.23	1084.60
885.54	1081.56
885.85	1082.73
886.16	1078.99
886.47	1073.60
886.78	1079.46
887.08	1072.90
887.39	1072.67
887.70	1074.77
888.01	1075.71
888.32	1076.65
888.63	1086.24
888.94	1086.01
889.25	1088.12
889.56	1097.48
889.87	1090.22
890.17	1090.92
890.48	1090.22
890.79	1088.12
891.10	1081.80
891.41	1094.20
891.72	1100.05
892.03	1102.86
892.34	1102.16
892.64	1095.60
892.95	1092.09
893.26	1084.37
893.57	1077.35
893.88	1074.07
894.18	1070.56
894.49	1067.05
894.80	1067.05
895.11	1072.90
895.42	1073.84
895.72	1078.99
896.03	1079.46
896.34	1075.94
896.65	1079.22
896.96	1080.63
897.26	1079.22
897.57	1071.26
897.88	1070.56
898.19	1067.05
898.49	1077.35
898.80	1082.03
899.11	1085.54
899.41	1087.18
899.72	1081.09
900.03	1082.03
900.34	1089.05
900.64	1097.01
900.95	1095.60
901.26	1099.82
901.56	1090.92
901.87	1085.54
902.18	1078.28
902.48	1086.94
902.79	1077.35
903.10	1077.35
903.40	1073.37
903.71	1071.03
904.02	1063.31
904.32	1071.50
904.63	1068.45
904.94	1070.56
905.24	1071.26
905.55	1078.99
905.85	1083.43
906.16	1085.54
906.47	1090.22
906.77	1091.16
907.08	1080.16
907.38	1075.24
907.69	1083.67
908.00	1069.62
908.30	1067.99
908.61	1080.16
908.91	1083.67
909.22	1079.22
909.52	1081.33
909.83	1083.90
910.14	1083.20
910.44	1082.50
910.75	1076.65
911.05	1084.37
911.36	1081.56
911.66	1074.31
911.97	1074.77
912.27	1075.24
912.58	1071.73
912.88	1071.50
913.19	1071.73
913.49	1075.01
913.80	1077.35
914.10	1071.97
914.41	1066.82
914.71	1081.09
915.01	1068.69
915.32	1067.52
915.62	1068.92
915.93	1076.18
916.23	1064.94
916.54	1078.99
916.84	1086.01
917.15	1095.84
917.45	1097.24
917.75	1090.22
918.06	1075.01
918.36	1063.54
918.67	1067.05
918.97	1061.67
919.27	1070.09
919.58	1090.22
919.88	1096.78
920.18	1086.94
920.49	1089.29
920.79	1089.05
921.10	1083.20
921.40	1086.01
921.70	1090.46
922.01	1091.16
922.31	1085.77
922.61	1071.97
922.92	1064.48
923.22	1060.26
923.52	1056.99
923.82	1061.67
924.13	1067.99
924.43	1067.05
924.73	1069.62
925.04	1074.07
925.34	1076.41
925.64	1079.92
925.94	1087.41
926.25	1089.29
926.55	1089.29
926.85	1091.39
927.15	1089.99
927.46	1080.39
927.76	1072.67
928.06	1073.14
928.36	1075.71
928.67	1077.82
928.97	1086.48
929.27	1088.12
929.57	1094.67
929.87	1093.73
930.18	1091.86
930.48	1083.20
930.78	1089.75
931.08	1087.18
931.38	1077.11
931.69	1075.24
931.99	1086.71
932.29	1081.80
932.59	1074.77
932.89	1084.37
933.19	1091.63
933.49	1078.99
933.80	1082.73
934.10	1092.56
934.40	1094.90
934.70	1091.16
935.00	1094.67
935.30	1083.20
935.60	1072.67
935.90	1070.56
936.20	1069.86
936.50	1074.31
936.81	1086.71
937.11	1093.26
937.41	1090.69
937.71	1090.22
938.01	1085.07
938.31	1086.48
938.61	1079.22
938.91	1072.67
939.21	1075.71
939.51	1079.22
939.81	1077.82
940.11	1070.33
940.41	1073.84
940.71	1062.84
941.01	1067.99
941.31	1063.07
941.61	1069.62
941.91	1069.62
942.21	1078.05
942.51	1071.73
942.81	1073.37
943.11	1081.80
943.41	1086.71
943.71	1080.63
944.01	1093.73
944.31	1098.18
944.61	1090.69
944.90	1081.56
945.20	1084.14
945.50	1073.84
945.80	1067.52
946.10	1065.18
946.40	1065.41
946.70	1069.86
947.00	1057.22
947.30	1053.94
947.60	1053.94
947.89	1063.77
948.19	1058.62
948.49	1071.73
948.79	1067.75
949.09	1069.16
949.39	1059.56
949.69	1070.80
949.98	1066.35
950.28	1067.52
950.58	1078.05
950.88	1076.88
951.18	1071.97
951.48	1076.88
951.77	1084.60
952.07	1084.84
952.37	1090.22
952.67	1084.84
952.97	1081.80
953.26	1075.24
953.56	1066.35
953.86	1071.97
954.16	1080.63
954.45	1085.07
954.75	1094.20
955.05	1098.41
955.35	1094.90
955.64	1082.97
955.94	1082.50
956.24	1082.73
956.54	1075.01
956.83	1071.26
957.13	1081.80
957.43	1081.09
957.72	1075.01
958.02	1083.43
958.32	1083.90
958.61	1083.20
958.91	1083.43
959.21	1096.31
959.50	1091.86
959.80	1089.99
960.10	1089.75
960.39	1094.43
960.69	1082.97
960.99	1081.56
961.28	1087.65
961.58	1084.84
961.87	1089.05
962.17	1085.31
962.47	1089.05
962.76	1086.01
963.06	1090.22
963.36	1074.54
963.65	1081.80
963.95	1073.84
964.24	1069.62
964.54	1057.69
964.83	1063.31
965.13	1063.77
965.42	1067.05
965.72	1072.43
966.02	1082.73
966.31	1075.48
966.61	1071.97
966.90	1073.60
967.20	1071.73
967.49	1072.67
967.79	1086.01
968.08	1084.14
968.38	1091.39
968.67	1089.75
968.97	1087.88
969.26	1078.75
969.56	1077.35
969.85	1069.62
970.15	1074.07
970.44	1073.37
970.74	1079.46
971.03	1087.88
971.32	1093.03
971.62	1093.97
971.91	1096.78
972.21	1094.67
972.50	1092.80
972.80	1086.01
973.09	1078.05
973.38	1072.90
973.68	1081.80
973.97	1085.07
974.27	1090.46
974.56	1091.16
974.85	1090.46
975.15	1083.43
975.44	1077.35
975.73	1075.71
976.03	1084.14
976.32	1080.39
976.61	1078.05
976.91	1086.94
977.20	1088.82
977.49	1090.69
977.79	1087.88
978.08	1089.99
978.37	1076.18
978.67	1071.73
978.96	1065.41
979.25	1068.22
979.55	1062.37
979.84	1065.88
980.13	1071.26
980.42	1067.75
980.72	1068.92
981.01	1068.22
981.30	1064.71
981.59	1068.22
981.89	1075.24
982.18	1078.75
982.47	1077.11
982.76	1089.99
983.06	1095.14
983.35	1091.39
983.64	1083.90
983.93	1092.80
984.22	1087.18
984.52	1074.07
984.81	1071.26
985.10	1083.67
985.39	1083.67
985.68	1083.20
985.97	1087.18
986.27	1091.39
986.56	1091.16
986.85	1090.69
987.14	1092.80
987.43	1094.67
987.72	1101.46
988.01	1104.26
988.31	1100.05
988.60	1104.97
988.89	1105.20
989.18	1094.67
989.47	1075.94
989.76	1074.77
990.05	1063.77
990.34	1065.18
990.63	1073.37
990.92	1087.41
991.21	1088.35
991.51	1081.33
991.80	1071.50
992.09	1065.88
992.38	1063.07
992.67	1063.31
992.96	1079.69
993.25	1086.24
993.54	1089.05
993.83	1091.16
994.12	1095.60
994.41	1091.39
994.70	1098.18
994.99	1092.09
995.28	1093.50
995.57	1085.54
995.86	1084.84
996.15	1075.24
996.44	1085.77
996.73	1073.84
997.02	1073.84
997.31	1075.48
997.59	1075.01
997.88	1077.58
998.17	1077.11
998.46	1082.50
998.75	1082.26
999.04	1088.35
999.33	1080.39
999.62	1084.37
999.91	1089.75
1000.20	1082.50
1000.49	1081.09
1000.77	1084.37
1001.06	1092.09
1001.35	1086.48
1001.64	1093.73
1001.93	1094.90
1002.22	1090.46
1002.51	1086.48
1002.79	1087.65
1003.08	1075.71
1003.37	1075.71
1003.66	1068.69
1003.95	1074.07
1004.23	1075.48
1004.52	1074.31
1004.81	1073.60
1005.10	1071.03
1005.39	1074.31
1005.67	1063.77
1005.96	1067.05
1006.25	1060.03
1006.54	1068.92
1006.83	1064.94
1007.11	1070.56
1007.40	1068.92
1007.69	1065.41
1007.97	1056.75
1008.26	1042.94
1008.55	1047.62
1008.84	1063.31
1009.12	1072.90
1009.41	1084.37
1009.70	1090.92
1009.98	1090.46
1010.27	1092.56
1010.56	1090.22
1010.85	1092.33
1011.13	1094.43
1011.42	1089.75
1011.71	1088.58
1011.99	1093.50
1012.28	1086.48
1012.56	1089.05
1012.85	1096.07
1013.14	1091.86
1013.42	1093.26
1013.71	1095.14
1014.00	1094.67
1014.28	1087.41
1014.57	1089.52
1014.85	1084.14
1015.14	1083.20
1015.43	1093.73
1015.71	1093.50
1016.00	1090.92
1016.28	1086.94
1016.57	1078.75
1016.85	1075.48
1017.14	1086.24
1017.43	1081.56
1017.71	1089.75
1018.00	1096.78
1018.28	1093.26
1018.57	1083.43
1018.85	1084.84
1019.14	1078.99
1019.42	1068.69
1019.71	1066.35
1019.99	1069.62
1020.28	1067.05
1020.56	1067.75
1020.85	1077.82
1021.13	1077.11
1021.42	1076.88
1021.70	1071.03
1021.99	1060.73
1022.27	1053.48
1022.55	1026.32
1022.84	1033.35
>>>>>End Processed Spectral Data<<<<<
