SpectraSuite Data File
++++++++++++++++++++++++++++++++++++
Date: Mon Aug 26 10:25:55 PDT 2019
User: corrico
Dark Spectrum Present: No
Reference Spectrum Present: No
Number of Sampled Component Spectra: 1
Spectrometers: USB2+H06089
Integration Time (usec): 10000 (USB2+H06089)
Spectra Averaged: 2 (USB2+H06089)
Boxcar Smoothing: 2 (USB2+H06089)
Correct for Electrical Dark: No (USB2+H06089)
Strobe/Lamp Enabled: No (USB2+H06089)
Correct for Detector Non-linearity: No (USB2+H06089)
Correct for Stray Light: No (USB2+H06089)
Number of Pixels in Processed Spectrum: 2048
>>>>>Begin Processed Spectral Data<<<<<
339.70	1013.45
340.07	1013.45
340.45	989.81
340.82	968.75
341.19	949.09
341.57	935.51
341.94	923.34
342.31	916.32
342.69	918.89
343.06	916.32
343.43	902.98
343.81	915.85
344.18	922.17
344.55	919.60
344.93	919.83
345.30	929.89
345.67	930.13
346.04	933.41
346.42	939.26
346.79	939.49
347.16	944.64
347.54	939.02
347.91	937.85
348.28	951.19
348.65	969.68
349.03	982.09
349.40	1006.66
349.77	1026.09
350.14	1035.45
350.52	1046.92
350.89	1054.18
351.26	1049.26
351.63	1044.82
352.01	1050.90
352.38	1048.33
352.75	1052.54
353.12	1059.33
353.50	1059.56
353.87	1060.50
354.24	1067.75
354.61	1067.75
354.98	1065.18
355.36	1066.11
355.73	1066.58
356.10	1065.88
356.47	1062.84
356.84	1075.24
357.22	1081.09
357.59	1079.22
357.96	1082.73
358.33	1087.18
358.70	1083.43
359.08	1080.86
359.45	1078.52
359.82	1076.18
360.19	1067.99
360.56	1060.96
360.94	1064.24
361.31	1070.56
361.68	1060.50
362.05	1071.03
362.42	1072.67
362.79	1068.22
363.16	1059.33
363.54	1063.77
363.91	1055.35
364.28	1054.18
364.65	1064.01
365.02	1065.88
365.39	1072.90
365.76	1075.24
366.14	1071.26
366.51	1056.99
366.88	1049.26
367.25	1048.09
367.62	1052.77
367.99	1060.73
368.36	1068.92
368.73	1079.69
369.10	1074.77
369.48	1078.52
369.85	1076.88
370.22	1073.84
370.59	1069.39
370.96	1075.01
371.33	1060.73
371.70	1066.82
372.07	1067.75
372.44	1060.96
372.81	1054.41
373.18	1068.92
373.55	1057.69
373.93	1059.56
374.30	1063.07
374.67	1067.75
375.04	1052.77
375.41	1062.37
375.78	1060.26
376.15	1064.24
376.52	1064.71
376.89	1074.07
377.26	1065.65
377.63	1064.24
378.00	1058.16
378.37	1058.86
378.74	1056.52
379.11	1058.86
379.48	1071.03
379.85	1080.39
380.22	1090.69
380.59	1084.84
380.96	1088.12
381.33	1079.92
381.70	1080.39
382.07	1076.41
382.44	1083.43
382.81	1086.71
383.18	1078.99
383.55	1072.43
383.92	1071.03
384.29	1064.24
384.66	1054.65
385.03	1067.28
385.40	1069.16
385.77	1058.86
386.14	1067.28
386.51	1074.54
386.88	1059.09
387.25	1064.48
387.62	1077.11
387.99	1070.56
388.36	1068.92
388.73	1081.56
389.10	1079.69
389.46	1071.73
389.83	1082.50
390.20	1084.60
390.57	1083.67
390.94	1081.80
391.31	1072.20
391.68	1063.07
392.05	1065.88
392.42	1066.82
392.79	1060.50
393.16	1068.69
393.53	1078.28
393.89	1074.07
394.26	1063.31
394.63	1056.52
395.00	1054.18
395.37	1056.28
395.74	1054.18
396.11	1061.20
396.48	1083.90
396.84	1088.82
397.21	1080.86
397.58	1077.82
397.95	1082.97
398.32	1076.88
398.69	1080.39
399.06	1077.58
399.42	1081.33
399.79	1077.82
400.16	1073.14
400.53	1078.75
400.90	1084.60
401.27	1083.67
401.64	1086.01
402.00	1095.14
402.37	1086.01
402.74	1077.11
403.11	1065.88
403.48	1059.79
403.84	1057.45
404.21	1050.90
404.58	1055.82
404.95	1067.52
405.32	1077.11
405.68	1076.65
406.05	1084.14
406.42	1082.97
406.79	1069.16
407.16	1060.50
407.52	1052.30
407.89	1045.28
408.26	1044.82
408.63	1057.22
408.99	1070.33
409.36	1076.41
409.73	1086.71
410.10	1089.52
410.47	1089.99
410.83	1078.75
411.20	1078.52
411.57	1078.52
411.94	1080.39
412.30	1078.99
412.67	1079.69
413.04	1076.88
413.40	1075.24
413.77	1073.14
414.14	1086.48
414.51	1090.69
414.87	1093.73
415.24	1093.03
415.61	1087.18
415.97	1076.18
416.34	1078.05
416.71	1070.80
417.08	1067.52
417.44	1075.01
417.81	1078.28
418.18	1078.75
418.54	1086.71
418.91	1092.09
419.28	1085.77
419.64	1085.54
420.01	1080.63
420.38	1086.94
420.74	1079.22
421.11	1081.09
421.48	1085.07
421.84	1087.65
422.21	1074.07
422.58	1072.20
422.94	1075.48
423.31	1066.11
423.68	1059.56
424.04	1064.24
424.41	1065.65
424.77	1056.99
425.14	1059.79
425.51	1066.82
425.87	1072.90
426.24	1068.92
426.61	1069.16
426.97	1069.16
427.34	1077.35
427.70	1070.80
428.07	1082.50
428.44	1089.75
428.80	1087.41
429.17	1072.43
429.53	1073.60
429.90	1077.35
430.27	1074.31
430.63	1077.35
431.00	1087.88
431.36	1095.14
431.73	1088.35
432.09	1091.86
432.46	1084.60
432.83	1084.60
433.19	1090.69
433.56	1094.90
433.92	1091.63
434.29	1098.65
434.65	1087.88
435.02	1085.54
435.38	1084.37
435.75	1088.58
436.11	1089.75
436.48	1098.18
436.84	1089.75
437.21	1078.99
437.57	1083.20
437.94	1080.86
438.30	1073.14
438.67	1077.82
439.03	1084.84
439.40	1086.01
439.76	1089.05
440.13	1083.67
440.49	1067.99
440.86	1064.71
441.22	1054.88
441.59	1056.99
441.95	1067.99
442.32	1078.05
442.68	1084.84
443.05	1096.54
443.41	1089.05
443.78	1083.20
444.14	1077.82
444.51	1064.94
444.87	1067.99
445.24	1070.80
445.60	1076.88
445.96	1084.14
446.33	1091.39
446.69	1082.50
447.06	1085.31
447.42	1076.88
447.79	1078.05
448.15	1078.05
448.51	1075.24
448.88	1081.09
449.24	1098.41
449.61	1088.35
449.97	1094.67
450.33	1103.33
450.70	1098.41
451.06	1092.09
451.43	1099.58
451.79	1103.09
452.15	1100.75
452.52	1096.78
452.88	1094.20
453.24	1087.88
453.61	1083.67
453.97	1084.37
454.34	1079.92
454.70	1077.35
455.06	1087.88
455.43	1081.09
455.79	1070.80
456.15	1070.56
456.52	1075.71
456.88	1071.97
457.24	1071.26
457.61	1077.35
457.97	1082.03
458.33	1074.77
458.70	1062.84
459.06	1074.07
459.42	1074.07
459.79	1072.20
460.15	1081.33
460.51	1093.26
460.88	1075.94
461.24	1073.60
461.60	1082.50
461.96	1081.33
462.33	1078.28
462.69	1087.41
463.05	1092.80
463.42	1088.12
463.78	1085.31
464.14	1086.48
464.50	1076.41
464.87	1081.33
465.23	1084.37
465.59	1088.35
465.95	1080.39
466.32	1096.54
466.68	1079.69
467.04	1073.60
467.40	1060.73
467.77	1074.31
468.13	1064.48
468.49	1064.94
468.85	1072.20
469.22	1074.31
469.58	1065.41
469.94	1067.75
470.30	1075.71
470.66	1075.48
471.03	1071.50
471.39	1083.20
471.75	1082.97
472.11	1075.71
472.47	1067.52
472.84	1071.73
473.20	1069.86
473.56	1071.73
473.92	1081.80
474.28	1076.41
474.65	1078.75
475.01	1073.84
475.37	1077.11
475.73	1067.28
476.09	1071.03
476.45	1076.65
476.81	1071.73
477.18	1064.24
477.54	1068.92
477.90	1084.60
478.26	1083.67
478.62	1093.03
478.98	1094.90
479.34	1102.86
479.71	1104.50
480.07	1104.97
480.43	1100.52
480.79	1099.12
481.15	1097.71
481.51	1094.43
481.87	1090.92
482.23	1085.77
482.59	1082.50
482.96	1077.82
483.32	1072.90
483.68	1067.05
484.04	1067.99
484.40	1069.16
484.76	1068.45
485.12	1063.54
485.48	1070.09
485.84	1081.56
486.20	1090.46
486.56	1092.33
486.92	1091.39
487.28	1099.82
487.64	1092.09
488.00	1087.88
488.37	1083.20
488.73	1092.33
489.09	1079.92
489.45	1080.86
489.81	1081.56
490.17	1085.77
490.53	1075.24
490.89	1088.82
491.25	1079.69
491.61	1083.67
491.97	1087.41
492.33	1084.84
492.69	1078.05
493.05	1093.97
493.41	1093.97
493.77	1093.73
494.13	1103.56
494.49	1103.56
494.85	1091.39
495.21	1091.39
495.57	1092.56
495.93	1089.29
496.29	1087.41
496.64	1084.37
497.00	1073.84
497.36	1066.35
497.72	1070.09
498.08	1065.65
498.44	1074.07
498.80	1090.69
499.16	1095.37
499.52	1089.52
499.88	1097.71
500.24	1093.03
500.60	1083.67
500.96	1085.54
501.32	1088.12
501.68	1083.43
502.03	1084.84
502.39	1086.71
502.75	1089.05
503.11	1091.16
503.47	1091.16
503.83	1097.48
504.19	1103.33
504.55	1098.65
504.91	1109.18
505.26	1110.82
505.62	1101.46
505.98	1092.56
506.34	1086.94
506.70	1075.01
507.06	1071.26
507.42	1085.77
507.78	1096.54
508.13	1100.75
508.49	1108.71
508.85	1104.26
509.21	1096.07
509.57	1094.90
509.93	1092.33
510.28	1078.75
510.64	1085.77
511.00	1081.80
511.36	1074.07
511.72	1065.88
512.07	1062.37
512.43	1053.94
512.79	1056.52
513.15	1048.56
513.51	1067.28
513.86	1077.11
514.22	1091.39
514.58	1098.41
514.94	1101.46
515.30	1098.41
515.65	1102.16
516.01	1100.99
516.37	1095.37
516.73	1102.16
517.08	1097.95
517.44	1095.37
517.80	1087.18
518.16	1083.20
518.51	1085.54
518.87	1093.50
519.23	1089.75
519.59	1085.77
519.94	1090.22
520.30	1086.71
520.66	1080.16
521.01	1079.69
521.37	1089.29
521.73	1092.80
522.09	1099.12
522.44	1093.26
522.80	1088.82
523.16	1091.63
523.51	1090.92
523.87	1086.94
524.23	1092.09
524.58	1101.92
524.94	1097.48
525.30	1100.75
525.65	1103.33
526.01	1105.90
526.37	1105.67
526.72	1100.75
527.08	1093.26
527.44	1097.24
527.79	1097.24
528.15	1093.97
528.51	1096.54
528.86	1096.54
529.22	1093.97
529.58	1091.86
529.93	1093.03
530.29	1094.43
530.65	1100.52
531.00	1103.80
531.36	1099.12
531.71	1084.37
532.07	1087.88
532.43	1082.50
532.78	1083.20
533.14	1090.92
533.49	1113.39
533.85	1109.41
534.21	1108.95
534.56	1106.61
534.92	1108.01
535.27	1095.60
535.63	1098.41
535.98	1095.37
536.34	1087.88
536.69	1083.67
537.05	1100.75
537.41	1096.78
537.76	1104.50
538.12	1098.18
538.47	1099.35
538.83	1091.63
539.18	1104.26
539.54	1109.65
539.89	1122.05
540.25	1119.95
540.60	1115.97
540.96	1105.90
541.31	1096.31
541.67	1086.48
542.02	1086.94
542.38	1091.86
542.73	1085.77
543.09	1086.71
543.44	1089.29
543.80	1088.35
544.15	1082.97
544.51	1091.86
544.86	1092.33
545.22	1089.52
545.57	1085.31
545.93	1090.46
546.28	1086.48
546.64	1095.60
546.99	1104.50
547.35	1115.73
547.70	1111.29
548.05	1115.50
548.41	1096.78
548.76	1091.86
549.12	1088.12
549.47	1083.90
549.83	1082.97
550.18	1092.09
550.53	1101.22
550.89	1095.60
551.24	1093.97
551.60	1096.54
551.95	1094.90
552.30	1088.12
552.66	1097.95
553.01	1101.46
553.37	1089.05
553.72	1084.37
554.07	1079.69
554.43	1068.92
554.78	1065.65
555.13	1076.18
555.49	1084.14
555.84	1094.43
556.19	1104.50
556.55	1110.58
556.90	1111.75
557.26	1116.67
557.61	1104.73
557.96	1100.52
558.32	1095.14
558.67	1089.29
559.02	1084.84
559.37	1091.16
559.73	1087.88
560.08	1087.41
560.43	1078.52
560.79	1076.18
561.14	1081.33
561.49	1078.75
561.85	1073.37
562.20	1081.33
562.55	1077.82
562.90	1075.71
563.26	1090.92
563.61	1096.54
563.96	1094.90
564.32	1100.52
564.67	1095.84
565.02	1085.07
565.37	1089.52
565.73	1093.50
566.08	1086.71
566.43	1087.18
566.78	1079.46
567.14	1067.05
567.49	1069.16
567.84	1072.67
568.19	1067.75
568.54	1074.31
568.90	1083.67
569.25	1080.86
569.60	1077.11
569.95	1080.86
570.31	1092.09
570.66	1101.92
571.01	1111.29
571.36	1110.35
571.71	1115.27
572.06	1100.99
572.42	1102.39
572.77	1100.99
573.12	1108.95
573.47	1102.16
573.82	1113.16
574.18	1100.05
574.53	1083.20
574.88	1074.07
575.23	1071.73
575.58	1065.41
575.93	1066.82
576.28	1072.90
576.64	1075.94
576.99	1082.97
577.34	1089.29
577.69	1093.03
578.04	1094.43
578.39	1099.35
578.74	1093.73
579.09	1080.16
579.44	1079.22
579.80	1080.63
580.15	1074.54
580.50	1071.26
580.85	1076.18
581.20	1071.97
581.55	1074.07
581.90	1078.52
582.25	1082.26
582.60	1081.33
582.95	1073.37
583.30	1065.88
583.65	1064.24
584.00	1063.31
584.35	1061.20
584.71	1076.88
585.06	1085.54
585.41	1090.22
585.76	1096.31
586.11	1103.09
586.46	1094.67
586.81	1085.31
587.16	1078.99
587.51	1071.03
587.86	1067.28
588.21	1066.82
588.56	1081.33
588.91	1077.35
589.26	1070.33
589.61	1071.50
589.96	1081.80
590.31	1072.20
590.66	1079.22
591.01	1082.03
591.36	1084.84
591.71	1085.54
592.06	1087.65
592.41	1086.01
592.76	1084.60
593.10	1084.60
593.45	1069.39
593.80	1065.88
594.15	1064.24
594.50	1082.50
594.85	1084.84
595.20	1095.60
595.55	1096.78
595.90	1097.71
596.25	1090.22
596.60	1084.14
596.95	1085.77
597.30	1086.48
597.64	1139.14
597.99	1138.44
598.34	1138.44
598.69	1133.99
599.04	1132.59
599.39	1076.18
599.74	1080.63
600.09	1081.56
600.44	1074.54
600.78	1079.69
601.13	1084.14
601.48	1077.82
601.83	1073.60
602.18	1077.58
602.53	1071.73
602.88	1075.94
603.22	1080.39
603.57	1084.14
603.92	1083.20
604.27	1090.69
604.62	1084.84
604.97	1074.77
605.31	1073.14
605.66	1076.88
606.01	1072.20
606.36	1075.71
606.71	1081.33
607.05	1080.63
607.40	1077.58
607.75	1089.29
608.10	1096.54
608.44	1100.99
608.79	1100.75
609.14	1103.80
609.49	1087.65
609.84	1080.63
610.18	1082.97
610.53	1088.35
610.88	1098.18
611.23	1107.07
611.57	1105.20
611.92	1096.78
612.27	1092.09
612.62	1091.39
612.96	1081.56
613.31	1083.67
613.66	1080.86
614.00	1074.31
614.35	1067.05
614.70	1075.48
615.05	1079.92
615.39	1087.88
615.74	1098.88
616.09	1098.41
616.43	1086.71
616.78	1082.03
617.13	1083.43
617.47	1081.33
617.82	1084.14
618.17	1091.63
618.51	1096.78
618.86	1089.29
619.21	1083.43
619.55	1084.84
619.90	1086.94
620.25	1080.86
620.59	1085.54
620.94	1090.46
621.29	1082.26
621.63	1082.73
621.98	1082.03
622.32	1080.39
622.67	1074.54
623.02	1080.16
623.36	1079.46
623.71	1079.92
624.05	1077.11
624.40	1087.65
624.75	1078.99
625.09	1079.22
625.44	1076.18
625.78	1077.11
626.13	1072.43
626.48	1079.22
626.82	1075.48
627.17	1079.69
627.51	1075.71
627.86	1077.35
628.20	1079.69
628.55	1081.56
628.89	1077.58
629.24	1087.88
629.58	1086.94
629.93	1088.82
630.28	1088.35
630.62	1090.92
630.97	1087.65
631.31	1081.33
631.66	1072.67
632.00	1069.39
632.35	1072.67
632.69	1082.26
633.04	1089.75
633.38	1098.41
633.73	1102.63
634.07	1098.18
634.42	1093.50
634.76	1090.69
635.11	1090.46
635.45	1086.71
635.79	1085.54
636.14	1088.82
636.48	1081.56
636.83	1077.35
637.17	1070.33
637.52	1073.37
637.86	1070.09
638.21	1074.77
638.55	1079.46
638.89	1085.07
639.24	1092.33
639.58	1093.97
639.93	1098.41
640.27	1093.73
640.61	1097.24
640.96	1084.37
641.30	1076.65
641.65	1082.73
641.99	1081.09
642.33	1074.07
642.68	1073.14
643.02	1068.45
643.37	1065.41
643.71	1063.54
644.05	1079.22
644.40	1081.56
644.74	1086.71
645.08	1080.63
645.43	1077.82
645.77	1078.75
646.11	1085.07
646.46	1088.58
646.80	1093.97
647.14	1103.56
647.49	1102.39
647.83	1099.58
648.17	1100.29
648.52	1098.18
648.86	1093.50
649.20	1086.48
649.55	1081.33
649.89	1081.33
650.23	1078.52
650.57	1075.01
650.92	1070.80
651.26	1079.22
651.60	1072.20
651.95	1078.75
652.29	1090.92
652.63	1099.35
652.97	1090.46
653.32	1092.09
653.66	1077.82
654.00	1066.58
654.34	1056.05
654.69	1065.65
655.03	1067.99
655.37	1078.52
655.71	1082.50
656.05	1091.39
656.40	1081.09
656.74	1071.50
657.08	1073.37
657.42	1071.97
657.76	1067.99
658.11	1081.09
658.45	1086.24
658.79	1089.05
659.13	1085.54
659.47	1089.75
659.82	1073.37
660.16	1080.16
660.50	1066.82
660.84	1074.31
661.18	1070.09
661.52	1084.84
661.87	1085.77
662.21	1090.46
662.55	1088.58
662.89	1086.71
663.23	1083.90
663.57	1082.03
663.91	1084.84
664.25	1079.92
664.60	1079.69
664.94	1085.54
665.28	1085.31
665.62	1078.52
665.96	1075.24
666.30	1087.18
666.64	1081.33
666.98	1073.84
667.32	1075.94
667.66	1073.60
668.01	1064.01
668.35	1064.94
668.69	1068.69
669.03	1076.65
669.37	1089.05
669.71	1092.80
670.05	1089.75
670.39	1100.52
670.73	1098.41
671.07	1096.31
671.41	1097.71
671.75	1100.75
672.09	1093.97
672.43	1087.65
672.77	1080.16
673.11	1086.48
673.45	1085.77
673.79	1081.56
674.13	1096.07
674.47	1112.46
674.81	1086.24
675.15	1082.97
675.49	1089.75
675.83	1089.05
676.17	1075.48
676.51	1088.82
676.85	1078.99
677.19	1080.16
677.53	1076.88
677.87	1083.43
678.21	1085.31
678.55	1095.84
678.89	1087.65
679.23	1088.12
679.57	1082.73
679.90	1076.18
680.24	1076.41
680.58	1086.24
680.92	1078.52
681.26	1084.84
681.60	1095.84
681.94	1088.35
682.28	1081.56
682.62	1078.75
682.96	1070.33
683.29	1064.94
683.63	1073.84
683.97	1070.56
684.31	1075.94
684.65	1079.22
684.99	1078.52
685.33	1086.71
685.67	1083.90
686.00	1084.84
686.34	1085.07
686.68	1078.28
687.02	1063.54
687.36	1073.14
687.70	1071.97
688.03	1070.56
688.37	1082.26
688.71	1083.43
689.05	1076.88
689.39	1078.28
689.72	1081.09
690.06	1077.35
690.40	1093.50
690.74	1105.90
691.08	1106.37
691.41	1103.09
691.75	1099.82
692.09	1082.26
692.43	1066.11
692.76	1062.14
693.10	1065.41
693.44	1067.99
693.78	1070.09
694.11	1077.35
694.45	1075.94
694.79	1073.60
695.13	1078.28
695.46	1083.67
695.80	1072.90
696.14	1075.94
696.48	1084.37
696.81	1089.75
697.15	1090.22
697.49	1106.37
697.82	1109.88
698.16	1103.80
698.50	1095.84
698.83	1085.31
699.17	1082.03
699.51	1078.99
699.84	1071.97
700.18	1066.11
700.52	1074.54
700.85	1071.03
701.19	1069.62
701.53	1074.77
701.86	1069.39
702.20	1075.71
702.54	1082.50
702.87	1092.56
703.21	1097.95
703.55	1105.20
703.88	1100.99
704.22	1089.52
704.55	1087.88
704.89	1091.16
705.23	1089.52
705.56	1079.22
705.90	1090.46
706.23	1078.99
706.57	1077.11
706.91	1082.26
707.24	1082.50
707.58	1076.65
707.91	1080.16
708.25	1076.88
708.58	1086.24
708.92	1085.54
709.26	1089.52
709.59	1096.78
709.93	1094.90
710.26	1085.54
710.60	1082.50
710.93	1070.80
711.27	1066.58
711.60	1064.24
711.94	1065.18
712.27	1074.54
712.61	1082.26
712.94	1075.94
713.28	1078.99
713.61	1077.35
713.95	1080.39
714.28	1082.03
714.62	1084.37
714.95	1084.60
715.29	1084.14
715.62	1078.05
715.96	1065.41
716.29	1053.94
716.63	1050.20
716.96	1057.45
717.29	1065.41
717.63	1073.14
717.96	1087.65
718.30	1089.52
718.63	1084.14
718.97	1073.14
719.30	1077.35
719.63	1071.97
719.97	1076.18
720.30	1076.65
720.64	1083.43
720.97	1090.92
721.30	1092.56
721.64	1089.99
721.97	1086.48
722.31	1089.52
722.64	1077.82
722.97	1074.77
723.31	1074.77
723.64	1081.33
723.97	1088.58
724.31	1097.48
724.64	1113.16
724.98	1114.09
725.31	1116.90
725.64	1099.58
725.98	1089.99
726.31	1080.86
726.64	1076.88
726.97	1063.77
727.31	1062.14
727.64	1064.48
727.97	1057.22
728.31	1057.92
728.64	1057.92
728.97	1068.22
729.31	1070.56
729.64	1076.41
729.97	1080.16
730.30	1083.90
730.64	1087.18
730.97	1081.80
731.30	1087.18
731.63	1087.88
731.97	1085.77
732.30	1080.63
732.63	1084.37
732.96	1080.39
733.30	1078.75
733.63	1079.92
733.96	1073.60
734.29	1076.88
734.63	1074.54
734.96	1072.90
735.29	1069.16
735.62	1076.88
735.95	1072.90
736.29	1073.14
736.62	1071.26
736.95	1079.22
737.28	1078.28
737.61	1078.52
737.94	1083.90
738.28	1086.01
738.61	1087.18
738.94	1094.20
739.27	1086.01
739.60	1081.80
739.93	1080.16
740.27	1075.01
740.60	1063.07
740.93	1067.99
741.26	1072.43
741.59	1063.31
741.92	1063.54
742.25	1073.84
742.58	1076.88
742.91	1071.50
743.25	1088.35
743.58	1091.86
743.91	1082.50
744.24	1083.90
744.57	1082.26
744.90	1079.92
745.23	1089.05
745.56	1093.97
745.89	1103.09
746.22	1103.80
746.55	1102.16
746.88	1092.56
747.21	1096.78
747.54	1081.33
747.87	1096.78
748.20	1087.65
748.53	1084.84
748.87	1082.73
749.20	1089.99
749.53	1074.54
749.86	1075.71
750.19	1082.26
750.52	1077.35
750.85	1065.18
751.18	1063.77
751.51	1075.24
751.84	1075.48
752.16	1082.97
752.49	1097.71
752.82	1103.09
753.15	1102.63
753.48	1100.05
753.81	1101.92
754.14	1099.35
754.47	1103.56
754.80	1099.82
755.13	1102.39
755.46	1093.50
755.79	1087.41
756.12	1079.92
756.45	1083.20
756.78	1065.88
757.11	1070.56
757.43	1082.73
757.76	1083.67
758.09	1071.73
758.42	1078.52
758.75	1077.35
759.08	1070.56
759.41	1073.37
759.74	1076.41
760.07	1083.67
760.39	1082.03
760.72	1085.31
761.05	1077.35
761.38	1079.92
761.71	1080.63
762.04	1082.03
762.36	1084.14
762.69	1084.84
763.02	1085.07
763.35	1091.16
763.68	1093.26
764.01	1078.52
764.33	1078.99
764.66	1081.56
764.99	1078.75
765.32	1069.39
765.65	1082.26
765.97	1082.97
766.30	1074.31
766.63	1072.90
766.96	1077.58
767.28	1067.52
767.61	1060.03
767.94	1068.69
768.27	1070.33
768.59	1074.07
768.92	1085.07
769.25	1094.67
769.58	1097.95
769.90	1095.60
770.23	1091.39
770.56	1089.29
770.89	1085.07
771.21	1065.88
771.54	1070.33
771.87	1074.77
772.19	1067.28
772.52	1070.09
772.85	1098.18
773.17	1090.92
773.50	1086.48
773.83	1092.56
774.15	1103.09
774.48	1088.82
774.81	1089.29
775.13	1096.78
775.46	1098.18
775.79	1091.86
776.11	1089.99
776.44	1090.69
776.77	1087.88
777.09	1079.22
777.42	1078.28
777.74	1083.90
778.07	1081.56
778.40	1083.67
778.72	1081.33
779.05	1084.84
779.37	1076.65
779.70	1073.37
780.03	1074.07
780.35	1080.16
780.68	1068.92
781.00	1073.37
781.33	1079.22
781.65	1075.01
781.98	1076.88
782.31	1089.52
782.63	1090.69
782.96	1097.24
783.28	1093.73
783.61	1104.50
783.93	1096.31
784.26	1090.46
784.58	1084.14
784.91	1077.35
785.23	1071.03
785.56	1074.54
785.88	1081.56
786.21	1083.20
786.53	1093.73
786.86	1091.63
787.18	1093.73
787.51	1087.65
787.83	1085.07
788.16	1083.43
788.48	1077.82
788.81	1074.54
789.13	1085.54
789.46	1089.52
789.78	1098.88
790.10	1103.56
790.43	1095.60
790.75	1087.65
791.08	1083.67
791.40	1071.97
791.73	1080.63
792.05	1080.16
792.37	1090.92
792.70	1095.37
793.02	1095.60
793.35	1093.73
793.67	1102.16
793.99	1092.09
794.32	1085.31
794.64	1091.86
794.96	1089.75
795.29	1092.09
795.61	1091.86
795.93	1096.07
796.26	1085.07
796.58	1077.58
796.91	1080.39
797.23	1082.50
797.55	1082.50
797.87	1095.14
798.20	1089.75
798.52	1082.26
798.84	1085.54
799.17	1083.90
799.49	1079.69
799.81	1081.09
800.14	1081.33
800.46	1074.31
800.78	1067.05
801.10	1068.22
801.43	1073.60
801.75	1073.14
802.07	1080.86
802.40	1082.97
802.72	1079.92
803.04	1078.75
803.36	1081.09
803.69	1083.90
804.01	1082.03
804.33	1087.41
804.65	1093.26
804.97	1097.24
805.30	1087.18
805.62	1089.52
805.94	1088.12
806.26	1086.24
806.58	1086.01
806.91	1077.82
807.23	1082.03
807.55	1086.24
807.87	1088.12
808.19	1077.11
808.52	1087.41
808.84	1092.80
809.16	1079.22
809.48	1073.84
809.80	1088.35
810.12	1091.16
810.44	1093.26
810.77	1091.86
811.09	1098.65
811.41	1093.26
811.73	1095.60
812.05	1086.01
812.37	1094.43
812.69	1082.26
813.01	1079.46
813.33	1080.86
813.66	1079.92
813.98	1079.92
814.30	1094.90
814.62	1097.48
814.94	1088.12
815.26	1084.14
815.58	1078.75
815.90	1068.92
816.22	1069.86
816.54	1065.18
816.86	1077.11
817.18	1082.50
817.50	1080.16
817.82	1068.22
818.14	1080.86
818.46	1064.71
818.78	1065.41
819.10	1073.60
819.42	1082.03
819.74	1074.54
820.06	1086.94
820.38	1076.41
820.70	1068.69
821.02	1058.86
821.34	1061.43
821.66	1061.67
821.98	1082.73
822.30	1088.58
822.62	1101.22
822.94	1100.05
823.26	1107.78
823.58	1094.20
823.90	1097.71
824.22	1102.86
824.54	1099.58
824.86	1088.12
825.18	1091.63
825.50	1089.05
825.81	1082.26
826.13	1081.09
826.45	1084.37
826.77	1074.77
827.09	1072.43
827.41	1071.73
827.73	1075.71
828.05	1078.75
828.36	1083.90
828.68	1081.56
829.00	1086.71
829.32	1090.69
829.64	1090.69
829.96	1089.29
830.28	1082.50
830.59	1075.48
830.91	1069.86
831.23	1064.24
831.55	1066.11
831.87	1084.84
832.19	1091.16
832.50	1096.54
832.82	1108.01
833.14	1115.97
833.46	1106.61
833.78	1105.67
834.09	1109.41
834.41	1104.03
834.73	1089.99
835.05	1082.73
835.36	1073.37
835.68	1061.67
836.00	1056.28
836.32	1054.65
836.63	1056.05
836.95	1058.39
837.27	1062.84
837.59	1067.05
837.90	1082.03
838.22	1086.71
838.54	1094.90
838.85	1092.80
839.17	1089.75
839.49	1083.67
839.80	1086.01
840.12	1085.07
840.44	1090.69
840.76	1087.18
841.07	1077.82
841.39	1072.20
841.71	1068.69
842.02	1064.94
842.34	1063.07
842.65	1071.03
842.97	1069.16
843.29	1071.26
843.60	1072.20
843.92	1079.69
844.24	1080.63
844.55	1080.39
844.87	1084.84
845.18	1085.07
845.50	1097.24
845.82	1100.05
846.13	1104.73
846.45	1091.39
846.76	1089.05
847.08	1085.07
847.40	1081.80
847.71	1074.31
848.03	1082.50
848.34	1085.31
848.66	1070.80
848.97	1075.01
849.29	1073.60
849.60	1071.97
849.92	1069.16
850.24	1070.33
850.55	1060.03
850.87	1061.90
851.18	1054.41
851.50	1056.05
851.81	1067.28
852.13	1067.99
852.44	1070.80
852.76	1082.26
853.07	1081.56
853.39	1078.75
853.70	1091.86
854.01	1099.82
854.33	1104.26
854.64	1104.03
854.96	1101.92
855.27	1089.75
855.59	1082.26
855.90	1069.86
856.22	1069.62
856.53	1067.99
856.84	1075.24
857.16	1069.39
857.47	1080.16
857.79	1078.52
858.10	1082.73
858.41	1076.41
858.73	1087.41
859.04	1083.90
859.36	1092.33
859.67	1082.73
859.98	1085.31
860.30	1091.39
860.61	1093.73
860.92	1093.03
861.24	1096.78
861.55	1092.80
861.87	1088.12
862.18	1078.52
862.49	1074.07
862.81	1071.03
863.12	1078.05
863.43	1071.73
863.74	1075.01
864.06	1078.28
864.37	1075.94
864.68	1075.24
865.00	1078.52
865.31	1070.33
865.62	1067.75
865.94	1075.24
866.25	1070.33
866.56	1064.71
866.87	1083.67
867.19	1075.24
867.50	1062.14
867.81	1072.90
868.12	1082.50
868.44	1082.03
868.75	1092.56
869.06	1103.33
869.37	1102.86
869.68	1092.09
870.00	1077.82
870.31	1074.54
870.62	1076.41
870.93	1070.09
871.24	1073.37
871.56	1082.03
871.87	1081.33
872.18	1074.54
872.49	1081.09
872.80	1082.73
873.12	1084.14
873.43	1084.60
873.74	1089.29
874.05	1081.09
874.36	1082.73
874.67	1082.97
874.98	1075.48
875.29	1079.92
875.61	1091.63
875.92	1088.35
876.23	1085.31
876.54	1096.78
876.85	1097.71
877.16	1097.01
877.47	1106.84
877.78	1100.29
878.09	1097.01
878.40	1089.75
878.72	1087.18
879.03	1079.46
879.34	1079.22
879.65	1073.84
879.96	1073.37
880.27	1059.56
880.58	1054.18
880.89	1057.22
881.20	1071.03
881.51	1079.22
881.82	1092.33
882.13	1086.01
882.44	1085.77
882.75	1078.28
883.06	1072.43
883.37	1063.77
883.68	1082.73
883.99	1087.18
884.30	1079.22
884.61	1079.22
884.92	1078.28
885.23	1078.75
885.54	1075.94
885.85	1086.94
886.16	1082.26
886.47	1087.65
886.78	1088.82
887.08	1082.97
887.39	1075.71
887.70	1082.97
888.01	1080.16
888.32	1072.67
888.63	1084.84
888.94	1090.22
889.25	1085.31
889.56	1088.82
889.87	1099.82
890.17	1090.46
890.48	1088.58
890.79	1090.22
891.10	1097.24
891.41	1077.35
891.72	1069.16
892.03	1067.75
892.34	1069.39
892.64	1057.22
892.95	1066.35
893.26	1075.94
893.57	1074.31
893.88	1074.07
894.18	1083.20
894.49	1082.97
894.80	1088.12
895.11	1095.84
895.42	1097.24
895.72	1095.60
896.03	1093.50
896.34	1092.80
896.65	1097.01
896.96	1093.73
897.26	1088.12
897.57	1091.63
897.88	1090.46
898.19	1091.16
898.49	1089.75
898.80	1097.95
899.11	1095.14
899.41	1088.35
899.72	1078.99
900.03	1083.20
900.34	1071.97
900.64	1069.86
900.95	1073.37
901.26	1074.54
901.56	1071.50
901.87	1075.94
902.18	1081.09
902.48	1086.24
902.79	1090.22
903.10	1093.97
903.40	1080.86
903.71	1083.43
904.02	1081.09
904.32	1069.39
904.63	1062.84
904.94	1077.35
905.24	1073.14
905.55	1069.39
905.85	1075.48
906.16	1084.14
906.47	1078.99
906.77	1076.18
907.08	1078.52
907.38	1074.07
907.69	1068.45
908.00	1067.52
908.30	1074.07
908.61	1071.03
908.91	1079.92
909.22	1087.18
909.52	1091.63
909.83	1092.09
910.14	1100.29
910.44	1092.33
910.75	1085.77
911.05	1092.33
911.36	1089.29
911.66	1075.94
911.97	1067.52
912.27	1065.41
912.58	1062.37
912.88	1062.14
913.19	1070.56
913.49	1084.14
913.80	1089.29
914.10	1080.86
914.41	1075.94
914.71	1075.71
915.01	1063.07
915.32	1059.33
915.62	1065.88
915.93	1067.05
916.23	1070.80
916.54	1076.41
916.84	1083.20
917.15	1086.71
917.45	1093.03
917.75	1099.35
918.06	1104.03
918.36	1104.73
918.67	1101.22
918.97	1099.12
919.27	1089.52
919.58	1080.39
919.88	1084.14
920.18	1086.24
920.49	1093.03
920.79	1092.56
921.10	1093.26
921.40	1087.41
921.70	1080.63
922.01	1074.31
922.31	1065.41
922.61	1073.60
922.92	1070.33
923.22	1069.16
923.52	1064.94
923.82	1077.58
924.13	1078.28
924.43	1084.37
924.73	1078.52
925.04	1082.73
925.34	1078.05
925.64	1084.60
925.94	1081.80
926.25	1093.03
926.55	1078.75
926.85	1079.92
927.15	1076.65
927.46	1077.35
927.76	1070.09
928.06	1072.90
928.36	1079.69
928.67	1078.05
928.97	1076.88
929.27	1081.56
929.57	1089.05
929.87	1083.20
930.18	1075.71
930.48	1057.45
930.78	1057.22
931.08	1055.58
931.38	1052.54
931.69	1057.69
931.99	1078.75
932.29	1065.41
932.59	1064.71
932.89	1063.77
933.19	1063.07
933.49	1048.56
933.80	1071.03
934.10	1075.01
934.40	1074.77
934.70	1071.50
935.00	1075.71
935.30	1071.26
935.60	1064.94
935.90	1072.20
936.20	1086.01
936.50	1083.67
936.81	1069.16
937.11	1071.73
937.41	1072.67
937.71	1072.90
938.01	1086.71
938.31	1097.95
938.61	1106.84
938.91	1103.56
939.21	1096.31
939.51	1095.84
939.81	1101.69
940.11	1095.37
940.41	1102.16
940.71	1100.05
941.01	1093.73
941.31	1083.20
941.61	1087.18
941.91	1082.26
942.21	1088.12
942.51	1092.33
942.81	1097.24
943.11	1088.12
943.41	1082.73
943.71	1083.67
944.01	1071.73
944.31	1070.33
944.61	1084.14
944.90	1095.37
945.20	1089.99
945.50	1095.84
945.80	1107.78
946.10	1094.20
946.40	1086.94
946.70	1092.09
947.00	1090.46
947.30	1086.94
947.60	1091.16
947.89	1096.78
948.19	1096.31
948.49	1089.05
948.79	1079.69
949.09	1077.82
949.39	1061.90
949.69	1049.26
949.98	1047.62
950.28	1047.62
950.58	1048.56
950.88	1058.86
951.18	1064.01
951.48	1071.50
951.77	1064.48
952.07	1068.69
952.37	1064.01
952.67	1059.79
952.97	1065.18
953.26	1068.22
953.56	1068.69
953.86	1080.63
954.16	1086.48
954.45	1080.63
954.75	1091.39
955.05	1095.37
955.35	1086.01
955.64	1084.60
955.94	1091.39
956.24	1080.63
956.54	1077.35
956.83	1078.52
957.13	1079.92
957.43	1073.84
957.72	1079.69
958.02	1082.97
958.32	1085.54
958.61	1081.80
958.91	1084.37
959.21	1084.37
959.50	1070.56
959.80	1067.28
960.10	1074.31
960.39	1079.69
960.69	1082.03
960.99	1094.90
961.28	1097.71
961.58	1098.18
961.87	1094.67
962.17	1095.14
962.47	1090.69
962.76	1090.46
963.06	1087.65
963.36	1087.18
963.65	1093.03
963.95	1089.75
964.24	1086.94
964.54	1087.88
964.83	1088.82
965.13	1079.92
965.42	1086.48
965.72	1084.14
966.02	1074.54
966.31	1071.97
966.61	1076.65
966.90	1070.33
967.20	1065.65
967.49	1075.01
967.79	1080.86
968.08	1072.90
968.38	1076.88
968.67	1080.39
968.97	1086.48
969.26	1079.22
969.56	1078.28
969.85	1071.73
970.15	1077.58
970.44	1075.71
970.74	1084.37
971.03	1087.41
971.32	1089.05
971.62	1080.39
971.91	1068.45
972.21	1069.86
972.50	1077.35
972.80	1086.01
973.09	1090.69
973.38	1099.58
973.68	1086.01
973.97	1083.43
974.27	1078.52
974.56	1080.63
974.85	1080.39
975.15	1084.14
975.44	1075.94
975.73	1076.65
976.03	1067.99
976.32	1064.94
976.61	1063.31
976.91	1075.24
977.20	1080.86
977.49	1089.05
977.79	1079.46
978.08	1087.88
978.37	1071.73
978.67	1067.52
978.96	1061.43
979.25	1078.52
979.55	1074.31
979.84	1083.90
980.13	1080.16
980.42	1083.67
980.72	1080.39
981.01	1080.16
981.30	1083.20
981.59	1078.75
981.89	1081.09
982.18	1083.20
982.47	1081.80
982.76	1088.82
983.06	1094.67
983.35	1093.26
983.64	1095.60
983.93	1102.63
984.22	1091.39
984.52	1096.31
984.81	1102.63
985.10	1091.39
985.39	1094.20
985.68	1096.07
985.97	1088.12
986.27	1082.03
986.56	1085.77
986.85	1080.86
987.14	1079.46
987.43	1078.99
987.72	1082.26
988.01	1086.71
988.31	1082.26
988.60	1082.26
988.89	1082.97
989.18	1076.41
989.47	1070.56
989.76	1078.75
990.05	1079.69
990.34	1082.03
990.63	1080.86
990.92	1079.92
991.21	1070.09
991.51	1068.92
991.80	1074.07
992.09	1083.20
992.38	1084.14
992.67	1084.14
992.96	1081.33
993.25	1081.56
993.54	1079.92
993.83	1078.99
994.12	1083.90
994.41	1092.56
994.70	1094.20
994.99	1086.71
995.28	1089.75
995.57	1092.56
995.86	1090.22
996.15	1075.01
996.44	1084.60
996.73	1075.48
997.02	1057.92
997.31	1053.48
997.59	1063.07
997.88	1067.52
998.17	1069.62
998.46	1074.54
998.75	1075.71
999.04	1074.77
999.33	1068.22
999.62	1073.60
999.91	1087.88
1000.20	1084.14
1000.49	1082.03
1000.77	1076.88
1001.06	1065.65
1001.35	1052.77
1001.64	1055.82
1001.93	1056.52
1002.22	1059.09
1002.51	1075.48
1002.79	1083.90
1003.08	1088.12
1003.37	1090.22
1003.66	1092.56
1003.95	1092.80
1004.23	1094.43
1004.52	1093.73
1004.81	1091.63
1005.10	1095.84
1005.39	1085.54
1005.67	1083.43
1005.96	1084.60
1006.25	1083.90
1006.54	1075.24
1006.83	1073.14
1007.11	1075.94
1007.40	1076.65
1007.69	1077.58
1007.97	1076.18
1008.26	1091.63
1008.55	1087.65
1008.84	1068.22
1009.12	1067.75
1009.41	1081.56
1009.70	1074.31
1009.98	1074.31
1010.27	1089.52
1010.56	1094.67
1010.85	1091.63
1011.13	1095.60
1011.42	1104.26
1011.71	1108.24
1011.99	1099.82
1012.28	1085.31
1012.56	1080.86
1012.85	1077.11
1013.14	1074.31
1013.42	1073.60
1013.71	1086.01
1014.00	1085.77
1014.28	1083.43
1014.57	1073.84
1014.85	1084.14
1015.14	1071.97
1015.43	1059.56
1015.71	1052.77
1016.00	1069.39
1016.28	1055.11
1016.57	1058.39
1016.85	1075.94
1017.14	1077.11
1017.43	1079.22
1017.71	1092.80
1018.00	1095.37
1018.28	1084.14
1018.57	1089.99
1018.85	1079.22
1019.14	1070.09
1019.42	1070.80
1019.71	1080.63
1019.99	1078.28
1020.28	1068.92
1020.56	1064.01
1020.85	1067.05
1021.13	1068.22
1021.42	1066.35
1021.70	1078.99
1021.99	1088.82
1022.27	1086.71
1022.55	1077.82
1022.84	1081.33
>>>>>End Processed Spectral Data<<<<<
