SpectraSuite Data File
++++++++++++++++++++++++++++++++++++
Date: Mon Aug 26 10:25:57 PDT 2019
User: corrico
Dark Spectrum Present: No
Reference Spectrum Present: No
Number of Sampled Component Spectra: 1
Spectrometers: USB2+H06089
Integration Time (usec): 10000 (USB2+H06089)
Spectra Averaged: 2 (USB2+H06089)
Boxcar Smoothing: 2 (USB2+H06089)
Correct for Electrical Dark: No (USB2+H06089)
Strobe/Lamp Enabled: No (USB2+H06089)
Correct for Detector Non-linearity: No (USB2+H06089)
Correct for Stray Light: No (USB2+H06089)
Number of Pixels in Processed Spectrum: 2048
>>>>>Begin Processed Spectral Data<<<<<
339.70	1008.77
340.07	1008.77
340.45	989.58
340.82	967.34
341.19	950.96
341.57	926.38
341.94	915.62
342.31	903.68
342.69	909.30
343.06	906.49
343.43	914.45
343.81	918.66
344.18	931.07
344.55	927.79
344.93	932.70
345.30	929.66
345.67	928.26
346.04	921.70
346.42	925.45
346.79	930.83
347.16	951.90
347.54	959.39
347.91	968.05
348.28	979.05
348.65	992.39
349.03	995.43
349.40	1014.62
349.77	1033.35
350.14	1046.92
350.52	1050.90
350.89	1049.50
351.26	1047.16
351.63	1039.90
352.01	1043.88
352.38	1044.35
352.75	1057.22
353.12	1064.71
353.50	1075.24
353.87	1079.46
354.24	1081.56
354.61	1077.82
354.98	1073.60
355.36	1078.99
355.73	1081.09
356.10	1078.52
356.47	1069.39
356.84	1071.73
357.22	1061.43
357.59	1060.73
357.96	1072.90
358.33	1078.28
358.70	1078.28
359.08	1081.80
359.45	1070.80
359.82	1049.26
360.19	1054.41
360.56	1043.88
360.94	1045.05
361.31	1047.39
361.68	1058.62
362.05	1054.18
362.42	1060.50
362.79	1071.26
363.16	1082.97
363.54	1086.01
363.91	1092.33
364.28	1092.09
364.65	1085.07
365.02	1079.69
365.39	1077.82
365.76	1084.37
366.14	1080.63
366.51	1078.52
366.88	1077.11
367.25	1075.48
367.62	1072.20
367.99	1083.20
368.36	1074.07
368.73	1065.88
369.10	1064.48
369.48	1049.96
369.85	1048.09
370.22	1055.82
370.59	1058.62
370.96	1060.50
371.33	1078.52
371.70	1079.92
372.07	1089.75
372.44	1091.86
372.81	1092.09
373.18	1088.12
373.55	1081.80
373.93	1077.11
374.30	1085.07
374.67	1082.03
375.04	1070.33
375.41	1073.37
375.78	1070.33
376.15	1071.03
376.52	1067.99
376.89	1065.65
377.26	1065.88
377.63	1064.48
378.00	1054.18
378.37	1059.79
378.74	1055.82
379.11	1050.43
379.48	1047.86
379.85	1047.39
380.22	1042.94
380.59	1058.16
380.96	1060.96
381.33	1061.90
381.70	1060.26
382.07	1067.52
382.44	1059.56
382.81	1056.52
383.18	1065.18
383.55	1069.86
383.92	1064.48
384.29	1067.05
384.66	1069.62
385.03	1065.41
385.40	1065.65
385.77	1065.88
386.14	1070.56
386.51	1067.99
386.88	1055.11
387.25	1053.48
387.62	1060.73
387.99	1060.96
388.36	1063.31
388.73	1068.69
389.10	1072.43
389.46	1073.60
389.83	1073.60
390.20	1071.97
390.57	1074.31
390.94	1079.46
391.31	1073.37
391.68	1072.90
392.05	1074.54
392.42	1071.97
392.79	1062.84
393.16	1067.99
393.53	1069.39
393.89	1075.94
394.26	1091.16
394.63	1091.16
395.00	1089.05
395.37	1087.18
395.74	1081.33
396.11	1067.28
396.48	1083.90
396.84	1076.65
397.21	1069.86
397.58	1073.14
397.95	1067.99
398.32	1052.30
398.69	1056.28
399.06	1064.48
399.42	1063.54
399.79	1071.50
400.16	1077.82
400.53	1077.58
400.90	1077.82
401.27	1078.75
401.64	1070.09
402.00	1076.18
402.37	1082.50
402.74	1086.48
403.11	1093.97
403.48	1108.48
403.84	1097.24
404.21	1093.73
404.58	1086.94
404.95	1088.12
405.32	1086.01
405.68	1077.82
406.05	1077.35
406.42	1073.37
406.79	1061.43
407.16	1062.37
407.52	1071.73
407.89	1075.24
408.26	1082.03
408.63	1086.71
408.99	1084.60
409.36	1086.24
409.73	1080.86
410.10	1080.16
410.47	1072.90
410.83	1061.43
411.20	1062.14
411.57	1068.69
411.94	1062.37
412.30	1060.26
412.67	1069.16
413.04	1064.48
413.40	1062.14
413.77	1071.03
414.14	1074.31
414.51	1081.33
414.87	1072.67
415.24	1070.33
415.61	1060.96
415.97	1066.35
416.34	1057.69
416.71	1071.73
417.08	1065.18
417.44	1066.82
417.81	1062.14
418.18	1061.43
418.54	1056.75
418.91	1072.90
419.28	1066.35
419.64	1074.54
420.01	1068.45
420.38	1063.31
420.74	1055.11
421.11	1058.86
421.48	1060.50
421.84	1062.60
422.21	1072.67
422.58	1071.03
422.94	1078.52
423.31	1073.14
423.68	1080.63
424.04	1082.03
424.41	1088.12
424.77	1081.80
425.14	1080.39
425.51	1077.58
425.87	1078.05
426.24	1076.18
426.61	1082.50
426.97	1077.82
427.34	1082.26
427.70	1073.14
428.07	1065.65
428.44	1059.79
428.80	1068.92
429.17	1069.86
429.53	1071.97
429.90	1070.56
430.27	1070.09
430.63	1077.82
431.00	1067.99
431.36	1063.31
431.73	1067.28
432.09	1075.01
432.46	1060.96
432.83	1062.14
433.19	1061.20
433.56	1069.62
433.92	1067.99
434.29	1068.22
434.65	1062.37
435.02	1069.62
435.38	1059.09
435.75	1052.54
436.11	1055.58
436.48	1065.65
436.84	1063.77
437.21	1071.97
437.57	1077.58
437.94	1082.50
438.30	1087.41
438.67	1093.26
439.03	1097.01
439.40	1091.39
439.76	1078.28
440.13	1070.33
440.49	1064.94
440.86	1055.11
441.22	1065.88
441.59	1072.90
441.95	1082.26
442.32	1088.35
442.68	1098.41
443.05	1096.78
443.41	1094.90
443.78	1084.84
444.14	1068.69
444.51	1062.37
444.87	1060.26
445.24	1057.69
445.60	1052.07
445.96	1054.18
446.33	1050.67
446.69	1052.07
447.06	1055.11
447.42	1074.77
447.79	1091.63
448.15	1098.41
448.51	1104.26
448.88	1099.58
449.24	1083.43
449.61	1072.43
449.97	1069.39
450.33	1065.88
450.70	1067.05
451.06	1071.97
451.43	1076.18
451.79	1075.71
452.15	1062.84
452.52	1056.05
452.88	1052.77
453.24	1048.56
453.61	1038.03
453.97	1047.62
454.34	1062.60
454.70	1074.54
455.06	1079.46
455.43	1084.37
455.79	1080.63
456.15	1073.14
456.52	1065.88
456.88	1062.84
457.24	1066.11
457.61	1070.80
457.97	1074.31
458.33	1074.31
458.70	1074.77
459.06	1071.97
459.42	1063.77
459.79	1065.18
460.15	1068.69
460.51	1067.99
460.88	1081.80
461.24	1085.54
461.60	1096.78
461.96	1085.31
462.33	1085.54
462.69	1071.97
463.05	1074.31
463.42	1063.54
463.78	1068.45
464.14	1064.24
464.50	1067.52
464.87	1073.60
465.23	1066.82
465.59	1066.11
465.95	1068.92
466.32	1075.01
466.68	1069.16
467.04	1076.41
467.40	1083.90
467.77	1092.09
468.13	1085.77
468.49	1073.84
468.85	1075.24
469.22	1083.90
469.58	1093.97
469.94	1089.29
470.30	1104.73
470.66	1106.14
471.03	1095.84
471.39	1074.54
471.75	1075.71
472.11	1065.65
472.47	1060.03
472.84	1061.67
473.20	1062.60
473.56	1066.58
473.92	1072.67
474.28	1075.01
474.65	1072.20
475.01	1073.37
475.37	1079.92
475.73	1079.46
476.09	1079.92
476.45	1073.60
476.81	1072.90
477.18	1068.69
477.54	1072.67
477.90	1071.97
478.26	1075.48
478.62	1077.35
478.98	1072.43
479.34	1066.58
479.71	1063.07
480.07	1066.58
480.43	1078.99
480.79	1081.09
481.15	1080.39
481.51	1094.43
481.87	1088.58
482.23	1091.39
482.59	1097.24
482.96	1099.12
483.32	1087.65
483.68	1096.31
484.04	1085.31
484.40	1087.65
484.76	1090.46
485.12	1095.60
485.48	1094.90
485.84	1095.37
486.20	1082.50
486.56	1078.05
486.92	1065.65
487.28	1065.18
487.64	1061.90
488.00	1074.54
488.37	1072.43
488.73	1077.58
489.09	1070.09
489.45	1071.50
489.81	1058.62
490.17	1057.22
490.53	1057.69
490.89	1065.41
491.25	1067.28
491.61	1070.09
491.97	1073.14
492.33	1074.31
492.69	1068.22
493.05	1069.86
493.41	1068.69
493.77	1070.33
494.13	1081.09
494.49	1081.33
494.85	1076.65
495.21	1086.71
495.57	1094.20
495.93	1089.05
496.29	1102.39
496.64	1095.84
497.00	1083.67
497.36	1079.22
497.72	1077.82
498.08	1059.79
498.44	1077.82
498.80	1089.29
499.16	1079.22
499.52	1075.24
499.88	1082.26
500.24	1068.69
500.60	1067.75
500.96	1071.50
501.32	1063.07
501.68	1059.79
502.03	1068.69
502.39	1057.69
502.75	1060.03
503.11	1068.22
503.47	1073.14
503.83	1066.58
504.19	1075.71
504.55	1078.05
504.91	1076.88
505.26	1075.01
505.62	1072.43
505.98	1078.75
506.34	1079.92
506.70	1081.56
507.06	1083.43
507.42	1083.43
507.78	1074.31
508.13	1072.43
508.49	1077.58
508.85	1079.92
509.21	1079.92
509.57	1081.33
509.93	1083.90
510.28	1082.97
510.64	1086.24
511.00	1094.43
511.36	1087.41
511.72	1079.46
512.07	1077.11
512.43	1078.99
512.79	1087.18
513.15	1102.63
513.51	1114.80
513.86	1115.03
514.22	1105.90
514.58	1087.41
514.94	1084.84
515.30	1087.41
515.65	1096.07
516.01	1101.69
516.37	1104.03
516.73	1097.24
517.08	1092.80
517.44	1092.33
517.80	1084.37
518.16	1090.22
518.51	1090.22
518.87	1082.73
519.23	1078.05
519.59	1087.65
519.94	1095.60
520.30	1097.01
520.66	1111.05
521.01	1110.12
521.37	1104.50
521.73	1101.69
522.09	1104.97
522.44	1094.20
522.80	1101.22
523.16	1097.24
523.51	1093.73
523.87	1090.92
524.23	1092.80
524.58	1088.82
524.94	1084.14
525.30	1082.03
525.65	1095.60
526.01	1108.24
526.37	1105.20
526.72	1118.31
527.08	1129.31
527.44	1120.18
527.79	1107.07
528.15	1103.09
528.51	1102.39
528.86	1097.24
529.22	1095.60
529.58	1097.95
529.93	1108.95
530.29	1118.78
530.65	1123.22
531.00	1125.56
531.36	1130.48
531.71	1123.46
532.07	1114.56
532.43	1099.58
532.78	1099.82
533.14	1097.48
533.49	1100.29
533.85	1105.90
534.21	1108.48
534.56	1104.03
534.92	1102.63
535.27	1086.01
535.63	1079.46
535.98	1088.82
536.34	1085.31
536.69	1077.11
537.05	1082.97
537.41	1083.67
537.76	1075.48
538.12	1075.01
538.47	1084.37
538.83	1084.60
539.18	1088.35
539.54	1092.33
539.89	1091.16
540.25	1083.90
540.60	1086.24
540.96	1086.24
541.31	1073.60
541.67	1086.71
542.02	1083.43
542.38	1088.58
542.73	1080.39
543.09	1096.31
543.44	1094.20
543.80	1093.73
544.15	1088.35
544.51	1094.43
544.86	1094.43
545.22	1093.50
545.57	1099.35
545.93	1102.86
546.28	1099.82
546.64	1092.80
546.99	1086.48
547.35	1082.73
547.70	1077.82
548.05	1074.77
548.41	1074.31
548.76	1075.94
549.12	1073.14
549.47	1086.01
549.83	1086.01
550.18	1080.39
550.53	1077.58
550.89	1084.60
551.24	1074.31
551.60	1072.43
551.95	1084.37
552.30	1090.69
552.66	1093.97
553.01	1094.67
553.37	1100.99
553.72	1099.12
554.07	1101.69
554.43	1099.82
554.78	1090.92
555.13	1086.24
555.49	1070.09
555.84	1055.35
556.19	1056.99
556.55	1067.75
556.90	1071.26
557.26	1077.11
557.61	1083.67
557.96	1075.48
558.32	1070.56
558.67	1069.16
559.02	1069.16
559.37	1065.18
559.73	1074.31
560.08	1081.56
560.43	1085.31
560.79	1092.33
561.14	1098.65
561.49	1085.07
561.85	1080.63
562.20	1069.39
562.55	1069.39
562.90	1067.05
563.26	1084.14
563.61	1083.67
563.96	1088.82
564.32	1085.07
564.67	1085.77
565.02	1078.75
565.37	1075.94
565.73	1068.45
566.08	1055.82
566.43	1053.01
566.78	1059.79
567.14	1058.86
567.49	1060.96
567.84	1067.52
568.19	1075.48
568.54	1065.65
568.90	1078.52
569.25	1089.29
569.60	1097.24
569.95	1103.09
570.31	1101.69
570.66	1088.12
571.01	1080.16
571.36	1074.77
571.71	1069.62
572.06	1066.11
572.42	1071.03
572.77	1063.07
573.12	1067.28
573.47	1062.37
573.82	1078.75
574.18	1076.41
574.53	1087.65
574.88	1094.90
575.23	1098.88
575.58	1089.75
575.93	1090.22
576.28	1092.80
576.64	1090.69
576.99	1085.54
577.34	1085.07
577.69	1092.33
578.04	1084.84
578.39	1086.01
578.74	1082.97
579.09	1084.14
579.44	1074.31
579.80	1082.97
580.15	1089.05
580.50	1097.71
580.85	1098.65
581.20	1108.24
581.55	1115.50
581.90	1106.37
582.25	1102.86
582.60	1092.09
582.95	1085.07
583.30	1074.54
583.65	1069.62
584.00	1060.26
584.35	1067.99
584.71	1062.60
585.06	1058.86
585.41	1061.43
585.76	1064.01
586.11	1070.56
586.46	1076.88
586.81	1080.39
587.16	1089.05
587.51	1090.22
587.86	1077.82
588.21	1084.37
588.56	1080.63
588.91	1078.52
589.26	1079.46
589.61	1085.07
589.96	1078.05
590.31	1082.97
590.66	1077.35
591.01	1087.41
591.36	1092.33
591.71	1091.63
592.06	1098.41
592.41	1093.73
592.76	1090.92
593.10	1087.41
593.45	1092.33
593.80	1081.33
594.15	1080.39
594.50	1071.73
594.85	1069.16
595.20	1056.28
595.55	1055.11
595.90	1054.88
596.25	1059.79
596.60	1073.60
596.95	1084.37
597.30	1080.39
597.64	1141.25
597.99	1137.27
598.34	1122.52
598.69	1129.54
599.04	1140.31
599.39	1082.73
599.74	1069.39
600.09	1071.97
600.44	1070.33
600.78	1069.16
601.13	1073.60
601.48	1089.05
601.83	1082.03
602.18	1071.50
602.53	1073.84
602.88	1073.14
603.22	1070.56
603.57	1070.33
603.92	1081.09
604.27	1079.46
604.62	1070.56
604.97	1076.41
605.31	1086.94
605.66	1078.05
606.01	1071.03
606.36	1081.09
606.71	1078.05
607.05	1082.50
607.40	1077.35
607.75	1078.28
608.10	1065.88
608.44	1065.18
608.79	1046.22
609.14	1054.88
609.49	1062.84
609.84	1073.84
610.18	1079.22
610.53	1099.35
610.88	1102.39
611.23	1104.50
611.57	1103.33
611.92	1100.75
612.27	1091.63
612.62	1081.09
612.96	1073.37
613.31	1078.52
613.66	1078.99
614.00	1084.60
614.35	1088.58
614.70	1087.65
615.05	1079.69
615.39	1074.54
615.74	1060.96
616.09	1059.09
616.43	1062.37
616.78	1067.28
617.13	1064.71
617.47	1067.05
617.82	1069.62
618.17	1063.77
618.51	1060.50
618.86	1071.73
619.21	1087.41
619.55	1087.88
619.90	1093.50
620.25	1093.26
620.59	1093.26
620.94	1086.24
621.29	1083.20
621.63	1077.58
621.98	1075.48
622.32	1070.80
622.67	1072.90
623.02	1072.90
623.36	1073.60
623.71	1083.20
624.05	1083.67
624.40	1075.71
624.75	1086.71
625.09	1089.05
625.44	1078.52
625.78	1075.48
626.13	1086.71
626.48	1078.52
626.82	1082.03
627.17	1087.88
627.51	1096.07
627.86	1094.20
628.20	1099.35
628.55	1103.09
628.89	1107.31
629.24	1096.78
629.58	1095.14
629.93	1091.39
630.28	1087.18
630.62	1085.77
630.97	1090.69
631.31	1088.58
631.66	1091.86
632.00	1088.35
632.35	1084.84
632.69	1088.12
633.04	1090.92
633.38	1096.54
633.73	1107.07
634.07	1105.67
634.42	1103.56
634.76	1103.56
635.11	1092.56
635.45	1092.33
635.79	1091.63
636.14	1084.60
636.48	1075.94
636.83	1079.69
637.17	1070.09
637.52	1070.33
637.86	1075.94
638.21	1086.48
638.55	1081.80
638.89	1083.20
639.24	1089.99
639.58	1091.86
639.93	1081.56
640.27	1093.50
640.61	1088.35
640.96	1073.60
641.30	1067.52
641.65	1070.80
641.99	1056.99
642.33	1066.11
642.68	1082.97
643.02	1082.97
643.37	1078.52
643.71	1086.71
644.05	1084.14
644.40	1074.07
644.74	1077.11
645.08	1073.84
645.43	1068.22
645.77	1074.07
646.11	1084.37
646.46	1087.88
646.80	1102.63
647.14	1106.61
647.49	1102.16
647.83	1089.05
648.17	1091.86
648.52	1076.88
648.86	1074.54
649.20	1072.20
649.55	1080.16
649.89	1073.60
650.23	1078.75
650.57	1077.82
650.92	1083.43
651.26	1078.05
651.60	1076.18
651.95	1082.50
652.29	1095.37
652.63	1088.12
652.97	1082.26
653.32	1080.63
653.66	1075.01
654.00	1067.52
654.34	1068.69
654.69	1081.56
655.03	1086.24
655.37	1083.43
655.71	1076.65
656.05	1076.41
656.40	1065.18
656.74	1068.45
657.08	1082.50
657.42	1078.99
657.76	1085.54
658.11	1083.67
658.45	1078.75
658.79	1070.80
659.13	1077.58
659.47	1074.54
659.82	1091.86
660.16	1088.82
660.50	1092.80
660.84	1091.39
661.18	1086.94
661.52	1083.20
661.87	1090.46
662.21	1093.97
662.55	1102.63
662.89	1107.54
663.23	1107.07
663.57	1100.99
663.91	1096.07
664.25	1099.58
664.60	1091.16
664.94	1095.37
665.28	1094.67
665.62	1091.39
665.96	1078.75
666.30	1083.20
666.64	1068.45
666.98	1074.77
667.32	1076.18
667.66	1073.37
668.01	1085.54
668.35	1087.65
668.69	1083.43
669.03	1093.03
669.37	1100.75
669.71	1091.16
670.05	1093.97
670.39	1094.67
670.73	1082.50
671.07	1078.28
671.41	1077.11
671.75	1073.14
672.09	1077.11
672.43	1072.43
672.77	1073.37
673.11	1076.18
673.45	1082.26
673.79	1074.77
674.13	1084.37
674.47	1084.84
674.81	1080.63
675.15	1080.16
675.49	1085.54
675.83	1085.07
676.17	1086.71
676.51	1089.75
676.85	1093.97
677.19	1104.03
677.53	1107.07
677.87	1108.71
678.21	1109.41
678.55	1123.22
678.89	1113.86
679.23	1101.22
679.57	1100.29
679.90	1098.88
680.24	1073.60
680.58	1070.09
680.92	1075.24
681.26	1072.20
681.60	1069.86
681.94	1084.37
682.28	1087.18
682.62	1088.12
682.96	1082.73
683.29	1093.97
683.63	1083.43
683.97	1078.52
684.31	1081.80
684.65	1089.29
684.99	1080.63
685.33	1088.12
685.67	1091.39
686.00	1087.88
686.34	1094.90
686.68	1102.86
687.02	1106.37
687.36	1102.63
687.70	1104.97
688.03	1095.37
688.37	1079.22
688.71	1068.45
689.05	1067.52
689.39	1061.43
689.72	1065.18
690.06	1072.90
690.40	1072.43
690.74	1071.03
691.08	1075.24
691.41	1078.99
691.75	1080.86
692.09	1085.77
692.43	1084.84
692.76	1082.97
693.10	1070.56
693.44	1061.67
693.78	1059.79
694.11	1055.35
694.45	1054.88
694.79	1053.94
695.13	1056.75
695.46	1056.28
695.80	1063.54
696.14	1063.77
696.48	1071.03
696.81	1066.58
697.15	1072.67
697.49	1083.67
697.82	1084.84
698.16	1088.58
698.50	1107.07
698.83	1096.54
699.17	1091.63
699.51	1102.39
699.84	1097.01
700.18	1080.39
700.52	1087.41
700.85	1087.65
701.19	1079.92
701.53	1087.41
701.86	1088.12
702.20	1093.73
702.54	1089.52
702.87	1092.09
703.21	1086.48
703.55	1092.33
703.88	1088.35
704.22	1089.05
704.55	1079.22
704.89	1077.58
705.23	1075.24
705.56	1075.94
705.90	1078.75
706.23	1085.77
706.57	1092.80
706.91	1095.14
707.24	1087.41
707.58	1086.94
707.91	1089.05
708.25	1086.48
708.58	1084.14
708.92	1087.88
709.26	1090.46
709.59	1098.18
709.93	1100.52
710.26	1107.31
710.60	1100.52
710.93	1101.69
711.27	1093.73
711.60	1082.73
711.94	1074.77
712.27	1075.01
712.61	1070.56
712.94	1064.01
713.28	1059.56
713.61	1062.60
713.95	1079.46
714.28	1086.71
714.62	1087.41
714.95	1092.56
715.29	1083.90
715.62	1070.33
715.96	1066.11
716.29	1064.48
716.63	1063.07
716.96	1069.62
717.29	1072.43
717.63	1076.65
717.96	1083.90
718.30	1084.84
718.63	1076.88
718.97	1087.41
719.30	1079.46
719.63	1078.05
719.97	1079.92
720.30	1086.24
720.64	1075.01
720.97	1077.35
721.30	1070.56
721.64	1080.16
721.97	1073.84
722.31	1074.54
722.64	1081.09
722.97	1087.88
723.31	1080.16
723.64	1093.97
723.97	1097.71
724.31	1088.82
724.64	1093.50
724.98	1086.71
725.31	1086.71
725.64	1076.65
725.98	1075.01
726.31	1068.92
726.64	1088.58
726.97	1081.56
727.31	1086.71
727.64	1083.67
727.97	1087.18
728.31	1080.39
728.64	1084.84
728.97	1085.07
729.31	1095.60
729.64	1086.24
729.97	1081.80
730.30	1077.58
730.64	1075.48
730.97	1068.45
731.30	1079.69
731.63	1071.26
731.97	1083.43
732.30	1090.69
732.63	1085.54
732.96	1078.99
733.30	1086.48
733.63	1076.65
733.96	1078.75
734.29	1085.07
734.63	1093.03
734.96	1097.01
735.29	1095.60
735.62	1091.39
735.95	1093.97
736.29	1084.60
736.62	1087.41
736.95	1091.63
737.28	1093.97
737.61	1082.73
737.94	1085.31
738.28	1082.50
738.61	1083.90
738.94	1073.84
739.27	1086.71
739.60	1089.52
739.93	1086.71
740.27	1075.48
740.60	1076.88
740.93	1073.60
741.26	1065.88
741.59	1060.03
741.92	1061.20
742.25	1052.54
742.58	1049.03
742.91	1046.69
743.25	1047.62
743.58	1064.94
743.91	1078.28
744.24	1084.37
744.57	1102.16
744.90	1109.65
745.23	1099.82
745.56	1099.58
745.89	1089.99
746.22	1091.16
746.55	1084.60
746.88	1087.41
747.21	1088.35
747.54	1092.56
747.87	1068.22
748.20	1072.67
748.53	1060.26
748.87	1057.45
749.20	1054.41
749.53	1059.33
749.86	1049.50
750.19	1067.99
750.52	1072.43
750.85	1079.69
751.18	1089.05
751.51	1095.37
751.84	1078.28
752.16	1079.69
752.49	1072.67
752.82	1076.88
753.15	1087.65
753.48	1094.43
753.81	1084.14
754.14	1091.39
754.47	1085.54
754.80	1075.71
755.13	1066.82
755.46	1063.07
755.79	1061.43
756.12	1071.03
756.45	1067.05
756.78	1067.99
757.11	1081.80
757.43	1089.99
757.76	1079.46
758.09	1085.07
758.42	1100.75
758.75	1088.58
759.08	1081.33
759.41	1078.05
759.74	1084.37
760.07	1076.88
760.39	1082.03
760.72	1076.88
761.05	1081.09
761.38	1076.88
761.71	1076.88
762.04	1081.80
762.36	1078.75
762.69	1082.97
763.02	1082.03
763.35	1083.43
763.68	1095.37
764.01	1103.56
764.33	1095.60
764.66	1090.69
764.99	1080.63
765.32	1059.79
765.65	1059.09
765.97	1060.96
766.30	1072.43
766.63	1073.84
766.96	1081.80
767.28	1083.20
767.61	1082.97
767.94	1077.82
768.27	1078.75
768.59	1075.01
768.92	1071.73
769.25	1084.37
769.58	1073.37
769.90	1074.54
770.23	1080.63
770.56	1079.46
770.89	1066.58
771.21	1075.48
771.54	1072.67
771.87	1083.90
772.19	1091.39
772.52	1095.84
772.85	1091.63
773.17	1100.05
773.50	1086.71
773.83	1075.48
774.15	1071.03
774.48	1075.01
774.81	1076.65
775.13	1075.71
775.46	1077.82
775.79	1086.94
776.11	1091.39
776.44	1087.88
776.77	1093.97
777.09	1099.12
777.42	1081.56
777.74	1082.03
778.07	1088.58
778.40	1078.05
778.72	1084.84
779.05	1094.20
779.37	1096.31
779.70	1091.39
780.03	1097.24
780.35	1087.88
780.68	1086.71
781.00	1080.63
781.33	1083.90
781.65	1080.63
781.98	1084.14
782.31	1093.03
782.63	1082.97
782.96	1076.41
783.28	1079.46
783.61	1081.56
783.93	1069.62
784.26	1068.22
784.58	1074.07
784.91	1074.31
785.23	1071.97
785.56	1077.35
785.88	1090.92
786.21	1090.92
786.53	1090.69
786.86	1091.16
787.18	1094.90
787.51	1099.58
787.83	1097.24
788.16	1095.84
788.48	1103.09
788.81	1104.50
789.13	1103.80
789.46	1100.75
789.78	1091.39
790.10	1079.22
790.43	1078.05
790.75	1075.71
791.08	1082.73
791.40	1090.92
791.73	1095.84
792.05	1098.65
792.37	1095.84
792.70	1079.22
793.02	1074.31
793.35	1075.48
793.67	1069.86
793.99	1069.39
794.32	1079.46
794.64	1086.24
794.96	1075.24
795.29	1077.35
795.61	1075.71
795.93	1071.50
796.26	1066.35
796.58	1073.37
796.91	1067.28
797.23	1066.11
797.55	1061.90
797.87	1058.39
798.20	1062.37
798.52	1066.35
798.84	1066.35
799.17	1079.92
799.49	1081.80
799.81	1079.22
800.14	1087.41
800.46	1090.69
800.78	1089.29
801.10	1093.26
801.43	1092.33
801.75	1072.67
802.07	1067.52
802.40	1062.84
802.72	1067.99
803.04	1065.88
803.36	1067.28
803.69	1078.05
804.01	1082.50
804.33	1074.54
804.65	1072.20
804.97	1083.90
805.30	1086.01
805.62	1081.80
805.94	1085.77
806.26	1099.82
806.58	1096.78
806.91	1082.03
807.23	1081.33
807.55	1080.86
807.87	1073.14
808.19	1073.14
808.52	1083.67
808.84	1088.58
809.16	1082.50
809.48	1077.82
809.80	1082.97
810.12	1080.63
810.44	1074.77
810.77	1087.41
811.09	1092.33
811.41	1096.31
811.73	1096.07
812.05	1099.35
812.37	1090.69
812.69	1093.26
813.01	1084.37
813.33	1081.56
813.66	1084.14
813.98	1082.03
814.30	1073.37
814.62	1072.67
814.94	1065.41
815.26	1052.30
815.58	1060.26
815.90	1060.96
816.22	1063.07
816.54	1071.73
816.86	1086.94
817.18	1084.37
817.50	1081.56
817.82	1086.24
818.14	1083.90
818.46	1086.94
818.78	1087.65
819.10	1091.63
819.42	1080.63
819.74	1079.69
820.06	1067.52
820.38	1070.56
820.70	1078.75
821.02	1084.60
821.34	1079.92
821.66	1088.82
821.98	1088.58
822.30	1085.77
822.62	1078.52
822.94	1088.12
823.26	1091.63
823.58	1084.60
823.90	1084.37
824.22	1097.01
824.54	1092.09
824.86	1092.56
825.18	1092.33
825.50	1080.16
825.81	1073.14
826.13	1080.86
826.45	1065.65
826.77	1078.28
827.09	1086.24
827.41	1082.26
827.73	1077.11
828.05	1085.77
828.36	1081.09
828.68	1081.80
829.00	1091.39
829.32	1094.20
829.64	1101.22
829.96	1092.80
830.28	1086.94
830.59	1075.94
830.91	1066.11
831.23	1060.03
831.55	1064.48
831.87	1076.41
832.19	1077.35
832.50	1081.56
832.82	1071.97
833.14	1071.03
833.46	1070.09
833.78	1072.90
834.09	1070.09
834.41	1080.63
834.73	1086.48
835.05	1089.29
835.36	1087.18
835.68	1084.60
836.00	1076.18
836.32	1071.73
836.63	1071.03
836.95	1073.84
837.27	1078.28
837.59	1083.90
837.90	1080.63
838.22	1074.07
838.54	1063.54
838.85	1074.77
839.17	1067.99
839.49	1061.20
839.80	1063.54
840.12	1082.03
840.44	1068.92
840.76	1074.77
841.07	1083.20
841.39	1090.46
841.71	1079.22
842.02	1077.82
842.34	1080.86
842.65	1078.99
842.97	1074.54
843.29	1083.43
843.60	1088.12
843.92	1080.63
844.24	1084.84
844.55	1083.20
844.87	1087.88
845.18	1088.58
845.50	1095.14
845.82	1097.01
846.13	1094.90
846.45	1079.22
846.76	1071.03
847.08	1070.80
847.40	1063.54
847.71	1059.79
848.03	1063.54
848.34	1071.50
848.66	1065.65
848.97	1066.35
849.29	1059.56
849.60	1067.05
849.92	1070.56
850.24	1065.18
850.55	1072.20
850.87	1084.84
851.18	1081.09
851.50	1067.28
851.81	1071.97
852.13	1075.01
852.44	1061.20
852.76	1059.33
853.07	1067.75
853.39	1074.54
853.70	1064.71
854.01	1073.37
854.33	1076.41
854.64	1078.52
854.96	1069.16
855.27	1078.99
855.59	1077.35
855.90	1077.58
856.22	1080.39
856.53	1086.48
856.84	1077.58
857.16	1076.88
857.47	1076.88
857.79	1077.58
858.10	1086.48
858.41	1087.88
858.73	1094.67
859.04	1085.31
859.36	1078.28
859.67	1073.84
859.98	1071.73
860.30	1065.88
860.61	1077.82
860.92	1073.60
861.24	1070.80
861.55	1076.18
861.87	1076.18
862.18	1069.39
862.49	1075.24
862.81	1070.56
863.12	1071.26
863.43	1080.39
863.74	1081.33
864.06	1092.09
864.37	1090.69
864.68	1082.97
865.00	1071.03
865.31	1067.05
865.62	1062.84
865.94	1069.62
866.25	1064.01
866.56	1069.62
866.87	1070.80
867.19	1068.69
867.50	1067.28
867.81	1079.22
868.12	1081.56
868.44	1085.54
868.75	1083.67
869.06	1080.86
869.37	1075.94
869.68	1072.20
870.00	1073.84
870.31	1074.54
870.62	1075.71
870.93	1075.24
871.24	1075.71
871.56	1073.37
871.87	1081.09
872.18	1081.33
872.49	1086.71
872.80	1096.31
873.12	1103.09
873.43	1097.71
873.74	1086.71
874.05	1088.58
874.36	1082.26
874.67	1068.92
874.98	1064.01
875.29	1078.28
875.61	1073.84
875.92	1067.75
876.23	1076.65
876.54	1070.56
876.85	1067.75
877.16	1064.24
877.47	1071.50
877.78	1070.09
878.09	1072.20
878.40	1074.31
878.72	1075.01
879.03	1075.71
879.34	1070.09
879.65	1071.03
879.96	1077.11
880.27	1084.14
880.58	1079.92
880.89	1088.12
881.20	1093.50
881.51	1092.33
881.82	1089.75
882.13	1086.48
882.44	1079.92
882.75	1078.75
883.06	1071.03
883.37	1065.18
883.68	1071.26
883.99	1073.14
884.30	1071.50
884.61	1070.33
884.92	1076.88
885.23	1074.54
885.54	1073.60
885.85	1072.43
886.16	1074.31
886.47	1076.41
886.78	1084.60
887.08	1086.48
887.39	1089.99
887.70	1094.90
888.01	1088.82
888.32	1081.80
888.63	1090.22
888.94	1086.94
889.25	1082.26
889.56	1083.90
889.87	1084.37
890.17	1077.11
890.48	1073.37
890.79	1072.90
891.10	1070.56
891.41	1062.60
891.72	1072.43
892.03	1074.31
892.34	1069.16
892.64	1074.31
892.95	1079.46
893.26	1068.22
893.57	1083.67
893.88	1090.69
894.18	1088.82
894.49	1090.46
894.80	1101.46
895.11	1095.84
895.42	1096.07
895.72	1099.35
896.03	1103.80
896.34	1098.18
896.65	1087.88
896.96	1084.37
897.26	1080.16
897.57	1073.37
897.88	1071.73
898.19	1081.09
898.49	1086.94
898.80	1085.54
899.11	1088.12
899.41	1091.86
899.72	1092.09
900.03	1087.88
900.34	1093.50
900.64	1091.39
900.95	1086.24
901.26	1083.90
901.56	1084.14
901.87	1080.63
902.18	1078.52
902.48	1075.48
902.79	1064.71
903.10	1062.37
903.40	1065.65
903.71	1073.60
904.02	1075.94
904.32	1087.65
904.63	1084.14
904.94	1084.14
905.24	1077.11
905.55	1081.80
905.85	1079.69
906.16	1086.24
906.47	1083.90
906.77	1080.86
907.08	1084.14
907.38	1086.01
907.69	1091.16
908.00	1096.78
908.30	1101.69
908.61	1097.24
908.91	1097.01
909.22	1095.84
909.52	1093.26
909.83	1100.05
910.14	1090.22
910.44	1082.03
910.75	1080.16
911.05	1077.11
911.36	1068.45
911.66	1078.05
911.97	1079.69
912.27	1078.52
912.58	1080.39
912.88	1079.69
913.19	1072.43
913.49	1082.97
913.80	1085.31
914.10	1078.52
914.41	1080.63
914.71	1074.77
915.01	1068.92
915.32	1074.31
915.62	1080.63
915.93	1078.52
916.23	1082.73
916.54	1079.22
916.84	1070.56
917.15	1068.22
917.45	1063.77
917.75	1064.71
918.06	1065.41
918.36	1062.60
918.67	1066.11
918.97	1073.37
919.27	1070.09
919.58	1071.26
919.88	1066.11
920.18	1059.79
920.49	1060.50
920.79	1064.24
921.10	1061.43
921.40	1071.73
921.70	1065.65
922.01	1061.90
922.31	1058.16
922.61	1057.69
922.92	1063.07
923.22	1086.01
923.52	1077.11
923.82	1079.69
924.13	1088.12
924.43	1075.71
924.73	1056.05
925.04	1067.05
925.34	1070.80
925.64	1066.82
925.94	1081.80
926.25	1092.09
926.55	1090.92
926.85	1085.77
927.15	1081.80
927.46	1066.11
927.76	1071.26
928.06	1063.07
928.36	1073.14
928.67	1069.86
928.97	1067.99
929.27	1061.43
929.57	1070.33
929.87	1067.99
930.18	1078.75
930.48	1085.07
930.78	1080.16
931.08	1086.01
931.38	1082.97
931.69	1077.82
931.99	1082.03
932.29	1079.92
932.59	1060.03
932.89	1055.35
933.19	1062.60
933.49	1056.28
933.80	1056.05
934.10	1065.18
934.40	1078.99
934.70	1075.94
935.00	1087.88
935.30	1097.95
935.60	1100.05
935.90	1086.94
936.20	1079.22
936.50	1073.84
936.81	1059.56
937.11	1069.16
937.41	1077.11
937.71	1081.56
938.01	1077.11
938.31	1086.71
938.61	1078.28
938.91	1078.52
939.21	1068.69
939.51	1070.09
939.81	1066.11
940.11	1069.62
940.41	1056.99
940.71	1072.43
941.01	1068.22
941.31	1073.37
941.61	1078.28
941.91	1082.50
942.21	1072.67
942.51	1078.28
942.81	1079.92
943.11	1081.09
943.41	1094.43
943.71	1097.48
944.01	1096.78
944.31	1099.58
944.61	1093.73
944.90	1077.35
945.20	1086.71
945.50	1082.97
945.80	1070.33
946.10	1064.94
946.40	1073.14
946.70	1059.79
947.00	1067.05
947.30	1075.24
947.60	1078.52
947.89	1080.39
948.19	1092.80
948.49	1095.37
948.79	1092.56
949.09	1089.29
949.39	1084.37
949.69	1085.77
949.98	1075.94
950.28	1072.67
950.58	1075.01
950.88	1084.14
951.18	1065.41
951.48	1069.86
951.77	1074.77
952.07	1068.92
952.37	1070.33
952.67	1077.82
952.97	1071.50
953.26	1068.45
953.56	1077.35
953.86	1068.22
954.16	1070.33
954.45	1069.62
954.75	1065.18
955.05	1062.37
955.35	1067.99
955.64	1069.16
955.94	1073.60
956.24	1082.73
956.54	1082.03
956.83	1075.48
957.13	1068.92
957.43	1076.41
957.72	1067.52
958.02	1070.56
958.32	1075.48
958.61	1082.03
958.91	1073.84
959.21	1081.33
959.50	1087.41
959.80	1086.01
960.10	1082.50
960.39	1089.29
960.69	1082.03
960.99	1080.63
961.28	1075.71
961.58	1083.90
961.87	1072.90
962.17	1072.67
962.47	1056.28
962.76	1055.58
963.06	1045.75
963.36	1043.18
963.65	1046.45
963.95	1060.73
964.24	1068.69
964.54	1075.94
964.83	1088.82
965.13	1097.24
965.42	1092.80
965.72	1082.97
966.02	1083.90
966.31	1087.65
966.61	1093.03
966.90	1093.97
967.20	1106.84
967.49	1104.03
967.79	1103.33
968.08	1092.80
968.38	1096.07
968.67	1083.90
968.97	1075.24
969.26	1071.73
969.56	1060.73
969.85	1053.94
970.15	1057.69
970.44	1061.90
970.74	1066.11
971.03	1077.82
971.32	1078.05
971.62	1077.11
971.91	1088.35
972.21	1073.60
972.50	1070.56
972.80	1072.67
973.09	1065.88
973.38	1066.58
973.68	1067.99
973.97	1070.56
974.27	1076.41
974.56	1088.35
974.85	1078.52
975.15	1085.54
975.44	1091.16
975.73	1081.09
976.03	1082.97
976.32	1093.97
976.61	1088.82
976.91	1077.58
977.20	1088.82
977.49	1092.80
977.79	1085.31
978.08	1087.65
978.37	1092.33
978.67	1087.41
978.96	1071.26
979.25	1063.31
979.55	1066.82
979.84	1060.96
980.13	1061.43
980.42	1077.11
980.72	1084.14
981.01	1078.52
981.30	1084.37
981.59	1091.86
981.89	1077.35
982.18	1072.90
982.47	1067.28
982.76	1071.26
983.06	1057.69
983.35	1079.92
983.64	1083.43
983.93	1090.46
984.22	1086.71
984.52	1096.54
984.81	1087.41
985.10	1089.29
985.39	1086.48
985.68	1086.24
985.97	1081.80
986.27	1078.75
986.56	1082.50
986.85	1085.54
987.14	1095.84
987.43	1086.48
987.72	1085.31
988.01	1079.92
988.31	1083.43
988.60	1074.07
988.89	1077.35
989.18	1075.48
989.47	1069.39
989.76	1064.24
990.05	1072.20
990.34	1076.18
990.63	1076.65
990.92	1077.82
991.21	1084.60
991.51	1079.69
991.80	1083.20
992.09	1083.20
992.38	1092.33
992.67	1085.31
992.96	1078.05
993.25	1076.65
993.54	1084.14
993.83	1085.07
994.12	1091.63
994.41	1096.31
994.70	1098.41
994.99	1100.29
995.28	1091.86
995.57	1090.69
995.86	1082.03
996.15	1083.90
996.44	1072.20
996.73	1067.75
997.02	1060.50
997.31	1064.24
997.59	1055.82
997.88	1064.01
998.17	1071.50
998.46	1076.18
998.75	1078.05
999.04	1076.18
999.33	1076.88
999.62	1081.80
999.91	1078.52
1000.20	1083.67
1000.49	1093.73
1000.77	1087.41
1001.06	1083.90
1001.35	1088.82
1001.64	1084.14
1001.93	1079.46
1002.22	1075.71
1002.51	1075.71
1002.79	1088.58
1003.08	1093.50
1003.37	1087.41
1003.66	1088.58
1003.95	1086.24
1004.23	1070.33
1004.52	1064.01
1004.81	1070.80
1005.10	1069.62
1005.39	1070.80
1005.67	1075.01
1005.96	1072.20
1006.25	1065.88
1006.54	1061.90
1006.83	1068.45
1007.11	1060.50
1007.40	1070.80
1007.69	1079.92
1007.97	1090.22
1008.26	1078.75
1008.55	1083.43
1008.84	1068.22
1009.12	1063.31
1009.41	1057.69
1009.70	1064.94
1009.98	1078.28
1010.27	1090.69
1010.56	1092.09
1010.85	1095.84
1011.13	1089.99
1011.42	1072.20
1011.71	1070.33
1011.99	1071.03
1012.28	1074.54
1012.56	1081.09
1012.85	1086.01
1013.14	1084.60
1013.42	1091.86
1013.71	1086.94
1014.00	1086.94
1014.28	1096.54
1014.57	1103.80
1014.85	1100.99
1015.14	1093.03
1015.43	1091.39
1015.71	1076.65
1016.00	1073.60
1016.28	1068.92
1016.57	1079.22
1016.85	1078.99
1017.14	1085.07
1017.43	1080.16
1017.71	1070.56
1018.00	1073.60
1018.28	1068.45
1018.57	1078.52
1018.85	1086.94
1019.14	1097.95
1019.42	1086.24
1019.71	1099.82
1019.99	1089.29
1020.28	1083.20
1020.56	1085.54
1020.85	1091.63
1021.13	1078.52
1021.42	1081.80
1021.70	1089.99
1021.99	1084.37
1022.27	1078.52
1022.55	1067.28
1022.84	1047.39
>>>>>End Processed Spectral Data<<<<<
