SpectraSuite Data File
++++++++++++++++++++++++++++++++++++
Date: Mon Aug 26 10:25:55 PDT 2019
User: corrico
Dark Spectrum Present: No
Reference Spectrum Present: No
Number of Sampled Component Spectra: 1
Spectrometers: USB2+H06089
Integration Time (usec): 10000 (USB2+H06089)
Spectra Averaged: 2 (USB2+H06089)
Boxcar Smoothing: 2 (USB2+H06089)
Correct for Electrical Dark: No (USB2+H06089)
Strobe/Lamp Enabled: No (USB2+H06089)
Correct for Detector Non-linearity: No (USB2+H06089)
Correct for Stray Light: No (USB2+H06089)
Number of Pixels in Processed Spectrum: 2048
>>>>>Begin Processed Spectral Data<<<<<
339.70	1038.03
340.07	1038.03
340.45	1001.05
340.82	973.43
341.19	944.64
341.57	914.92
341.94	895.25
342.31	892.45
342.69	886.59
343.06	892.45
343.43	897.13
343.81	897.83
344.18	893.15
344.55	905.32
344.93	903.21
345.30	910.47
345.67	924.04
346.04	938.09
346.42	936.68
346.79	942.30
347.16	949.56
347.54	951.19
347.91	961.96
348.28	982.56
348.65	999.17
349.03	1005.26
349.40	1016.96
349.77	1024.22
350.14	1021.18
350.52	1028.20
350.89	1043.41
351.26	1044.58
351.63	1056.28
352.01	1061.43
352.38	1053.24
352.75	1051.37
353.12	1059.79
353.50	1055.58
353.87	1059.09
354.24	1067.99
354.61	1067.05
354.98	1064.48
355.36	1068.22
355.73	1073.14
356.10	1076.18
356.47	1071.97
356.84	1082.26
357.22	1081.33
357.59	1082.03
357.96	1079.92
358.33	1087.18
358.70	1080.39
359.08	1082.03
359.45	1078.05
359.82	1081.09
360.19	1073.60
360.56	1076.18
360.94	1074.54
361.31	1079.46
361.68	1077.11
362.05	1087.65
362.42	1092.80
362.79	1087.18
363.16	1078.28
363.54	1071.73
363.91	1074.31
364.28	1072.90
364.65	1078.05
365.02	1077.11
365.39	1089.29
365.76	1075.71
366.14	1066.11
366.51	1057.69
366.88	1069.39
367.25	1052.77
367.62	1045.52
367.99	1029.84
368.36	1038.96
368.73	1020.94
369.10	1030.54
369.48	1047.62
369.85	1062.84
370.22	1061.67
370.59	1071.97
370.96	1075.01
371.33	1061.67
371.70	1062.60
372.07	1051.84
372.44	1053.48
372.81	1060.26
373.18	1061.90
373.55	1063.54
373.93	1071.03
374.30	1071.73
374.67	1063.54
375.04	1078.52
375.41	1076.18
375.78	1077.82
376.15	1071.03
376.52	1074.54
376.89	1068.22
377.26	1073.37
377.63	1064.24
378.00	1069.39
378.37	1063.31
378.74	1059.33
379.11	1049.03
379.48	1057.69
379.85	1064.01
380.22	1067.75
380.59	1073.60
380.96	1077.35
381.33	1072.43
381.70	1073.37
382.07	1072.43
382.44	1060.73
382.81	1068.22
383.18	1076.41
383.55	1071.97
383.92	1076.18
384.29	1088.82
384.66	1083.43
385.03	1075.24
385.40	1075.24
385.77	1079.69
386.14	1080.39
386.51	1082.97
386.88	1087.88
387.25	1083.67
387.62	1071.03
387.99	1070.56
388.36	1065.41
388.73	1059.56
389.10	1062.60
389.46	1058.86
389.83	1051.60
390.20	1055.58
390.57	1060.73
390.94	1070.80
391.31	1079.69
391.68	1083.20
392.05	1082.50
392.42	1078.75
392.79	1065.88
393.16	1067.28
393.53	1061.67
393.89	1068.92
394.26	1073.14
394.63	1076.18
395.00	1076.88
395.37	1086.01
395.74	1074.07
396.11	1079.46
396.48	1080.86
396.84	1078.75
397.21	1068.45
397.58	1074.54
397.95	1059.79
398.32	1069.16
398.69	1064.24
399.06	1077.58
399.42	1081.80
399.79	1096.78
400.16	1091.16
400.53	1098.65
400.90	1087.65
401.27	1080.86
401.64	1070.33
402.00	1065.41
402.37	1067.05
402.74	1062.14
403.11	1067.52
403.48	1076.65
403.84	1084.60
404.21	1082.97
404.58	1105.20
404.95	1106.84
405.32	1100.75
405.68	1089.05
406.05	1094.20
406.42	1078.28
406.79	1085.31
407.16	1095.60
407.52	1104.03
407.89	1096.31
408.26	1099.12
408.63	1090.22
408.99	1088.58
409.36	1087.18
409.73	1085.54
410.10	1078.75
410.47	1077.11
410.83	1065.65
411.20	1063.07
411.57	1054.41
411.94	1058.62
412.30	1062.14
412.67	1064.48
413.04	1064.24
413.40	1073.84
413.77	1071.73
414.14	1071.26
414.51	1066.82
414.87	1068.22
415.24	1070.09
415.61	1071.73
415.97	1062.60
416.34	1066.11
416.71	1059.09
417.08	1058.86
417.44	1057.92
417.81	1064.24
418.18	1070.09
418.54	1078.75
418.91	1070.33
419.28	1071.50
419.64	1076.41
420.01	1075.01
420.38	1069.16
420.74	1074.07
421.11	1074.54
421.48	1073.14
421.84	1073.84
422.21	1078.99
422.58	1079.22
422.94	1079.22
423.31	1074.07
423.68	1072.67
424.04	1078.05
424.41	1082.97
424.77	1082.97
425.14	1083.67
425.51	1089.29
425.87	1090.22
426.24	1097.95
426.61	1100.75
426.97	1100.52
427.34	1097.24
427.70	1082.03
428.07	1061.90
428.44	1060.26
428.80	1068.69
429.17	1069.86
429.53	1075.71
429.90	1076.41
430.27	1082.73
430.63	1082.50
431.00	1075.71
431.36	1079.46
431.73	1090.92
432.09	1076.88
432.46	1074.07
432.83	1078.52
433.19	1077.82
433.56	1080.86
433.92	1093.26
434.29	1087.88
434.65	1092.80
435.02	1088.35
435.38	1085.77
435.75	1079.46
436.11	1078.28
436.48	1077.11
436.84	1078.99
437.21	1074.77
437.57	1083.67
437.94	1097.48
438.30	1096.54
438.67	1098.41
439.03	1101.46
439.40	1095.84
439.76	1094.67
440.13	1090.92
440.49	1098.41
440.86	1106.14
441.22	1100.05
441.59	1085.54
441.95	1086.48
442.32	1075.01
442.68	1069.39
443.05	1073.37
443.41	1079.92
443.78	1084.37
444.14	1090.22
444.51	1088.12
444.87	1087.88
445.24	1080.86
445.60	1073.37
445.96	1062.60
446.33	1070.56
446.69	1069.16
447.06	1079.69
447.42	1081.56
447.79	1077.11
448.15	1060.26
448.51	1061.90
448.88	1062.60
449.24	1062.60
449.61	1075.71
449.97	1084.84
450.33	1084.60
450.70	1080.86
451.06	1083.67
451.43	1087.18
451.79	1085.77
452.15	1090.22
452.52	1091.16
452.88	1092.80
453.24	1090.92
453.61	1085.77
453.97	1074.54
454.34	1072.43
454.70	1066.58
455.06	1061.90
455.43	1064.24
455.79	1070.80
456.15	1071.73
456.52	1075.94
456.88	1079.22
457.24	1088.58
457.61	1093.97
457.97	1081.56
458.33	1078.05
458.70	1074.07
459.06	1070.56
459.42	1056.05
459.79	1071.03
460.15	1074.31
460.51	1081.33
460.88	1078.52
461.24	1097.01
461.60	1094.67
461.96	1087.65
462.33	1079.69
462.69	1082.50
463.05	1074.54
463.42	1065.18
463.78	1082.03
464.14	1084.14
464.50	1080.39
464.87	1085.31
465.23	1093.50
465.59	1078.99
465.95	1081.33
466.32	1079.92
466.68	1071.50
467.04	1069.86
467.40	1079.69
467.77	1068.92
468.13	1067.52
468.49	1070.56
468.85	1075.48
469.22	1068.69
469.58	1070.33
469.94	1064.94
470.30	1064.71
470.66	1065.88
471.03	1058.39
471.39	1059.56
471.75	1069.16
472.11	1072.90
472.47	1065.41
472.84	1074.54
473.20	1086.24
473.56	1081.33
473.92	1072.67
474.28	1068.92
474.65	1067.05
475.01	1062.37
475.37	1074.54
475.73	1083.67
476.09	1087.65
476.45	1076.65
476.81	1076.41
477.18	1074.07
477.54	1080.16
477.90	1077.58
478.26	1086.94
478.62	1087.65
478.98	1084.60
479.34	1078.99
479.71	1080.16
480.07	1084.14
480.43	1085.77
480.79	1079.46
481.15	1075.24
481.51	1080.86
481.87	1076.88
482.23	1078.05
482.59	1081.80
482.96	1072.67
483.32	1068.45
483.68	1081.09
484.04	1079.92
484.40	1091.16
484.76	1100.75
485.12	1108.71
485.48	1103.56
485.84	1097.24
486.20	1087.88
486.56	1084.14
486.92	1073.37
487.28	1060.73
487.64	1059.79
488.00	1054.65
488.37	1058.62
488.73	1067.28
489.09	1078.52
489.45	1090.22
489.81	1089.52
490.17	1085.54
490.53	1083.67
490.89	1083.90
491.25	1081.56
491.61	1081.56
491.97	1084.60
492.33	1086.01
492.69	1075.01
493.05	1075.24
493.41	1070.80
493.77	1075.48
494.13	1070.56
494.49	1080.63
494.85	1079.92
495.21	1089.75
495.57	1087.65
495.93	1088.82
496.29	1076.88
496.64	1076.41
497.00	1079.92
497.36	1075.01
497.72	1075.71
498.08	1086.94
498.44	1079.22
498.80	1071.03
499.16	1072.67
499.52	1067.99
499.88	1070.80
500.24	1082.73
500.60	1087.41
500.96	1093.26
501.32	1106.84
501.68	1104.50
502.03	1094.90
502.39	1100.52
502.75	1099.58
503.11	1088.58
503.47	1083.20
503.83	1086.01
504.19	1086.48
504.55	1084.37
504.91	1076.41
505.26	1071.26
505.62	1071.97
505.98	1075.94
506.34	1069.86
506.70	1070.33
507.06	1080.39
507.42	1078.52
507.78	1069.86
508.13	1082.73
508.49	1086.01
508.85	1078.52
509.21	1085.31
509.57	1075.94
509.93	1070.56
510.28	1079.92
510.64	1078.99
511.00	1075.94
511.36	1087.65
511.72	1080.63
512.07	1079.46
512.43	1084.14
512.79	1078.75
513.15	1087.18
513.51	1083.67
513.86	1086.48
514.22	1090.92
514.58	1090.92
514.94	1081.33
515.30	1093.73
515.65	1089.99
516.01	1076.88
516.37	1084.60
516.73	1082.97
517.08	1075.01
517.44	1075.24
517.80	1080.86
518.16	1076.88
518.51	1074.07
518.87	1085.31
519.23	1087.65
519.59	1097.01
519.94	1093.03
520.30	1096.54
520.66	1091.16
521.01	1090.46
521.37	1085.07
521.73	1088.12
522.09	1086.24
522.44	1089.05
522.80	1087.88
523.16	1098.18
523.51	1095.84
523.87	1104.26
524.23	1105.44
524.58	1110.12
524.94	1099.12
525.30	1097.71
525.65	1092.56
526.01	1086.71
526.37	1088.82
526.72	1085.31
527.08	1096.07
527.44	1097.01
527.79	1092.80
528.15	1087.41
528.51	1093.50
528.86	1088.35
529.22	1084.37
529.58	1097.48
529.93	1095.14
530.29	1099.82
530.65	1100.75
531.00	1096.07
531.36	1090.69
531.71	1100.05
532.07	1091.63
532.43	1087.18
532.78	1089.05
533.14	1081.09
533.49	1075.71
533.85	1091.39
534.21	1087.65
534.56	1088.82
534.92	1101.69
535.27	1100.05
535.63	1085.07
535.98	1095.84
536.34	1100.29
536.69	1099.82
537.05	1102.63
537.41	1105.44
537.76	1101.69
538.12	1105.44
538.47	1100.99
538.83	1094.67
539.18	1097.95
539.54	1091.86
539.89	1088.58
540.25	1083.67
540.60	1086.24
540.96	1086.94
541.31	1100.29
541.67	1100.29
542.02	1104.03
542.38	1105.67
542.73	1101.92
543.09	1098.88
543.44	1097.48
543.80	1105.90
544.15	1105.20
544.51	1101.46
544.86	1098.65
545.22	1101.46
545.57	1092.09
545.93	1081.56
546.28	1086.24
546.64	1082.50
546.99	1084.14
547.35	1078.05
547.70	1081.09
548.05	1080.16
548.41	1087.65
548.76	1081.80
549.12	1085.07
549.47	1095.37
549.83	1095.84
550.18	1089.52
550.53	1092.09
550.89	1102.39
551.24	1101.46
551.60	1097.01
551.95	1104.73
552.30	1101.92
552.66	1094.43
553.01	1082.73
553.37	1086.94
553.72	1079.22
554.07	1082.97
554.43	1074.07
554.78	1075.71
555.13	1086.01
555.49	1090.92
555.84	1090.46
556.19	1090.22
556.55	1102.86
556.90	1092.33
557.26	1093.97
557.61	1093.73
557.96	1110.35
558.32	1106.14
558.67	1108.71
559.02	1094.67
559.37	1087.88
559.73	1078.05
560.08	1076.41
560.43	1072.43
560.79	1077.35
561.14	1078.05
561.49	1080.86
561.85	1088.35
562.20	1087.65
562.55	1093.97
562.90	1097.24
563.26	1098.41
563.61	1087.65
563.96	1086.94
564.32	1072.90
564.67	1071.73
565.02	1062.37
565.37	1064.48
565.73	1054.41
566.08	1064.48
566.43	1067.99
566.78	1072.43
567.14	1074.54
567.49	1091.63
567.84	1090.92
568.19	1090.92
568.54	1084.14
568.90	1072.90
569.25	1058.86
569.60	1059.56
569.95	1051.84
570.31	1065.65
570.66	1064.94
571.01	1072.20
571.36	1078.75
571.71	1074.07
572.06	1069.62
572.42	1071.73
572.77	1078.52
573.12	1066.58
573.47	1077.82
573.82	1077.58
574.18	1083.90
574.53	1083.90
574.88	1086.24
575.23	1086.71
575.58	1087.65
575.93	1088.82
576.28	1086.24
576.64	1084.37
576.99	1082.26
577.34	1081.56
577.69	1087.88
578.04	1082.50
578.39	1097.48
578.74	1090.22
579.09	1088.35
579.44	1078.28
579.80	1080.86
580.15	1071.97
580.50	1083.20
580.85	1086.01
581.20	1087.18
581.55	1081.80
581.90	1076.65
582.25	1071.03
582.60	1071.03
582.95	1070.56
583.30	1078.75
583.65	1085.54
584.00	1082.50
584.35	1075.71
584.71	1081.56
585.06	1074.54
585.41	1077.11
585.76	1083.67
586.11	1082.50
586.46	1082.03
586.81	1080.16
587.16	1077.82
587.51	1077.82
587.86	1087.88
588.21	1079.92
588.56	1088.82
588.91	1087.41
589.26	1084.14
589.61	1076.18
589.96	1071.50
590.31	1060.03
590.66	1056.28
591.01	1062.84
591.36	1068.22
591.71	1086.24
592.06	1099.58
592.41	1104.26
592.76	1093.03
593.10	1086.94
593.45	1078.28
593.80	1073.84
594.15	1071.97
594.50	1080.63
594.85	1085.54
595.20	1089.75
595.55	1090.46
595.90	1089.29
596.25	1090.22
596.60	1094.67
596.95	1093.03
597.30	1092.33
597.64	1156.93
597.99	1158.33
598.34	1150.84
598.69	1156.46
599.04	1155.99
599.39	1095.14
599.74	1091.86
600.09	1092.09
600.44	1083.67
600.78	1078.52
601.13	1081.80
601.48	1068.92
601.83	1063.31
602.18	1060.96
602.53	1070.09
602.88	1063.31
603.22	1070.56
603.57	1075.48
603.92	1083.90
604.27	1082.26
604.62	1086.01
604.97	1093.73
605.31	1104.26
605.66	1096.31
606.01	1105.20
606.36	1104.73
606.71	1108.71
607.05	1100.99
607.40	1104.97
607.75	1096.54
608.10	1091.86
608.44	1085.54
608.79	1090.22
609.14	1081.80
609.49	1080.39
609.84	1077.35
610.18	1081.09
610.53	1084.84
610.88	1102.63
611.23	1106.61
611.57	1112.92
611.92	1107.54
612.27	1089.99
612.62	1082.26
612.96	1086.24
613.31	1088.82
613.66	1088.82
614.00	1095.60
614.35	1083.67
614.70	1084.84
615.05	1074.31
615.39	1075.94
615.74	1080.39
616.09	1093.50
616.43	1080.39
616.78	1093.26
617.13	1097.48
617.47	1094.90
617.82	1086.94
618.17	1092.33
618.51	1087.18
618.86	1078.99
619.21	1073.14
619.55	1083.43
619.90	1082.97
620.25	1088.82
620.59	1094.90
620.94	1104.50
621.29	1103.33
621.63	1100.05
621.98	1094.67
622.32	1087.18
622.67	1082.26
623.02	1077.58
623.36	1072.20
623.71	1070.56
624.05	1067.28
624.40	1068.22
624.75	1060.96
625.09	1071.50
625.44	1071.26
625.78	1076.88
626.13	1076.65
626.48	1085.54
626.82	1082.03
627.17	1079.92
627.51	1077.82
627.86	1083.20
628.20	1079.92
628.55	1082.73
628.89	1088.12
629.24	1088.12
629.58	1078.75
629.93	1080.63
630.28	1080.63
630.62	1073.84
630.97	1081.56
631.31	1093.73
631.66	1096.78
632.00	1100.05
632.35	1100.29
632.69	1095.37
633.04	1078.99
633.38	1077.11
633.73	1066.82
634.07	1064.24
634.42	1062.14
634.76	1074.31
635.11	1080.39
635.45	1072.90
635.79	1078.52
636.14	1078.99
636.48	1088.58
636.83	1087.65
637.17	1099.12
637.52	1098.41
637.86	1104.03
638.21	1092.09
638.55	1078.05
638.89	1080.16
639.24	1082.97
639.58	1086.24
639.93	1089.05
640.27	1096.78
640.61	1087.65
640.96	1077.11
641.30	1075.94
641.65	1075.94
641.99	1073.37
642.33	1077.11
642.68	1080.39
643.02	1075.48
643.37	1066.35
643.71	1067.52
644.05	1072.20
644.40	1073.84
644.74	1078.52
645.08	1081.80
645.43	1082.26
645.77	1080.63
646.11	1090.69
646.46	1080.86
646.80	1082.50
647.14	1082.97
647.49	1086.01
647.83	1076.41
648.17	1082.73
648.52	1085.31
648.86	1087.18
649.20	1087.18
649.55	1094.20
649.89	1080.39
650.23	1076.18
650.57	1071.03
650.92	1068.22
651.26	1067.75
651.60	1084.14
651.95	1081.33
652.29	1077.58
652.63	1065.88
652.97	1057.92
653.32	1045.52
653.66	1052.77
654.00	1058.16
654.34	1066.58
654.69	1067.05
655.03	1067.99
655.37	1063.77
655.71	1066.11
656.05	1064.71
656.40	1075.48
656.74	1081.09
657.08	1082.73
657.42	1081.33
657.76	1086.01
658.11	1077.35
658.45	1076.41
658.79	1067.99
659.13	1068.92
659.47	1056.28
659.82	1061.43
660.16	1069.86
660.50	1082.97
660.84	1078.28
661.18	1087.65
661.52	1078.05
661.87	1065.41
662.21	1050.90
662.55	1060.26
662.89	1066.35
663.23	1076.18
663.57	1088.58
663.91	1094.20
664.25	1089.99
664.60	1081.56
664.94	1078.99
665.28	1070.33
665.62	1092.09
665.96	1091.39
666.30	1091.63
666.64	1081.80
666.98	1083.43
667.32	1060.73
667.66	1048.33
668.01	1052.30
668.35	1052.54
668.69	1045.28
669.03	1056.28
669.37	1063.77
669.71	1069.16
670.05	1089.75
670.39	1098.18
670.73	1097.24
671.07	1104.03
671.41	1099.12
671.75	1085.77
672.09	1082.73
672.43	1074.07
672.77	1065.88
673.11	1056.99
673.45	1058.62
673.79	1057.45
674.13	1060.50
674.47	1066.82
674.81	1076.88
675.15	1070.80
675.49	1073.60
675.83	1078.28
676.17	1069.86
676.51	1075.94
676.85	1083.43
677.19	1078.99
677.53	1080.63
677.87	1084.60
678.21	1080.39
678.55	1075.01
678.89	1079.92
679.23	1066.11
679.57	1075.48
679.90	1071.97
680.24	1072.90
680.58	1068.92
680.92	1076.41
681.26	1063.54
681.60	1071.50
681.94	1078.99
682.28	1078.52
682.62	1078.75
682.96	1092.56
683.29	1086.01
683.63	1078.75
683.97	1081.80
684.31	1089.99
684.65	1094.43
684.99	1091.39
685.33	1089.99
685.67	1095.60
686.00	1088.58
686.34	1073.60
686.68	1082.73
687.02	1098.18
687.36	1097.01
687.70	1091.39
688.03	1101.92
688.37	1093.03
688.71	1075.94
689.05	1079.22
689.39	1072.90
689.72	1070.80
690.06	1071.97
690.40	1073.14
690.74	1067.28
691.08	1083.67
691.41	1082.97
691.75	1081.09
692.09	1081.09
692.43	1079.69
692.76	1079.46
693.10	1074.54
693.44	1070.09
693.78	1075.94
694.11	1085.31
694.45	1079.46
694.79	1088.58
695.13	1103.33
695.46	1106.84
695.80	1098.41
696.14	1092.80
696.48	1091.39
696.81	1094.90
697.15	1088.58
697.49	1085.07
697.82	1088.82
698.16	1086.71
698.50	1073.14
698.83	1082.26
699.17	1084.37
699.51	1082.97
699.84	1078.05
700.18	1090.46
700.52	1078.52
700.85	1073.37
701.19	1076.65
701.53	1074.54
701.86	1059.56
702.20	1060.50
702.54	1074.54
702.87	1079.22
703.21	1080.86
703.55	1092.80
703.88	1099.58
704.22	1095.84
704.55	1089.52
704.89	1088.58
705.23	1074.54
705.56	1073.84
705.90	1077.35
706.23	1078.52
706.57	1086.24
706.91	1105.67
707.24	1102.39
707.58	1098.41
707.91	1097.71
708.25	1082.50
708.58	1069.39
708.92	1071.03
709.26	1064.48
709.59	1070.80
709.93	1077.82
710.26	1082.50
710.60	1078.75
710.93	1083.67
711.27	1078.99
711.60	1085.77
711.94	1086.48
712.27	1093.03
712.61	1093.26
712.94	1088.35
713.28	1084.14
713.61	1082.50
713.95	1082.03
714.28	1077.35
714.62	1084.60
714.95	1091.16
715.29	1084.84
715.62	1072.67
715.96	1071.26
716.29	1064.01
716.63	1062.14
716.96	1061.90
717.29	1071.73
717.63	1082.97
717.96	1084.60
718.30	1088.12
718.63	1088.82
718.97	1082.03
719.30	1076.18
719.63	1068.22
719.97	1059.09
720.30	1063.31
720.64	1075.01
720.97	1074.31
721.30	1086.94
721.64	1080.86
721.97	1076.65
722.31	1063.31
722.64	1058.39
722.97	1060.03
723.31	1066.58
723.64	1073.84
723.97	1083.20
724.31	1084.60
724.64	1089.75
724.98	1086.24
725.31	1093.26
725.64	1097.48
725.98	1099.12
726.31	1095.84
726.64	1091.39
726.97	1082.50
727.31	1080.16
727.64	1077.35
727.97	1080.39
728.31	1091.86
728.64	1089.52
728.97	1076.41
729.31	1078.28
729.64	1068.45
729.97	1062.60
730.30	1061.43
730.64	1064.24
730.97	1062.84
731.30	1064.94
731.63	1064.24
731.97	1063.77
732.30	1065.41
732.63	1076.41
732.96	1077.35
733.30	1079.69
733.63	1071.50
733.96	1075.48
734.29	1069.62
734.63	1082.03
734.96	1079.92
735.29	1092.56
735.62	1091.39
735.95	1100.05
736.29	1090.22
736.62	1094.43
736.95	1081.33
737.28	1093.50
737.61	1088.82
737.94	1082.97
738.28	1080.63
738.61	1093.50
738.94	1075.94
739.27	1070.56
739.60	1075.48
739.93	1074.07
740.27	1075.24
740.60	1090.46
740.93	1088.58
741.26	1087.65
741.59	1078.05
741.92	1079.46
742.25	1077.35
742.58	1088.35
742.91	1082.03
743.25	1098.18
743.58	1091.16
743.91	1090.46
744.24	1077.35
744.57	1082.73
744.90	1081.56
745.23	1080.39
745.56	1073.84
745.89	1073.60
746.22	1068.45
746.55	1067.28
746.88	1075.24
747.21	1082.26
747.54	1087.65
747.87	1088.58
748.20	1078.05
748.53	1076.65
748.87	1072.20
749.20	1064.94
749.53	1073.14
749.86	1076.88
750.19	1075.01
750.52	1070.80
750.85	1063.31
751.18	1054.65
751.51	1058.39
751.84	1049.50
752.16	1052.30
752.49	1068.22
752.82	1064.71
753.15	1064.01
753.48	1073.60
753.81	1072.20
754.14	1073.84
754.47	1079.22
754.80	1085.31
755.13	1083.43
755.46	1088.35
755.79	1079.69
756.12	1086.24
756.45	1082.26
756.78	1070.56
757.11	1071.26
757.43	1071.97
757.76	1060.03
758.09	1057.22
758.42	1070.09
758.75	1061.20
759.08	1060.26
759.41	1073.37
759.74	1074.31
760.07	1078.75
760.39	1086.24
760.72	1089.75
761.05	1093.03
761.38	1100.52
761.71	1107.54
762.04	1104.26
762.36	1107.31
762.69	1096.78
763.02	1086.01
763.35	1069.39
763.68	1069.39
764.01	1068.92
764.33	1080.16
764.66	1084.14
764.99	1077.58
765.32	1074.31
765.65	1074.77
765.97	1063.77
766.30	1059.33
766.63	1060.03
766.96	1075.24
767.28	1064.94
767.61	1062.14
767.94	1068.22
768.27	1073.60
768.59	1068.92
768.92	1081.56
769.25	1098.18
769.58	1101.92
769.90	1104.97
770.23	1096.78
770.56	1094.20
770.89	1077.11
771.21	1072.67
771.54	1070.09
771.87	1077.11
772.19	1072.67
772.52	1083.67
772.85	1086.01
773.17	1093.26
773.50	1077.11
773.83	1086.94
774.15	1074.31
774.48	1065.88
774.81	1065.18
775.13	1078.52
775.46	1067.52
775.79	1071.97
776.11	1073.84
776.44	1077.35
776.77	1082.03
777.09	1089.29
777.42	1089.29
777.74	1094.67
778.07	1087.41
778.40	1089.52
778.72	1082.97
779.05	1077.58
779.37	1080.39
779.70	1087.18
780.03	1078.75
780.35	1088.58
780.68	1091.63
781.00	1085.07
781.33	1079.92
781.65	1077.58
781.98	1069.39
782.31	1077.11
782.63	1079.69
782.96	1078.75
783.28	1079.22
783.61	1079.46
783.93	1076.18
784.26	1076.18
784.58	1079.22
784.91	1083.90
785.23	1079.69
785.56	1084.14
785.88	1081.56
786.21	1078.99
786.53	1080.86
786.86	1087.88
787.18	1083.90
787.51	1076.18
787.83	1071.50
788.16	1067.52
788.48	1066.11
788.81	1060.03
789.13	1067.75
789.46	1064.24
789.78	1063.31
790.10	1060.50
790.43	1070.33
790.75	1075.48
791.08	1086.94
791.40	1093.97
791.73	1103.09
792.05	1107.54
792.37	1104.73
792.70	1098.41
793.02	1094.67
793.35	1089.29
793.67	1081.80
793.99	1078.28
794.32	1078.75
794.64	1070.09
794.96	1071.26
795.29	1078.75
795.61	1085.54
795.93	1084.14
796.26	1095.60
796.58	1093.03
796.91	1085.31
797.23	1081.80
797.55	1084.37
797.87	1077.82
798.20	1089.52
798.52	1085.31
798.84	1093.03
799.17	1098.65
799.49	1099.35
799.81	1088.82
800.14	1094.90
800.46	1078.52
800.78	1073.14
801.10	1073.84
801.43	1072.67
801.75	1072.20
802.07	1079.22
802.40	1071.73
802.72	1061.43
803.04	1057.45
803.36	1057.45
803.69	1070.80
804.01	1071.97
804.33	1083.90
804.65	1093.50
804.97	1086.94
805.30	1068.45
805.62	1072.43
805.94	1068.22
806.26	1056.99
806.58	1056.28
806.91	1058.86
807.23	1062.60
807.55	1056.28
807.87	1060.50
808.19	1068.45
808.52	1072.43
808.84	1069.62
809.16	1075.24
809.48	1079.22
809.80	1075.71
810.12	1081.09
810.44	1089.29
810.77	1086.48
811.09	1086.24
811.41	1089.05
811.73	1093.26
812.05	1092.80
812.37	1096.07
812.69	1101.46
813.01	1101.46
813.33	1099.58
813.66	1091.39
813.98	1084.14
814.30	1069.39
814.62	1077.82
814.94	1073.37
815.26	1063.31
815.58	1072.20
815.90	1080.39
816.22	1075.71
816.54	1068.69
816.86	1079.92
817.18	1079.69
817.50	1078.05
817.82	1077.11
818.14	1081.33
818.46	1073.84
818.78	1076.18
819.10	1081.09
819.42	1067.52
819.74	1065.65
820.06	1074.07
820.38	1070.09
820.70	1063.07
821.02	1059.56
821.34	1055.11
821.66	1060.96
821.98	1061.67
822.30	1065.88
822.62	1078.52
822.94	1087.18
823.26	1079.69
823.58	1085.77
823.90	1090.92
824.22	1095.37
824.54	1095.84
824.86	1101.69
825.18	1088.35
825.50	1075.71
825.81	1068.22
826.13	1069.86
826.45	1073.14
826.77	1075.71
827.09	1079.46
827.41	1078.28
827.73	1076.18
828.05	1066.35
828.36	1072.20
828.68	1074.31
829.00	1076.41
829.32	1069.86
829.64	1064.48
829.96	1059.79
830.28	1055.58
830.59	1051.84
830.91	1060.50
831.23	1068.69
831.55	1067.52
831.87	1071.03
832.19	1079.22
832.50	1082.97
832.82	1078.52
833.14	1087.65
833.46	1090.69
833.78	1084.84
834.09	1083.43
834.41	1089.75
834.73	1090.46
835.05	1087.88
835.36	1098.88
835.68	1088.35
836.00	1086.71
836.32	1084.14
836.63	1080.16
836.95	1067.99
837.27	1074.54
837.59	1084.37
837.90	1070.33
838.22	1077.58
838.54	1078.05
838.85	1073.14
839.17	1065.18
839.49	1074.77
839.80	1068.69
840.12	1067.52
840.44	1066.35
840.76	1064.48
841.07	1064.48
841.39	1065.18
841.71	1062.60
842.02	1065.88
842.34	1077.82
842.65	1076.18
842.97	1084.84
843.29	1099.12
843.60	1101.92
843.92	1092.33
844.24	1096.54
844.55	1090.69
844.87	1078.05
845.18	1075.71
845.50	1071.50
845.82	1071.73
846.13	1068.69
846.45	1075.24
846.76	1079.69
847.08	1092.09
847.40	1092.09
847.71	1096.54
848.03	1103.56
848.34	1103.56
848.66	1101.22
848.97	1099.35
849.29	1087.88
849.60	1089.52
849.92	1085.54
850.24	1073.60
850.55	1078.28
850.87	1086.94
851.18	1082.03
851.50	1085.54
851.81	1080.63
852.13	1074.31
852.44	1067.28
852.76	1056.52
853.07	1058.39
853.39	1078.05
853.70	1084.37
854.01	1098.18
854.33	1105.67
854.64	1101.22
854.96	1092.33
855.27	1098.18
855.59	1087.88
855.90	1084.60
856.22	1086.94
856.53	1086.94
856.84	1076.41
857.16	1074.54
857.47	1076.18
857.79	1069.62
858.10	1074.31
858.41	1076.18
858.73	1090.69
859.04	1092.33
859.36	1097.71
859.67	1083.90
859.98	1082.73
860.30	1072.20
860.61	1074.07
860.92	1069.39
861.24	1080.39
861.55	1082.73
861.87	1088.35
862.18	1082.50
862.49	1083.67
862.81	1081.33
863.12	1077.35
863.43	1061.90
863.74	1064.94
864.06	1067.28
864.37	1075.94
864.68	1081.80
865.00	1096.54
865.31	1090.22
865.62	1085.54
865.94	1073.60
866.25	1075.48
866.56	1068.45
866.87	1068.45
867.19	1070.56
867.50	1070.09
867.81	1063.54
868.12	1064.24
868.44	1067.99
868.75	1061.67
869.06	1048.09
869.37	1046.45
869.68	1049.96
870.00	1048.09
870.31	1062.14
870.62	1082.97
870.93	1091.86
871.24	1085.54
871.56	1091.63
871.87	1087.88
872.18	1085.77
872.49	1082.50
872.80	1084.84
873.12	1086.48
873.43	1077.35
873.74	1073.37
874.05	1073.37
874.36	1081.80
874.67	1080.39
874.98	1082.73
875.29	1078.99
875.61	1081.33
875.92	1081.80
876.23	1082.03
876.54	1086.01
876.85	1091.63
877.16	1094.20
877.47	1100.05
877.78	1095.60
878.09	1099.12
878.40	1099.12
878.72	1090.46
879.03	1073.60
879.34	1073.37
879.65	1062.60
879.96	1053.24
880.27	1051.37
880.58	1064.94
880.89	1075.01
881.20	1089.52
881.51	1097.01
881.82	1094.20
882.13	1085.77
882.44	1081.56
882.75	1081.56
883.06	1082.73
883.37	1096.07
883.68	1098.41
883.99	1097.01
884.30	1098.88
884.61	1105.44
884.92	1098.88
885.23	1102.63
885.54	1098.88
885.85	1094.67
886.16	1082.73
886.47	1090.69
886.78	1077.35
887.08	1072.67
887.39	1061.67
887.70	1067.05
888.01	1052.07
888.32	1067.99
888.63	1065.88
888.94	1074.54
889.25	1076.65
889.56	1084.60
889.87	1082.73
890.17	1084.60
890.48	1080.86
890.79	1075.48
891.10	1071.73
891.41	1065.41
891.72	1069.39
892.03	1080.39
892.34	1090.46
892.64	1098.41
892.95	1091.63
893.26	1093.03
893.57	1085.54
893.88	1082.03
894.18	1072.20
894.49	1085.07
894.80	1086.24
895.11	1083.20
895.42	1067.28
895.72	1067.52
896.03	1066.58
896.34	1061.43
896.65	1062.60
896.96	1069.16
897.26	1064.71
897.57	1054.18
897.88	1054.88
898.19	1052.77
898.49	1059.56
898.80	1064.24
899.11	1072.90
899.41	1076.18
899.72	1077.11
900.03	1080.39
900.34	1095.37
900.64	1095.14
900.95	1097.01
901.26	1092.56
901.56	1085.31
901.87	1068.45
902.18	1060.50
902.48	1060.26
902.79	1064.71
903.10	1069.16
903.40	1069.86
903.71	1071.03
904.02	1070.56
904.32	1076.18
904.63	1077.11
904.94	1077.82
905.24	1088.82
905.55	1091.39
905.85	1086.01
906.16	1083.90
906.47	1087.41
906.77	1082.03
907.08	1084.14
907.38	1071.73
907.69	1065.65
908.00	1076.18
908.30	1070.56
908.61	1060.96
908.91	1078.99
909.22	1084.37
909.52	1063.77
909.83	1068.92
910.14	1060.96
910.44	1051.60
910.75	1045.75
911.05	1057.92
911.36	1060.73
911.66	1079.46
911.97	1088.35
912.27	1100.05
912.58	1103.09
912.88	1103.33
913.19	1095.14
913.49	1093.26
913.80	1090.92
914.10	1083.90
914.41	1083.90
914.71	1076.18
915.01	1076.41
915.32	1084.37
915.62	1091.63
915.93	1082.73
916.23	1083.67
916.54	1080.39
916.84	1070.80
917.15	1069.16
917.45	1075.01
917.75	1086.71
918.06	1090.22
918.36	1087.88
918.67	1078.99
918.97	1075.71
919.27	1072.43
919.58	1066.35
919.88	1073.14
920.18	1074.31
920.49	1074.54
920.79	1083.43
921.10	1086.94
921.40	1082.73
921.70	1086.01
922.01	1085.54
922.31	1080.63
922.61	1083.67
922.92	1091.86
923.22	1096.54
923.52	1091.16
923.82	1091.39
924.13	1084.37
924.43	1076.88
924.73	1068.69
925.04	1071.97
925.34	1067.05
925.64	1067.99
925.94	1064.24
926.25	1070.33
926.55	1076.65
926.85	1075.71
927.15	1085.07
927.46	1089.99
927.76	1084.84
928.06	1085.77
928.36	1084.60
928.67	1079.92
928.97	1080.39
929.27	1081.56
929.57	1077.82
929.87	1085.07
930.18	1086.48
930.48	1084.84
930.78	1085.31
931.08	1087.18
931.38	1083.67
931.69	1071.03
931.99	1061.43
932.29	1069.39
932.59	1080.16
932.89	1070.56
933.19	1074.77
933.49	1088.82
933.80	1082.50
934.10	1071.50
934.40	1081.33
934.70	1079.92
935.00	1073.84
935.30	1077.58
935.60	1074.07
935.90	1075.48
936.20	1082.50
936.50	1075.71
936.81	1076.88
937.11	1087.65
937.41	1091.39
937.71	1102.86
938.01	1096.31
938.31	1076.41
938.61	1073.37
938.91	1071.73
939.21	1060.03
939.51	1067.05
939.81	1072.20
940.11	1069.86
940.41	1059.33
940.71	1055.11
941.01	1051.60
941.31	1061.90
941.61	1059.09
941.91	1063.77
942.21	1065.18
942.51	1085.54
942.81	1081.33
943.11	1083.20
943.41	1094.20
943.71	1098.18
944.01	1091.16
944.31	1103.80
944.61	1104.26
944.90	1107.54
945.20	1111.05
945.50	1111.29
945.80	1100.75
946.10	1098.88
946.40	1081.33
946.70	1073.84
947.00	1068.69
947.30	1060.50
947.60	1058.39
947.89	1066.35
948.19	1073.60
948.49	1070.80
948.79	1077.35
949.09	1075.48
949.39	1082.03
949.69	1072.67
949.98	1072.20
950.28	1084.60
950.58	1084.60
950.88	1072.43
951.18	1089.99
951.48	1097.71
951.77	1091.16
952.07	1084.60
952.37	1087.65
952.67	1081.56
952.97	1079.92
953.26	1070.33
953.56	1075.71
953.86	1075.24
954.16	1069.86
954.45	1067.28
954.75	1083.90
955.05	1093.97
955.35	1084.60
955.64	1078.99
955.94	1086.48
956.24	1077.58
956.54	1073.60
956.83	1087.41
957.13	1089.52
957.43	1074.77
957.72	1080.39
958.02	1071.97
958.32	1064.94
958.61	1070.80
958.91	1083.90
959.21	1080.86
959.50	1083.20
959.80	1085.07
960.10	1078.99
960.39	1076.88
960.69	1066.35
960.99	1068.69
961.28	1070.33
961.58	1065.41
961.87	1059.09
962.17	1064.01
962.47	1071.50
962.76	1071.97
963.06	1066.35
963.36	1068.92
963.65	1074.77
963.95	1064.48
964.24	1069.16
964.54	1077.35
964.83	1080.86
965.13	1076.18
965.42	1073.60
965.72	1057.22
966.02	1063.77
966.31	1056.05
966.61	1052.07
966.90	1059.79
967.20	1073.37
967.49	1069.16
967.79	1075.01
968.08	1073.84
968.38	1067.28
968.67	1058.39
968.97	1061.67
969.26	1056.52
969.56	1060.03
969.85	1064.71
970.15	1073.14
970.44	1077.11
970.74	1087.65
971.03	1092.09
971.32	1097.01
971.62	1094.20
971.91	1088.82
972.21	1084.14
972.50	1079.22
972.80	1070.33
973.09	1075.24
973.38	1076.88
973.68	1066.82
973.97	1069.16
974.27	1071.26
974.56	1061.67
974.85	1060.26
975.15	1076.88
975.44	1071.26
975.73	1071.03
976.03	1087.65
976.32	1087.65
976.61	1081.80
976.91	1091.39
977.20	1100.52
977.49	1091.63
977.79	1090.92
978.08	1082.03
978.37	1087.18
978.67	1076.18
978.96	1073.60
979.25	1069.16
979.55	1075.71
979.84	1073.60
980.13	1072.67
980.42	1082.97
980.72	1089.05
981.01	1086.01
981.30	1089.52
981.59	1099.12
981.89	1088.58
982.18	1088.35
982.47	1094.20
982.76	1089.75
983.06	1084.37
983.35	1082.73
983.64	1075.48
983.93	1079.69
984.22	1072.67
984.52	1075.48
984.81	1071.50
985.10	1082.26
985.39	1077.35
985.68	1080.63
985.97	1068.69
986.27	1081.80
986.56	1067.52
986.85	1069.39
987.14	1068.69
987.43	1072.20
987.72	1065.18
988.01	1075.71
988.31	1070.09
988.60	1069.16
988.89	1076.18
989.18	1076.18
989.47	1083.67
989.76	1086.24
990.05	1087.65
990.34	1082.73
990.63	1076.18
990.92	1082.50
991.21	1081.56
991.51	1077.58
991.80	1081.09
992.09	1088.12
992.38	1067.75
992.67	1064.24
992.96	1069.16
993.25	1072.20
993.54	1064.94
993.83	1069.16
994.12	1066.82
994.41	1061.20
994.70	1057.69
994.99	1054.65
995.28	1058.16
995.57	1065.18
995.86	1076.65
996.15	1078.52
996.44	1087.41
996.73	1089.99
997.02	1085.31
997.31	1078.05
997.59	1076.18
997.88	1072.90
998.17	1062.84
998.46	1061.43
998.75	1052.54
999.04	1063.07
999.33	1062.84
999.62	1061.43
999.91	1064.24
1000.20	1079.22
1000.49	1079.92
1000.77	1084.60
1001.06	1091.63
1001.35	1096.54
1001.64	1085.54
1001.93	1074.54
1002.22	1076.41
1002.51	1075.01
1002.79	1072.67
1003.08	1080.39
1003.37	1089.75
1003.66	1077.11
1003.95	1081.56
1004.23	1083.90
1004.52	1073.37
1004.81	1068.69
1005.10	1083.43
1005.39	1080.39
1005.67	1081.80
1005.96	1089.75
1006.25	1086.24
1006.54	1078.99
1006.83	1081.09
1007.11	1072.20
1007.40	1080.63
1007.69	1084.14
1007.97	1092.56
1008.26	1096.07
1008.55	1102.63
1008.84	1090.22
1009.12	1085.07
1009.41	1081.33
1009.70	1084.60
1009.98	1086.24
1010.27	1090.46
1010.56	1091.39
1010.85	1090.46
1011.13	1083.67
1011.42	1076.41
1011.71	1074.54
1011.99	1077.82
1012.28	1066.82
1012.56	1074.07
1012.85	1070.80
1013.14	1071.73
1013.42	1067.75
1013.71	1078.75
1014.00	1073.14
1014.28	1076.65
1014.57	1074.54
1014.85	1079.22
1015.14	1087.41
1015.43	1077.58
1015.71	1074.31
1016.00	1088.58
1016.28	1090.22
1016.57	1075.48
1016.85	1079.69
1017.14	1094.20
1017.43	1071.73
1017.71	1068.69
1018.00	1073.84
1018.28	1074.54
1018.57	1065.65
1018.85	1061.67
1019.14	1066.35
1019.42	1068.92
1019.71	1068.22
1019.99	1065.88
1020.28	1094.67
1020.56	1087.65
1020.85	1086.01
1021.13	1097.01
1021.42	1087.65
1021.70	1080.16
1021.99	1077.11
1022.27	1076.65
1022.55	1048.56
1022.84	1080.16
>>>>>End Processed Spectral Data<<<<<
