SpectraSuite Data File
++++++++++++++++++++++++++++++++++++
Date: Mon Aug 26 10:25:55 PDT 2019
User: corrico
Dark Spectrum Present: No
Reference Spectrum Present: No
Number of Sampled Component Spectra: 1
Spectrometers: USB2+H06089
Integration Time (usec): 10000 (USB2+H06089)
Spectra Averaged: 2 (USB2+H06089)
Boxcar Smoothing: 2 (USB2+H06089)
Correct for Electrical Dark: No (USB2+H06089)
Strobe/Lamp Enabled: No (USB2+H06089)
Correct for Detector Non-linearity: No (USB2+H06089)
Correct for Stray Light: No (USB2+H06089)
Number of Pixels in Processed Spectrum: 2048
>>>>>Begin Processed Spectral Data<<<<<
339.70	1019.30
340.07	1019.30
340.45	979.98
340.82	959.39
341.19	937.85
341.57	917.96
341.94	915.15
342.31	914.21
342.69	912.57
343.06	911.17
343.43	903.68
343.81	901.34
344.18	909.53
344.55	910.70
344.93	916.09
345.30	930.60
345.67	931.07
346.04	937.38
346.42	950.02
346.79	956.81
347.16	961.73
347.54	969.92
347.91	972.02
348.28	974.83
348.65	975.77
349.03	981.15
349.40	992.86
349.77	1009.71
350.14	1022.81
350.52	1040.84
350.89	1051.13
351.26	1050.90
351.63	1049.96
352.01	1042.47
352.38	1037.79
352.75	1032.18
353.12	1038.03
353.50	1045.52
353.87	1059.33
354.24	1073.37
354.61	1079.92
354.98	1088.35
355.36	1088.58
355.73	1083.43
356.10	1069.39
356.47	1071.03
356.84	1075.71
357.22	1074.31
357.59	1072.20
357.96	1078.99
358.33	1083.43
358.70	1076.65
359.08	1072.43
359.45	1074.54
359.82	1076.18
360.19	1072.43
360.56	1063.07
360.94	1073.14
361.31	1078.52
361.68	1077.58
362.05	1079.46
362.42	1092.80
362.79	1085.54
363.16	1074.07
363.54	1068.22
363.91	1064.71
364.28	1052.30
364.65	1055.35
365.02	1065.41
365.39	1077.82
365.76	1077.58
366.14	1080.16
366.51	1080.16
366.88	1073.37
367.25	1069.62
367.62	1070.56
367.99	1079.92
368.36	1078.28
368.73	1082.50
369.10	1077.82
369.48	1075.94
369.85	1070.80
370.22	1067.05
370.59	1068.45
370.96	1068.92
371.33	1072.43
371.70	1077.35
372.07	1076.65
372.44	1076.41
372.81	1079.69
373.18	1070.56
373.55	1059.79
373.93	1067.52
374.30	1062.60
374.67	1054.18
375.04	1062.37
375.41	1065.18
375.78	1049.03
376.15	1053.94
376.52	1064.01
376.89	1067.05
377.26	1067.75
377.63	1082.03
378.00	1073.37
378.37	1071.73
378.74	1065.88
379.11	1066.82
379.48	1058.39
379.85	1062.60
380.22	1056.75
380.59	1056.05
380.96	1053.01
381.33	1058.16
381.70	1063.07
382.07	1068.92
382.44	1071.03
382.81	1067.99
383.18	1064.24
383.55	1064.01
383.92	1061.20
384.29	1063.77
384.66	1070.09
385.03	1072.90
385.40	1079.69
385.77	1085.07
386.14	1082.97
386.51	1086.94
386.88	1091.16
387.25	1090.69
387.62	1089.05
387.99	1089.52
388.36	1081.80
388.73	1080.86
389.10	1082.26
389.46	1076.88
389.83	1077.11
390.20	1083.20
390.57	1077.82
390.94	1076.88
391.31	1073.60
391.68	1066.82
392.05	1067.28
392.42	1070.56
392.79	1059.33
393.16	1071.50
393.53	1079.92
393.89	1082.03
394.26	1082.97
394.63	1085.31
395.00	1079.69
395.37	1084.84
395.74	1080.16
396.11	1082.50
396.48	1084.84
396.84	1076.18
397.21	1062.60
397.58	1053.94
397.95	1044.11
398.32	1041.77
398.69	1049.73
399.06	1057.69
399.42	1066.35
399.79	1072.90
400.16	1076.18
400.53	1076.41
400.90	1072.90
401.27	1063.31
401.64	1059.09
402.00	1061.43
402.37	1071.03
402.74	1075.01
403.11	1084.60
403.48	1082.73
403.84	1082.03
404.21	1069.86
404.58	1056.52
404.95	1049.26
405.32	1048.09
405.68	1056.28
406.05	1056.99
406.42	1070.80
406.79	1093.03
407.16	1097.01
407.52	1088.35
407.89	1091.16
408.26	1091.39
408.63	1072.43
408.99	1078.28
409.36	1075.94
409.73	1069.62
410.10	1064.01
410.47	1073.37
410.83	1072.90
411.20	1065.65
411.57	1069.62
411.94	1065.88
412.30	1061.20
412.67	1056.75
413.04	1066.82
413.40	1069.16
413.77	1073.14
414.14	1072.43
414.51	1079.22
414.87	1075.48
415.24	1072.90
415.61	1081.56
415.97	1084.14
416.34	1078.75
416.71	1082.03
417.08	1084.37
417.44	1073.60
417.81	1070.80
418.18	1070.09
418.54	1073.37
418.91	1074.54
419.28	1078.28
419.64	1077.82
420.01	1077.82
420.38	1068.45
420.74	1066.82
421.11	1069.39
421.48	1073.37
421.84	1075.94
422.21	1080.16
422.58	1084.84
422.94	1084.84
423.31	1090.22
423.68	1092.80
424.04	1086.94
424.41	1086.71
424.77	1077.58
425.14	1070.09
425.51	1068.45
425.87	1061.67
426.24	1048.33
426.61	1056.99
426.97	1059.09
427.34	1051.60
427.70	1063.54
428.07	1067.99
428.44	1064.94
428.80	1062.84
429.17	1062.84
429.53	1055.11
429.90	1063.31
430.27	1063.54
430.63	1060.73
431.00	1059.79
431.36	1068.22
431.73	1053.48
432.09	1056.99
432.46	1054.88
432.83	1065.18
433.19	1056.75
433.56	1078.75
433.92	1072.67
434.29	1072.43
434.65	1071.03
435.02	1071.97
435.38	1050.43
435.75	1051.37
436.11	1052.54
436.48	1046.45
436.84	1052.77
437.21	1064.24
437.57	1066.58
437.94	1066.35
438.30	1074.77
438.67	1070.33
439.03	1073.37
439.40	1083.90
439.76	1086.71
440.13	1090.69
440.49	1092.80
440.86	1093.03
441.22	1088.12
441.59	1086.94
441.95	1083.43
442.32	1085.77
442.68	1086.94
443.05	1082.50
443.41	1086.01
443.78	1071.73
444.14	1075.94
444.51	1071.50
444.87	1079.46
445.24	1075.71
445.60	1077.82
445.96	1080.39
446.33	1073.14
446.69	1067.05
447.06	1069.16
447.42	1071.50
447.79	1067.52
448.15	1067.05
448.51	1064.01
448.88	1058.62
449.24	1057.45
449.61	1047.86
449.97	1049.96
450.33	1044.35
450.70	1048.79
451.06	1050.90
451.43	1053.94
451.79	1059.56
452.15	1068.45
452.52	1070.80
452.88	1078.99
453.24	1085.54
453.61	1088.12
453.97	1086.48
454.34	1094.20
454.70	1090.69
455.06	1091.63
455.43	1088.35
455.79	1093.97
456.15	1083.67
456.52	1076.88
456.88	1075.71
457.24	1073.60
457.61	1070.33
457.97	1070.56
458.33	1082.26
458.70	1083.43
459.06	1081.09
459.42	1070.33
459.79	1067.52
460.15	1063.54
460.51	1056.28
460.88	1056.75
461.24	1067.52
461.60	1067.75
461.96	1065.88
462.33	1072.90
462.69	1076.18
463.05	1075.01
463.42	1080.16
463.78	1074.31
464.14	1068.22
464.50	1066.82
464.87	1066.82
465.23	1060.73
465.59	1057.22
465.95	1048.33
466.32	1042.01
466.68	1041.77
467.04	1047.62
467.40	1060.03
467.77	1072.43
468.13	1081.56
468.49	1075.24
468.85	1078.05
469.22	1077.82
469.58	1083.20
469.94	1089.75
470.30	1100.29
470.66	1095.60
471.03	1093.97
471.39	1086.24
471.75	1075.94
472.11	1069.86
472.47	1068.22
472.84	1073.14
473.20	1078.99
473.56	1093.03
473.92	1097.24
474.28	1100.99
474.65	1100.29
475.01	1101.22
475.37	1094.20
475.73	1089.52
476.09	1090.69
476.45	1082.97
476.81	1081.33
477.18	1074.54
477.54	1079.69
477.90	1088.12
478.26	1093.73
478.62	1089.99
478.98	1103.33
479.34	1100.99
479.71	1092.33
480.07	1089.05
480.43	1098.41
480.79	1093.97
481.15	1106.37
481.51	1110.35
481.87	1111.29
482.23	1095.14
482.59	1088.12
482.96	1084.60
483.32	1089.29
483.68	1093.03
484.04	1100.29
484.40	1103.56
484.76	1091.16
485.12	1085.07
485.48	1084.84
485.84	1084.14
486.20	1081.80
486.56	1079.69
486.92	1068.45
487.28	1070.09
487.64	1068.45
488.00	1067.05
488.37	1073.84
488.73	1084.84
489.09	1086.94
489.45	1086.24
489.81	1087.88
490.17	1089.99
490.53	1080.86
490.89	1073.14
491.25	1081.33
491.61	1091.39
491.97	1087.18
492.33	1097.48
492.69	1095.14
493.05	1094.20
493.41	1086.48
493.77	1087.18
494.13	1080.63
494.49	1084.37
494.85	1082.97
495.21	1082.26
495.57	1077.35
495.93	1072.20
496.29	1069.62
496.64	1064.94
497.00	1061.90
497.36	1069.86
497.72	1075.24
498.08	1088.82
498.44	1092.56
498.80	1093.26
499.16	1090.92
499.52	1093.97
499.88	1082.97
500.24	1082.73
500.60	1085.31
500.96	1085.77
501.32	1086.48
501.68	1085.31
502.03	1088.82
502.39	1093.03
502.75	1086.94
503.11	1082.26
503.47	1089.29
503.83	1081.56
504.19	1075.48
504.55	1077.82
504.91	1076.18
505.26	1068.92
505.62	1073.37
505.98	1074.07
506.34	1077.11
506.70	1086.94
507.06	1089.75
507.42	1088.35
507.78	1089.75
508.13	1094.67
508.49	1093.26
508.85	1096.07
509.21	1095.37
509.57	1098.88
509.93	1097.01
510.28	1092.33
510.64	1081.33
511.00	1083.20
511.36	1077.35
511.72	1073.14
512.07	1073.14
512.43	1078.28
512.79	1075.48
513.15	1081.80
513.51	1083.20
513.86	1082.03
514.22	1076.18
514.58	1077.35
514.94	1069.16
515.30	1073.60
515.65	1077.35
516.01	1086.71
516.37	1091.86
516.73	1093.03
517.08	1093.03
517.44	1089.75
517.80	1091.16
518.16	1083.90
518.51	1093.73
518.87	1083.20
519.23	1087.65
519.59	1082.26
519.94	1079.69
520.30	1071.73
520.66	1089.99
521.01	1089.52
521.37	1095.84
521.73	1106.61
522.09	1116.20
522.44	1112.46
522.80	1128.61
523.16	1128.61
523.51	1126.97
523.87	1123.22
524.23	1118.31
524.58	1104.50
524.94	1100.29
525.30	1107.31
525.65	1099.82
526.01	1102.86
526.37	1104.73
526.72	1107.78
527.08	1101.22
527.44	1099.58
527.79	1095.14
528.15	1090.22
528.51	1087.65
528.86	1087.65
529.22	1092.33
529.58	1092.09
529.93	1099.12
530.29	1104.97
530.65	1098.88
531.00	1103.56
531.36	1104.97
531.71	1106.61
532.07	1101.46
532.43	1104.73
532.78	1091.39
533.14	1089.75
533.49	1078.75
533.85	1081.56
534.21	1079.46
534.56	1082.50
534.92	1083.20
535.27	1088.58
535.63	1087.41
535.98	1104.73
536.34	1106.61
536.69	1107.07
537.05	1106.37
537.41	1097.24
537.76	1089.75
538.12	1088.12
538.47	1091.39
538.83	1090.92
539.18	1106.14
539.54	1099.12
539.89	1109.41
540.25	1098.41
540.60	1093.73
540.96	1079.69
541.31	1079.46
541.67	1073.14
542.02	1082.97
542.38	1078.75
542.73	1072.20
543.09	1071.50
543.44	1074.77
543.80	1064.48
544.15	1073.14
544.51	1090.92
544.86	1085.07
545.22	1085.54
545.57	1091.16
545.93	1073.37
546.28	1066.35
546.64	1077.82
546.99	1074.07
547.35	1072.90
547.70	1093.26
548.05	1095.84
548.41	1092.80
548.76	1089.29
549.12	1094.90
549.47	1097.48
549.83	1098.41
550.18	1104.50
550.53	1099.12
550.89	1093.73
551.24	1088.12
551.60	1082.73
551.95	1070.80
552.30	1070.33
552.66	1078.75
553.01	1075.01
553.37	1077.11
553.72	1080.86
554.07	1088.82
554.43	1081.33
554.78	1080.16
555.13	1079.22
555.49	1079.22
555.84	1078.28
556.19	1084.60
556.55	1091.39
556.90	1096.78
557.26	1089.05
557.61	1099.82
557.96	1088.82
558.32	1089.52
558.67	1085.54
559.02	1097.48
559.37	1080.63
559.73	1087.65
560.08	1078.52
560.43	1080.16
560.79	1082.26
561.14	1086.24
561.49	1079.46
561.85	1086.48
562.20	1085.07
562.55	1080.39
562.90	1094.43
563.26	1100.29
563.61	1098.88
563.96	1093.97
564.32	1092.80
564.67	1080.63
565.02	1080.86
565.37	1074.77
565.73	1067.99
566.08	1076.18
566.43	1072.43
566.78	1068.92
567.14	1069.39
567.49	1083.67
567.84	1076.18
568.19	1087.88
568.54	1091.39
568.90	1104.03
569.25	1101.92
569.60	1101.22
569.95	1099.35
570.31	1097.01
570.66	1097.48
571.01	1086.48
571.36	1075.48
571.71	1071.26
572.06	1070.33
572.42	1058.62
572.77	1056.75
573.12	1064.01
573.47	1058.39
573.82	1063.77
574.18	1067.05
574.53	1083.67
574.88	1088.35
575.23	1099.12
575.58	1097.48
575.93	1099.82
576.28	1093.50
576.64	1088.35
576.99	1079.46
577.34	1080.63
577.69	1077.82
578.04	1073.14
578.39	1083.90
578.74	1092.33
579.09	1091.63
579.44	1085.31
579.80	1097.01
580.15	1085.31
580.50	1080.63
580.85	1073.60
581.20	1081.56
581.55	1083.90
581.90	1094.43
582.25	1093.97
582.60	1086.24
582.95	1090.22
583.30	1083.20
583.65	1079.69
584.00	1083.67
584.35	1098.18
584.71	1095.37
585.06	1099.35
585.41	1100.52
585.76	1093.03
586.11	1078.75
586.46	1081.09
586.81	1078.75
587.16	1069.86
587.51	1076.88
587.86	1078.99
588.21	1081.56
588.56	1074.77
588.91	1085.54
589.26	1083.90
589.61	1094.20
589.96	1084.14
590.31	1094.20
590.66	1087.65
591.01	1090.22
591.36	1089.99
591.71	1089.99
592.06	1085.54
592.41	1084.84
592.76	1092.56
593.10	1092.56
593.45	1093.50
593.80	1091.39
594.15	1085.07
594.50	1073.84
594.85	1077.11
595.20	1085.31
595.55	1092.09
595.90	1104.97
596.25	1102.16
596.60	1097.71
596.95	1094.20
597.30	1086.24
597.64	1129.07
597.99	1132.35
598.34	1130.01
598.69	1126.97
599.04	1126.03
599.39	1078.52
599.74	1081.56
600.09	1083.43
600.44	1078.99
600.78	1081.56
601.13	1074.31
601.48	1078.52
601.83	1086.01
602.18	1091.16
602.53	1087.18
602.88	1094.43
603.22	1086.71
603.57	1078.28
603.92	1080.86
604.27	1083.43
604.62	1076.18
604.97	1077.35
605.31	1077.35
605.66	1078.75
606.01	1084.14
606.36	1091.39
606.71	1086.71
607.05	1088.12
607.40	1083.67
607.75	1073.84
608.10	1063.07
608.44	1068.22
608.79	1065.88
609.14	1065.18
609.49	1079.22
609.84	1096.07
610.18	1096.31
610.53	1109.65
610.88	1115.73
611.23	1109.65
611.57	1105.90
611.92	1097.01
612.27	1093.73
612.62	1084.60
612.96	1079.92
613.31	1072.90
613.66	1083.90
614.00	1080.39
614.35	1086.24
614.70	1093.97
615.05	1101.46
615.39	1111.05
615.74	1113.16
616.09	1116.20
616.43	1105.67
616.78	1102.86
617.13	1086.01
617.47	1086.71
617.82	1089.29
618.17	1103.56
618.51	1099.35
618.86	1101.69
619.21	1097.01
619.55	1093.03
619.90	1086.24
620.25	1092.56
620.59	1096.78
620.94	1106.14
621.29	1095.37
621.63	1103.56
621.98	1100.52
622.32	1085.31
622.67	1080.16
623.02	1088.12
623.36	1078.75
623.71	1076.41
624.05	1085.07
624.40	1081.33
624.75	1081.80
625.09	1087.18
625.44	1096.78
625.78	1101.69
626.13	1109.41
626.48	1106.14
626.82	1107.31
627.17	1097.48
627.51	1104.03
627.86	1092.56
628.20	1089.75
628.55	1083.90
628.89	1086.01
629.24	1074.54
629.58	1069.39
629.93	1087.41
630.28	1091.16
630.62	1093.73
630.97	1099.82
631.31	1109.88
631.66	1099.12
632.00	1096.54
632.35	1090.22
632.69	1080.63
633.04	1066.35
633.38	1061.90
633.73	1054.88
634.07	1059.79
634.42	1067.05
634.76	1079.22
635.11	1080.86
635.45	1081.33
635.79	1081.56
636.14	1080.86
636.48	1081.33
636.83	1079.92
637.17	1089.75
637.52	1093.26
637.86	1096.31
638.21	1100.05
638.55	1098.41
638.89	1094.67
639.24	1092.09
639.58	1090.69
639.93	1088.35
640.27	1091.39
640.61	1084.37
640.96	1078.05
641.30	1066.11
641.65	1061.20
641.99	1056.52
642.33	1055.35
642.68	1049.26
643.02	1062.14
643.37	1069.62
643.71	1075.48
644.05	1078.05
644.40	1089.52
644.74	1088.58
645.08	1082.26
645.43	1082.73
645.77	1093.26
646.11	1093.50
646.46	1099.58
646.80	1108.48
647.14	1096.78
647.49	1084.37
647.83	1086.24
648.17	1074.31
648.52	1069.62
648.86	1068.45
649.20	1079.69
649.55	1075.24
649.89	1070.56
650.23	1069.39
650.57	1075.94
650.92	1072.20
651.26	1069.86
651.60	1080.16
651.95	1072.67
652.29	1083.67
652.63	1077.11
652.97	1081.09
653.32	1076.65
653.66	1075.24
654.00	1067.75
654.34	1065.41
654.69	1071.26
655.03	1080.16
655.37	1080.16
655.71	1077.35
656.05	1087.88
656.40	1079.46
656.74	1075.24
657.08	1078.75
657.42	1078.05
657.76	1074.07
658.11	1082.73
658.45	1085.54
658.79	1086.01
659.13	1087.41
659.47	1086.01
659.82	1090.46
660.16	1084.14
660.50	1086.48
660.84	1088.35
661.18	1086.24
661.52	1069.62
661.87	1070.80
662.21	1070.09
662.55	1074.77
662.89	1071.73
663.23	1082.97
663.57	1076.18
663.91	1082.50
664.25	1078.52
664.60	1080.39
664.94	1073.84
665.28	1081.09
665.62	1074.77
665.96	1075.71
666.30	1078.52
666.64	1089.75
666.98	1096.54
667.32	1098.65
667.66	1089.05
668.01	1087.65
668.35	1077.35
668.69	1063.77
669.03	1050.43
669.37	1059.33
669.71	1055.82
670.05	1051.84
670.39	1054.18
670.73	1067.75
671.07	1065.65
671.41	1067.52
671.75	1078.52
672.09	1080.63
672.43	1079.69
672.77	1083.90
673.11	1089.99
673.45	1079.69
673.79	1081.33
674.13	1083.20
674.47	1077.35
674.81	1075.48
675.15	1070.33
675.49	1071.50
675.83	1074.31
676.17	1077.35
676.51	1089.29
676.85	1089.05
677.19	1087.88
677.53	1094.20
677.87	1095.60
678.21	1082.26
678.55	1098.18
678.89	1100.29
679.23	1087.65
679.57	1089.29
679.90	1094.20
680.24	1091.39
680.58	1082.97
680.92	1074.07
681.26	1064.94
681.60	1066.35
681.94	1065.18
682.28	1070.33
682.62	1077.35
682.96	1081.33
683.29	1069.86
683.63	1062.14
683.97	1068.45
684.31	1067.28
684.65	1069.16
684.99	1079.69
685.33	1079.22
685.67	1078.05
686.00	1083.20
686.34	1086.01
686.68	1078.99
687.02	1086.71
687.36	1087.18
687.70	1076.41
688.03	1071.26
688.37	1074.54
688.71	1071.50
689.05	1069.16
689.39	1076.18
689.72	1081.80
690.06	1083.43
690.40	1081.09
690.74	1083.67
691.08	1085.77
691.41	1077.35
691.75	1081.56
692.09	1085.77
692.43	1082.50
692.76	1092.09
693.10	1099.12
693.44	1093.97
693.78	1096.31
694.11	1093.26
694.45	1085.31
694.79	1087.65
695.13	1088.12
695.46	1087.65
695.80	1089.29
696.14	1083.43
696.48	1075.71
696.81	1070.56
697.15	1070.80
697.49	1067.28
697.82	1070.80
698.16	1073.60
698.50	1078.52
698.83	1071.73
699.17	1083.20
699.51	1083.20
699.84	1088.82
700.18	1082.73
700.52	1083.43
700.85	1075.71
701.19	1078.05
701.53	1080.16
701.86	1080.39
702.20	1082.73
702.54	1086.94
702.87	1089.99
703.21	1097.01
703.55	1096.07
703.88	1097.01
704.22	1090.92
704.55	1091.39
704.89	1087.41
705.23	1092.56
705.56	1099.58
705.90	1104.73
706.23	1097.48
706.57	1078.28
706.91	1079.69
707.24	1075.48
707.58	1067.52
707.91	1063.54
708.25	1075.71
708.58	1077.58
708.92	1073.14
709.26	1077.35
709.59	1081.09
709.93	1081.80
710.26	1070.33
710.60	1071.03
710.93	1069.86
711.27	1074.77
711.60	1082.73
711.94	1080.39
712.27	1082.26
712.61	1096.07
712.94	1094.90
713.28	1078.05
713.61	1091.86
713.95	1089.75
714.28	1073.84
714.62	1078.52
714.95	1089.05
715.29	1087.88
715.62	1086.71
715.96	1095.84
716.29	1095.37
716.63	1078.99
716.96	1072.67
717.29	1077.35
717.63	1072.20
717.96	1066.11
718.30	1076.41
718.63	1082.50
718.97	1084.60
719.30	1087.18
719.63	1091.63
719.97	1103.09
720.30	1108.71
720.64	1098.88
720.97	1100.75
721.30	1093.73
721.64	1082.26
721.97	1074.31
722.31	1073.60
722.64	1071.50
722.97	1069.39
723.31	1072.20
723.64	1065.65
723.97	1067.99
724.31	1068.45
724.64	1070.56
724.98	1080.86
725.31	1086.48
725.64	1096.54
725.98	1090.22
726.31	1093.50
726.64	1085.31
726.97	1086.24
727.31	1084.14
727.64	1085.07
727.97	1085.77
728.31	1078.28
728.64	1086.01
728.97	1083.90
729.31	1089.75
729.64	1093.26
729.97	1097.95
730.30	1100.29
730.64	1094.20
730.97	1084.37
731.30	1080.39
731.63	1076.41
731.97	1061.67
732.30	1062.60
732.63	1066.82
732.96	1073.60
733.30	1077.35
733.63	1081.09
733.96	1075.71
734.29	1080.39
734.63	1075.01
734.96	1068.45
735.29	1071.03
735.62	1079.46
735.95	1074.54
736.29	1079.22
736.62	1081.80
736.95	1083.20
737.28	1086.24
737.61	1086.24
737.94	1083.90
738.28	1085.31
738.61	1090.22
738.94	1080.63
739.27	1091.39
739.60	1081.56
739.93	1084.14
740.27	1087.18
740.60	1098.41
740.93	1087.41
741.26	1093.03
741.59	1092.80
741.92	1083.20
742.25	1084.37
742.58	1093.50
742.91	1084.84
743.25	1086.48
743.58	1089.75
743.91	1075.01
744.24	1065.65
744.57	1070.09
744.90	1066.82
745.23	1060.50
745.56	1062.37
745.89	1063.07
746.22	1070.09
746.55	1075.48
746.88	1079.69
747.21	1085.07
747.54	1088.58
747.87	1089.75
748.20	1082.97
748.53	1079.69
748.87	1086.01
749.20	1091.16
749.53	1088.35
749.86	1089.75
750.19	1096.54
750.52	1099.12
750.85	1092.33
751.18	1092.33
751.51	1093.26
751.84	1086.71
752.16	1078.28
752.49	1070.80
752.82	1069.39
753.15	1070.33
753.48	1071.03
753.81	1070.09
754.14	1075.48
754.47	1076.65
754.80	1067.28
755.13	1067.52
755.46	1062.84
755.79	1067.99
756.12	1069.86
756.45	1079.69
756.78	1078.28
757.11	1087.65
757.43	1084.60
757.76	1090.92
758.09	1098.88
758.42	1089.99
758.75	1087.65
759.08	1085.07
759.41	1073.60
759.74	1068.69
760.07	1084.37
760.39	1081.80
760.72	1078.75
761.05	1082.50
761.38	1077.35
761.71	1074.07
762.04	1074.31
762.36	1072.67
762.69	1069.39
763.02	1072.67
763.35	1068.45
763.68	1070.33
764.01	1078.52
764.33	1084.37
764.66	1082.73
764.99	1086.24
765.32	1084.60
765.65	1079.22
765.97	1070.56
766.30	1070.33
766.63	1073.14
766.96	1080.86
767.28	1092.33
767.61	1097.48
767.94	1100.29
768.27	1092.09
768.59	1085.77
768.92	1084.14
769.25	1082.97
769.58	1079.22
769.90	1086.71
770.23	1086.48
770.56	1082.26
770.89	1075.71
771.21	1065.88
771.54	1069.39
771.87	1071.73
772.19	1074.54
772.52	1088.12
772.85	1088.58
773.17	1081.33
773.50	1076.65
773.83	1072.90
774.15	1067.28
774.48	1077.58
774.81	1081.56
775.13	1084.37
775.46	1080.39
775.79	1071.50
776.11	1065.88
776.44	1067.52
776.77	1056.99
777.09	1068.69
777.42	1076.65
777.74	1091.39
778.07	1089.29
778.40	1112.46
778.72	1108.71
779.05	1102.39
779.37	1103.56
779.70	1103.33
780.03	1091.63
780.35	1080.86
780.68	1086.94
781.00	1082.73
781.33	1084.37
781.65	1079.69
781.98	1084.60
782.31	1079.92
782.63	1072.20
782.96	1074.31
783.28	1072.67
783.61	1071.73
783.93	1082.50
784.26	1080.39
784.58	1077.58
784.91	1087.18
785.23	1092.80
785.56	1084.60
785.88	1091.86
786.21	1093.03
786.53	1084.84
786.86	1092.56
787.18	1100.29
787.51	1099.35
787.83	1100.52
788.16	1104.03
788.48	1093.50
788.81	1092.80
789.13	1082.03
789.46	1078.28
789.78	1081.80
790.10	1084.60
790.43	1077.58
790.75	1084.37
791.08	1078.52
791.40	1067.05
791.73	1067.75
792.05	1066.11
792.37	1062.60
792.70	1068.69
793.02	1074.77
793.35	1065.88
793.67	1071.50
793.99	1071.97
794.32	1078.05
794.64	1083.20
794.96	1092.80
795.29	1094.20
795.61	1103.33
795.93	1097.48
796.26	1092.80
796.58	1098.88
796.91	1094.20
797.23	1089.29
797.55	1079.46
797.87	1078.52
798.20	1069.16
798.52	1067.99
798.84	1066.11
799.17	1078.99
799.49	1082.26
799.81	1077.11
800.14	1079.46
800.46	1078.75
800.78	1080.63
801.10	1074.77
801.43	1071.03
801.75	1064.24
802.07	1056.28
802.40	1043.18
802.72	1044.11
803.04	1055.58
803.36	1058.16
803.69	1072.20
804.01	1076.41
804.33	1084.14
804.65	1077.11
804.97	1081.09
805.30	1072.20
805.62	1069.62
805.94	1064.94
806.26	1066.35
806.58	1064.01
806.91	1061.67
807.23	1073.37
807.55	1067.05
807.87	1062.37
808.19	1074.31
808.52	1084.14
808.84	1080.16
809.16	1086.48
809.48	1093.50
809.80	1085.07
810.12	1088.35
810.44	1082.97
810.77	1084.60
811.09	1080.63
811.41	1077.11
811.73	1078.99
812.05	1080.63
812.37	1076.18
812.69	1093.26
813.01	1098.88
813.33	1086.94
813.66	1085.31
813.98	1078.75
814.30	1068.92
814.62	1061.67
814.94	1059.09
815.26	1059.33
815.58	1066.58
815.90	1054.88
816.22	1058.39
816.54	1068.45
816.86	1072.67
817.18	1078.75
817.50	1085.07
817.82	1088.35
818.14	1087.65
818.46	1085.31
818.78	1082.73
819.10	1082.73
819.42	1083.67
819.74	1077.58
820.06	1083.67
820.38	1076.18
820.70	1085.54
821.02	1083.43
821.34	1079.46
821.66	1080.86
821.98	1090.22
822.30	1083.20
822.62	1090.69
822.94	1098.18
823.26	1090.92
823.58	1086.94
823.90	1089.29
824.22	1077.11
824.54	1082.26
824.86	1078.05
825.18	1071.97
825.50	1072.90
825.81	1074.54
826.13	1062.84
826.45	1068.92
826.77	1072.90
827.09	1064.94
827.41	1065.88
827.73	1078.99
828.05	1073.84
828.36	1069.62
828.68	1074.07
829.00	1076.88
829.32	1065.65
829.64	1067.28
829.96	1079.22
830.28	1079.69
830.59	1071.50
830.91	1081.56
831.23	1075.24
831.55	1069.86
831.87	1071.50
832.19	1081.56
832.50	1066.82
832.82	1073.37
833.14	1082.26
833.46	1080.39
833.78	1065.65
834.09	1081.56
834.41	1080.86
834.73	1075.48
835.05	1075.71
835.36	1092.33
835.68	1087.88
836.00	1080.63
836.32	1072.20
836.63	1070.33
836.95	1072.20
837.27	1066.82
837.59	1079.69
837.90	1088.58
838.22	1094.43
838.54	1087.88
838.85	1085.31
839.17	1084.14
839.49	1068.92
839.80	1063.77
840.12	1057.45
840.44	1074.77
840.76	1073.14
841.07	1097.01
841.39	1096.31
841.71	1101.69
842.02	1088.12
842.34	1093.03
842.65	1079.92
842.97	1080.86
843.29	1090.22
843.60	1093.50
843.92	1088.35
844.24	1081.80
844.55	1087.18
844.87	1078.75
845.18	1075.01
845.50	1071.26
845.82	1073.84
846.13	1067.28
846.45	1072.90
846.76	1075.71
847.08	1077.82
847.40	1087.65
847.71	1083.90
848.03	1078.75
848.34	1081.33
848.66	1074.31
848.97	1072.20
849.29	1078.05
849.60	1075.01
849.92	1064.94
850.24	1078.28
850.55	1079.69
850.87	1084.14
851.18	1090.92
851.50	1102.39
851.81	1097.71
852.13	1097.01
852.44	1087.65
852.76	1080.63
853.07	1082.50
853.39	1076.18
853.70	1075.24
854.01	1076.88
854.33	1075.94
854.64	1071.73
854.96	1071.03
855.27	1070.56
855.59	1071.73
855.90	1078.05
856.22	1078.99
856.53	1085.77
856.84	1085.77
857.16	1094.67
857.47	1103.09
857.79	1113.16
858.10	1119.71
858.41	1113.63
858.73	1109.65
859.04	1099.35
859.36	1086.71
859.67	1090.92
859.98	1100.75
860.30	1098.18
860.61	1098.65
860.92	1101.69
861.24	1081.56
861.55	1076.65
861.87	1077.58
862.18	1082.97
862.49	1076.88
862.81	1084.84
863.12	1087.88
863.43	1074.77
863.74	1057.45
864.06	1057.69
864.37	1053.24
864.68	1063.54
865.00	1082.26
865.31	1093.73
865.62	1091.39
865.94	1101.46
866.25	1076.88
866.56	1059.09
866.87	1059.09
867.19	1068.69
867.50	1061.67
867.81	1076.65
868.12	1097.01
868.44	1093.03
868.75	1091.63
869.06	1089.29
869.37	1083.43
869.68	1076.18
870.00	1074.07
870.31	1078.52
870.62	1093.03
870.93	1099.82
871.24	1104.50
871.56	1108.71
871.87	1106.37
872.18	1100.75
872.49	1105.44
872.80	1096.54
873.12	1085.31
873.43	1076.18
873.74	1071.03
874.05	1060.96
874.36	1063.54
874.67	1086.48
874.98	1092.56
875.29	1093.03
875.61	1086.48
875.92	1083.67
876.23	1077.58
876.54	1085.07
876.85	1083.43
877.16	1089.99
877.47	1087.65
877.78	1086.48
878.09	1074.54
878.40	1086.24
878.72	1088.58
879.03	1099.35
879.34	1100.75
879.65	1098.41
879.96	1086.48
880.27	1093.03
880.58	1088.58
880.89	1083.20
881.20	1088.35
881.51	1090.92
881.82	1078.28
882.13	1085.54
882.44	1088.12
882.75	1093.03
883.06	1097.71
883.37	1103.33
883.68	1101.46
883.99	1100.99
884.30	1098.18
884.61	1099.12
884.92	1092.33
885.23	1089.99
885.54	1082.97
885.85	1084.37
886.16	1073.14
886.47	1078.99
886.78	1073.84
887.08	1078.28
887.39	1070.56
887.70	1074.54
888.01	1070.56
888.32	1069.39
888.63	1079.69
888.94	1071.97
889.25	1066.82
889.56	1072.20
889.87	1067.99
890.17	1059.09
890.48	1070.09
890.79	1076.65
891.10	1070.80
891.41	1083.67
891.72	1074.31
892.03	1080.16
892.34	1080.16
892.64	1071.50
892.95	1062.37
893.26	1069.16
893.57	1068.22
893.88	1068.92
894.18	1075.48
894.49	1073.37
894.80	1075.24
895.11	1064.71
895.42	1067.28
895.72	1067.99
896.03	1076.88
896.34	1082.97
896.65	1090.92
896.96	1092.56
897.26	1093.97
897.57	1092.33
897.88	1087.88
898.19	1086.48
898.49	1080.63
898.80	1088.35
899.11	1076.65
899.41	1082.03
899.72	1081.33
900.03	1083.43
900.34	1079.92
900.64	1087.88
900.95	1087.88
901.26	1086.94
901.56	1085.31
901.87	1082.97
902.18	1086.94
902.48	1089.05
902.79	1093.97
903.10	1089.29
903.40	1088.12
903.71	1078.75
904.02	1068.45
904.32	1066.58
904.63	1072.90
904.94	1072.67
905.24	1074.07
905.55	1070.56
905.85	1073.60
906.16	1075.24
906.47	1080.63
906.77	1077.11
907.08	1075.01
907.38	1065.18
907.69	1066.35
908.00	1057.45
908.30	1065.65
908.61	1064.01
908.91	1064.94
909.22	1071.03
909.52	1084.37
909.83	1085.54
910.14	1104.97
910.44	1095.37
910.75	1086.01
911.05	1078.99
911.36	1080.39
911.66	1065.88
911.97	1080.63
912.27	1079.92
912.58	1076.18
912.88	1078.52
913.19	1092.33
913.49	1090.92
913.80	1088.12
914.10	1089.05
914.41	1087.18
914.71	1081.33
915.01	1078.05
915.32	1076.88
915.62	1078.99
915.93	1078.75
916.23	1072.20
916.54	1083.43
916.84	1091.86
917.15	1091.39
917.45	1084.84
917.75	1082.73
918.06	1088.35
918.36	1085.54
918.67	1086.48
918.97	1086.48
919.27	1092.80
919.58	1078.28
919.88	1073.37
920.18	1071.03
920.49	1071.26
920.79	1064.71
921.10	1064.24
921.40	1068.92
921.70	1067.28
922.01	1072.67
922.31	1082.50
922.61	1081.33
922.92	1074.54
923.22	1076.88
923.52	1073.37
923.82	1068.45
924.13	1070.80
924.43	1071.97
924.73	1073.37
925.04	1072.20
925.34	1076.18
925.64	1076.65
925.94	1081.33
926.25	1083.90
926.55	1094.43
926.85	1084.60
927.15	1091.39
927.46	1086.24
927.76	1087.88
928.06	1080.86
928.36	1078.28
928.67	1070.80
928.97	1069.39
929.27	1062.37
929.57	1059.56
929.87	1074.07
930.18	1070.33
930.48	1077.82
930.78	1079.22
931.08	1091.16
931.38	1084.84
931.69	1087.65
931.99	1088.12
932.29	1093.03
932.59	1081.80
932.89	1071.03
933.19	1064.71
933.49	1064.01
933.80	1063.07
934.10	1059.56
934.40	1064.94
934.70	1071.97
935.00	1072.67
935.30	1069.86
935.60	1072.43
935.90	1081.09
936.20	1084.14
936.50	1073.37
936.81	1080.63
937.11	1076.65
937.41	1077.58
937.71	1079.46
938.01	1095.14
938.31	1084.37
938.61	1087.65
938.91	1080.63
939.21	1079.69
939.51	1075.01
939.81	1085.54
940.11	1081.56
940.41	1089.52
940.71	1094.67
941.01	1089.29
941.31	1086.94
941.61	1095.60
941.91	1095.60
942.21	1081.09
942.51	1073.37
942.81	1071.50
943.11	1072.20
943.41	1064.24
943.71	1067.28
944.01	1086.94
944.31	1085.07
944.61	1092.80
944.90	1093.73
945.20	1096.31
945.50	1088.12
945.80	1093.50
946.10	1088.82
946.40	1087.18
946.70	1091.16
947.00	1094.67
947.30	1093.97
947.60	1091.86
947.89	1093.73
948.19	1097.01
948.49	1093.97
948.79	1089.99
949.09	1083.20
949.39	1094.67
949.69	1081.56
949.98	1079.69
950.28	1078.05
950.58	1083.43
950.88	1078.52
951.18	1082.73
951.48	1080.86
951.77	1082.97
952.07	1079.22
952.37	1076.65
952.67	1083.20
952.97	1078.99
953.26	1074.77
953.56	1069.39
953.86	1060.03
954.16	1058.62
954.45	1061.67
954.75	1070.80
955.05	1076.88
955.35	1083.20
955.64	1084.37
955.94	1088.58
956.24	1086.48
956.54	1087.88
956.83	1089.75
957.13	1081.33
957.43	1081.33
957.72	1076.41
958.02	1084.84
958.32	1075.01
958.61	1081.09
958.91	1077.35
959.21	1078.52
959.50	1064.71
959.80	1078.99
960.10	1077.58
960.39	1072.43
960.69	1072.67
960.99	1081.56
961.28	1082.26
961.58	1078.05
961.87	1089.75
962.17	1092.56
962.47	1089.75
962.76	1075.48
963.06	1067.52
963.36	1063.77
963.65	1060.96
963.95	1056.99
964.24	1066.82
964.54	1081.80
964.83	1091.39
965.13	1096.78
965.42	1100.29
965.72	1097.24
966.02	1090.69
966.31	1078.28
966.61	1064.71
966.90	1058.86
967.20	1054.65
967.49	1062.84
967.79	1065.88
968.08	1079.69
968.38	1085.54
968.67	1082.50
968.97	1080.63
969.26	1079.46
969.56	1073.14
969.85	1075.71
970.15	1083.20
970.44	1076.65
970.74	1079.69
971.03	1079.46
971.32	1074.07
971.62	1069.62
971.91	1064.94
972.21	1062.14
972.50	1065.18
972.80	1071.97
973.09	1072.67
973.38	1078.99
973.68	1091.39
973.97	1090.92
974.27	1082.03
974.56	1092.56
974.85	1103.33
975.15	1089.75
975.44	1091.86
975.73	1104.03
976.03	1100.99
976.32	1089.05
976.61	1093.73
976.91	1084.14
977.20	1066.11
977.49	1061.67
977.79	1070.56
978.08	1065.88
978.37	1071.26
978.67	1089.52
978.96	1083.20
979.25	1076.41
979.55	1070.09
979.84	1063.07
980.13	1059.56
980.42	1067.75
980.72	1068.45
981.01	1071.50
981.30	1078.05
981.59	1067.52
981.89	1057.45
982.18	1064.71
982.47	1078.99
982.76	1086.48
983.06	1092.09
983.35	1100.99
983.64	1100.29
983.93	1095.14
984.22	1097.71
984.52	1098.88
984.81	1096.78
985.10	1093.97
985.39	1089.05
985.68	1069.39
985.97	1071.03
986.27	1076.41
986.56	1070.80
986.85	1080.16
987.14	1089.05
987.43	1088.12
987.72	1085.31
988.01	1093.50
988.31	1088.35
988.60	1089.99
988.89	1099.12
989.18	1105.44
989.47	1099.12
989.76	1096.54
990.05	1095.60
990.34	1085.07
990.63	1075.24
990.92	1081.09
991.21	1087.65
991.51	1082.50
991.80	1088.58
992.09	1088.35
992.38	1074.07
992.67	1063.07
992.96	1054.18
993.25	1044.11
993.54	1052.07
993.83	1060.03
994.12	1066.82
994.41	1075.01
994.70	1077.82
994.99	1073.84
995.28	1074.07
995.57	1069.16
995.86	1074.31
996.15	1078.28
996.44	1081.09
996.73	1077.58
997.02	1086.01
997.31	1084.60
997.59	1080.16
997.88	1077.58
998.17	1080.63
998.46	1081.33
998.75	1087.18
999.04	1086.01
999.33	1080.39
999.62	1082.50
999.91	1074.07
1000.20	1070.09
1000.49	1083.20
1000.77	1085.07
1001.06	1091.39
1001.35	1092.56
1001.64	1097.48
1001.93	1087.65
1002.22	1088.82
1002.51	1076.18
1002.79	1082.50
1003.08	1082.73
1003.37	1085.31
1003.66	1079.46
1003.95	1082.97
1004.23	1077.11
1004.52	1068.45
1004.81	1065.18
1005.10	1079.46
1005.39	1081.09
1005.67	1077.35
1005.96	1082.26
1006.25	1079.69
1006.54	1068.22
1006.83	1064.94
1007.11	1065.18
1007.40	1067.99
1007.69	1076.18
1007.97	1082.73
1008.26	1091.39
1008.55	1090.22
1008.84	1085.54
1009.12	1075.48
1009.41	1067.75
1009.70	1061.43
1009.98	1064.24
1010.27	1065.65
1010.56	1062.84
1010.85	1078.99
1011.13	1080.16
1011.42	1086.01
1011.71	1083.43
1011.99	1095.60
1012.28	1094.20
1012.56	1089.52
1012.85	1082.50
1013.14	1093.03
1013.42	1082.97
1013.71	1072.43
1014.00	1075.01
1014.28	1073.14
1014.57	1063.31
1014.85	1071.50
1015.14	1070.09
1015.43	1075.48
1015.71	1079.46
1016.00	1079.69
1016.28	1071.73
1016.57	1070.33
1016.85	1068.69
1017.14	1070.80
1017.43	1065.41
1017.71	1064.48
1018.00	1065.88
1018.28	1059.56
1018.57	1061.43
1018.85	1074.31
1019.14	1080.16
1019.42	1086.01
1019.71	1088.58
1019.99	1084.14
1020.28	1074.07
1020.56	1073.60
1020.85	1069.16
1021.13	1074.77
1021.42	1074.54
1021.70	1077.11
1021.99	1076.65
1022.27	1095.84
1022.55	1075.48
1022.84	1163.25
>>>>>End Processed Spectral Data<<<<<
