SpectraSuite Data File
++++++++++++++++++++++++++++++++++++
Date: Mon Aug 26 10:25:56 PDT 2019
User: corrico
Dark Spectrum Present: No
Reference Spectrum Present: No
Number of Sampled Component Spectra: 1
Spectrometers: USB2+H06089
Integration Time (usec): 10000 (USB2+H06089)
Spectra Averaged: 2 (USB2+H06089)
Boxcar Smoothing: 2 (USB2+H06089)
Correct for Electrical Dark: No (USB2+H06089)
Strobe/Lamp Enabled: No (USB2+H06089)
Correct for Detector Non-linearity: No (USB2+H06089)
Correct for Stray Light: No (USB2+H06089)
Number of Pixels in Processed Spectrum: 2048
>>>>>Begin Processed Spectral Data<<<<<
339.70	1008.77
340.07	1008.77
340.45	988.17
340.82	965.47
341.19	932.94
341.57	910.70
341.94	890.57
342.31	886.83
342.69	890.57
343.06	900.17
343.43	900.17
343.81	905.79
344.18	909.06
344.55	907.89
344.93	911.17
345.30	917.26
345.67	914.68
346.04	918.43
346.42	924.28
346.79	924.98
347.16	936.45
347.54	948.85
347.91	959.15
348.28	977.41
348.65	1004.09
349.03	1001.75
349.40	1013.69
349.77	1024.45
350.14	1031.94
350.52	1030.54
350.89	1045.28
351.26	1050.20
351.63	1048.56
352.01	1040.13
352.38	1039.43
352.75	1046.22
353.12	1044.11
353.50	1053.71
353.87	1064.24
354.24	1069.86
354.61	1064.24
354.98	1068.22
355.36	1070.56
355.73	1063.07
356.10	1064.48
356.47	1075.01
356.84	1081.80
357.22	1080.39
357.59	1093.73
357.96	1102.63
358.33	1091.63
358.70	1088.35
359.08	1084.37
359.45	1079.92
359.82	1072.67
360.19	1077.35
360.56	1083.90
360.94	1090.92
361.31	1098.88
361.68	1099.82
362.05	1090.92
362.42	1086.94
362.79	1079.46
363.16	1081.56
363.54	1076.18
363.91	1089.29
364.28	1079.46
364.65	1072.43
365.02	1059.79
365.39	1056.05
365.76	1047.62
366.14	1051.60
366.51	1070.56
366.88	1070.56
367.25	1075.48
367.62	1076.41
367.99	1077.11
368.36	1071.97
368.73	1071.73
369.10	1078.99
369.48	1071.50
369.85	1074.77
370.22	1070.09
370.59	1068.45
370.96	1060.50
371.33	1064.71
371.70	1067.05
372.07	1064.01
372.44	1064.94
372.81	1061.43
373.18	1067.28
373.55	1056.52
373.93	1061.20
374.30	1063.07
374.67	1078.75
375.04	1089.99
375.41	1098.18
375.78	1101.92
376.15	1098.88
376.52	1100.05
376.89	1082.03
377.26	1071.26
377.63	1065.41
378.00	1071.97
378.37	1058.16
378.74	1068.45
379.11	1075.94
379.48	1073.60
379.85	1069.86
380.22	1073.37
380.59	1070.80
380.96	1070.56
381.33	1082.73
381.70	1086.24
382.07	1087.65
382.44	1086.24
382.81	1089.05
383.18	1091.39
383.55	1090.69
383.92	1082.03
384.29	1084.14
384.66	1079.92
385.03	1069.39
385.40	1063.54
385.77	1078.52
386.14	1079.92
386.51	1087.41
386.88	1087.65
387.25	1081.09
387.62	1066.82
387.99	1058.39
388.36	1050.90
388.73	1057.45
389.10	1073.37
389.46	1079.46
389.83	1081.33
390.20	1092.56
390.57	1082.97
390.94	1082.97
391.31	1075.71
391.68	1077.82
392.05	1062.84
392.42	1069.62
392.79	1062.37
393.16	1054.65
393.53	1052.54
393.89	1069.39
394.26	1069.86
394.63	1071.26
395.00	1081.80
395.37	1091.63
395.74	1089.99
396.11	1090.69
396.48	1087.88
396.84	1092.80
397.21	1086.94
397.58	1082.73
397.95	1078.99
398.32	1079.22
398.69	1077.35
399.06	1068.69
399.42	1063.54
399.79	1069.86
400.16	1074.31
400.53	1076.88
400.90	1088.58
401.27	1085.07
401.64	1076.18
402.00	1077.35
402.37	1079.69
402.74	1074.31
403.11	1084.84
403.48	1083.43
403.84	1077.82
404.21	1076.18
404.58	1080.39
404.95	1069.62
405.32	1075.94
405.68	1072.20
406.05	1066.35
406.42	1068.45
406.79	1064.48
407.16	1054.41
407.52	1050.43
407.89	1061.67
408.26	1056.75
408.63	1064.94
408.99	1063.31
409.36	1078.05
409.73	1075.48
410.10	1076.65
410.47	1073.60
410.83	1084.84
411.20	1082.97
411.57	1076.41
411.94	1082.73
412.30	1086.71
412.67	1089.99
413.04	1092.09
413.40	1096.78
413.77	1091.16
414.14	1083.90
414.51	1078.05
414.87	1073.60
415.24	1073.37
415.61	1078.75
415.97	1090.46
416.34	1085.31
416.71	1084.84
417.08	1082.26
417.44	1076.41
417.81	1075.94
418.18	1078.99
418.54	1075.94
418.91	1076.41
419.28	1069.62
419.64	1065.18
420.01	1067.52
420.38	1066.35
420.74	1070.33
421.11	1075.48
421.48	1074.07
421.84	1077.11
422.21	1081.56
422.58	1071.26
422.94	1070.33
423.31	1073.14
423.68	1064.48
424.04	1072.43
424.41	1078.05
424.77	1090.92
425.14	1089.99
425.51	1088.58
425.87	1076.41
426.24	1082.50
426.61	1070.56
426.97	1072.67
427.34	1079.69
427.70	1089.99
428.07	1086.48
428.44	1079.46
428.80	1082.97
429.17	1083.67
429.53	1079.22
429.90	1078.75
430.27	1095.37
430.63	1102.39
431.00	1097.71
431.36	1095.37
431.73	1089.99
432.09	1085.07
432.46	1067.52
432.83	1077.35
433.19	1077.82
433.56	1087.18
433.92	1083.20
434.29	1089.05
434.65	1087.65
435.02	1092.56
435.38	1090.46
435.75	1090.92
436.11	1080.39
436.48	1071.03
436.84	1066.11
437.21	1057.22
437.57	1054.18
437.94	1058.16
438.30	1063.54
438.67	1063.07
439.03	1062.14
439.40	1062.84
439.76	1067.75
440.13	1056.28
440.49	1056.28
440.86	1058.86
441.22	1068.92
441.59	1066.11
441.95	1078.05
442.32	1076.18
442.68	1086.24
443.05	1076.65
443.41	1084.37
443.78	1084.14
444.14	1079.46
444.51	1077.35
444.87	1074.31
445.24	1072.20
445.60	1069.86
445.96	1075.01
446.33	1074.31
446.69	1081.09
447.06	1078.28
447.42	1085.31
447.79	1092.09
448.15	1087.41
448.51	1083.20
448.88	1088.58
449.24	1083.20
449.61	1079.46
449.97	1080.86
450.33	1079.22
450.70	1078.52
451.06	1084.14
451.43	1081.33
451.79	1087.41
452.15	1101.46
452.52	1094.90
452.88	1083.43
453.24	1083.90
453.61	1075.24
453.97	1068.22
454.34	1072.67
454.70	1080.86
455.06	1084.60
455.43	1081.56
455.79	1082.50
456.15	1078.28
456.52	1069.39
456.88	1070.56
457.24	1072.67
457.61	1073.84
457.97	1073.37
458.33	1077.58
458.70	1075.48
459.06	1088.12
459.42	1087.88
459.79	1100.99
460.15	1110.35
460.51	1110.82
460.88	1109.65
461.24	1113.63
461.60	1108.71
461.96	1101.69
462.33	1094.67
462.69	1083.20
463.05	1069.16
463.42	1068.69
463.78	1068.69
464.14	1075.48
464.50	1078.05
464.87	1090.92
465.23	1083.20
465.59	1080.39
465.95	1072.20
466.32	1066.11
466.68	1056.28
467.04	1058.62
467.40	1061.20
467.77	1072.20
468.13	1078.05
468.49	1072.43
468.85	1070.33
469.22	1073.37
469.58	1072.20
469.94	1075.94
470.30	1091.16
470.66	1090.46
471.03	1090.69
471.39	1081.80
471.75	1070.80
472.11	1055.35
472.47	1067.99
472.84	1058.39
473.20	1067.99
473.56	1071.50
473.92	1080.63
474.28	1073.14
474.65	1079.92
475.01	1077.11
475.37	1084.37
475.73	1084.60
476.09	1090.69
476.45	1084.60
476.81	1083.43
477.18	1090.46
477.54	1091.16
477.90	1089.52
478.26	1089.05
478.62	1093.03
478.98	1083.67
479.34	1089.99
479.71	1082.03
480.07	1087.88
480.43	1085.77
480.79	1080.63
481.15	1076.88
481.51	1078.75
481.87	1075.48
482.23	1064.71
482.59	1071.97
482.96	1062.37
483.32	1062.14
483.68	1056.05
484.04	1060.96
484.40	1065.41
484.76	1069.39
485.12	1079.69
485.48	1077.58
485.84	1078.52
486.20	1076.41
486.56	1076.88
486.92	1077.82
487.28	1088.35
487.64	1092.80
488.00	1085.31
488.37	1088.35
488.73	1080.63
489.09	1081.80
489.45	1083.90
489.81	1086.94
490.17	1080.16
490.53	1076.88
490.89	1081.56
491.25	1085.77
491.61	1090.22
491.97	1098.41
492.33	1099.12
492.69	1091.39
493.05	1087.41
493.41	1079.22
493.77	1080.63
494.13	1075.24
494.49	1074.31
494.85	1079.22
495.21	1081.09
495.57	1086.01
495.93	1082.73
496.29	1083.67
496.64	1078.05
497.00	1077.82
497.36	1080.16
497.72	1083.90
498.08	1091.16
498.44	1084.60
498.80	1087.41
499.16	1079.46
499.52	1090.46
499.88	1093.03
500.24	1093.73
500.60	1090.46
500.96	1083.90
501.32	1078.28
501.68	1077.35
502.03	1071.26
502.39	1071.26
502.75	1071.97
503.11	1075.01
503.47	1067.52
503.83	1078.52
504.19	1072.43
504.55	1083.43
504.91	1085.54
505.26	1089.99
505.62	1094.67
505.98	1101.69
506.34	1086.94
506.70	1088.82
507.06	1093.97
507.42	1094.67
507.78	1101.46
508.13	1108.48
508.49	1098.65
508.85	1086.94
509.21	1084.37
509.57	1088.12
509.93	1093.50
510.28	1096.31
510.64	1096.07
511.00	1105.20
511.36	1102.63
511.72	1103.80
512.07	1107.54
512.43	1115.73
512.79	1107.31
513.15	1097.48
513.51	1085.07
513.86	1087.18
514.22	1082.03
514.58	1079.92
514.94	1081.09
515.30	1081.80
515.65	1081.33
516.01	1090.92
516.37	1077.35
516.73	1084.14
517.08	1095.84
517.44	1092.56
517.80	1082.50
518.16	1098.88
518.51	1095.37
518.87	1094.67
519.23	1093.50
519.59	1100.52
519.94	1096.31
520.30	1108.24
520.66	1108.24
521.01	1110.82
521.37	1102.39
521.73	1101.46
522.09	1094.20
522.44	1094.67
522.80	1087.88
523.16	1086.01
523.51	1084.14
523.87	1083.67
524.23	1077.35
524.58	1077.35
524.94	1077.58
525.30	1085.77
525.65	1078.28
526.01	1082.73
526.37	1095.14
526.72	1101.92
527.08	1098.18
527.44	1100.99
527.79	1094.43
528.15	1093.03
528.51	1095.60
528.86	1096.07
529.22	1099.12
529.58	1102.16
529.93	1095.14
530.29	1096.31
530.65	1099.82
531.00	1103.33
531.36	1095.14
531.71	1098.65
532.07	1094.90
532.43	1089.05
532.78	1087.65
533.14	1094.43
533.49	1087.18
533.85	1084.14
534.21	1084.37
534.56	1079.46
534.92	1076.41
535.27	1075.71
535.63	1074.77
535.98	1082.97
536.34	1084.60
536.69	1090.22
537.05	1087.65
537.41	1086.48
537.76	1082.73
538.12	1085.31
538.47	1078.99
538.83	1092.33
539.18	1095.84
539.54	1096.07
539.89	1097.71
540.25	1101.22
540.60	1094.20
540.96	1099.82
541.31	1093.73
541.67	1095.37
542.02	1099.35
542.38	1105.67
542.73	1102.16
543.09	1108.71
543.44	1111.99
543.80	1109.88
544.15	1103.56
544.51	1106.14
544.86	1094.90
545.22	1087.41
545.57	1090.46
545.93	1086.48
546.28	1080.39
546.64	1086.48
546.99	1086.24
547.35	1082.26
547.70	1090.69
548.05	1099.82
548.41	1086.01
548.76	1081.56
549.12	1090.69
549.47	1082.50
549.83	1077.82
550.18	1087.41
550.53	1090.22
550.89	1074.07
551.24	1071.97
551.60	1062.14
551.95	1070.33
552.30	1067.99
552.66	1071.97
553.01	1075.01
553.37	1085.77
553.72	1090.46
554.07	1092.09
554.43	1096.31
554.78	1105.20
555.13	1102.86
555.49	1100.75
555.84	1099.58
556.19	1097.01
556.55	1092.09
556.90	1104.50
557.26	1093.50
557.61	1094.43
557.96	1092.09
558.32	1089.05
558.67	1077.82
559.02	1085.07
559.37	1084.14
559.73	1085.54
560.08	1084.84
560.43	1087.18
560.79	1081.80
561.14	1086.01
561.49	1082.97
561.85	1095.14
562.20	1092.56
562.55	1097.24
562.90	1093.03
563.26	1095.14
563.61	1088.12
563.96	1081.33
564.32	1076.41
564.67	1075.71
565.02	1079.69
565.37	1071.50
565.73	1080.63
566.08	1083.20
566.43	1089.29
566.78	1085.31
567.14	1086.01
567.49	1071.73
567.84	1073.84
568.19	1064.71
568.54	1068.69
568.90	1078.28
569.25	1087.88
569.60	1078.05
569.95	1071.97
570.31	1069.39
570.66	1060.03
571.01	1058.16
571.36	1064.48
571.71	1068.22
572.06	1066.11
572.42	1071.97
572.77	1076.65
573.12	1077.82
573.47	1083.90
573.82	1096.07
574.18	1097.48
574.53	1087.18
574.88	1086.01
575.23	1086.48
575.58	1072.90
575.93	1076.65
576.28	1085.31
576.64	1078.52
576.99	1081.56
577.34	1092.33
577.69	1089.75
578.04	1077.11
578.39	1085.54
578.74	1087.88
579.09	1080.39
579.44	1071.03
579.80	1084.37
580.15	1085.31
580.50	1089.52
580.85	1083.20
581.20	1093.97
581.55	1094.90
581.90	1092.33
582.25	1085.07
582.60	1095.14
582.95	1090.92
583.30	1089.52
583.65	1099.35
584.00	1102.86
584.35	1099.12
584.71	1088.58
585.06	1085.31
585.41	1076.18
585.76	1073.60
586.11	1082.26
586.46	1095.14
586.81	1098.18
587.16	1096.07
587.51	1092.80
587.86	1083.20
588.21	1076.88
588.56	1079.22
588.91	1082.50
589.26	1082.03
589.61	1082.73
589.96	1082.73
590.31	1081.09
590.66	1078.75
591.01	1074.77
591.36	1069.86
591.71	1076.41
592.06	1071.50
592.41	1073.37
592.76	1077.35
593.10	1078.28
593.45	1083.43
593.80	1088.82
594.15	1091.16
594.50	1096.54
594.85	1103.09
595.20	1086.94
595.55	1078.99
595.90	1079.92
596.25	1074.07
596.60	1066.82
596.95	1074.07
597.30	1073.14
597.64	1126.27
597.99	1132.12
598.34	1144.05
598.69	1140.07
599.04	1141.48
599.39	1084.37
599.74	1073.60
600.09	1072.67
600.44	1076.65
600.78	1075.48
601.13	1076.18
601.48	1081.09
601.83	1079.69
602.18	1080.39
602.53	1082.73
602.88	1092.56
603.22	1093.26
603.57	1094.67
603.92	1094.43
604.27	1090.92
604.62	1075.24
604.97	1072.43
605.31	1072.20
605.66	1073.60
606.01	1072.43
606.36	1077.82
606.71	1074.77
607.05	1070.80
607.40	1076.65
607.75	1081.80
608.10	1077.11
608.44	1077.58
608.79	1077.58
609.14	1067.52
609.49	1074.07
609.84	1078.99
610.18	1088.58
610.53	1091.63
610.88	1107.07
611.23	1106.14
611.57	1108.95
611.92	1101.92
612.27	1102.16
612.62	1089.99
612.96	1084.60
613.31	1076.18
613.66	1075.71
614.00	1073.84
614.35	1076.88
614.70	1075.71
615.05	1082.50
615.39	1088.58
615.74	1082.03
616.09	1078.52
616.43	1080.86
616.78	1078.52
617.13	1078.28
617.47	1083.90
617.82	1082.97
618.17	1081.09
618.51	1076.18
618.86	1069.86
619.21	1060.73
619.55	1060.73
619.90	1059.79
620.25	1063.31
620.59	1059.79
620.94	1059.56
621.29	1055.82
621.63	1064.24
621.98	1073.84
622.32	1087.41
622.67	1098.41
623.02	1102.39
623.36	1099.82
623.71	1096.07
624.05	1086.48
624.40	1081.33
624.75	1083.20
625.09	1079.46
625.44	1071.97
625.78	1072.20
626.13	1080.39
626.48	1081.80
626.82	1076.41
627.17	1083.20
627.51	1093.73
627.86	1088.35
628.20	1075.71
628.55	1082.97
628.89	1079.22
629.24	1077.58
629.58	1077.11
629.93	1094.43
630.28	1088.82
630.62	1086.24
630.97	1086.48
631.31	1086.01
631.66	1081.33
632.00	1084.37
632.35	1089.29
632.69	1088.35
633.04	1086.71
633.38	1089.05
633.73	1087.88
634.07	1089.99
634.42	1092.09
634.76	1093.26
635.11	1088.58
635.45	1091.16
635.79	1082.50
636.14	1080.39
636.48	1081.33
636.83	1071.50
637.17	1077.82
637.52	1079.46
637.86	1084.37
638.21	1090.46
638.55	1105.90
638.89	1098.18
639.24	1105.67
639.58	1105.44
639.93	1109.65
640.27	1102.39
640.61	1114.10
640.96	1106.37
641.30	1094.20
641.65	1090.46
641.99	1087.41
642.33	1075.01
642.68	1083.67
643.02	1086.01
643.37	1085.07
643.71	1083.67
644.05	1093.26
644.40	1092.56
644.74	1092.80
645.08	1081.33
645.43	1085.07
645.77	1079.69
646.11	1071.03
646.46	1067.75
646.80	1068.69
647.14	1066.82
647.49	1064.94
647.83	1058.62
648.17	1050.67
648.52	1056.99
648.86	1056.52
649.20	1056.28
649.55	1063.54
649.89	1077.58
650.23	1075.48
650.57	1083.90
650.92	1089.05
651.26	1082.73
651.60	1085.54
651.95	1086.01
652.29	1082.03
652.63	1084.14
652.97	1092.56
653.32	1079.92
653.66	1087.65
654.00	1082.73
654.34	1072.20
654.69	1070.09
655.03	1069.39
655.37	1054.65
655.71	1060.96
656.05	1064.01
656.40	1060.26
656.74	1071.73
657.08	1079.92
657.42	1070.56
657.76	1061.43
658.11	1064.94
658.45	1066.82
658.79	1066.58
659.13	1072.67
659.47	1086.71
659.82	1087.65
660.16	1083.43
660.50	1088.12
660.84	1096.31
661.18	1098.18
661.52	1101.92
661.87	1097.48
662.21	1095.37
662.55	1091.39
662.89	1088.12
663.23	1086.24
663.57	1085.31
663.91	1093.50
664.25	1084.14
664.60	1076.18
664.94	1076.18
665.28	1084.37
665.62	1072.67
665.96	1080.16
666.30	1092.33
666.64	1083.90
666.98	1071.97
667.32	1071.50
667.66	1073.60
668.01	1071.50
668.35	1081.33
668.69	1088.12
669.03	1089.29
669.37	1087.41
669.71	1081.80
670.05	1082.03
670.39	1083.90
670.73	1081.09
671.07	1079.92
671.41	1082.26
671.75	1073.84
672.09	1069.86
672.43	1062.60
672.77	1063.07
673.11	1064.24
673.45	1064.01
673.79	1068.45
674.13	1068.92
674.47	1070.80
674.81	1065.41
675.15	1062.60
675.49	1055.11
675.83	1071.73
676.17	1077.58
676.51	1081.80
676.85	1093.26
677.19	1103.33
677.53	1094.67
677.87	1082.73
678.21	1079.69
678.55	1080.39
678.89	1070.09
679.23	1082.03
679.57	1078.05
679.90	1080.39
680.24	1080.16
680.58	1087.41
680.92	1066.58
681.26	1082.73
681.60	1078.75
681.94	1080.16
682.28	1080.39
682.62	1092.80
682.96	1086.94
683.29	1084.37
683.63	1081.33
683.97	1084.37
684.31	1081.80
684.65	1075.94
684.99	1080.39
685.33	1075.94
685.67	1070.33
686.00	1070.33
686.34	1073.14
686.68	1073.84
687.02	1082.50
687.36	1089.05
687.70	1095.14
688.03	1097.01
688.37	1102.39
688.71	1100.52
689.05	1087.18
689.39	1086.71
689.72	1084.14
690.06	1087.88
690.40	1080.16
690.74	1086.71
691.08	1084.60
691.41	1090.46
691.75	1079.22
692.09	1090.22
692.43	1096.78
692.76	1097.71
693.10	1088.35
693.44	1093.97
693.78	1095.37
694.11	1094.20
694.45	1081.80
694.79	1086.94
695.13	1082.26
695.46	1074.54
695.80	1067.75
696.14	1075.94
696.48	1075.01
696.81	1078.75
697.15	1081.56
697.49	1090.69
697.82	1096.54
698.16	1094.90
698.50	1095.84
698.83	1093.73
699.17	1088.58
699.51	1080.86
699.84	1077.58
700.18	1067.75
700.52	1069.39
700.85	1074.07
701.19	1094.20
701.53	1095.37
701.86	1101.46
702.20	1097.71
702.54	1087.18
702.87	1061.43
703.21	1067.99
703.55	1069.16
703.88	1068.92
704.22	1080.63
704.55	1088.82
704.89	1083.43
705.23	1080.16
705.56	1081.09
705.90	1081.09
706.23	1076.88
706.57	1079.92
706.91	1083.43
707.24	1080.86
707.58	1071.73
707.91	1070.33
708.25	1069.62
708.58	1079.69
708.92	1083.43
709.26	1083.90
709.59	1089.29
709.93	1093.50
710.26	1082.03
710.60	1088.82
710.93	1094.20
711.27	1104.03
711.60	1099.58
711.94	1101.69
712.27	1098.65
712.61	1096.07
712.94	1088.82
713.28	1087.18
713.61	1093.73
713.95	1088.12
714.28	1089.05
714.62	1089.99
714.95	1090.92
715.29	1077.82
715.62	1075.71
715.96	1069.62
716.29	1061.43
716.63	1056.28
716.96	1061.20
717.29	1067.05
717.63	1070.56
717.96	1061.67
718.30	1067.75
718.63	1072.90
718.97	1067.75
719.30	1067.99
719.63	1087.18
719.97	1082.73
720.30	1069.39
720.64	1069.86
720.97	1072.90
721.30	1063.77
721.64	1068.92
721.97	1083.20
722.31	1082.73
722.64	1080.63
722.97	1088.82
723.31	1075.71
723.64	1064.71
723.97	1066.82
724.31	1065.65
724.64	1067.05
724.98	1083.20
725.31	1093.03
725.64	1091.39
725.98	1096.78
726.31	1090.92
726.64	1091.86
726.97	1087.18
727.31	1091.63
727.64	1089.29
727.97	1094.67
728.31	1092.33
728.64	1094.43
728.97	1084.37
729.31	1085.77
729.64	1085.54
729.97	1075.94
730.30	1075.48
730.64	1083.43
730.97	1087.88
731.30	1081.80
731.63	1093.26
731.97	1094.20
732.30	1093.97
732.63	1082.03
732.96	1092.56
733.30	1086.48
733.63	1082.97
733.96	1086.94
734.29	1093.50
734.63	1090.22
734.96	1091.39
735.29	1098.88
735.62	1100.99
735.95	1102.63
736.29	1096.54
736.62	1100.29
736.95	1089.99
737.28	1074.07
737.61	1071.26
737.94	1063.07
738.28	1060.26
738.61	1056.05
738.94	1063.07
739.27	1055.58
739.60	1058.39
739.93	1060.03
740.27	1074.07
740.60	1082.73
740.93	1091.16
741.26	1089.99
741.59	1083.67
741.92	1074.77
742.25	1066.35
742.58	1061.90
742.91	1067.52
743.25	1070.33
743.58	1071.97
743.91	1066.35
744.24	1069.16
744.57	1072.43
744.90	1071.50
745.23	1086.94
745.56	1097.01
745.89	1102.86
746.22	1103.33
746.55	1102.39
746.88	1084.37
747.21	1084.60
747.54	1082.50
747.87	1085.54
748.20	1095.37
748.53	1100.75
748.87	1091.16
749.20	1087.65
749.53	1079.22
749.86	1079.69
750.19	1079.22
750.52	1092.56
750.85	1087.65
751.18	1086.24
751.51	1074.77
751.84	1078.75
752.16	1079.92
752.49	1093.26
752.82	1095.60
753.15	1103.56
753.48	1104.26
753.81	1092.09
754.14	1086.01
754.47	1088.82
754.80	1082.97
755.13	1068.45
755.46	1068.45
755.79	1071.73
756.12	1075.24
756.45	1077.35
756.78	1085.31
757.11	1093.50
757.43	1088.82
757.76	1084.60
758.09	1085.54
758.42	1086.71
758.75	1083.67
759.08	1077.82
759.41	1086.48
759.74	1095.60
760.07	1099.35
760.39	1104.97
760.72	1109.18
761.05	1090.22
761.38	1069.86
761.71	1058.62
762.04	1057.22
762.36	1049.50
762.69	1050.90
763.02	1064.24
763.35	1072.67
763.68	1065.88
764.01	1072.43
764.33	1081.56
764.66	1074.54
764.99	1071.97
765.32	1086.94
765.65	1094.67
765.97	1103.56
766.30	1115.97
766.63	1115.03
766.96	1096.07
767.28	1088.12
767.61	1066.58
767.94	1067.99
768.27	1072.43
768.59	1080.16
768.92	1080.63
769.25	1093.50
769.58	1086.71
769.90	1084.84
770.23	1078.99
770.56	1069.39
770.89	1074.31
771.21	1069.39
771.54	1058.62
771.87	1056.05
772.19	1070.80
772.52	1066.11
772.85	1065.65
773.17	1078.52
773.50	1077.11
773.83	1075.71
774.15	1074.77
774.48	1071.26
774.81	1067.75
775.13	1081.09
775.46	1077.11
775.79	1078.28
776.11	1090.22
776.44	1089.29
776.77	1093.03
777.09	1088.35
777.42	1078.28
777.74	1077.11
778.07	1072.20
778.40	1071.97
778.72	1075.01
779.05	1080.39
779.37	1075.48
779.70	1078.99
780.03	1069.86
780.35	1067.52
780.68	1078.52
781.00	1076.41
781.33	1085.07
781.65	1090.69
781.98	1087.41
782.31	1088.35
782.63	1100.29
782.96	1091.39
783.28	1081.33
783.61	1091.63
783.93	1087.65
784.26	1074.07
784.58	1075.24
784.91	1087.88
785.23	1086.48
785.56	1079.92
785.88	1082.26
786.21	1089.99
786.53	1084.37
786.86	1083.20
787.18	1085.31
787.51	1090.92
787.83	1078.28
788.16	1069.62
788.48	1062.84
788.81	1060.96
789.13	1064.01
789.46	1073.37
789.78	1077.82
790.10	1093.97
790.43	1095.84
790.75	1083.20
791.08	1079.92
791.40	1081.56
791.73	1084.60
792.05	1087.65
792.37	1094.90
792.70	1096.78
793.02	1099.82
793.35	1081.56
793.67	1078.28
793.99	1076.18
794.32	1073.84
794.64	1076.41
794.96	1083.20
795.29	1076.18
795.61	1085.07
795.93	1079.46
796.26	1072.43
796.58	1074.54
796.91	1081.33
797.23	1077.35
797.55	1085.07
797.87	1088.82
798.20	1086.01
798.52	1085.54
798.84	1072.43
799.17	1076.18
799.49	1078.28
799.81	1077.35
800.14	1074.31
800.46	1089.05
800.78	1081.56
801.10	1078.28
801.43	1076.88
801.75	1080.86
802.07	1082.50
802.40	1090.69
802.72	1089.99
803.04	1086.71
803.36	1091.63
803.69	1080.63
804.01	1084.14
804.33	1086.24
804.65	1089.75
804.97	1090.22
805.30	1092.56
805.62	1085.31
805.94	1089.05
806.26	1093.97
806.58	1089.29
806.91	1087.18
807.23	1088.82
807.55	1082.73
807.87	1087.18
808.19	1088.35
808.52	1096.07
808.84	1093.26
809.16	1094.20
809.48	1082.50
809.80	1071.26
810.12	1068.92
810.44	1063.54
810.77	1064.94
811.09	1072.67
811.41	1067.28
811.73	1067.28
812.05	1077.35
812.37	1075.94
812.69	1070.56
813.01	1082.03
813.33	1079.22
813.66	1073.14
813.98	1078.05
814.30	1088.12
814.62	1084.37
814.94	1086.48
815.26	1094.90
815.58	1095.37
815.90	1094.43
816.22	1103.80
816.54	1114.10
816.86	1109.88
817.18	1103.80
817.50	1086.71
817.82	1078.75
818.14	1068.22
818.46	1068.92
818.78	1074.77
819.10	1086.94
819.42	1094.67
819.74	1085.77
820.06	1086.48
820.38	1077.11
820.70	1071.97
821.02	1060.50
821.34	1068.92
821.66	1068.92
821.98	1081.09
822.30	1075.94
822.62	1090.22
822.94	1086.01
823.26	1081.80
823.58	1076.18
823.90	1084.14
824.22	1076.65
824.54	1086.01
824.86	1084.37
825.18	1084.37
825.50	1088.35
825.81	1083.67
826.13	1077.58
826.45	1084.84
826.77	1095.37
827.09	1101.69
827.41	1111.75
827.73	1117.37
828.05	1122.75
828.36	1112.22
828.68	1097.48
829.00	1101.46
829.32	1100.05
829.64	1082.73
829.96	1086.48
830.28	1097.95
830.59	1106.61
830.91	1097.24
831.23	1103.80
831.55	1099.12
831.87	1093.50
832.19	1072.20
832.50	1079.92
832.82	1079.46
833.14	1076.41
833.46	1067.52
833.78	1068.45
834.09	1072.20
834.41	1081.33
834.73	1084.84
835.05	1093.73
835.36	1095.84
835.68	1091.39
836.00	1080.16
836.32	1069.86
836.63	1065.65
836.95	1071.03
837.27	1069.39
837.59	1078.05
837.90	1088.12
838.22	1092.33
838.54	1091.86
838.85	1083.67
839.17	1083.67
839.49	1078.99
839.80	1077.58
840.12	1068.92
840.44	1075.48
840.76	1067.28
841.07	1069.86
841.39	1072.20
841.71	1076.18
842.02	1088.58
842.34	1084.84
842.65	1085.07
842.97	1082.50
843.29	1081.33
843.60	1064.24
843.92	1064.24
844.24	1066.82
844.55	1061.67
844.87	1065.88
845.18	1069.62
845.50	1079.22
845.82	1083.90
846.13	1097.71
846.45	1100.05
846.76	1108.95
847.08	1097.24
847.40	1088.82
847.71	1080.63
848.03	1081.80
848.34	1082.26
848.66	1087.65
848.97	1089.29
849.29	1086.94
849.60	1078.99
849.92	1077.58
850.24	1081.09
850.55	1086.48
850.87	1078.75
851.18	1079.69
851.50	1071.73
851.81	1070.56
852.13	1070.09
852.44	1088.35
852.76	1091.86
853.07	1097.95
853.39	1091.39
853.70	1088.35
854.01	1087.88
854.33	1086.24
854.64	1070.33
854.96	1078.99
855.27	1072.90
855.59	1065.88
855.90	1057.69
856.22	1073.14
856.53	1076.18
856.84	1075.48
857.16	1071.50
857.47	1077.11
857.79	1072.20
858.10	1065.41
858.41	1064.48
858.73	1072.20
859.04	1078.99
859.36	1090.69
859.67	1091.39
859.98	1097.48
860.30	1087.18
860.61	1080.63
860.92	1065.41
861.24	1066.35
861.55	1072.67
861.87	1079.92
862.18	1079.92
862.49	1087.18
862.81	1079.69
863.12	1076.41
863.43	1071.97
863.74	1081.33
864.06	1086.71
864.37	1093.03
864.68	1093.03
865.00	1097.95
865.31	1088.82
865.62	1079.92
865.94	1075.71
866.25	1077.58
866.56	1082.97
866.87	1089.05
867.19	1086.01
867.50	1095.37
867.81	1089.05
868.12	1077.58
868.44	1069.39
868.75	1066.35
869.06	1056.28
869.37	1055.82
869.68	1061.90
870.00	1062.60
870.31	1067.52
870.62	1078.52
870.93	1082.03
871.24	1069.62
871.56	1075.94
871.87	1078.52
872.18	1073.84
872.49	1072.90
872.80	1085.31
873.12	1084.37
873.43	1087.41
873.74	1098.65
874.05	1096.78
874.36	1094.20
874.67	1093.26
874.98	1086.24
875.29	1081.09
875.61	1081.09
875.92	1087.18
876.23	1090.22
876.54	1098.18
876.85	1096.54
877.16	1096.31
877.47	1097.48
877.78	1091.86
878.09	1088.58
878.40	1082.73
878.72	1084.84
879.03	1065.88
879.34	1060.03
879.65	1065.65
879.96	1065.65
880.27	1067.75
880.58	1076.88
880.89	1085.07
881.20	1077.11
881.51	1085.77
881.82	1078.28
882.13	1071.73
882.44	1068.69
882.75	1069.62
883.06	1061.43
883.37	1058.62
883.68	1059.33
883.99	1056.05
884.30	1051.84
884.61	1049.26
884.92	1053.48
885.23	1060.50
885.54	1070.80
885.85	1071.97
886.16	1081.80
886.47	1078.75
886.78	1079.69
887.08	1076.18
887.39	1084.60
887.70	1086.48
888.01	1091.63
888.32	1090.92
888.63	1092.09
888.94	1082.97
889.25	1078.28
889.56	1079.69
889.87	1082.26
890.17	1085.07
890.48	1088.12
890.79	1084.14
891.10	1084.84
891.41	1080.63
891.72	1075.24
892.03	1070.80
892.34	1075.24
892.64	1084.14
892.95	1086.71
893.26	1105.67
893.57	1118.78
893.88	1108.95
894.18	1097.95
894.49	1105.20
894.80	1088.35
895.11	1079.22
895.42	1087.18
895.72	1088.58
896.03	1082.50
896.34	1086.71
896.65	1088.58
896.96	1091.39
897.26	1094.67
897.57	1092.09
897.88	1092.56
898.19	1087.41
898.49	1082.03
898.80	1069.86
899.11	1080.39
899.41	1068.45
899.72	1077.35
900.03	1068.69
900.34	1080.39
900.64	1071.03
900.95	1073.60
901.26	1067.52
901.56	1064.48
901.87	1064.48
902.18	1068.45
902.48	1072.43
902.79	1071.50
903.10	1083.43
903.40	1082.26
903.71	1077.35
904.02	1077.35
904.32	1078.52
904.63	1083.67
904.94	1087.18
905.24	1091.86
905.55	1096.78
905.85	1103.56
906.16	1099.12
906.47	1085.07
906.77	1077.58
907.08	1068.69
907.38	1067.99
907.69	1064.24
908.00	1073.14
908.30	1070.09
908.61	1070.80
908.91	1073.14
909.22	1073.84
909.52	1071.50
909.83	1081.33
910.14	1090.22
910.44	1081.56
910.75	1079.22
911.05	1081.56
911.36	1081.33
911.66	1073.37
911.97	1072.90
912.27	1086.01
912.58	1090.92
912.88	1087.88
913.19	1090.69
913.49	1091.86
913.80	1082.97
914.10	1078.99
914.41	1069.16
914.71	1070.80
915.01	1078.75
915.32	1078.52
915.62	1078.52
915.93	1090.22
916.23	1084.14
916.54	1078.75
916.84	1078.99
917.15	1076.41
917.45	1070.09
917.75	1068.69
918.06	1059.56
918.36	1061.20
918.67	1061.20
918.97	1059.56
919.27	1060.03
919.58	1071.03
919.88	1074.31
920.18	1074.77
920.49	1082.26
920.79	1082.73
921.10	1080.39
921.40	1074.31
921.70	1069.39
922.01	1072.67
922.31	1081.33
922.61	1078.28
922.92	1072.43
923.22	1075.71
923.52	1072.90
923.82	1064.94
924.13	1067.75
924.43	1081.33
924.73	1092.09
925.04	1086.01
925.34	1094.90
925.64	1096.78
925.94	1089.29
926.25	1080.39
926.55	1087.88
926.85	1080.39
927.15	1077.35
927.46	1076.18
927.76	1070.33
928.06	1076.65
928.36	1078.75
928.67	1078.75
928.97	1078.52
929.27	1079.22
929.57	1061.20
929.87	1050.20
930.18	1053.01
930.48	1057.22
930.78	1059.56
931.08	1069.62
931.38	1078.28
931.69	1074.31
931.99	1072.20
932.29	1068.92
932.59	1060.73
932.89	1064.01
933.19	1063.54
933.49	1076.18
933.80	1088.82
934.10	1099.12
934.40	1099.82
934.70	1104.03
935.00	1091.16
935.30	1088.82
935.60	1092.33
935.90	1092.56
936.20	1094.90
936.50	1098.18
936.81	1094.43
937.11	1088.58
937.41	1086.71
937.71	1077.35
938.01	1073.84
938.31	1076.41
938.61	1076.41
938.91	1072.90
939.21	1081.09
939.51	1081.33
939.81	1074.31
940.11	1082.03
940.41	1081.09
940.71	1085.31
941.01	1082.26
941.31	1090.22
941.61	1089.29
941.91	1087.18
942.21	1081.09
942.51	1087.18
942.81	1090.69
943.11	1084.14
943.41	1083.20
943.71	1089.29
944.01	1091.63
944.31	1077.58
944.61	1077.11
944.90	1082.26
945.20	1077.82
945.50	1070.80
945.80	1077.11
946.10	1077.35
946.40	1078.75
946.70	1073.37
947.00	1084.60
947.30	1090.46
947.60	1089.05
947.89	1089.52
948.19	1091.39
948.49	1086.94
948.79	1080.16
949.09	1083.20
949.39	1076.41
949.69	1086.48
949.98	1093.50
950.28	1108.71
950.58	1109.65
950.88	1108.24
951.18	1097.71
951.48	1092.33
951.77	1085.31
952.07	1089.29
952.37	1099.12
952.67	1104.97
952.97	1099.12
953.26	1093.50
953.56	1088.58
953.86	1091.63
954.16	1093.50
954.45	1101.92
954.75	1097.01
955.05	1098.88
955.35	1095.60
955.64	1090.22
955.94	1087.65
956.24	1103.80
956.54	1097.24
956.83	1094.20
957.13	1095.37
957.43	1091.63
957.72	1083.43
958.02	1090.46
958.32	1100.52
958.61	1105.20
958.91	1101.69
959.21	1099.58
959.50	1092.56
959.80	1089.52
960.10	1085.77
960.39	1090.22
960.69	1091.86
960.99	1091.16
961.28	1079.22
961.58	1082.03
961.87	1075.71
962.17	1072.90
962.47	1072.20
962.76	1078.28
963.06	1074.31
963.36	1077.35
963.65	1085.31
963.95	1094.20
964.24	1097.71
964.54	1085.54
964.83	1087.41
965.13	1069.62
965.42	1066.11
965.72	1063.77
966.02	1077.58
966.31	1076.18
966.61	1089.05
966.90	1083.43
967.20	1090.69
967.49	1085.54
967.79	1072.90
968.08	1073.84
968.38	1067.52
968.67	1058.39
968.97	1052.54
969.26	1069.39
969.56	1058.16
969.85	1079.92
970.15	1079.92
970.44	1088.82
970.74	1078.75
971.03	1091.86
971.32	1090.22
971.62	1093.03
971.91	1096.31
972.21	1095.37
972.50	1085.31
972.80	1084.60
973.09	1085.31
973.38	1074.77
973.68	1085.54
973.97	1089.52
974.27	1079.46
974.56	1079.46
974.85	1082.03
975.15	1085.77
975.44	1085.07
975.73	1091.16
976.03	1083.90
976.32	1085.77
976.61	1081.09
976.91	1085.54
977.20	1077.58
977.49	1084.60
977.79	1093.26
978.08	1086.94
978.37	1078.28
978.67	1076.18
978.96	1065.88
979.25	1055.58
979.55	1054.18
979.84	1053.01
980.13	1061.20
980.42	1065.65
980.72	1077.82
981.01	1086.94
981.30	1100.05
981.59	1097.48
981.89	1094.20
982.18	1082.73
982.47	1077.35
982.76	1066.58
983.06	1068.92
983.35	1064.48
983.64	1064.01
983.93	1069.39
984.22	1072.20
984.52	1067.05
984.81	1080.16
985.10	1086.01
985.39	1081.80
985.68	1084.14
985.97	1078.28
986.27	1077.82
986.56	1071.26
986.85	1077.35
987.14	1076.65
987.43	1080.86
987.72	1076.41
988.01	1079.46
988.31	1068.69
988.60	1067.75
988.89	1077.11
989.18	1077.11
989.47	1080.63
989.76	1085.07
990.05	1090.22
990.34	1087.41
990.63	1095.37
990.92	1098.41
991.21	1093.50
991.51	1086.94
991.80	1089.75
992.09	1086.24
992.38	1080.63
992.67	1084.60
992.96	1090.92
993.25	1087.65
993.54	1075.48
993.83	1081.80
994.12	1075.94
994.41	1071.50
994.70	1068.92
994.99	1087.88
995.28	1085.07
995.57	1083.20
995.86	1076.18
996.15	1073.84
996.44	1066.58
996.73	1071.26
997.02	1077.11
997.31	1083.90
997.59	1077.82
997.88	1069.86
998.17	1068.45
998.46	1068.92
998.75	1067.05
999.04	1075.94
999.33	1093.26
999.62	1087.65
999.91	1080.63
1000.20	1086.48
1000.49	1090.92
1000.77	1074.07
1001.06	1059.56
1001.35	1065.18
1001.64	1054.88
1001.93	1053.24
1002.22	1069.86
1002.51	1090.46
1002.79	1089.29
1003.08	1099.35
1003.37	1095.14
1003.66	1083.67
1003.95	1078.99
1004.23	1086.01
1004.52	1078.99
1004.81	1079.92
1005.10	1075.48
1005.39	1077.35
1005.67	1067.99
1005.96	1076.41
1006.25	1083.90
1006.54	1091.39
1006.83	1086.94
1007.11	1099.35
1007.40	1090.69
1007.69	1076.18
1007.97	1070.56
1008.26	1076.18
1008.55	1074.77
1008.84	1074.77
1009.12	1087.41
1009.41	1085.07
1009.70	1075.24
1009.98	1071.97
1010.27	1075.24
1010.56	1067.52
1010.85	1079.69
1011.13	1078.05
1011.42	1069.86
1011.71	1064.48
1011.99	1071.26
1012.28	1071.73
1012.56	1074.31
1012.85	1076.65
1013.14	1089.29
1013.42	1088.35
1013.71	1082.97
1014.00	1089.52
1014.28	1095.37
1014.57	1090.22
1014.85	1080.39
1015.14	1090.22
1015.43	1093.50
1015.71	1089.29
1016.00	1081.80
1016.28	1085.77
1016.57	1076.65
1016.85	1070.33
1017.14	1069.16
1017.43	1073.60
1017.71	1076.88
1018.00	1069.62
1018.28	1064.01
1018.57	1064.71
1018.85	1063.07
1019.14	1066.58
1019.42	1069.62
1019.71	1070.33
1019.99	1070.33
1020.28	1065.18
1020.56	1055.58
1020.85	1060.26
1021.13	1066.82
1021.42	1076.18
1021.70	1087.65
1021.99	1096.78
1022.27	1099.58
1022.55	1095.37
1022.84	1105.90
>>>>>End Processed Spectral Data<<<<<
