SpectraSuite Data File
++++++++++++++++++++++++++++++++++++
Date: Mon Aug 26 10:25:55 PDT 2019
User: corrico
Dark Spectrum Present: No
Reference Spectrum Present: No
Number of Sampled Component Spectra: 1
Spectrometers: USB2+H06089
Integration Time (usec): 10000 (USB2+H06089)
Spectra Averaged: 2 (USB2+H06089)
Boxcar Smoothing: 2 (USB2+H06089)
Correct for Electrical Dark: No (USB2+H06089)
Strobe/Lamp Enabled: No (USB2+H06089)
Correct for Detector Non-linearity: No (USB2+H06089)
Correct for Stray Light: No (USB2+H06089)
Number of Pixels in Processed Spectrum: 2048
>>>>>Begin Processed Spectral Data<<<<<
339.70	1012.28
340.07	1012.28
340.45	989.58
340.82	979.28
341.19	946.75
341.57	922.41
341.94	915.85
342.31	905.79
342.69	888.94
343.06	902.51
343.43	907.66
343.81	898.06
344.18	898.06
344.55	902.74
344.93	902.04
345.30	901.57
345.67	920.06
346.04	935.75
346.42	950.02
346.79	960.56
347.16	968.51
347.54	967.34
347.91	963.83
348.28	966.64
348.65	971.32
349.03	984.90
349.40	993.56
349.77	1010.64
350.14	1022.11
350.52	1028.67
350.89	1027.50
351.26	1035.45
351.63	1031.94
352.01	1038.26
352.38	1044.82
352.75	1047.86
353.12	1052.77
353.50	1064.94
353.87	1064.48
354.24	1067.99
354.61	1076.88
354.98	1075.71
355.36	1075.48
355.73	1075.94
356.10	1071.97
356.47	1071.03
356.84	1067.05
357.22	1068.92
357.59	1072.90
357.96	1079.92
358.33	1091.63
358.70	1101.22
359.08	1093.50
359.45	1090.46
359.82	1097.71
360.19	1086.24
360.56	1084.37
360.94	1084.84
361.31	1077.11
361.68	1060.96
362.05	1061.43
362.42	1065.65
362.79	1061.90
363.16	1067.28
363.54	1072.20
363.91	1067.52
364.28	1064.24
364.65	1056.99
365.02	1061.90
365.39	1069.86
365.76	1073.60
366.14	1071.97
366.51	1079.92
366.88	1077.82
367.25	1079.46
367.62	1072.20
367.99	1075.94
368.36	1077.58
368.73	1073.60
369.10	1062.60
369.48	1066.35
369.85	1058.39
370.22	1056.28
370.59	1060.73
370.96	1064.01
371.33	1065.41
371.70	1067.28
372.07	1075.48
372.44	1075.48
372.81	1069.62
373.18	1070.33
373.55	1066.35
373.93	1064.71
374.30	1069.39
374.67	1070.33
375.04	1078.52
375.41	1081.80
375.78	1081.33
376.15	1074.54
376.52	1077.82
376.89	1075.71
377.26	1080.63
377.63	1075.71
378.00	1076.41
378.37	1074.31
378.74	1072.90
379.11	1064.94
379.48	1062.84
379.85	1058.39
380.22	1066.35
380.59	1063.77
380.96	1057.69
381.33	1053.01
381.70	1060.73
382.07	1062.14
382.44	1066.58
382.81	1092.33
383.18	1102.39
383.55	1094.67
383.92	1086.24
384.29	1089.99
384.66	1082.26
385.03	1084.84
385.40	1095.14
385.77	1092.56
386.14	1084.37
386.51	1076.65
386.88	1070.33
387.25	1071.97
387.62	1077.11
387.99	1071.26
388.36	1066.82
388.73	1067.52
389.10	1064.24
389.46	1057.69
389.83	1059.79
390.20	1063.54
390.57	1071.50
390.94	1059.33
391.31	1060.03
391.68	1071.26
392.05	1068.22
392.42	1064.71
392.79	1071.97
393.16	1072.90
393.53	1063.77
393.89	1074.77
394.26	1075.24
394.63	1086.01
395.00	1091.63
395.37	1086.01
395.74	1079.22
396.11	1080.39
396.48	1068.22
396.84	1053.71
397.21	1057.45
397.58	1063.77
397.95	1067.28
398.32	1070.80
398.69	1089.05
399.06	1088.82
399.42	1086.94
399.79	1080.39
400.16	1075.24
400.53	1058.39
400.90	1059.09
401.27	1050.67
401.64	1053.94
402.00	1050.67
402.37	1055.82
402.74	1064.94
403.11	1067.28
403.48	1069.62
403.84	1074.77
404.21	1074.54
404.58	1061.43
404.95	1067.05
405.32	1066.11
405.68	1061.90
406.05	1071.73
406.42	1075.94
406.79	1069.62
407.16	1068.22
407.52	1069.39
407.89	1059.09
408.26	1047.86
408.63	1050.43
408.99	1043.88
409.36	1047.86
409.73	1071.26
410.10	1086.01
410.47	1088.35
410.83	1093.26
411.20	1089.75
411.57	1071.73
411.94	1075.01
412.30	1072.43
412.67	1062.84
413.04	1064.48
413.40	1068.92
413.77	1060.73
414.14	1055.82
414.51	1058.16
414.87	1062.60
415.24	1058.62
415.61	1059.79
415.97	1070.33
416.34	1074.31
416.71	1070.09
417.08	1066.11
417.44	1064.94
417.81	1056.75
418.18	1063.77
418.54	1057.69
418.91	1060.03
419.28	1060.26
419.64	1068.22
420.01	1060.50
420.38	1077.58
420.74	1085.54
421.11	1104.50
421.48	1097.95
421.84	1103.33
422.21	1094.67
422.58	1087.18
422.94	1075.01
423.31	1077.58
423.68	1072.20
424.04	1074.54
424.41	1075.71
424.77	1080.39
425.14	1082.73
425.51	1076.65
425.87	1077.82
426.24	1079.22
426.61	1067.05
426.97	1066.11
427.34	1076.41
427.70	1079.69
428.07	1086.71
428.44	1089.99
428.80	1082.26
429.17	1087.88
429.53	1084.14
429.90	1076.65
430.27	1085.31
430.63	1090.46
431.00	1088.82
431.36	1081.33
431.73	1087.18
432.09	1091.86
432.46	1092.56
432.83	1084.37
433.19	1085.31
433.56	1078.75
433.92	1070.33
434.29	1074.77
434.65	1080.63
435.02	1088.35
435.38	1082.73
435.75	1070.09
436.11	1067.05
436.48	1067.99
436.84	1067.99
437.21	1073.37
437.57	1078.05
437.94	1075.71
438.30	1068.69
438.67	1070.33
439.03	1078.28
439.40	1082.03
439.76	1072.20
440.13	1073.14
440.49	1062.84
440.86	1044.11
441.22	1044.11
441.59	1045.99
441.95	1055.11
442.32	1060.03
442.68	1080.16
443.05	1070.33
443.41	1080.63
443.78	1076.18
444.14	1071.73
444.51	1065.41
444.87	1070.33
445.24	1072.90
445.60	1072.67
445.96	1082.26
446.33	1083.20
446.69	1089.99
447.06	1094.43
447.42	1093.97
447.79	1089.29
448.15	1083.67
448.51	1081.80
448.88	1076.41
449.24	1084.60
449.61	1081.80
449.97	1085.31
450.33	1086.94
450.70	1100.29
451.06	1097.48
451.43	1098.41
451.79	1098.41
452.15	1096.07
452.52	1080.16
452.88	1077.82
453.24	1074.31
453.61	1076.18
453.97	1077.11
454.34	1083.43
454.70	1080.16
455.06	1080.63
455.43	1075.94
455.79	1082.97
456.15	1076.65
456.52	1081.80
456.88	1092.33
457.24	1101.69
457.61	1095.60
457.97	1099.82
458.33	1088.58
458.70	1076.88
459.06	1079.46
459.42	1071.73
459.79	1069.39
460.15	1076.41
460.51	1080.63
460.88	1072.90
461.24	1081.80
461.60	1078.75
461.96	1077.35
462.33	1078.99
462.69	1067.75
463.05	1063.54
463.42	1072.90
463.78	1067.99
464.14	1059.09
464.50	1072.67
464.87	1079.22
465.23	1070.09
465.59	1074.54
465.95	1088.58
466.32	1089.99
466.68	1079.92
467.04	1081.80
467.40	1076.41
467.77	1067.52
468.13	1064.24
468.49	1073.60
468.85	1063.54
469.22	1067.52
469.58	1079.46
469.94	1086.94
470.30	1084.84
470.66	1093.26
471.03	1095.37
471.39	1085.77
471.75	1079.46
472.11	1075.24
472.47	1081.33
472.84	1077.35
473.20	1087.41
473.56	1087.41
473.92	1094.20
474.28	1090.92
474.65	1092.80
475.01	1079.46
475.37	1066.11
475.73	1066.11
476.09	1062.60
476.45	1055.58
476.81	1063.77
477.18	1072.43
477.54	1064.48
477.90	1068.45
478.26	1081.56
478.62	1082.50
478.98	1085.54
479.34	1086.71
479.71	1086.48
480.07	1076.65
480.43	1069.39
480.79	1064.94
481.15	1070.09
481.51	1067.75
481.87	1072.67
482.23	1072.67
482.59	1070.56
482.96	1072.43
483.32	1072.20
483.68	1072.90
484.04	1075.94
484.40	1080.16
484.76	1075.94
485.12	1067.05
485.48	1070.80
485.84	1076.65
486.20	1085.54
486.56	1094.20
486.92	1104.73
487.28	1101.22
487.64	1096.07
488.00	1086.71
488.37	1068.45
488.73	1064.71
489.09	1061.43
489.45	1070.09
489.81	1070.33
490.17	1087.18
490.53	1094.67
490.89	1101.46
491.25	1096.54
491.61	1099.12
491.97	1088.58
492.33	1087.41
492.69	1079.22
493.05	1068.45
493.41	1072.43
493.77	1083.20
494.13	1093.03
494.49	1102.86
494.85	1107.07
495.21	1098.65
495.57	1099.12
495.93	1087.18
496.29	1078.99
496.64	1079.22
497.00	1080.86
497.36	1068.69
497.72	1059.79
498.08	1058.39
498.44	1065.88
498.80	1070.56
499.16	1075.48
499.52	1077.58
499.88	1085.07
500.24	1076.88
500.60	1075.01
500.96	1072.90
501.32	1077.35
501.68	1068.69
502.03	1064.24
502.39	1052.54
502.75	1054.18
503.11	1053.01
503.47	1064.01
503.83	1070.80
504.19	1088.12
504.55	1088.58
504.91	1089.75
505.26	1079.46
505.62	1088.12
505.98	1083.43
506.34	1078.28
506.70	1075.01
507.06	1082.50
507.42	1070.56
507.78	1064.01
508.13	1071.26
508.49	1073.14
508.85	1075.24
509.21	1083.20
509.57	1089.99
509.93	1097.48
510.28	1095.60
510.64	1087.65
511.00	1085.07
511.36	1090.46
511.72	1086.71
512.07	1085.07
512.43	1089.05
512.79	1090.46
513.15	1085.31
513.51	1081.80
513.86	1086.48
514.22	1085.31
514.58	1074.77
514.94	1070.80
515.30	1071.26
515.65	1071.97
516.01	1085.31
516.37	1091.63
516.73	1095.84
517.08	1098.88
517.44	1110.35
517.80	1103.09
518.16	1103.56
518.51	1096.78
518.87	1095.60
519.23	1093.50
519.59	1083.43
519.94	1086.24
520.30	1096.54
520.66	1101.22
521.01	1093.73
521.37	1109.41
521.73	1106.84
522.09	1103.80
522.44	1097.71
522.80	1097.24
523.16	1082.50
523.51	1082.73
523.87	1081.56
524.23	1084.37
524.58	1078.75
524.94	1084.84
525.30	1089.75
525.65	1084.84
526.01	1084.84
526.37	1098.41
526.72	1100.75
527.08	1106.14
527.44	1107.31
527.79	1107.07
528.15	1093.73
528.51	1079.69
528.86	1066.82
529.22	1075.71
529.58	1068.22
529.93	1065.65
530.29	1070.56
530.65	1078.28
531.00	1067.28
531.36	1069.16
531.71	1082.97
532.07	1088.12
532.43	1086.48
532.78	1097.01
533.14	1104.73
533.49	1098.41
533.85	1096.07
534.21	1089.99
534.56	1090.69
534.92	1081.33
535.27	1086.01
535.63	1086.24
535.98	1084.84
536.34	1087.18
536.69	1099.12
537.05	1086.48
537.41	1084.14
537.76	1085.31
538.12	1074.31
538.47	1071.50
538.83	1086.01
539.18	1082.50
539.54	1083.20
539.89	1077.58
540.25	1070.80
540.60	1063.07
540.96	1078.52
541.31	1080.63
541.67	1089.99
542.02	1097.48
542.38	1101.22
542.73	1100.05
543.09	1098.65
543.44	1094.20
543.80	1083.90
544.15	1085.31
544.51	1075.48
544.86	1076.65
545.22	1086.48
545.57	1096.07
545.93	1099.82
546.28	1102.39
546.64	1102.86
546.99	1098.88
547.35	1097.24
547.70	1094.90
548.05	1102.63
548.41	1104.26
548.76	1103.33
549.12	1103.80
549.47	1099.82
549.83	1091.86
550.18	1090.69
550.53	1091.16
550.89	1080.63
551.24	1086.01
551.60	1082.73
551.95	1073.84
552.30	1079.22
552.66	1098.65
553.01	1095.37
553.37	1104.73
553.72	1110.12
554.07	1109.18
554.43	1099.35
554.78	1102.39
555.13	1093.97
555.49	1097.24
555.84	1087.65
556.19	1086.24
556.55	1081.80
556.90	1081.80
557.26	1091.63
557.61	1088.35
557.96	1092.33
558.32	1093.50
558.67	1091.63
559.02	1080.63
559.37	1084.37
559.73	1072.20
560.08	1067.52
560.43	1071.73
560.79	1073.60
561.14	1077.58
561.49	1073.14
561.85	1087.65
562.20	1101.22
562.55	1098.18
562.90	1102.63
563.26	1109.88
563.61	1095.14
563.96	1081.09
564.32	1086.24
564.67	1082.26
565.02	1094.90
565.37	1091.86
565.73	1095.14
566.08	1089.75
566.43	1090.92
566.78	1089.05
567.14	1082.50
567.49	1074.07
567.84	1073.84
568.19	1074.31
568.54	1074.77
568.90	1085.77
569.25	1096.78
569.60	1100.75
569.95	1089.99
570.31	1073.84
570.66	1075.48
571.01	1068.69
571.36	1068.92
571.71	1073.60
572.06	1075.94
572.42	1074.77
572.77	1078.05
573.12	1071.73
573.47	1077.11
573.82	1074.07
574.18	1075.94
574.53	1071.26
574.88	1083.20
575.23	1073.60
575.58	1079.46
575.93	1068.69
576.28	1063.07
576.64	1054.18
576.99	1067.99
577.34	1064.48
577.69	1073.84
578.04	1074.07
578.39	1076.88
578.74	1076.18
579.09	1085.31
579.44	1086.24
579.80	1096.31
580.15	1094.43
580.50	1096.78
580.85	1091.86
581.20	1085.07
581.55	1081.33
581.90	1085.07
582.25	1076.88
582.60	1076.18
582.95	1082.73
583.30	1092.56
583.65	1090.46
584.00	1087.18
584.35	1085.31
584.71	1077.58
585.06	1062.14
585.41	1069.39
585.76	1069.62
586.11	1072.43
586.46	1079.22
586.81	1080.63
587.16	1075.94
587.51	1081.56
587.86	1088.58
588.21	1086.01
588.56	1093.73
588.91	1080.16
589.26	1072.43
589.61	1067.05
589.96	1067.99
590.31	1070.09
590.66	1084.84
591.01	1092.56
591.36	1092.80
591.71	1094.43
592.06	1096.07
592.41	1093.97
592.76	1089.29
593.10	1084.84
593.45	1082.26
593.80	1082.03
594.15	1077.11
594.50	1075.24
594.85	1082.97
595.20	1088.58
595.55	1082.97
595.90	1086.48
596.25	1089.52
596.60	1085.31
596.95	1083.67
597.30	1079.92
597.64	1144.05
597.99	1152.48
598.34	1156.46
598.69	1150.84
599.04	1150.84
599.39	1092.56
599.74	1085.54
600.09	1076.65
600.44	1079.69
600.78	1083.67
601.13	1068.69
601.48	1067.28
601.83	1074.77
602.18	1071.97
602.53	1063.31
602.88	1062.60
603.22	1064.71
603.57	1068.45
603.92	1074.54
604.27	1083.20
604.62	1089.29
604.97	1080.16
605.31	1069.39
605.66	1069.16
606.01	1061.67
606.36	1056.05
606.71	1067.75
607.05	1065.88
607.40	1069.39
607.75	1075.24
608.10	1087.41
608.44	1089.29
608.79	1079.69
609.14	1085.07
609.49	1093.26
609.84	1092.09
610.18	1091.39
610.53	1115.03
610.88	1100.52
611.23	1101.92
611.57	1100.99
611.92	1097.48
612.27	1092.80
612.62	1098.18
612.96	1093.97
613.31	1098.18
613.66	1097.48
614.00	1091.39
614.35	1079.22
614.70	1068.69
615.05	1070.56
615.39	1074.07
615.74	1087.41
616.09	1093.50
616.43	1107.54
616.78	1093.26
617.13	1088.12
617.47	1077.82
617.82	1074.07
618.17	1069.62
618.51	1084.84
618.86	1078.75
619.21	1070.33
619.55	1087.18
619.90	1081.56
620.25	1062.14
620.59	1058.62
620.94	1067.52
621.29	1064.94
621.63	1061.90
621.98	1072.43
622.32	1082.03
622.67	1083.90
623.02	1080.86
623.36	1084.84
623.71	1088.58
624.05	1093.73
624.40	1096.07
624.75	1092.80
625.09	1097.24
625.44	1093.97
625.78	1089.99
626.13	1081.80
626.48	1087.41
626.82	1084.37
627.17	1081.80
627.51	1084.84
627.86	1094.90
628.20	1100.05
628.55	1092.33
628.89	1092.56
629.24	1093.97
629.58	1083.67
629.93	1075.48
630.28	1084.60
630.62	1091.39
630.97	1076.18
631.31	1084.14
631.66	1073.14
632.00	1072.90
632.35	1075.48
632.69	1087.88
633.04	1086.94
633.38	1087.41
633.73	1083.90
634.07	1069.86
634.42	1071.03
634.76	1069.62
635.11	1081.80
635.45	1083.43
635.79	1091.63
636.14	1090.69
636.48	1091.86
636.83	1080.16
637.17	1072.67
637.52	1073.60
637.86	1067.52
638.21	1063.54
638.55	1069.86
638.89	1078.28
639.24	1072.90
639.58	1075.71
639.93	1075.94
640.27	1083.67
640.61	1082.97
640.96	1091.86
641.30	1095.37
641.65	1096.07
641.99	1091.16
642.33	1086.94
642.68	1075.71
643.02	1075.24
643.37	1075.24
643.71	1074.54
644.05	1085.54
644.40	1089.52
644.74	1088.58
645.08	1093.26
645.43	1095.14
645.77	1091.86
646.11	1089.99
646.46	1091.16
646.80	1082.50
647.14	1083.67
647.49	1078.52
647.83	1071.50
648.17	1071.73
648.52	1072.20
648.86	1078.52
649.20	1091.86
649.55	1106.14
649.89	1101.46
650.23	1113.39
650.57	1102.86
650.92	1094.90
651.26	1093.26
651.60	1096.78
651.95	1086.48
652.29	1088.82
652.63	1082.73
652.97	1075.48
653.32	1084.14
653.66	1081.80
654.00	1079.46
654.34	1071.50
654.69	1078.28
655.03	1055.58
655.37	1055.82
655.71	1060.73
656.05	1082.73
656.40	1083.67
656.74	1101.22
657.08	1111.52
657.42	1105.20
657.76	1090.92
658.11	1090.92
658.45	1098.18
658.79	1092.80
659.13	1093.50
659.47	1097.71
659.82	1098.88
660.16	1085.54
660.50	1095.60
660.84	1093.97
661.18	1088.12
661.52	1082.50
661.87	1080.16
662.21	1082.26
662.55	1083.90
662.89	1089.75
663.23	1091.39
663.57	1088.82
663.91	1071.50
664.25	1069.62
664.60	1068.22
664.94	1067.52
665.28	1069.39
665.62	1075.71
665.96	1073.84
666.30	1078.99
666.64	1086.94
666.98	1097.24
667.32	1103.09
667.66	1095.37
668.01	1092.33
668.35	1079.46
668.69	1072.20
669.03	1070.33
669.37	1090.92
669.71	1097.95
670.05	1096.78
670.39	1105.20
670.73	1099.12
671.07	1085.31
671.41	1080.16
671.75	1087.41
672.09	1084.60
672.43	1078.05
672.77	1079.46
673.11	1071.97
673.45	1071.26
673.79	1066.11
674.13	1080.16
674.47	1078.99
674.81	1081.56
675.15	1081.09
675.49	1076.65
675.83	1061.90
676.17	1064.24
676.51	1062.60
676.85	1064.48
677.19	1067.52
677.53	1069.39
677.87	1070.56
678.21	1075.01
678.55	1073.84
678.89	1073.37
679.23	1078.75
679.57	1084.14
679.90	1084.84
680.24	1086.24
680.58	1086.71
680.92	1088.12
681.26	1086.24
681.60	1090.92
681.94	1091.63
682.28	1089.05
682.62	1087.41
682.96	1090.69
683.29	1087.18
683.63	1083.90
683.97	1088.35
684.31	1082.03
684.65	1079.22
684.99	1072.20
685.33	1067.28
685.67	1058.39
686.00	1060.26
686.34	1052.07
686.68	1054.65
687.02	1064.48
687.36	1075.01
687.70	1075.24
688.03	1082.50
688.37	1079.69
688.71	1072.67
689.05	1075.71
689.39	1074.54
689.72	1077.35
690.06	1079.69
690.40	1084.60
690.74	1080.39
691.08	1082.73
691.41	1082.97
691.75	1088.58
692.09	1087.18
692.43	1084.14
692.76	1093.26
693.10	1082.03
693.44	1088.35
693.78	1087.65
694.11	1095.84
694.45	1090.69
694.79	1101.22
695.13	1089.29
695.46	1097.01
695.80	1086.24
696.14	1083.43
696.48	1083.43
696.81	1080.16
697.15	1069.86
697.49	1064.24
697.82	1068.22
698.16	1057.45
698.50	1060.50
698.83	1066.35
699.17	1071.73
699.51	1071.03
699.84	1077.82
700.18	1078.75
700.52	1068.92
700.85	1077.35
701.19	1071.73
701.53	1077.58
701.86	1073.37
702.20	1076.41
702.54	1067.28
702.87	1076.65
703.21	1069.39
703.55	1078.05
703.88	1072.20
704.22	1075.48
704.55	1064.24
704.89	1065.18
705.23	1055.35
705.56	1061.20
705.90	1053.24
706.23	1061.90
706.57	1057.69
706.91	1060.73
707.24	1066.11
707.58	1089.29
707.91	1084.84
708.25	1098.18
708.58	1103.56
708.92	1110.58
709.26	1097.01
709.59	1090.92
709.93	1079.92
710.26	1075.71
710.60	1064.01
710.93	1058.86
711.27	1073.84
711.60	1078.99
711.94	1080.63
712.27	1086.01
712.61	1092.33
712.94	1090.46
713.28	1086.48
713.61	1091.39
713.95	1089.29
714.28	1081.80
714.62	1077.58
714.95	1076.65
715.29	1070.80
715.62	1068.92
715.96	1069.39
716.29	1065.18
716.63	1074.54
716.96	1081.56
717.29	1085.07
717.63	1088.12
717.96	1092.56
718.30	1087.65
718.63	1085.31
718.97	1076.88
719.30	1075.01
719.63	1072.90
719.97	1069.39
720.30	1059.09
720.64	1059.09
720.97	1063.31
721.30	1060.96
721.64	1072.20
721.97	1078.75
722.31	1086.48
722.64	1092.09
722.97	1097.71
723.31	1099.12
723.64	1101.46
723.97	1098.18
724.31	1106.61
724.64	1103.33
724.98	1083.43
725.31	1081.33
725.64	1089.99
725.98	1072.43
726.31	1078.99
726.64	1098.18
726.97	1090.46
727.31	1075.48
727.64	1079.22
727.97	1065.18
728.31	1049.03
728.64	1055.82
728.97	1064.71
729.31	1067.75
729.64	1069.16
729.97	1083.43
730.30	1090.46
730.64	1088.12
730.97	1080.63
731.30	1091.39
731.63	1083.90
731.97	1074.31
732.30	1075.01
732.63	1075.24
732.96	1074.54
733.30	1072.20
733.63	1080.86
733.96	1083.90
734.29	1090.92
734.63	1080.16
734.96	1079.46
735.29	1077.35
735.62	1074.54
735.95	1065.65
736.29	1075.94
736.62	1078.99
736.95	1072.43
737.28	1069.39
737.61	1084.60
737.94	1084.37
738.28	1072.90
738.61	1075.71
738.94	1069.62
739.27	1061.43
739.60	1053.01
739.93	1058.16
740.27	1061.67
740.60	1072.43
740.93	1063.54
741.26	1063.31
741.59	1077.11
741.92	1076.65
742.25	1075.71
742.58	1075.94
742.91	1077.58
743.25	1071.50
743.58	1065.88
743.91	1066.82
744.24	1071.73
744.57	1074.77
744.90	1068.45
745.23	1071.26
745.56	1068.22
745.89	1070.56
746.22	1063.31
746.55	1060.73
746.88	1052.07
747.21	1057.22
747.54	1054.41
747.87	1062.14
748.20	1071.03
748.53	1087.65
748.87	1083.20
749.20	1086.94
749.53	1077.82
749.86	1079.46
750.19	1076.18
750.52	1073.84
750.85	1076.65
751.18	1089.75
751.51	1085.77
751.84	1079.69
752.16	1084.37
752.49	1079.92
752.82	1080.86
753.15	1076.41
753.48	1076.65
753.81	1084.60
754.14	1083.43
754.47	1082.26
754.80	1087.41
755.13	1082.73
755.46	1074.54
755.79	1067.28
756.12	1066.11
756.45	1061.67
756.78	1060.73
757.11	1054.41
757.43	1069.86
757.76	1063.31
758.09	1066.11
758.42	1067.99
758.75	1079.92
759.08	1070.56
759.41	1074.31
759.74	1070.56
760.07	1068.22
760.39	1064.01
760.72	1070.80
761.05	1071.26
761.38	1075.01
761.71	1066.58
762.04	1060.50
762.36	1063.31
762.69	1056.05
763.02	1055.82
763.35	1077.82
763.68	1086.01
764.01	1080.63
764.33	1088.58
764.66	1094.90
764.99	1085.07
765.32	1087.88
765.65	1084.37
765.97	1074.77
766.30	1071.03
766.63	1076.65
766.96	1071.97
767.28	1073.60
767.61	1084.60
767.94	1099.58
768.27	1097.95
768.59	1100.99
768.92	1105.20
769.25	1104.50
769.58	1081.80
769.90	1087.18
770.23	1090.69
770.56	1088.35
770.89	1076.41
771.21	1084.84
771.54	1079.92
771.87	1075.48
772.19	1071.73
772.52	1082.73
772.85	1086.01
773.17	1078.28
773.50	1074.54
773.83	1084.60
774.15	1087.88
774.48	1075.48
774.81	1078.52
775.13	1088.35
775.46	1079.92
775.79	1072.43
776.11	1078.05
776.44	1078.99
776.77	1058.86
777.09	1063.31
777.42	1079.22
777.74	1082.73
778.07	1088.82
778.40	1093.97
778.72	1092.09
779.05	1082.03
779.37	1074.77
779.70	1073.37
780.03	1073.60
780.35	1079.22
780.68	1087.88
781.00	1087.65
781.33	1086.71
781.65	1086.48
781.98	1087.41
782.31	1077.35
782.63	1073.84
782.96	1062.14
783.28	1071.97
783.61	1069.39
783.93	1074.54
784.26	1076.65
784.58	1093.26
784.91	1086.71
785.23	1082.73
785.56	1077.35
785.88	1082.26
786.21	1071.97
786.53	1061.67
786.86	1060.26
787.18	1061.20
787.51	1052.54
787.83	1057.92
788.16	1063.77
788.48	1073.37
788.81	1078.75
789.13	1089.99
789.46	1090.92
789.78	1084.84
790.10	1077.35
790.43	1076.18
790.75	1075.24
791.08	1076.65
791.40	1087.65
791.73	1094.43
792.05	1088.35
792.37	1091.16
792.70	1090.69
793.02	1084.14
793.35	1080.63
793.67	1086.01
793.99	1082.50
794.32	1082.03
794.64	1091.16
794.96	1085.07
795.29	1082.73
795.61	1090.46
795.93	1092.80
796.26	1095.60
796.58	1097.24
796.91	1096.78
797.23	1085.31
797.55	1076.41
797.87	1066.35
798.20	1076.18
798.52	1080.16
798.84	1088.12
799.17	1081.09
799.49	1077.82
799.81	1055.35
800.14	1043.41
800.46	1046.69
800.78	1062.37
801.10	1070.09
801.43	1078.52
801.75	1084.60
802.07	1079.69
802.40	1085.31
802.72	1086.24
803.04	1097.01
803.36	1094.43
803.69	1093.03
804.01	1083.43
804.33	1084.84
804.65	1075.01
804.97	1076.65
805.30	1078.99
805.62	1073.37
805.94	1070.09
806.26	1079.69
806.58	1092.33
806.91	1084.84
807.23	1092.56
807.55	1091.39
807.87	1083.20
808.19	1069.16
808.52	1068.92
808.84	1075.01
809.16	1076.65
809.48	1077.35
809.80	1077.82
810.12	1082.50
810.44	1075.94
810.77	1077.58
811.09	1072.67
811.41	1065.65
811.73	1057.22
812.05	1048.09
812.37	1049.26
812.69	1052.77
813.01	1064.71
813.33	1079.69
813.66	1092.09
813.98	1087.41
814.30	1097.71
814.62	1093.97
814.94	1087.65
815.26	1080.63
815.58	1082.97
815.90	1067.99
816.22	1072.67
816.54	1072.20
816.86	1082.97
817.18	1095.14
817.50	1097.95
817.82	1098.41
818.14	1099.35
818.46	1094.20
818.78	1077.82
819.10	1087.88
819.42	1079.92
819.74	1081.09
820.06	1079.46
820.38	1076.41
820.70	1067.99
821.02	1069.86
821.34	1057.69
821.66	1051.13
821.98	1049.96
822.30	1046.92
822.62	1049.73
822.94	1061.43
823.26	1071.26
823.58	1077.82
823.90	1085.31
824.22	1083.90
824.54	1082.03
824.86	1071.03
825.18	1082.03
825.50	1081.09
825.81	1077.82
826.13	1083.43
826.45	1086.71
826.77	1079.22
827.09	1075.48
827.41	1082.50
827.73	1077.58
828.05	1071.73
828.36	1067.28
828.68	1070.09
829.00	1071.73
829.32	1078.05
829.64	1087.18
829.96	1095.60
830.28	1092.09
830.59	1081.80
830.91	1075.71
831.23	1072.67
831.55	1072.20
831.87	1072.43
832.19	1078.28
832.50	1074.07
832.82	1082.26
833.14	1080.86
833.46	1088.35
833.78	1087.18
834.09	1090.69
834.41	1075.24
834.73	1069.86
835.05	1063.31
835.36	1060.73
835.68	1065.18
836.00	1068.45
836.32	1080.86
836.63	1085.07
836.95	1080.63
837.27	1069.16
837.59	1074.77
837.90	1068.45
838.22	1065.65
838.54	1068.45
838.85	1079.22
839.17	1073.14
839.49	1060.73
839.80	1069.62
840.12	1081.09
840.44	1078.52
840.76	1088.82
841.07	1086.71
841.39	1068.45
841.71	1069.16
842.02	1067.75
842.34	1064.01
842.65	1067.52
842.97	1071.73
843.29	1067.28
843.60	1067.05
843.92	1068.22
844.24	1076.41
844.55	1076.18
844.87	1074.07
845.18	1081.09
845.50	1081.33
845.82	1083.90
846.13	1092.09
846.45	1097.48
846.76	1093.97
847.08	1087.41
847.40	1088.58
847.71	1085.77
848.03	1080.16
848.34	1081.56
848.66	1085.31
848.97	1080.39
849.29	1082.73
849.60	1071.97
849.92	1065.88
850.24	1062.14
850.55	1056.52
850.87	1058.16
851.18	1067.05
851.50	1072.67
851.81	1081.33
852.13	1086.24
852.44	1082.73
852.76	1079.22
853.07	1067.28
853.39	1057.45
853.70	1061.20
854.01	1057.22
854.33	1061.20
854.64	1069.16
854.96	1077.58
855.27	1077.11
855.59	1083.90
855.90	1085.77
856.22	1084.60
856.53	1082.73
856.84	1084.37
857.16	1080.86
857.47	1081.80
857.79	1086.94
858.10	1089.29
858.41	1093.26
858.73	1089.99
859.04	1090.46
859.36	1088.58
859.67	1083.20
859.98	1070.33
860.30	1072.67
860.61	1064.24
860.92	1060.50
861.24	1059.09
861.55	1058.39
861.87	1064.48
862.18	1070.33
862.49	1076.18
862.81	1080.86
863.12	1087.18
863.43	1081.80
863.74	1078.75
864.06	1077.11
864.37	1078.75
864.68	1078.75
865.00	1082.97
865.31	1081.09
865.62	1080.63
865.94	1079.22
866.25	1071.26
866.56	1071.97
866.87	1078.28
867.19	1076.88
867.50	1073.37
867.81	1077.35
868.12	1076.41
868.44	1078.52
868.75	1079.46
869.06	1082.03
869.37	1086.01
869.68	1083.90
870.00	1080.39
870.31	1069.39
870.62	1072.20
870.93	1072.67
871.24	1075.24
871.56	1066.58
871.87	1078.28
872.18	1067.28
872.49	1052.77
872.80	1049.96
873.12	1058.39
873.43	1057.69
873.74	1062.60
874.05	1075.48
874.36	1078.28
874.67	1070.80
874.98	1068.92
875.29	1077.35
875.61	1078.52
875.92	1062.37
876.23	1077.35
876.54	1088.35
876.85	1079.69
877.16	1086.01
877.47	1100.99
877.78	1097.01
878.09	1084.60
878.40	1089.52
878.72	1086.71
879.03	1087.65
879.34	1084.14
879.65	1087.88
879.96	1079.46
880.27	1075.71
880.58	1077.11
880.89	1084.84
881.20	1085.54
881.51	1097.95
881.82	1098.41
882.13	1088.35
882.44	1079.92
882.75	1070.33
883.06	1061.20
883.37	1057.69
883.68	1065.18
883.99	1061.90
884.30	1063.31
884.61	1056.05
884.92	1054.41
885.23	1062.14
885.54	1065.18
885.85	1067.52
886.16	1077.11
886.47	1072.67
886.78	1060.73
887.08	1057.92
887.39	1067.05
887.70	1067.05
888.01	1071.73
888.32	1080.39
888.63	1083.67
888.94	1078.99
889.25	1085.31
889.56	1095.37
889.87	1091.86
890.17	1090.22
890.48	1092.09
890.79	1085.07
891.10	1073.37
891.41	1067.75
891.72	1071.73
892.03	1061.43
892.34	1067.75
892.64	1071.50
892.95	1074.07
893.26	1078.99
893.57	1093.73
893.88	1092.09
894.18	1098.18
894.49	1097.48
894.80	1089.99
895.11	1079.69
895.42	1071.73
895.72	1067.75
896.03	1069.86
896.34	1072.67
896.65	1076.18
896.96	1086.94
897.26	1086.24
897.57	1083.20
897.88	1091.16
898.19	1087.65
898.49	1079.22
898.80	1081.33
899.11	1083.43
899.41	1076.65
899.72	1082.97
900.03	1092.33
900.34	1090.22
900.64	1086.01
900.95	1081.56
901.26	1078.75
901.56	1074.07
901.87	1076.88
902.18	1081.09
902.48	1082.73
902.79	1073.84
903.10	1060.96
903.40	1056.28
903.71	1052.77
904.02	1047.39
904.32	1048.09
904.63	1057.69
904.94	1058.39
905.24	1060.73
905.55	1066.82
905.85	1072.43
906.16	1074.54
906.47	1068.69
906.77	1071.97
907.08	1070.56
907.38	1076.65
907.69	1082.97
908.00	1085.31
908.30	1082.03
908.61	1080.86
908.91	1073.14
909.22	1072.67
909.52	1077.82
909.83	1079.22
910.14	1085.77
910.44	1094.67
910.75	1073.60
911.05	1074.77
911.36	1074.77
911.66	1065.18
911.97	1064.24
912.27	1080.86
912.58	1078.05
912.88	1082.73
913.19	1084.60
913.49	1070.56
913.80	1076.65
914.10	1083.67
914.41	1078.05
914.71	1078.28
915.01	1091.63
915.32	1084.14
915.62	1079.22
915.93	1080.86
916.23	1086.94
916.54	1086.24
916.84	1087.18
917.15	1080.39
917.45	1072.90
917.75	1071.97
918.06	1078.28
918.36	1082.97
918.67	1089.05
918.97	1089.29
919.27	1095.84
919.58	1087.88
919.88	1085.07
920.18	1087.41
920.49	1095.37
920.79	1095.60
921.10	1100.05
921.40	1099.82
921.70	1089.52
922.01	1088.58
922.31	1074.54
922.61	1071.03
922.92	1067.28
923.22	1080.39
923.52	1083.43
923.82	1089.29
924.13	1093.03
924.43	1094.67
924.73	1088.82
925.04	1090.46
925.34	1086.24
925.64	1083.20
925.94	1082.26
926.25	1082.26
926.55	1079.22
926.85	1090.69
927.15	1086.24
927.46	1088.12
927.76	1091.63
928.06	1095.14
928.36	1091.63
928.67	1098.18
928.97	1100.29
929.27	1102.39
929.57	1095.37
929.87	1087.65
930.18	1080.16
930.48	1078.75
930.78	1070.33
931.08	1071.26
931.38	1065.88
931.69	1066.58
931.99	1070.33
932.29	1074.77
932.59	1072.43
932.89	1081.09
933.19	1072.67
933.49	1062.60
933.80	1057.92
934.10	1057.92
934.40	1056.52
934.70	1069.16
935.00	1080.63
935.30	1081.33
935.60	1076.41
935.90	1073.37
936.20	1070.09
936.50	1060.73
936.81	1069.39
937.11	1081.33
937.41	1090.22
937.71	1091.16
938.01	1089.75
938.31	1075.71
938.61	1070.09
938.91	1059.33
939.21	1057.69
939.51	1056.28
939.81	1063.77
940.11	1065.65
940.41	1071.50
940.71	1075.48
941.01	1085.54
941.31	1086.01
941.61	1088.12
941.91	1091.63
942.21	1087.18
942.51	1087.18
942.81	1089.75
943.11	1082.26
943.41	1075.01
943.71	1081.33
944.01	1081.09
944.31	1076.88
944.61	1076.41
944.90	1073.60
945.20	1069.39
945.50	1063.31
945.80	1067.52
946.10	1069.86
946.40	1075.94
946.70	1080.39
947.00	1079.69
947.30	1078.28
947.60	1076.41
947.89	1074.54
948.19	1071.26
948.49	1071.73
948.79	1056.28
949.09	1061.90
949.39	1067.05
949.69	1068.45
949.98	1066.35
950.28	1086.24
950.58	1085.07
950.88	1081.56
951.18	1081.33
951.48	1094.67
951.77	1090.46
952.07	1092.09
952.37	1093.03
952.67	1086.01
952.97	1082.73
953.26	1087.18
953.56	1081.33
953.86	1081.33
954.16	1080.39
954.45	1070.80
954.75	1071.97
955.05	1069.16
955.35	1071.97
955.64	1075.71
955.94	1081.09
956.24	1080.63
956.54	1081.09
956.83	1085.31
957.13	1088.35
957.43	1086.24
957.72	1082.26
958.02	1093.03
958.32	1081.09
958.61	1084.14
958.91	1075.01
959.21	1079.92
959.50	1074.77
959.80	1080.16
960.10	1074.07
960.39	1083.90
960.69	1071.03
960.99	1074.31
961.28	1074.07
961.58	1078.52
961.87	1078.05
962.17	1090.46
962.47	1083.67
962.76	1080.63
963.06	1074.07
963.36	1068.22
963.65	1066.35
963.95	1069.62
964.24	1068.69
964.54	1075.94
964.83	1071.03
965.13	1064.94
965.42	1062.84
965.72	1064.48
966.02	1059.09
966.31	1076.41
966.61	1076.88
966.90	1082.97
967.20	1074.07
967.49	1082.97
967.79	1070.09
968.08	1067.75
968.38	1058.39
968.67	1062.14
968.97	1057.92
969.26	1064.24
969.56	1067.05
969.85	1078.05
970.15	1086.24
970.44	1086.24
970.74	1091.16
971.03	1090.22
971.32	1081.56
971.62	1078.05
971.91	1066.58
972.21	1058.39
972.50	1064.24
972.80	1061.67
973.09	1061.20
973.38	1075.71
973.68	1087.65
973.97	1082.03
974.27	1080.16
974.56	1088.58
974.85	1080.63
975.15	1071.73
975.44	1079.92
975.73	1080.16
976.03	1077.11
976.32	1082.97
976.61	1087.41
976.91	1078.28
977.20	1080.16
977.49	1067.75
977.79	1064.71
978.08	1057.92
978.37	1058.62
978.67	1062.14
978.96	1071.50
979.25	1058.39
979.55	1060.26
979.84	1058.62
980.13	1066.82
980.42	1068.69
980.72	1077.82
981.01	1079.46
981.30	1075.48
981.59	1071.26
981.89	1066.82
982.18	1076.88
982.47	1072.67
982.76	1081.09
983.06	1081.80
983.35	1080.86
983.64	1075.94
983.93	1093.03
984.22	1096.54
984.52	1094.90
984.81	1100.99
985.10	1100.29
985.39	1090.92
985.68	1077.82
985.97	1078.28
986.27	1084.60
986.56	1080.16
986.85	1078.99
987.14	1083.43
987.43	1073.84
987.72	1065.41
988.01	1073.84
988.31	1069.62
988.60	1074.07
988.89	1084.60
989.18	1084.37
989.47	1078.28
989.76	1082.26
990.05	1076.88
990.34	1078.05
990.63	1081.80
990.92	1082.03
991.21	1066.58
991.51	1069.86
991.80	1078.99
992.09	1074.54
992.38	1075.01
992.67	1094.20
992.96	1092.80
993.25	1090.69
993.54	1091.16
993.83	1093.97
994.12	1082.97
994.41	1088.58
994.70	1081.33
994.99	1085.07
995.28	1088.35
995.57	1089.99
995.86	1089.99
996.15	1092.56
996.44	1089.99
996.73	1082.26
997.02	1085.54
997.31	1085.54
997.59	1078.52
997.88	1072.90
998.17	1086.71
998.46	1083.90
998.75	1088.35
999.04	1091.16
999.33	1095.14
999.62	1079.46
999.91	1077.82
1000.20	1068.92
1000.49	1065.65
1000.77	1064.71
1001.06	1076.88
1001.35	1068.45
1001.64	1073.37
1001.93	1077.11
1002.22	1084.14
1002.51	1068.92
1002.79	1069.39
1003.08	1071.97
1003.37	1064.24
1003.66	1062.60
1003.95	1063.77
1004.23	1070.09
1004.52	1062.60
1004.81	1068.69
1005.10	1066.35
1005.39	1074.31
1005.67	1071.50
1005.96	1078.75
1006.25	1080.86
1006.54	1087.41
1006.83	1087.18
1007.11	1098.88
1007.40	1090.46
1007.69	1086.01
1007.97	1079.92
1008.26	1081.33
1008.55	1070.56
1008.84	1075.48
1009.12	1070.80
1009.41	1071.97
1009.70	1072.43
1009.98	1080.63
1010.27	1081.33
1010.56	1081.09
1010.85	1073.60
1011.13	1055.35
1011.42	1065.41
1011.71	1055.11
1011.99	1064.48
1012.28	1066.58
1012.56	1080.39
1012.85	1064.24
1013.14	1065.88
1013.42	1064.01
1013.71	1067.99
1014.00	1066.58
1014.28	1072.67
1014.57	1086.71
1014.85	1083.20
1015.14	1082.50
1015.43	1079.92
1015.71	1075.24
1016.00	1054.18
1016.28	1056.28
1016.57	1057.92
1016.85	1058.62
1017.14	1058.39
1017.43	1077.11
1017.71	1080.63
1018.00	1078.99
1018.28	1078.52
1018.57	1086.48
1018.85	1078.28
1019.14	1070.80
1019.42	1065.65
1019.71	1066.11
1019.99	1067.05
1020.28	1077.82
1020.56	1082.03
1020.85	1086.24
1021.13	1086.24
1021.42	1095.37
1021.70	1092.33
1021.99	1094.90
1022.27	1098.65
1022.55	1083.67
1022.84	1093.03
>>>>>End Processed Spectral Data<<<<<
