SpectraSuite Data File
++++++++++++++++++++++++++++++++++++
Date: Mon Aug 26 10:25:59 PDT 2019
User: corrico
Dark Spectrum Present: No
Reference Spectrum Present: No
Number of Sampled Component Spectra: 1
Spectrometers: USB2+H06089
Integration Time (usec): 10000 (USB2+H06089)
Spectra Averaged: 2 (USB2+H06089)
Boxcar Smoothing: 2 (USB2+H06089)
Correct for Electrical Dark: No (USB2+H06089)
Strobe/Lamp Enabled: No (USB2+H06089)
Correct for Detector Non-linearity: No (USB2+H06089)
Correct for Stray Light: No (USB2+H06089)
Number of Pixels in Processed Spectrum: 2048
>>>>>Begin Processed Spectral Data<<<<<
339.70	1039.20
340.07	1039.20
340.45	1006.90
340.82	983.96
341.19	960.32
341.57	931.77
341.94	917.96
342.31	908.13
342.69	909.06
343.06	898.53
343.43	902.04
343.81	901.11
344.18	902.74
344.55	897.36
344.93	906.72
345.30	911.17
345.67	913.51
346.04	922.64
346.42	937.62
346.79	948.62
347.16	952.13
347.54	960.09
347.91	967.11
348.28	972.49
348.65	982.56
349.03	1000.81
349.40	1005.73
349.77	1014.62
350.14	1028.43
350.52	1027.96
350.89	1024.92
351.26	1032.41
351.63	1042.47
352.01	1035.45
352.38	1043.18
352.75	1043.41
353.12	1051.37
353.50	1052.77
353.87	1064.24
354.24	1070.33
354.61	1079.92
354.98	1088.82
355.36	1090.22
355.73	1084.60
356.10	1078.05
356.47	1081.09
356.84	1086.24
357.22	1084.60
357.59	1092.80
357.96	1104.73
358.33	1106.37
358.70	1097.71
359.08	1104.97
359.45	1103.33
359.82	1099.58
360.19	1095.60
360.56	1098.88
360.94	1097.48
361.31	1089.29
361.68	1084.37
362.05	1075.48
362.42	1067.28
362.79	1073.14
363.16	1073.37
363.54	1076.88
363.91	1085.77
364.28	1091.39
364.65	1077.58
365.02	1076.88
365.39	1071.50
365.76	1074.77
366.14	1067.75
366.51	1065.88
366.88	1071.50
367.25	1074.54
367.62	1067.28
367.99	1067.28
368.36	1068.22
368.73	1070.56
369.10	1075.24
369.48	1084.37
369.85	1086.01
370.22	1086.71
370.59	1073.14
370.96	1080.63
371.33	1078.52
371.70	1077.82
372.07	1086.94
372.44	1092.33
372.81	1074.07
373.18	1062.60
373.55	1062.60
373.93	1056.99
374.30	1061.43
374.67	1063.07
375.04	1069.39
375.41	1072.43
375.78	1067.05
376.15	1068.69
376.52	1074.31
376.89	1072.43
377.26	1076.65
377.63	1079.46
378.00	1078.75
378.37	1072.67
378.74	1081.33
379.11	1074.31
379.48	1079.92
379.85	1083.67
380.22	1088.82
380.59	1082.50
380.96	1078.52
381.33	1075.71
381.70	1077.35
382.07	1077.82
382.44	1075.01
382.81	1082.26
383.18	1079.22
383.55	1065.18
383.92	1057.92
384.29	1058.39
384.66	1063.31
385.03	1063.31
385.40	1061.43
385.77	1067.05
386.14	1064.24
386.51	1054.18
386.88	1059.33
387.25	1068.92
387.62	1064.01
387.99	1062.60
388.36	1070.56
388.73	1065.41
389.10	1055.58
389.46	1059.09
389.83	1069.39
390.20	1074.77
390.57	1072.43
390.94	1085.31
391.31	1090.22
391.68	1083.43
392.05	1076.18
392.42	1074.54
392.79	1070.80
393.16	1057.92
393.53	1052.77
393.89	1058.86
394.26	1069.39
394.63	1069.62
395.00	1082.26
395.37	1089.99
395.74	1086.48
396.11	1078.05
396.48	1078.52
396.84	1077.11
397.21	1072.90
397.58	1076.18
397.95	1076.65
398.32	1083.20
398.69	1083.20
399.06	1086.24
399.42	1081.33
399.79	1086.48
400.16	1070.80
400.53	1070.33
400.90	1070.56
401.27	1074.54
401.64	1070.09
402.00	1087.88
402.37	1091.86
402.74	1094.43
403.11	1089.75
403.48	1092.09
403.84	1081.09
404.21	1075.24
404.58	1066.82
404.95	1057.92
405.32	1058.86
405.68	1053.24
406.05	1048.09
406.42	1056.75
406.79	1064.48
407.16	1065.18
407.52	1076.65
407.89	1085.77
408.26	1089.75
408.63	1080.86
408.99	1075.94
409.36	1074.31
409.73	1073.14
410.10	1070.80
410.47	1079.69
410.83	1075.94
411.20	1069.62
411.57	1061.90
411.94	1058.39
412.30	1054.18
412.67	1050.43
413.04	1056.05
413.40	1062.37
413.77	1059.56
414.14	1069.62
414.51	1069.16
414.87	1067.75
415.24	1076.88
415.61	1084.14
415.97	1072.20
416.34	1087.65
416.71	1090.22
417.08	1079.22
417.44	1070.80
417.81	1075.94
418.18	1071.50
418.54	1065.88
418.91	1068.22
419.28	1066.11
419.64	1059.79
420.01	1066.35
420.38	1056.99
420.74	1056.05
421.11	1065.88
421.48	1075.48
421.84	1073.14
422.21	1082.26
422.58	1079.69
422.94	1079.22
423.31	1075.71
423.68	1067.52
424.04	1077.58
424.41	1085.31
424.77	1086.94
425.14	1086.24
425.51	1087.65
425.87	1081.56
426.24	1081.33
426.61	1073.37
426.97	1067.99
427.34	1068.45
427.70	1069.62
428.07	1072.43
428.44	1070.56
428.80	1075.94
429.17	1075.24
429.53	1068.69
429.90	1066.82
430.27	1064.48
430.63	1063.07
431.00	1061.43
431.36	1067.75
431.73	1063.77
432.09	1074.07
432.46	1084.84
432.83	1089.05
433.19	1092.09
433.56	1091.16
433.92	1083.90
434.29	1079.22
434.65	1081.33
435.02	1076.18
435.38	1081.33
435.75	1082.97
436.11	1082.97
436.48	1085.31
436.84	1088.12
437.21	1082.03
437.57	1082.73
437.94	1082.73
438.30	1079.46
438.67	1065.88
439.03	1070.33
439.40	1079.46
439.76	1071.26
440.13	1069.16
440.49	1083.90
440.86	1071.73
441.22	1063.54
441.59	1075.48
441.95	1071.26
442.32	1066.82
442.68	1069.62
443.05	1075.71
443.41	1071.50
443.78	1081.56
444.14	1086.48
444.51	1099.12
444.87	1092.80
445.24	1088.12
445.60	1087.18
445.96	1085.07
446.33	1081.80
446.69	1091.63
447.06	1102.16
447.42	1105.90
447.79	1098.65
448.15	1085.54
448.51	1072.90
448.88	1059.56
449.24	1056.05
449.61	1060.73
449.97	1068.92
450.33	1074.31
450.70	1077.82
451.06	1077.82
451.43	1086.94
451.79	1073.84
452.15	1075.94
452.52	1074.07
452.88	1066.58
453.24	1070.33
453.61	1093.97
453.97	1090.92
454.34	1100.75
454.70	1107.07
455.06	1097.48
455.43	1085.77
455.79	1082.03
456.15	1076.18
456.52	1073.60
456.88	1065.41
457.24	1071.03
457.61	1077.58
457.97	1067.52
458.33	1068.22
458.70	1076.88
459.06	1079.69
459.42	1085.77
459.79	1086.24
460.15	1083.90
460.51	1085.31
460.88	1079.22
461.24	1080.16
461.60	1094.90
461.96	1100.75
462.33	1096.07
462.69	1102.16
463.05	1092.80
463.42	1089.99
463.78	1087.18
464.14	1082.26
464.50	1074.31
464.87	1069.62
465.23	1068.22
465.59	1069.39
465.95	1074.07
466.32	1082.26
466.68	1088.12
467.04	1077.35
467.40	1070.56
467.77	1064.24
468.13	1050.67
468.49	1049.03
468.85	1051.84
469.22	1059.09
469.58	1073.84
469.94	1079.92
470.30	1087.88
470.66	1098.88
471.03	1096.78
471.39	1081.33
471.75	1082.73
472.11	1069.39
472.47	1063.54
472.84	1066.58
473.20	1068.45
473.56	1064.71
473.92	1067.52
474.28	1067.52
474.65	1067.52
475.01	1066.82
475.37	1068.92
475.73	1080.39
476.09	1076.88
476.45	1069.16
476.81	1079.22
477.18	1077.58
477.54	1084.14
477.90	1091.63
478.26	1088.12
478.62	1084.84
478.98	1082.50
479.34	1074.31
479.71	1070.80
480.07	1083.43
480.43	1083.90
480.79	1084.84
481.15	1070.56
481.51	1076.41
481.87	1071.73
482.23	1069.86
482.59	1081.33
482.96	1090.46
483.32	1079.46
483.68	1076.88
484.04	1076.65
484.40	1073.84
484.76	1071.26
485.12	1075.01
485.48	1086.94
485.84	1093.73
486.20	1095.60
486.56	1096.54
486.92	1097.71
487.28	1081.80
487.64	1078.52
488.00	1077.58
488.37	1077.58
488.73	1082.97
489.09	1093.97
489.45	1082.50
489.81	1078.28
490.17	1076.18
490.53	1081.33
490.89	1083.20
491.25	1095.37
491.61	1095.37
491.97	1088.12
492.33	1075.48
492.69	1070.09
493.05	1057.45
493.41	1051.84
493.77	1074.07
494.13	1074.07
494.49	1070.56
494.85	1085.31
495.21	1093.50
495.57	1070.80
495.93	1076.65
496.29	1080.86
496.64	1073.84
497.00	1072.43
497.36	1085.54
497.72	1093.03
498.08	1092.09
498.44	1094.20
498.80	1091.16
499.16	1091.39
499.52	1084.37
499.88	1073.60
500.24	1077.82
500.60	1079.22
500.96	1072.90
501.32	1065.88
501.68	1080.39
502.03	1072.43
502.39	1070.80
502.75	1076.41
503.11	1082.50
503.47	1084.60
503.83	1088.12
504.19	1092.56
504.55	1093.26
504.91	1091.86
505.26	1088.12
505.62	1085.07
505.98	1082.97
506.34	1087.41
506.70	1077.58
507.06	1069.62
507.42	1066.11
507.78	1066.58
508.13	1057.69
508.49	1075.48
508.85	1082.03
509.21	1094.43
509.57	1097.95
509.93	1106.37
510.28	1101.22
510.64	1107.54
511.00	1101.46
511.36	1100.05
511.72	1096.07
512.07	1094.20
512.43	1081.80
512.79	1076.18
513.15	1078.99
513.51	1072.90
513.86	1064.71
514.22	1071.97
514.58	1081.09
514.94	1087.65
515.30	1097.48
515.65	1101.92
516.01	1100.52
516.37	1103.56
516.73	1091.16
517.08	1088.58
517.44	1080.39
517.80	1082.26
518.16	1083.67
518.51	1084.60
518.87	1074.77
519.23	1083.67
519.59	1078.28
519.94	1077.58
520.30	1074.31
520.66	1080.63
521.01	1082.73
521.37	1086.24
521.73	1084.84
522.09	1089.05
522.44	1090.69
522.80	1099.82
523.16	1101.69
523.51	1100.29
523.87	1106.14
524.23	1103.33
524.58	1099.82
524.94	1100.75
525.30	1100.75
525.65	1103.80
526.01	1100.05
526.37	1085.54
526.72	1083.20
527.08	1084.84
527.44	1083.67
527.79	1091.39
528.15	1106.61
528.51	1117.14
528.86	1110.58
529.22	1111.29
529.58	1108.48
529.93	1107.78
530.29	1090.92
530.65	1092.80
531.00	1081.33
531.36	1092.33
531.71	1089.75
532.07	1100.05
532.43	1100.52
532.78	1095.84
533.14	1081.09
533.49	1073.37
533.85	1068.45
534.21	1064.48
534.56	1073.84
534.92	1078.28
535.27	1086.01
535.63	1081.09
535.98	1088.58
536.34	1086.71
536.69	1082.97
537.05	1081.80
537.41	1084.84
537.76	1083.20
538.12	1079.46
538.47	1087.88
538.83	1096.31
539.18	1100.29
539.54	1096.31
539.89	1091.39
540.25	1077.11
540.60	1065.41
540.96	1065.88
541.31	1069.16
541.67	1078.99
542.02	1096.31
542.38	1102.86
542.73	1102.39
543.09	1103.80
543.44	1100.29
543.80	1089.99
544.15	1091.63
544.51	1089.29
544.86	1096.07
545.22	1101.46
545.57	1102.39
545.93	1097.48
546.28	1093.73
546.64	1075.71
546.99	1072.67
547.35	1074.07
547.70	1075.01
548.05	1076.88
548.41	1073.60
548.76	1069.16
549.12	1071.50
549.47	1071.50
549.83	1071.73
550.18	1077.35
550.53	1081.80
550.89	1083.90
551.24	1087.65
551.60	1087.65
551.95	1095.37
552.30	1095.60
552.66	1089.75
553.01	1089.99
553.37	1104.50
553.72	1104.50
554.07	1112.69
554.43	1105.67
554.78	1099.12
555.13	1084.60
555.49	1090.22
555.84	1082.26
556.19	1096.07
556.55	1101.46
556.90	1096.31
557.26	1094.20
557.61	1089.99
557.96	1082.97
558.32	1068.22
558.67	1068.22
559.02	1062.60
559.37	1062.84
559.73	1069.39
560.08	1084.60
560.43	1083.67
560.79	1089.05
561.14	1091.86
561.49	1089.99
561.85	1092.56
562.20	1101.46
562.55	1081.56
562.90	1073.14
563.26	1073.14
563.61	1074.54
563.96	1069.39
564.32	1087.18
564.67	1100.29
565.02	1101.22
565.37	1093.50
565.73	1093.73
566.08	1097.71
566.43	1094.20
566.78	1082.73
567.14	1078.99
567.49	1084.60
567.84	1074.77
568.19	1071.03
568.54	1076.41
568.90	1073.84
569.25	1071.03
569.60	1078.05
569.95	1076.41
570.31	1077.11
570.66	1082.26
571.01	1082.03
571.36	1080.16
571.71	1082.73
572.06	1092.09
572.42	1089.99
572.77	1088.58
573.12	1088.12
573.47	1087.41
573.82	1078.05
574.18	1082.97
574.53	1082.73
574.88	1080.16
575.23	1081.33
575.58	1077.82
575.93	1077.11
576.28	1086.24
576.64	1080.16
576.99	1075.01
577.34	1083.20
577.69	1084.14
578.04	1086.71
578.39	1090.22
578.74	1089.75
579.09	1088.82
579.44	1084.60
579.80	1074.77
580.15	1079.46
580.50	1081.33
580.85	1078.99
581.20	1077.11
581.55	1077.11
581.90	1078.99
582.25	1082.03
582.60	1080.16
582.95	1090.46
583.30	1089.99
583.65	1080.39
584.00	1083.67
584.35	1080.86
584.71	1072.43
585.06	1060.50
585.41	1071.26
585.76	1080.63
586.11	1085.77
586.46	1087.65
586.81	1098.41
587.16	1083.67
587.51	1069.39
587.86	1068.92
588.21	1067.75
588.56	1064.94
588.91	1074.07
589.26	1076.41
589.61	1079.46
589.96	1077.35
590.31	1087.88
590.66	1089.05
591.01	1094.67
591.36	1094.90
591.71	1094.90
592.06	1089.05
592.41	1098.41
592.76	1087.88
593.10	1084.60
593.45	1085.77
593.80	1086.01
594.15	1072.67
594.50	1089.75
594.85	1089.75
595.20	1100.52
595.55	1098.65
595.90	1104.97
596.25	1102.86
596.60	1109.65
596.95	1097.01
597.30	1104.26
597.64	1163.25
597.99	1155.05
598.34	1144.99
598.69	1148.73
599.04	1134.69
599.39	1070.80
599.74	1057.45
600.09	1056.52
600.44	1053.71
600.78	1058.39
601.13	1061.90
601.48	1077.35
601.83	1071.50
602.18	1071.26
602.53	1075.94
602.88	1070.09
603.22	1061.20
603.57	1073.84
603.92	1069.39
604.27	1060.50
604.62	1055.58
604.97	1060.03
605.31	1062.37
605.66	1060.50
606.01	1084.84
606.36	1090.69
606.71	1100.29
607.05	1096.78
607.40	1103.09
607.75	1076.65
608.10	1077.11
608.44	1064.24
608.79	1068.69
609.14	1058.86
609.49	1065.18
609.84	1069.62
610.18	1071.03
610.53	1058.39
610.88	1071.03
611.23	1079.69
611.57	1077.58
611.92	1084.37
612.27	1093.26
612.62	1089.99
612.96	1087.65
613.31	1096.07
613.66	1091.16
614.00	1084.84
614.35	1084.84
614.70	1080.86
615.05	1075.48
615.39	1064.94
615.74	1068.69
616.09	1061.90
616.43	1056.05
616.78	1053.01
617.13	1068.92
617.47	1070.56
617.82	1076.65
618.17	1086.01
618.51	1081.09
618.86	1072.67
619.21	1067.28
619.55	1075.24
619.90	1071.26
620.25	1080.86
620.59	1083.90
620.94	1086.48
621.29	1076.18
621.63	1077.58
621.98	1070.80
622.32	1077.35
622.67	1084.60
623.02	1089.29
623.36	1098.18
623.71	1099.35
624.05	1087.65
624.40	1074.54
624.75	1076.18
625.09	1062.84
625.44	1071.03
625.78	1075.24
626.13	1088.82
626.48	1085.54
626.82	1097.95
627.17	1092.80
627.51	1102.63
627.86	1099.35
628.20	1100.52
628.55	1096.07
628.89	1098.18
629.24	1094.20
629.58	1090.69
629.93	1093.73
630.28	1085.31
630.62	1086.94
630.97	1084.84
631.31	1083.20
631.66	1075.94
632.00	1083.67
632.35	1081.33
632.69	1082.03
633.04	1081.09
633.38	1088.35
633.73	1092.33
634.07	1087.88
634.42	1084.84
634.76	1084.84
635.11	1088.82
635.45	1080.63
635.79	1076.65
636.14	1069.86
636.48	1076.41
636.83	1070.56
637.17	1077.58
637.52	1085.77
637.86	1092.09
638.21	1090.69
638.55	1095.60
638.89	1087.88
639.24	1078.99
639.58	1083.67
639.93	1085.07
640.27	1080.16
640.61	1072.43
640.96	1080.86
641.30	1078.28
641.65	1076.18
641.99	1078.75
642.33	1088.35
642.68	1089.05
643.02	1086.01
643.37	1082.73
643.71	1078.05
644.05	1085.54
644.40	1089.99
644.74	1093.03
645.08	1091.16
645.43	1092.56
645.77	1083.43
646.11	1079.46
646.46	1076.65
646.80	1076.41
647.14	1082.26
647.49	1085.54
647.83	1076.18
648.17	1083.20
648.52	1101.46
648.86	1088.12
649.20	1093.73
649.55	1099.58
649.89	1086.01
650.23	1066.82
650.57	1078.05
650.92	1067.05
651.26	1067.28
651.60	1081.09
651.95	1087.88
652.29	1089.05
652.63	1089.52
652.97	1088.35
653.32	1075.94
653.66	1066.35
654.00	1054.41
654.34	1057.22
654.69	1054.18
655.03	1058.16
655.37	1065.41
655.71	1072.67
656.05	1077.82
656.40	1086.94
656.74	1099.58
657.08	1099.12
657.42	1104.26
657.76	1096.07
658.11	1090.92
658.45	1077.11
658.79	1072.90
659.13	1071.26
659.47	1074.07
659.82	1072.67
660.16	1076.18
660.50	1087.65
660.84	1091.63
661.18	1089.29
661.52	1092.56
661.87	1095.60
662.21	1093.03
662.55	1086.94
662.89	1082.73
663.23	1079.92
663.57	1077.11
663.91	1075.71
664.25	1073.84
664.60	1088.12
664.94	1087.65
665.28	1093.26
665.62	1091.39
665.96	1097.01
666.30	1102.63
666.64	1102.63
666.98	1100.99
667.32	1095.37
667.66	1083.43
668.01	1080.63
668.35	1082.26
668.69	1084.84
669.03	1089.29
669.37	1091.63
669.71	1084.60
670.05	1091.39
670.39	1086.01
670.73	1087.65
671.07	1084.84
671.41	1082.03
671.75	1074.07
672.09	1071.73
672.43	1071.50
672.77	1075.71
673.11	1077.82
673.45	1074.07
673.79	1067.99
674.13	1065.65
674.47	1072.90
674.81	1081.56
675.15	1089.75
675.49	1093.73
675.83	1097.01
676.17	1095.37
676.51	1082.97
676.85	1084.60
677.19	1089.29
677.53	1087.88
677.87	1085.77
678.21	1088.82
678.55	1082.97
678.89	1074.31
679.23	1075.71
679.57	1067.99
679.90	1071.03
680.24	1072.20
680.58	1082.97
680.92	1087.41
681.26	1089.05
681.60	1085.54
681.94	1083.20
682.28	1078.99
682.62	1078.05
682.96	1087.65
683.29	1087.41
683.63	1094.67
683.97	1097.95
684.31	1087.18
684.65	1085.77
684.99	1088.58
685.33	1077.82
685.67	1071.73
686.00	1085.54
686.34	1085.77
686.68	1088.58
687.02	1088.58
687.36	1083.90
687.70	1081.09
688.03	1082.26
688.37	1085.54
688.71	1097.48
689.05	1111.99
689.39	1100.75
689.72	1094.20
690.06	1082.26
690.40	1079.46
690.74	1073.14
691.08	1080.39
691.41	1086.71
691.75	1081.33
692.09	1076.65
692.43	1072.43
692.76	1070.56
693.10	1064.24
693.44	1067.52
693.78	1064.24
694.11	1067.75
694.45	1071.97
694.79	1074.31
695.13	1079.22
695.46	1082.50
695.80	1075.01
696.14	1076.65
696.48	1082.26
696.81	1082.97
697.15	1078.05
697.49	1076.65
697.82	1064.24
698.16	1048.56
698.50	1041.07
698.83	1043.18
699.17	1053.48
699.51	1057.69
699.84	1071.97
700.18	1079.22
700.52	1086.94
700.85	1086.48
701.19	1081.56
701.53	1077.82
701.86	1081.80
702.20	1079.46
702.54	1071.73
702.87	1079.69
703.21	1088.35
703.55	1086.48
703.88	1088.82
704.22	1095.14
704.55	1086.94
704.89	1080.63
705.23	1075.48
705.56	1078.05
705.90	1079.92
706.23	1089.29
706.57	1085.07
706.91	1093.97
707.24	1084.84
707.58	1086.71
707.91	1085.31
708.25	1088.82
708.58	1079.22
708.92	1077.82
709.26	1078.05
709.59	1075.94
709.93	1073.84
710.26	1072.90
710.60	1082.26
710.93	1074.77
711.27	1071.26
711.60	1077.35
711.94	1078.05
712.27	1083.67
712.61	1093.50
712.94	1097.48
713.28	1099.12
713.61	1098.18
713.95	1091.63
714.28	1087.18
714.62	1082.73
714.95	1071.73
715.29	1078.52
715.62	1075.01
715.96	1077.58
716.29	1088.82
716.63	1097.95
716.96	1098.65
717.29	1097.01
717.63	1090.69
717.96	1084.60
718.30	1084.14
718.63	1089.05
718.97	1097.01
719.30	1100.75
719.63	1098.41
719.97	1097.71
720.30	1093.73
720.64	1086.94
720.97	1085.07
721.30	1084.84
721.64	1075.01
721.97	1073.84
722.31	1061.67
722.64	1059.09
722.97	1053.94
723.31	1060.96
723.64	1059.33
723.97	1069.39
724.31	1069.39
724.64	1076.41
724.98	1070.80
725.31	1075.48
725.64	1072.67
725.98	1075.24
726.31	1083.43
726.64	1089.29
726.97	1085.77
727.31	1088.58
727.64	1090.69
727.97	1079.69
728.31	1081.80
728.64	1082.26
728.97	1092.56
729.31	1088.58
729.64	1093.03
729.97	1094.43
730.30	1089.52
730.64	1083.67
730.97	1088.82
731.30	1083.90
731.63	1078.75
731.97	1076.65
732.30	1074.31
732.63	1069.86
732.96	1076.88
733.30	1071.97
733.63	1077.35
733.96	1084.14
734.29	1084.14
734.63	1075.71
734.96	1084.60
735.29	1091.86
735.62	1085.31
735.95	1085.07
736.29	1096.31
736.62	1097.01
736.95	1096.54
737.28	1094.67
737.61	1098.88
737.94	1096.31
738.28	1082.26
738.61	1067.28
738.94	1073.60
739.27	1071.26
739.60	1067.52
739.93	1078.52
740.27	1082.26
740.60	1077.82
740.93	1077.35
741.26	1073.84
741.59	1069.16
741.92	1082.50
742.25	1091.39
742.58	1086.71
742.91	1098.65
743.25	1094.90
743.58	1083.20
743.91	1074.77
744.24	1082.26
744.57	1078.99
744.90	1085.54
745.23	1082.73
745.56	1086.48
745.89	1086.24
746.22	1071.97
746.55	1072.67
746.88	1070.33
747.21	1068.92
747.54	1064.48
747.87	1077.11
748.20	1077.11
748.53	1074.77
748.87	1071.26
749.20	1071.50
749.53	1069.62
749.86	1060.03
750.19	1064.48
750.52	1060.50
750.85	1060.73
751.18	1057.92
751.51	1069.16
751.84	1063.77
752.16	1061.43
752.49	1059.79
752.82	1054.41
753.15	1047.16
753.48	1060.73
753.81	1068.69
754.14	1071.03
754.47	1075.94
754.80	1082.50
755.13	1076.41
755.46	1080.16
755.79	1079.69
756.12	1077.35
756.45	1068.69
756.78	1069.62
757.11	1071.26
757.43	1068.22
757.76	1074.31
758.09	1081.09
758.42	1082.03
758.75	1077.82
759.08	1083.90
759.41	1086.24
759.74	1082.97
760.07	1078.28
760.39	1080.86
760.72	1080.63
761.05	1074.54
761.38	1078.52
761.71	1083.20
762.04	1079.69
762.36	1076.65
762.69	1075.01
763.02	1082.03
763.35	1092.09
763.68	1090.92
764.01	1095.84
764.33	1100.29
764.66	1092.33
764.99	1090.46
765.32	1089.99
765.65	1089.75
765.97	1091.86
766.30	1095.60
766.63	1093.97
766.96	1092.33
767.28	1086.01
767.61	1085.31
767.94	1084.60
768.27	1072.90
768.59	1076.41
768.92	1082.26
769.25	1077.82
769.58	1067.75
769.90	1065.88
770.23	1063.31
770.56	1060.03
770.89	1059.79
771.21	1072.67
771.54	1075.94
771.87	1067.99
772.19	1072.90
772.52	1077.82
772.85	1067.52
773.17	1075.94
773.50	1090.22
773.83	1080.39
774.15	1081.09
774.48	1078.52
774.81	1071.26
775.13	1067.52
775.46	1076.65
775.79	1078.28
776.11	1079.69
776.44	1088.35
776.77	1095.37
777.09	1091.39
777.42	1083.90
777.74	1088.35
778.07	1085.54
778.40	1076.41
778.72	1083.20
779.05	1081.56
779.37	1081.56
779.70	1078.52
780.03	1080.39
780.35	1076.18
780.68	1081.33
781.00	1080.63
781.33	1078.52
781.65	1068.92
781.98	1065.18
782.31	1067.75
782.63	1077.58
782.96	1083.90
783.28	1094.67
783.61	1098.18
783.93	1094.20
784.26	1093.03
784.58	1085.54
784.91	1080.86
785.23	1083.90
785.56	1086.24
785.88	1084.60
786.21	1089.05
786.53	1091.86
786.86	1083.43
787.18	1092.56
787.51	1091.63
787.83	1084.60
788.16	1087.18
788.48	1095.84
788.81	1083.20
789.13	1075.24
789.46	1085.07
789.78	1082.26
790.10	1076.88
790.43	1079.69
790.75	1075.94
791.08	1071.97
791.40	1077.82
791.73	1081.33
792.05	1082.97
792.37	1089.05
792.70	1086.24
793.02	1076.41
793.35	1076.65
793.67	1067.52
793.99	1070.56
794.32	1073.14
794.64	1075.94
794.96	1075.01
795.29	1082.03
795.61	1077.35
795.93	1080.63
796.26	1071.03
796.58	1064.94
796.91	1066.35
797.23	1073.60
797.55	1078.99
797.87	1084.84
798.20	1092.09
798.52	1093.73
798.84	1091.63
799.17	1081.80
799.49	1082.26
799.81	1078.75
800.14	1076.18
800.46	1074.31
800.78	1077.82
801.10	1086.24
801.43	1083.67
801.75	1087.18
802.07	1086.94
802.40	1087.41
802.72	1081.09
803.04	1081.09
803.36	1075.24
803.69	1075.94
804.01	1078.05
804.33	1080.86
804.65	1078.52
804.97	1083.20
805.30	1087.88
805.62	1086.01
805.94	1085.07
806.26	1099.12
806.58	1096.07
806.91	1089.75
807.23	1085.77
807.55	1079.22
807.87	1072.43
808.19	1074.07
808.52	1076.41
808.84	1073.14
809.16	1077.35
809.48	1071.26
809.80	1069.86
810.12	1066.35
810.44	1076.41
810.77	1082.50
811.09	1091.63
811.41	1096.31
811.73	1100.29
812.05	1099.35
812.37	1098.88
812.69	1096.78
813.01	1093.03
813.33	1092.80
813.66	1082.26
813.98	1086.24
814.30	1076.18
814.62	1078.28
814.94	1078.28
815.26	1083.67
815.58	1074.07
815.90	1088.35
816.22	1092.80
816.54	1085.77
816.86	1091.63
817.18	1091.63
817.50	1080.63
817.82	1079.46
818.14	1091.63
818.46	1093.97
818.78	1094.43
819.10	1096.07
819.42	1086.94
819.74	1087.88
820.06	1081.56
820.38	1086.01
820.70	1085.07
821.02	1082.03
821.34	1069.62
821.66	1074.31
821.98	1072.43
822.30	1069.62
822.62	1077.11
822.94	1074.54
823.26	1060.26
823.58	1054.65
823.90	1058.62
824.22	1058.39
824.54	1066.35
824.86	1077.82
825.18	1087.88
825.50	1091.39
825.81	1086.71
826.13	1092.80
826.45	1088.58
826.77	1083.67
827.09	1086.01
827.41	1095.14
827.73	1093.73
828.05	1098.65
828.36	1086.71
828.68	1082.26
829.00	1074.77
829.32	1064.94
829.64	1056.75
829.96	1054.18
830.28	1056.52
830.59	1063.77
830.91	1069.39
831.23	1083.20
831.55	1094.90
831.87	1094.43
832.19	1077.82
832.50	1076.65
832.82	1069.62
833.14	1063.54
833.46	1058.39
833.78	1076.18
834.09	1077.82
834.41	1081.80
834.73	1076.65
835.05	1076.65
835.36	1068.92
835.68	1060.03
836.00	1056.05
836.32	1060.96
836.63	1062.84
836.95	1065.65
837.27	1077.35
837.59	1080.16
837.90	1085.77
838.22	1078.99
838.54	1074.31
838.85	1072.20
839.17	1068.92
839.49	1071.73
839.80	1090.69
840.12	1097.24
840.44	1100.05
840.76	1098.18
841.07	1094.67
841.39	1078.05
841.71	1073.37
842.02	1061.43
842.34	1066.11
842.65	1067.99
842.97	1069.62
843.29	1067.28
843.60	1070.80
843.92	1057.22
844.24	1062.84
844.55	1068.69
844.87	1072.67
845.18	1082.73
845.50	1092.80
845.82	1098.18
846.13	1087.65
846.45	1089.05
846.76	1081.56
847.08	1085.77
847.40	1072.90
847.71	1089.75
848.03	1085.54
848.34	1082.03
848.66	1076.88
848.97	1088.58
849.29	1078.52
849.60	1073.60
849.92	1075.24
850.24	1075.94
850.55	1064.94
850.87	1066.58
851.18	1065.65
851.50	1058.86
851.81	1055.11
852.13	1064.71
852.44	1066.58
852.76	1069.39
853.07	1078.75
853.39	1084.14
853.70	1074.31
854.01	1070.33
854.33	1083.90
854.64	1088.12
854.96	1082.97
855.27	1096.31
855.59	1100.29
855.90	1095.84
856.22	1093.50
856.53	1097.48
856.84	1097.01
857.16	1092.33
857.47	1092.09
857.79	1095.60
858.10	1098.88
858.41	1086.24
858.73	1094.67
859.04	1086.94
859.36	1081.33
859.67	1081.80
859.98	1088.58
860.30	1078.99
860.61	1075.48
860.92	1074.77
861.24	1067.75
861.55	1067.75
861.87	1075.24
862.18	1073.60
862.49	1077.35
862.81	1084.37
863.12	1081.80
863.43	1070.56
863.74	1084.14
864.06	1082.26
864.37	1068.22
864.68	1071.26
865.00	1084.84
865.31	1080.16
865.62	1077.11
865.94	1098.88
866.25	1095.84
866.56	1086.24
866.87	1080.39
867.19	1088.58
867.50	1083.90
867.81	1076.65
868.12	1078.75
868.44	1081.56
868.75	1067.75
869.06	1060.96
869.37	1071.26
869.68	1082.50
870.00	1080.86
870.31	1092.80
870.62	1093.73
870.93	1091.39
871.24	1079.22
871.56	1087.88
871.87	1088.58
872.18	1085.31
872.49	1084.14
872.80	1085.07
873.12	1079.46
873.43	1079.92
873.74	1089.52
874.05	1092.09
874.36	1096.54
874.67	1098.88
874.98	1101.69
875.29	1089.99
875.61	1074.77
875.92	1078.52
876.23	1076.65
876.54	1071.97
876.85	1083.20
877.16	1090.69
877.47	1087.18
877.78	1099.82
878.09	1098.41
878.40	1090.22
878.72	1101.92
879.03	1109.65
879.34	1107.31
879.65	1100.99
879.96	1106.37
880.27	1104.97
880.58	1096.31
880.89	1085.31
881.20	1086.48
881.51	1080.39
881.82	1082.97
882.13	1082.50
882.44	1083.90
882.75	1083.90
883.06	1082.50
883.37	1070.33
883.68	1064.71
883.99	1062.60
884.30	1075.94
884.61	1086.94
884.92	1084.37
885.23	1091.39
885.54	1090.69
885.85	1083.67
886.16	1078.99
886.47	1095.60
886.78	1093.50
887.08	1090.92
887.39	1091.39
887.70	1083.67
888.01	1077.35
888.32	1079.46
888.63	1088.58
888.94	1084.84
889.25	1086.94
889.56	1072.90
889.87	1074.31
890.17	1072.43
890.48	1066.35
890.79	1071.26
891.10	1074.07
891.41	1074.77
891.72	1078.28
892.03	1086.94
892.34	1094.20
892.64	1096.78
892.95	1098.41
893.26	1091.39
893.57	1082.97
893.88	1077.11
894.18	1079.92
894.49	1076.41
894.80	1074.54
895.11	1089.05
895.42	1084.84
895.72	1082.97
896.03	1075.71
896.34	1076.18
896.65	1067.99
896.96	1068.22
897.26	1073.14
897.57	1072.67
897.88	1077.58
898.19	1083.20
898.49	1078.99
898.80	1075.71
899.11	1084.60
899.41	1081.56
899.72	1075.48
900.03	1071.97
900.34	1073.84
900.64	1067.99
900.95	1065.65
901.26	1065.18
901.56	1064.01
901.87	1066.58
902.18	1070.09
902.48	1071.50
902.79	1069.62
903.10	1072.67
903.40	1061.90
903.71	1057.45
904.02	1063.77
904.32	1063.54
904.63	1072.67
904.94	1089.05
905.24	1096.07
905.55	1093.73
905.85	1093.73
906.16	1097.71
906.47	1089.75
906.77	1080.63
907.08	1074.54
907.38	1077.82
907.69	1072.20
908.00	1067.52
908.30	1071.73
908.61	1075.24
908.91	1074.77
909.22	1081.09
909.52	1083.20
909.83	1093.73
910.14	1093.50
910.44	1090.92
910.75	1080.39
911.05	1078.99
911.36	1066.35
911.66	1070.56
911.97	1068.22
912.27	1078.28
912.58	1082.73
912.88	1089.29
913.19	1084.60
913.49	1082.50
913.80	1079.92
914.10	1086.48
914.41	1077.82
914.71	1086.01
915.01	1089.75
915.32	1085.07
915.62	1080.86
915.93	1084.60
916.23	1083.20
916.54	1082.97
916.84	1083.20
917.15	1078.99
917.45	1071.50
917.75	1073.37
918.06	1069.62
918.36	1076.88
918.67	1081.33
918.97	1094.90
919.27	1090.22
919.58	1091.39
919.88	1075.24
920.18	1070.09
920.49	1066.82
920.79	1061.43
921.10	1071.03
921.40	1082.50
921.70	1085.54
922.01	1078.99
922.31	1082.50
922.61	1078.05
922.92	1064.01
923.22	1059.09
923.52	1063.54
923.82	1067.75
924.13	1078.75
924.43	1086.94
924.73	1091.63
925.04	1093.26
925.34	1085.54
925.64	1071.97
925.94	1073.84
926.25	1073.84
926.55	1075.48
926.85	1078.28
927.15	1076.65
927.46	1071.50
927.76	1065.18
928.06	1060.96
928.36	1064.24
928.67	1069.62
928.97	1067.52
929.27	1076.88
929.57	1083.67
929.87	1079.46
930.18	1067.99
930.48	1070.09
930.78	1068.45
931.08	1066.82
931.38	1055.58
931.69	1061.67
931.99	1065.18
932.29	1062.60
932.59	1055.58
932.89	1071.26
933.19	1076.18
933.49	1083.90
933.80	1087.88
934.10	1087.65
934.40	1085.31
934.70	1093.73
935.00	1089.99
935.30	1082.26
935.60	1077.58
935.90	1078.52
936.20	1069.39
936.50	1067.05
936.81	1072.67
937.11	1084.14
937.41	1086.48
937.71	1090.92
938.01	1094.67
938.31	1089.52
938.61	1086.71
938.91	1088.12
939.21	1084.60
939.51	1081.56
939.81	1084.84
940.11	1089.29
940.41	1087.88
940.71	1088.58
941.01	1084.60
941.31	1080.39
941.61	1077.35
941.91	1071.03
942.21	1072.43
942.51	1068.45
942.81	1071.26
943.11	1076.18
943.41	1080.63
943.71	1082.97
944.01	1086.94
944.31	1094.90
944.61	1087.65
944.90	1083.43
945.20	1082.97
945.50	1087.41
945.80	1081.09
946.10	1083.67
946.40	1087.18
946.70	1090.46
947.00	1082.73
947.30	1073.60
947.60	1075.48
947.89	1079.46
948.19	1071.73
948.49	1075.94
948.79	1081.33
949.09	1076.41
949.39	1079.92
949.69	1084.14
949.98	1093.97
950.28	1090.22
950.58	1088.35
950.88	1082.03
951.18	1069.39
951.48	1067.28
951.77	1077.11
952.07	1076.88
952.37	1069.62
952.67	1088.82
952.97	1082.73
953.26	1078.05
953.56	1068.22
953.86	1074.77
954.16	1051.13
954.45	1048.33
954.75	1047.86
955.05	1062.84
955.35	1052.54
955.64	1067.52
955.94	1081.80
956.24	1081.80
956.54	1075.01
956.83	1080.63
957.13	1080.63
957.43	1064.01
957.72	1071.73
958.02	1084.14
958.32	1083.43
958.61	1083.90
958.91	1090.69
959.21	1085.31
959.50	1086.01
959.80	1087.88
960.10	1095.14
960.39	1090.46
960.69	1096.54
960.99	1084.14
961.28	1088.58
961.58	1082.26
961.87	1094.43
962.17	1091.63
962.47	1100.29
962.76	1097.01
963.06	1090.92
963.36	1077.82
963.65	1079.92
963.95	1079.92
964.24	1087.41
964.54	1080.63
964.83	1074.31
965.13	1061.67
965.42	1065.88
965.72	1062.84
966.02	1067.28
966.31	1077.35
966.61	1090.22
966.90	1080.16
967.20	1072.20
967.49	1076.88
967.79	1080.63
968.08	1078.28
968.38	1082.03
968.67	1091.39
968.97	1092.80
969.26	1093.26
969.56	1097.01
969.85	1092.80
970.15	1087.88
970.44	1084.84
970.74	1071.73
971.03	1061.90
971.32	1064.48
971.62	1070.33
971.91	1066.11
972.21	1074.31
972.50	1075.01
972.80	1072.20
973.09	1064.48
973.38	1068.45
973.68	1066.35
973.97	1071.03
974.27	1064.71
974.56	1070.80
974.85	1069.39
975.15	1079.92
975.44	1081.80
975.73	1082.73
976.03	1087.88
976.32	1092.09
976.61	1090.69
976.91	1090.22
977.20	1104.50
977.49	1103.33
977.79	1106.61
978.08	1100.29
978.37	1089.75
978.67	1081.33
978.96	1073.14
979.25	1070.56
979.55	1078.75
979.84	1092.80
980.13	1091.16
980.42	1090.69
980.72	1089.05
981.01	1068.92
981.30	1059.79
981.59	1063.07
981.89	1066.35
982.18	1068.92
982.47	1074.31
982.76	1079.92
983.06	1082.03
983.35	1077.35
983.64	1071.73
983.93	1082.73
984.22	1084.60
984.52	1078.75
984.81	1069.86
985.10	1073.84
985.39	1067.99
985.68	1055.11
985.97	1063.54
986.27	1077.58
986.56	1082.97
986.85	1086.24
987.14	1096.78
987.43	1098.65
987.72	1103.56
988.01	1103.56
988.31	1107.78
988.60	1095.14
988.89	1088.35
989.18	1078.28
989.47	1074.07
989.76	1072.67
990.05	1079.22
990.34	1083.43
990.63	1090.92
990.92	1090.22
991.21	1079.46
991.51	1080.86
991.80	1079.92
992.09	1073.37
992.38	1078.05
992.67	1083.43
992.96	1080.63
993.25	1076.88
993.54	1080.16
993.83	1076.88
994.12	1083.67
994.41	1090.69
994.70	1092.33
994.99	1092.09
995.28	1089.05
995.57	1083.43
995.86	1081.09
996.15	1071.50
996.44	1072.90
996.73	1079.92
997.02	1078.75
997.31	1084.14
997.59	1087.18
997.88	1077.58
998.17	1069.86
998.46	1073.84
998.75	1064.01
999.04	1073.37
999.33	1079.22
999.62	1074.54
999.91	1069.62
1000.20	1080.86
1000.49	1081.33
1000.77	1077.58
1001.06	1091.16
1001.35	1096.78
1001.64	1090.22
1001.93	1085.77
1002.22	1079.46
1002.51	1066.35
1002.79	1057.22
1003.08	1053.24
1003.37	1054.88
1003.66	1069.39
1003.95	1083.20
1004.23	1090.69
1004.52	1095.37
1004.81	1093.97
1005.10	1097.95
1005.39	1080.86
1005.67	1077.35
1005.96	1079.92
1006.25	1075.01
1006.54	1060.26
1006.83	1074.77
1007.11	1082.73
1007.40	1081.80
1007.69	1086.94
1007.97	1103.56
1008.26	1098.88
1008.55	1094.90
1008.84	1097.48
1009.12	1097.48
1009.41	1090.46
1009.70	1097.24
1009.98	1087.41
1010.27	1078.05
1010.56	1079.46
1010.85	1072.90
1011.13	1063.07
1011.42	1074.07
1011.71	1077.35
1011.99	1073.14
1012.28	1078.75
1012.56	1085.31
1012.85	1078.75
1013.14	1080.86
1013.42	1088.35
1013.71	1079.22
1014.00	1071.26
1014.28	1070.09
1014.57	1073.37
1014.85	1064.48
1015.14	1071.97
1015.43	1067.05
1015.71	1067.75
1016.00	1054.18
1016.28	1056.99
1016.57	1056.28
1016.85	1066.11
1017.14	1069.62
1017.43	1078.99
1017.71	1083.43
1018.00	1085.77
1018.28	1084.37
1018.57	1078.75
1018.85	1076.41
1019.14	1080.86
1019.42	1069.62
1019.71	1071.97
1019.99	1081.56
1020.28	1083.67
1020.56	1082.26
1020.85	1091.63
1021.13	1089.52
1021.42	1081.56
1021.70	1081.56
1021.99	1082.50
1022.27	1086.71
1022.55	1114.10
1022.84	1104.73
>>>>>End Processed Spectral Data<<<<<
