SpectraSuite Data File
++++++++++++++++++++++++++++++++++++
Date: Mon Aug 26 10:25:57 PDT 2019
User: corrico
Dark Spectrum Present: No
Reference Spectrum Present: No
Number of Sampled Component Spectra: 1
Spectrometers: USB2+H06089
Integration Time (usec): 10000 (USB2+H06089)
Spectra Averaged: 2 (USB2+H06089)
Boxcar Smoothing: 2 (USB2+H06089)
Correct for Electrical Dark: No (USB2+H06089)
Strobe/Lamp Enabled: No (USB2+H06089)
Correct for Detector Non-linearity: No (USB2+H06089)
Correct for Stray Light: No (USB2+H06089)
Number of Pixels in Processed Spectrum: 2048
>>>>>Begin Processed Spectral Data<<<<<
339.70	988.88
340.07	988.88
340.45	972.96
340.82	961.26
341.19	953.53
341.57	939.73
341.94	925.45
342.31	916.09
342.69	912.11
343.06	899.47
343.43	896.66
343.81	905.79
344.18	906.49
344.55	913.04
344.93	921.23
345.30	928.26
345.67	923.58
346.04	921.70
346.42	919.36
346.79	929.19
347.16	931.07
347.54	944.41
347.91	973.43
348.28	991.45
348.65	999.64
349.03	1014.86
349.40	1021.41
349.77	1020.24
350.14	1018.84
350.52	1023.05
350.89	1027.96
351.26	1041.54
351.63	1053.48
352.01	1063.31
352.38	1070.09
352.75	1077.35
353.12	1077.58
353.50	1066.11
353.87	1075.94
354.24	1073.84
354.61	1072.43
354.98	1066.11
355.36	1077.58
355.73	1075.71
356.10	1079.92
356.47	1084.84
356.84	1103.56
357.22	1098.41
357.59	1094.43
357.96	1090.22
358.33	1080.86
358.70	1075.71
359.08	1081.33
359.45	1087.18
359.82	1084.14
360.19	1085.31
360.56	1073.84
360.94	1062.84
361.31	1050.43
361.68	1052.77
362.05	1053.24
362.42	1052.54
362.79	1056.75
363.16	1058.39
363.54	1060.50
363.91	1060.03
364.28	1062.37
364.65	1056.05
365.02	1051.84
365.39	1051.37
365.76	1046.22
366.14	1052.07
366.51	1057.45
366.88	1056.52
367.25	1053.71
367.62	1064.01
367.99	1065.65
368.36	1071.03
368.73	1086.01
369.10	1091.63
369.48	1081.56
369.85	1079.92
370.22	1078.05
370.59	1077.11
370.96	1078.05
371.33	1081.56
371.70	1082.73
372.07	1084.84
372.44	1068.69
372.81	1067.52
373.18	1071.73
373.55	1064.48
373.93	1067.28
374.30	1070.09
374.67	1067.28
375.04	1066.11
375.41	1082.97
375.78	1069.39
376.15	1072.43
376.52	1079.22
376.89	1078.52
377.26	1065.65
377.63	1075.94
378.00	1077.11
378.37	1079.46
378.74	1081.09
379.11	1081.56
379.48	1080.16
379.85	1084.84
380.22	1072.43
380.59	1065.18
380.96	1064.48
381.33	1063.54
381.70	1054.41
382.07	1064.48
382.44	1080.63
382.81	1070.80
383.18	1072.90
383.55	1079.22
383.92	1071.73
384.29	1073.14
384.66	1090.22
385.03	1086.24
385.40	1090.92
385.77	1093.26
386.14	1070.56
386.51	1065.88
386.88	1064.48
387.25	1053.94
387.62	1052.30
387.99	1055.82
388.36	1056.52
388.73	1061.67
389.10	1067.99
389.46	1075.24
389.83	1083.43
390.20	1073.60
390.57	1068.45
390.94	1074.77
391.31	1061.20
391.68	1063.07
392.05	1071.26
392.42	1076.88
392.79	1069.86
393.16	1075.94
393.53	1071.50
393.89	1065.18
394.26	1064.01
394.63	1066.58
395.00	1070.09
395.37	1070.56
395.74	1081.56
396.11	1087.18
396.48	1081.56
396.84	1073.60
397.21	1078.28
397.58	1074.31
397.95	1067.28
398.32	1074.54
398.69	1074.07
399.06	1066.35
399.42	1057.45
399.79	1055.11
400.16	1064.01
400.53	1068.69
400.90	1070.56
401.27	1077.35
401.64	1084.37
402.00	1070.09
402.37	1074.31
402.74	1084.60
403.11	1080.63
403.48	1081.56
403.84	1078.05
404.21	1072.20
404.58	1061.20
404.95	1059.09
405.32	1055.35
405.68	1062.14
406.05	1068.92
406.42	1075.01
406.79	1072.20
407.16	1075.24
407.52	1071.03
407.89	1065.18
408.26	1062.37
408.63	1066.35
408.99	1063.77
409.36	1062.60
409.73	1064.94
410.10	1061.67
410.47	1065.18
410.83	1060.50
411.20	1066.35
411.57	1073.37
411.94	1080.86
412.30	1080.86
412.67	1082.03
413.04	1083.90
413.40	1079.46
413.77	1076.65
414.14	1076.65
414.51	1073.60
414.87	1073.37
415.24	1071.73
415.61	1074.31
415.97	1071.97
416.34	1068.69
416.71	1065.18
417.08	1061.90
417.44	1066.11
417.81	1068.22
418.18	1078.75
418.54	1074.07
418.91	1084.84
419.28	1078.28
419.64	1080.63
420.01	1070.33
420.38	1075.71
420.74	1065.41
421.11	1062.60
421.48	1069.62
421.84	1079.46
422.21	1082.26
422.58	1085.54
422.94	1091.86
423.31	1100.05
423.68	1095.60
424.04	1093.97
424.41	1086.01
424.77	1089.05
425.14	1073.37
425.51	1075.48
425.87	1077.11
426.24	1083.90
426.61	1075.01
426.97	1078.52
427.34	1086.71
427.70	1083.20
428.07	1089.05
428.44	1079.46
428.80	1081.33
429.17	1069.39
429.53	1078.28
429.90	1077.82
430.27	1086.24
430.63	1080.39
431.00	1086.01
431.36	1080.39
431.73	1078.99
432.09	1085.07
432.46	1080.16
432.83	1067.52
433.19	1063.31
433.56	1062.60
433.92	1068.45
434.29	1076.88
434.65	1082.50
435.02	1086.48
435.38	1090.22
435.75	1080.39
436.11	1066.82
436.48	1065.18
436.84	1063.31
437.21	1060.50
437.57	1064.94
437.94	1070.09
438.30	1076.41
438.67	1088.82
439.03	1087.41
439.40	1087.41
439.76	1091.16
440.13	1091.39
440.49	1073.37
440.86	1059.56
441.22	1050.67
441.59	1058.62
441.95	1060.50
442.32	1071.03
442.68	1079.69
443.05	1077.35
443.41	1063.07
443.78	1066.82
444.14	1066.58
444.51	1068.69
444.87	1072.67
445.24	1081.33
445.60	1076.41
445.96	1071.73
446.33	1068.45
446.69	1074.54
447.06	1070.56
447.42	1076.18
447.79	1079.69
448.15	1076.41
448.51	1072.67
448.88	1082.97
449.24	1079.69
449.61	1082.03
449.97	1089.99
450.33	1093.26
450.70	1084.84
451.06	1075.94
451.43	1073.14
451.79	1068.69
452.15	1060.50
452.52	1061.90
452.88	1067.99
453.24	1067.99
453.61	1080.86
453.97	1089.52
454.34	1091.39
454.70	1092.80
455.06	1082.73
455.43	1078.28
455.79	1071.50
456.15	1064.71
456.52	1066.58
456.88	1071.97
457.24	1066.11
457.61	1068.69
457.97	1076.18
458.33	1078.05
458.70	1087.65
459.06	1087.65
459.42	1086.01
459.79	1083.20
460.15	1082.50
460.51	1076.41
460.88	1085.31
461.24	1090.22
461.60	1098.65
461.96	1097.95
462.33	1095.60
462.69	1097.95
463.05	1097.95
463.42	1096.31
463.78	1095.60
464.14	1096.54
464.50	1083.90
464.87	1084.37
465.23	1089.99
465.59	1097.95
465.95	1104.03
466.32	1109.88
466.68	1108.48
467.04	1095.60
467.40	1082.26
467.77	1066.11
468.13	1059.33
468.49	1064.71
468.85	1061.67
469.22	1064.71
469.58	1071.03
469.94	1078.05
470.30	1086.24
470.66	1090.22
471.03	1091.16
471.39	1095.60
471.75	1094.67
472.11	1082.03
472.47	1082.50
472.84	1076.18
473.20	1074.77
473.56	1071.50
473.92	1068.69
474.28	1073.60
474.65	1074.31
475.01	1077.58
475.37	1077.58
475.73	1072.43
476.09	1067.75
476.45	1075.48
476.81	1076.18
477.18	1081.80
477.54	1077.58
477.90	1077.11
478.26	1075.24
478.62	1076.88
478.98	1071.26
479.34	1084.60
479.71	1083.20
480.07	1080.39
480.43	1078.75
480.79	1080.86
481.15	1077.82
481.51	1077.35
481.87	1077.82
482.23	1078.99
482.59	1078.05
482.96	1084.37
483.32	1087.65
483.68	1088.58
484.04	1083.20
484.40	1081.80
484.76	1072.67
485.12	1073.14
485.48	1071.26
485.84	1070.09
486.20	1073.14
486.56	1078.52
486.92	1078.99
487.28	1087.88
487.64	1086.48
488.00	1089.52
488.37	1091.16
488.73	1095.37
489.09	1094.20
489.45	1099.35
489.81	1096.54
490.17	1088.35
490.53	1087.41
490.89	1079.92
491.25	1086.48
491.61	1095.14
491.97	1096.54
492.33	1087.41
492.69	1094.90
493.05	1085.54
493.41	1077.82
493.77	1076.65
494.13	1071.73
494.49	1071.50
494.85	1076.65
495.21	1079.92
495.57	1088.35
495.93	1095.84
496.29	1096.31
496.64	1098.88
497.00	1088.58
497.36	1083.43
497.72	1086.24
498.08	1076.18
498.44	1067.28
498.80	1063.77
499.16	1058.39
499.52	1052.30
499.88	1056.28
500.24	1054.18
500.60	1062.60
500.96	1064.48
501.32	1074.07
501.68	1089.29
502.03	1095.14
502.39	1096.31
502.75	1096.78
503.11	1094.43
503.47	1078.52
503.83	1080.86
504.19	1064.24
504.55	1070.56
504.91	1066.82
505.26	1072.90
505.62	1068.45
505.98	1093.50
506.34	1091.86
506.70	1100.05
507.06	1102.16
507.42	1107.31
507.78	1093.50
508.13	1103.56
508.49	1097.48
508.85	1087.41
509.21	1084.84
509.57	1079.22
509.93	1074.31
510.28	1080.16
510.64	1087.41
511.00	1088.58
511.36	1101.92
511.72	1096.07
512.07	1084.14
512.43	1092.56
512.79	1092.56
513.15	1087.41
513.51	1084.60
513.86	1084.37
514.22	1073.14
514.58	1071.73
514.94	1078.99
515.30	1086.24
515.65	1095.84
516.01	1102.16
516.37	1101.22
516.73	1099.58
517.08	1097.95
517.44	1096.78
517.80	1088.82
518.16	1089.52
518.51	1092.09
518.87	1090.69
519.23	1091.16
519.59	1092.33
519.94	1097.01
520.30	1099.58
520.66	1107.54
521.01	1107.31
521.37	1101.92
521.73	1101.69
522.09	1096.31
522.44	1084.84
522.80	1084.37
523.16	1091.63
523.51	1084.84
523.87	1089.99
524.23	1091.86
524.58	1087.18
524.94	1094.20
525.30	1089.75
525.65	1085.07
526.01	1089.05
526.37	1094.20
526.72	1078.75
527.08	1091.86
527.44	1093.26
527.79	1097.48
528.15	1100.52
528.51	1114.80
528.86	1101.92
529.22	1097.24
529.58	1093.03
529.93	1084.60
530.29	1074.31
530.65	1086.01
531.00	1086.94
531.36	1088.58
531.71	1094.90
532.07	1099.35
532.43	1097.71
532.78	1106.37
533.14	1097.24
533.49	1089.29
533.85	1088.35
534.21	1090.92
534.56	1088.12
534.92	1086.48
535.27	1094.90
535.63	1096.54
535.98	1083.43
536.34	1082.03
536.69	1091.63
537.05	1088.35
537.41	1092.33
537.76	1096.31
538.12	1097.48
538.47	1104.97
538.83	1103.09
539.18	1098.88
539.54	1097.24
539.89	1089.05
540.25	1079.46
540.60	1078.05
540.96	1072.20
541.31	1077.58
541.67	1072.43
542.02	1075.01
542.38	1083.67
542.73	1102.16
543.09	1109.88
543.44	1114.80
543.80	1122.52
544.15	1109.65
544.51	1097.48
544.86	1086.48
545.22	1089.29
545.57	1087.18
545.93	1101.22
546.28	1104.50
546.64	1118.78
546.99	1113.16
547.35	1105.20
547.70	1093.73
548.05	1096.54
548.41	1079.46
548.76	1071.73
549.12	1072.90
549.47	1070.33
549.83	1067.28
550.18	1065.18
550.53	1077.82
550.89	1066.11
551.24	1076.88
551.60	1068.22
551.95	1076.18
552.30	1085.54
552.66	1095.84
553.01	1090.22
553.37	1094.90
553.72	1102.16
554.07	1101.92
554.43	1103.33
554.78	1107.54
555.13	1103.80
555.49	1097.01
555.84	1087.65
556.19	1086.01
556.55	1080.16
556.90	1081.09
557.26	1073.14
557.61	1063.31
557.96	1071.26
558.32	1071.50
558.67	1069.62
559.02	1078.75
559.37	1090.92
559.73	1087.18
560.08	1084.60
560.43	1084.84
560.79	1081.33
561.14	1083.67
561.49	1082.03
561.85	1089.99
562.20	1088.82
562.55	1087.41
562.90	1080.86
563.26	1076.18
563.61	1075.71
563.96	1071.03
564.32	1073.84
564.67	1082.73
565.02	1082.50
565.37	1075.48
565.73	1081.33
566.08	1079.22
566.43	1080.39
566.78	1078.99
567.14	1073.14
567.49	1079.69
567.84	1088.12
568.19	1089.05
568.54	1082.97
568.90	1093.03
569.25	1092.80
569.60	1089.05
569.95	1082.73
570.31	1086.94
570.66	1086.48
571.01	1085.07
571.36	1071.50
571.71	1058.39
572.06	1068.22
572.42	1072.90
572.77	1071.26
573.12	1079.22
573.47	1094.67
573.82	1080.63
574.18	1073.37
574.53	1077.11
574.88	1078.05
575.23	1072.20
575.58	1084.60
575.93	1095.60
576.28	1088.82
576.64	1086.94
576.99	1090.46
577.34	1075.71
577.69	1067.52
578.04	1072.90
578.39	1082.50
578.74	1083.90
579.09	1100.05
579.44	1109.65
579.80	1102.39
580.15	1097.95
580.50	1092.56
580.85	1091.39
581.20	1082.26
581.55	1089.29
581.90	1086.24
582.25	1086.71
582.60	1082.73
582.95	1080.39
583.30	1073.14
583.65	1065.88
584.00	1064.48
584.35	1059.79
584.71	1051.60
585.06	1060.03
585.41	1065.18
585.76	1071.73
586.11	1079.69
586.46	1092.56
586.81	1084.60
587.16	1082.73
587.51	1082.73
587.86	1076.18
588.21	1069.86
588.56	1074.54
588.91	1079.69
589.26	1076.18
589.61	1082.26
589.96	1087.41
590.31	1090.69
590.66	1082.03
591.01	1086.94
591.36	1083.67
591.71	1083.90
592.06	1080.16
592.41	1086.94
592.76	1087.18
593.10	1090.92
593.45	1087.88
593.80	1083.67
594.15	1088.58
594.50	1075.71
594.85	1080.39
595.20	1087.18
595.55	1089.99
595.90	1094.43
596.25	1093.97
596.60	1090.69
596.95	1087.18
597.30	1086.01
597.64	1130.01
597.99	1130.71
598.34	1132.35
598.69	1131.65
599.04	1130.71
599.39	1079.22
599.74	1088.58
600.09	1076.41
600.44	1072.90
600.78	1081.09
601.13	1079.69
601.48	1075.01
601.83	1091.39
602.18	1094.43
602.53	1089.75
602.88	1092.33
603.22	1101.22
603.57	1093.03
603.92	1083.20
604.27	1077.58
604.62	1069.16
604.97	1063.77
605.31	1054.88
605.66	1062.60
606.01	1068.92
606.36	1071.73
606.71	1063.54
607.05	1073.37
607.40	1079.92
607.75	1079.92
608.10	1073.37
608.44	1079.69
608.79	1079.69
609.14	1068.45
609.49	1072.43
609.84	1088.12
610.18	1084.14
610.53	1076.88
610.88	1094.67
611.23	1090.22
611.57	1088.12
611.92	1091.16
612.27	1101.46
612.62	1093.97
612.96	1085.77
613.31	1085.07
613.66	1088.35
614.00	1082.03
614.35	1079.69
614.70	1088.82
615.05	1080.86
615.39	1071.97
615.74	1076.88
616.09	1083.43
616.43	1085.77
616.78	1083.20
617.13	1095.37
617.47	1088.35
617.82	1075.94
618.17	1079.92
618.51	1091.16
618.86	1087.41
619.21	1083.43
619.55	1086.01
619.90	1083.20
620.25	1078.52
620.59	1081.33
620.94	1080.39
621.29	1080.39
621.63	1082.50
621.98	1086.48
622.32	1077.58
622.67	1081.80
623.02	1077.82
623.36	1066.11
623.71	1068.22
624.05	1078.75
624.40	1078.28
624.75	1094.67
625.09	1102.39
625.44	1104.26
625.78	1101.92
626.13	1103.56
626.48	1093.50
626.82	1090.46
627.17	1088.82
627.51	1084.60
627.86	1076.18
628.20	1078.52
628.55	1076.65
628.89	1073.84
629.24	1077.82
629.58	1097.01
629.93	1092.80
630.28	1088.82
630.62	1101.22
630.97	1104.97
631.31	1091.63
631.66	1095.84
632.00	1103.09
632.35	1081.56
632.69	1077.35
633.04	1077.11
633.38	1074.54
633.73	1079.46
634.07	1076.65
634.42	1077.58
634.76	1084.37
635.11	1082.97
635.45	1077.82
635.79	1085.31
636.14	1084.14
636.48	1084.60
636.83	1085.31
637.17	1091.63
637.52	1093.50
637.86	1086.71
638.21	1084.60
638.55	1084.84
638.89	1076.18
639.24	1081.80
639.58	1091.39
639.93	1098.18
640.27	1098.88
640.61	1099.58
640.96	1099.58
641.30	1092.33
641.65	1087.41
641.99	1093.50
642.33	1096.54
642.68	1090.92
643.02	1089.75
643.37	1088.58
643.71	1083.90
644.05	1085.77
644.40	1093.50
644.74	1092.09
645.08	1093.73
645.43	1092.09
645.77	1084.84
646.11	1082.50
646.46	1084.84
646.80	1083.20
647.14	1083.20
647.49	1079.22
647.83	1068.22
648.17	1066.35
648.52	1058.62
648.86	1055.35
649.20	1066.11
649.55	1076.18
649.89	1073.60
650.23	1084.84
650.57	1088.58
650.92	1093.50
651.26	1096.54
651.60	1096.31
651.95	1096.07
652.29	1095.60
652.63	1090.46
652.97	1090.92
653.32	1094.67
653.66	1093.03
654.00	1085.77
654.34	1078.52
654.69	1068.92
655.03	1070.09
655.37	1067.99
655.71	1072.67
656.05	1067.52
656.40	1077.58
656.74	1085.31
657.08	1084.37
657.42	1086.24
657.76	1103.09
658.11	1091.16
658.45	1080.63
658.79	1087.88
659.13	1097.71
659.47	1092.56
659.82	1095.60
660.16	1089.05
660.50	1081.56
660.84	1076.18
661.18	1071.73
661.52	1075.48
661.87	1086.01
662.21	1085.77
662.55	1089.05
662.89	1095.60
663.23	1089.75
663.57	1095.84
663.91	1095.14
664.25	1089.05
664.60	1080.39
664.94	1079.22
665.28	1075.01
665.62	1079.22
665.96	1078.52
666.30	1078.05
666.64	1077.35
666.98	1072.90
667.32	1070.80
667.66	1063.54
668.01	1070.09
668.35	1072.43
668.69	1075.94
669.03	1077.82
669.37	1084.84
669.71	1083.43
670.05	1091.16
670.39	1084.37
670.73	1096.07
671.07	1096.31
671.41	1089.75
671.75	1089.99
672.09	1098.88
672.43	1082.50
672.77	1077.82
673.11	1083.67
673.45	1087.18
673.79	1079.46
674.13	1085.31
674.47	1096.78
674.81	1094.90
675.15	1090.46
675.49	1092.09
675.83	1085.77
676.17	1079.22
676.51	1074.31
676.85	1066.58
677.19	1075.94
677.53	1078.75
677.87	1074.54
678.21	1087.41
678.55	1102.16
678.89	1096.07
679.23	1090.69
679.57	1091.16
679.90	1083.67
680.24	1069.16
680.58	1078.28
680.92	1078.99
681.26	1075.48
681.60	1067.28
681.94	1072.90
682.28	1068.69
682.62	1073.37
682.96	1074.77
683.29	1089.75
683.63	1088.12
683.97	1078.99
684.31	1086.24
684.65	1099.58
684.99	1086.48
685.33	1089.29
685.67	1089.99
686.00	1072.43
686.34	1058.16
686.68	1059.33
687.02	1050.43
687.36	1056.05
687.70	1067.99
688.03	1073.60
688.37	1079.92
688.71	1078.75
689.05	1074.77
689.39	1078.99
689.72	1084.60
690.06	1084.60
690.40	1090.92
690.74	1091.39
691.08	1086.71
691.41	1079.22
691.75	1070.09
692.09	1071.26
692.43	1073.14
692.76	1070.80
693.10	1070.09
693.44	1083.43
693.78	1081.09
694.11	1080.63
694.45	1077.35
694.79	1075.48
695.13	1074.31
695.46	1078.99
695.80	1076.41
696.14	1080.86
696.48	1089.75
696.81	1095.84
697.15	1093.50
697.49	1105.67
697.82	1103.80
698.16	1095.14
698.50	1088.82
698.83	1082.50
699.17	1072.90
699.51	1063.31
699.84	1058.39
700.18	1046.92
700.52	1048.09
700.85	1046.69
701.19	1054.88
701.53	1068.92
701.86	1077.58
702.20	1079.46
702.54	1082.73
702.87	1079.46
703.21	1074.31
703.55	1071.03
703.88	1075.71
704.22	1067.28
704.55	1075.24
704.89	1066.82
705.23	1066.82
705.56	1063.07
705.90	1062.14
706.23	1059.33
706.57	1070.56
706.91	1078.52
707.24	1075.71
707.58	1074.54
707.91	1074.31
708.25	1070.56
708.58	1060.73
708.92	1071.97
709.26	1079.92
709.59	1078.05
709.93	1075.71
710.26	1084.14
710.60	1075.01
710.93	1065.18
711.27	1067.75
711.60	1076.41
711.94	1073.14
712.27	1077.58
712.61	1088.12
712.94	1084.84
713.28	1077.35
713.61	1081.09
713.95	1078.52
714.28	1077.11
714.62	1082.97
714.95	1092.09
715.29	1094.67
715.62	1091.16
715.96	1092.80
716.29	1089.75
716.63	1075.24
716.96	1070.80
717.29	1070.09
717.63	1078.28
717.96	1075.71
718.30	1086.48
718.63	1080.39
718.97	1091.39
719.30	1081.56
719.63	1082.50
719.97	1085.07
720.30	1078.99
720.64	1070.56
720.97	1073.37
721.30	1073.60
721.64	1072.43
721.97	1082.03
722.31	1083.67
722.64	1084.60
722.97	1092.56
723.31	1083.67
723.64	1088.12
723.97	1089.52
724.31	1090.92
724.64	1086.71
724.98	1090.92
725.31	1083.43
725.64	1076.65
725.98	1070.80
726.31	1068.92
726.64	1067.05
726.97	1067.75
727.31	1077.82
727.64	1075.48
727.97	1070.33
728.31	1063.07
728.64	1065.65
728.97	1064.94
729.31	1073.84
729.64	1077.58
729.97	1091.16
730.30	1087.88
730.64	1088.58
730.97	1075.94
731.30	1088.82
731.63	1088.58
731.97	1084.37
732.30	1086.24
732.63	1093.26
732.96	1092.33
733.30	1097.24
733.63	1104.97
733.96	1105.90
734.29	1107.07
734.63	1097.95
734.96	1085.07
735.29	1088.12
735.62	1074.77
735.95	1072.43
736.29	1066.82
736.62	1068.92
736.95	1071.26
737.28	1071.50
737.61	1076.41
737.94	1083.43
738.28	1088.35
738.61	1082.97
738.94	1097.01
739.27	1101.22
739.60	1097.95
739.93	1089.52
740.27	1093.03
740.60	1086.71
740.93	1074.54
741.26	1076.88
741.59	1078.05
741.92	1074.07
742.25	1068.92
742.58	1076.18
742.91	1069.86
743.25	1076.18
743.58	1072.43
743.91	1077.11
744.24	1076.88
744.57	1085.31
744.90	1074.31
745.23	1081.56
745.56	1076.41
745.89	1080.86
746.22	1076.88
746.55	1078.99
746.88	1077.58
747.21	1084.84
747.54	1074.31
747.87	1083.90
748.20	1091.16
748.53	1088.12
748.87	1085.77
749.20	1088.12
749.53	1087.65
749.86	1091.39
750.19	1095.84
750.52	1094.90
750.85	1088.58
751.18	1076.18
751.51	1072.67
751.84	1076.18
752.16	1081.80
752.49	1089.75
752.82	1101.46
753.15	1106.61
753.48	1100.99
753.81	1089.05
754.14	1090.22
754.47	1076.18
754.80	1066.58
755.13	1064.48
755.46	1070.09
755.79	1060.03
756.12	1066.11
756.45	1066.35
756.78	1071.50
757.11	1064.48
757.43	1069.39
757.76	1068.22
758.09	1067.05
758.42	1068.22
758.75	1077.11
759.08	1082.50
759.41	1085.54
759.74	1091.86
760.07	1095.60
760.39	1096.78
760.72	1092.09
761.05	1088.35
761.38	1098.65
761.71	1086.94
762.04	1084.60
762.36	1083.43
762.69	1088.12
763.02	1078.75
763.35	1082.50
763.68	1080.63
764.01	1078.05
764.33	1078.99
764.66	1068.92
764.99	1069.16
765.32	1063.07
765.65	1068.45
765.97	1062.14
766.30	1070.80
766.63	1071.73
766.96	1079.69
767.28	1086.94
767.61	1093.03
767.94	1101.69
768.27	1093.97
768.59	1088.35
768.92	1080.86
769.25	1085.77
769.58	1072.67
769.90	1074.77
770.23	1076.41
770.56	1081.80
770.89	1070.56
771.21	1067.75
771.54	1065.88
771.87	1069.39
772.19	1066.58
772.52	1061.43
772.85	1069.39
773.17	1064.24
773.50	1059.33
773.83	1050.90
774.15	1051.37
774.48	1041.77
774.81	1057.45
775.13	1062.37
775.46	1069.39
775.79	1078.05
776.11	1082.26
776.44	1082.26
776.77	1073.37
777.09	1068.69
777.42	1064.71
777.74	1056.99
778.07	1053.48
778.40	1055.11
778.72	1060.50
779.05	1065.18
779.37	1074.77
779.70	1069.86
780.03	1087.41
780.35	1090.22
780.68	1085.77
781.00	1086.01
781.33	1093.97
781.65	1085.54
781.98	1084.84
782.31	1098.88
782.63	1108.71
782.96	1101.46
783.28	1097.95
783.61	1091.39
783.93	1083.20
784.26	1077.82
784.58	1077.82
784.91	1085.07
785.23	1091.39
785.56	1088.12
785.88	1084.84
786.21	1085.07
786.53	1092.80
786.86	1089.99
787.18	1075.01
787.51	1076.18
787.83	1075.24
788.16	1058.39
788.48	1054.88
788.81	1074.54
789.13	1074.77
789.46	1074.77
789.78	1078.05
790.10	1086.24
790.43	1075.48
790.75	1078.05
791.08	1078.28
791.40	1087.88
791.73	1084.60
792.05	1087.18
792.37	1087.88
792.70	1090.92
793.02	1076.88
793.35	1076.41
793.67	1072.90
793.99	1065.88
794.32	1069.62
794.64	1065.88
794.96	1064.01
795.29	1079.22
795.61	1084.60
795.93	1093.73
796.26	1099.82
796.58	1097.48
796.91	1088.12
797.23	1090.69
797.55	1073.14
797.87	1085.54
798.20	1085.31
798.52	1084.60
798.84	1072.90
799.17	1073.84
799.49	1061.67
799.81	1059.33
800.14	1067.52
800.46	1080.39
800.78	1086.71
801.10	1094.43
801.43	1098.18
801.75	1098.18
802.07	1086.71
802.40	1094.67
802.72	1088.58
803.04	1090.46
803.36	1082.03
803.69	1084.60
804.01	1072.20
804.33	1064.01
804.65	1061.67
804.97	1062.14
805.30	1060.50
805.62	1067.52
805.94	1087.41
806.26	1098.18
806.58	1108.48
806.91	1113.16
807.23	1104.73
807.55	1094.20
807.87	1090.69
808.19	1091.39
808.52	1090.22
808.84	1091.39
809.16	1088.82
809.48	1090.46
809.80	1084.84
810.12	1088.12
810.44	1090.92
810.77	1089.75
811.09	1080.39
811.41	1083.90
811.73	1084.14
812.05	1081.33
812.37	1092.09
812.69	1103.56
813.01	1097.95
813.33	1094.67
813.66	1092.33
813.98	1074.77
814.30	1060.26
814.62	1061.20
814.94	1062.84
815.26	1063.07
815.58	1068.69
815.90	1073.84
816.22	1077.11
816.54	1073.14
816.86	1070.80
817.18	1082.03
817.50	1089.52
817.82	1083.43
818.14	1086.24
818.46	1094.43
818.78	1091.16
819.10	1095.14
819.42	1101.92
819.74	1098.88
820.06	1093.97
820.38	1098.65
820.70	1083.43
821.02	1077.82
821.34	1076.88
821.66	1083.20
821.98	1073.14
822.30	1085.07
822.62	1091.63
822.94	1094.90
823.26	1096.78
823.58	1096.07
823.90	1081.80
824.22	1075.94
824.54	1071.03
824.86	1067.75
825.18	1067.99
825.50	1064.94
825.81	1064.71
826.13	1067.75
826.45	1058.62
826.77	1064.01
827.09	1071.73
827.41	1060.73
827.73	1067.99
828.05	1068.45
828.36	1067.28
828.68	1066.58
829.00	1069.16
829.32	1068.69
829.64	1073.37
829.96	1068.92
830.28	1080.16
830.59	1088.82
830.91	1091.86
831.23	1098.18
831.55	1102.39
831.87	1096.78
832.19	1101.46
832.50	1092.33
832.82	1095.14
833.14	1092.56
833.46	1087.41
833.78	1070.33
834.09	1072.43
834.41	1067.99
834.73	1077.35
835.05	1085.07
835.36	1091.63
835.68	1089.75
836.00	1083.90
836.32	1063.07
836.63	1058.62
836.95	1061.20
837.27	1065.88
837.59	1066.11
837.90	1077.82
838.22	1077.58
838.54	1074.07
838.85	1076.41
839.17	1075.71
839.49	1074.31
839.80	1074.77
840.12	1070.09
840.44	1066.58
840.76	1071.50
841.07	1074.31
841.39	1084.84
841.71	1087.18
842.02	1088.12
842.34	1085.31
842.65	1074.54
842.97	1058.16
843.29	1060.03
843.60	1057.69
843.92	1060.26
844.24	1077.11
844.55	1086.94
844.87	1095.14
845.18	1093.03
845.50	1088.58
845.82	1081.09
846.13	1072.20
846.45	1070.80
846.76	1072.90
847.08	1082.26
847.40	1082.73
847.71	1083.20
848.03	1083.90
848.34	1089.75
848.66	1085.54
848.97	1083.43
849.29	1084.84
849.60	1082.03
849.92	1086.94
850.24	1090.22
850.55	1105.20
850.87	1099.12
851.18	1105.44
851.50	1090.22
851.81	1072.43
852.13	1060.96
852.44	1070.80
852.76	1065.65
853.07	1063.54
853.39	1069.62
853.70	1074.31
854.01	1075.94
854.33	1078.05
854.64	1088.58
854.96	1095.84
855.27	1095.60
855.59	1099.35
855.90	1098.65
856.22	1094.43
856.53	1087.18
856.84	1085.54
857.16	1079.46
857.47	1079.22
857.79	1070.09
858.10	1070.09
858.41	1064.48
858.73	1063.77
859.04	1054.88
859.36	1055.11
859.67	1070.56
859.98	1079.46
860.30	1082.73
860.61	1082.97
860.92	1094.67
861.24	1087.18
861.55	1086.94
861.87	1074.77
862.18	1073.60
862.49	1077.58
862.81	1073.60
863.12	1062.14
863.43	1074.07
863.74	1080.39
864.06	1071.50
864.37	1078.52
864.68	1089.29
865.00	1089.75
865.31	1090.92
865.62	1091.63
865.94	1087.65
866.25	1085.54
866.56	1083.67
866.87	1081.33
867.19	1085.54
867.50	1084.60
867.81	1071.97
868.12	1067.28
868.44	1071.73
868.75	1068.45
869.06	1072.90
869.37	1075.94
869.68	1078.05
870.00	1075.94
870.31	1076.41
870.62	1074.31
870.93	1075.94
871.24	1077.35
871.56	1082.26
871.87	1078.75
872.18	1080.39
872.49	1082.26
872.80	1083.67
873.12	1082.97
873.43	1084.84
873.74	1082.50
874.05	1093.50
874.36	1082.26
874.67	1082.26
874.98	1084.60
875.29	1088.12
875.61	1090.92
875.92	1096.31
876.23	1084.37
876.54	1090.92
876.85	1083.90
877.16	1074.07
877.47	1078.28
877.78	1083.90
878.09	1069.16
878.40	1071.73
878.72	1073.37
879.03	1073.37
879.34	1072.90
879.65	1080.39
879.96	1072.20
880.27	1065.41
880.58	1061.43
880.89	1059.79
881.20	1062.37
881.51	1070.80
881.82	1072.90
882.13	1070.80
882.44	1075.71
882.75	1078.28
883.06	1077.11
883.37	1075.94
883.68	1080.63
883.99	1075.94
884.30	1064.94
884.61	1062.60
884.92	1056.75
885.23	1057.22
885.54	1066.35
885.85	1073.84
886.16	1081.09
886.47	1091.63
886.78	1092.56
887.08	1081.09
887.39	1076.41
887.70	1066.58
888.01	1062.37
888.32	1060.03
888.63	1067.28
888.94	1068.22
889.25	1073.84
889.56	1078.05
889.87	1076.65
890.17	1083.67
890.48	1090.69
890.79	1086.71
891.10	1083.90
891.41	1082.73
891.72	1075.01
892.03	1070.09
892.34	1062.84
892.64	1064.24
892.95	1076.41
893.26	1074.54
893.57	1078.52
893.88	1085.54
894.18	1085.31
894.49	1073.37
894.80	1070.56
895.11	1065.41
895.42	1065.41
895.72	1064.94
896.03	1075.01
896.34	1086.24
896.65	1081.80
896.96	1086.24
897.26	1089.99
897.57	1093.73
897.88	1093.03
898.19	1093.26
898.49	1086.24
898.80	1079.92
899.11	1069.16
899.41	1059.56
899.72	1056.52
900.03	1063.54
900.34	1064.71
900.64	1062.84
900.95	1078.05
901.26	1088.35
901.56	1095.60
901.87	1090.69
902.18	1098.65
902.48	1087.65
902.79	1086.01
903.10	1079.69
903.40	1091.16
903.71	1087.18
904.02	1086.01
904.32	1083.43
904.63	1079.69
904.94	1071.73
905.24	1068.92
905.55	1067.75
905.85	1066.82
906.16	1065.18
906.47	1075.24
906.77	1082.73
907.08	1079.46
907.38	1089.75
907.69	1093.50
908.00	1072.67
908.30	1064.94
908.61	1071.50
908.91	1061.43
909.22	1065.18
909.52	1075.24
909.83	1081.33
910.14	1082.97
910.44	1082.50
910.75	1073.84
911.05	1081.09
911.36	1079.92
911.66	1083.90
911.97	1082.73
912.27	1083.20
912.58	1086.01
912.88	1087.41
913.19	1078.28
913.49	1085.31
913.80	1088.12
914.10	1077.58
914.41	1074.31
914.71	1076.18
915.01	1077.35
915.32	1081.56
915.62	1092.09
915.93	1093.97
916.23	1093.73
916.54	1083.20
916.84	1076.88
917.15	1074.07
917.45	1071.03
917.75	1066.11
918.06	1071.50
918.36	1073.14
918.67	1064.71
918.97	1068.45
919.27	1076.18
919.58	1075.48
919.88	1070.80
920.18	1083.67
920.49	1077.11
920.79	1071.03
921.10	1068.92
921.40	1069.16
921.70	1053.01
922.01	1058.62
922.31	1058.39
922.61	1063.54
922.92	1064.71
923.22	1074.07
923.52	1079.22
923.82	1076.41
924.13	1072.90
924.43	1070.09
924.73	1075.24
925.04	1063.07
925.34	1060.96
925.64	1067.52
925.94	1078.05
926.25	1077.58
926.55	1086.01
926.85	1096.31
927.15	1093.50
927.46	1093.73
927.76	1086.48
928.06	1074.77
928.36	1077.58
928.67	1080.63
928.97	1069.39
929.27	1067.05
929.57	1074.31
929.87	1074.77
930.18	1067.99
930.48	1075.24
930.78	1077.35
931.08	1078.52
931.38	1086.01
931.69	1083.43
931.99	1092.33
932.29	1093.50
932.59	1091.39
932.89	1076.41
933.19	1084.37
933.49	1082.26
933.80	1087.88
934.10	1090.92
934.40	1099.12
934.70	1093.50
935.00	1089.52
935.30	1089.29
935.60	1102.16
935.90	1102.86
936.20	1107.31
936.50	1101.69
936.81	1097.48
937.11	1086.01
937.41	1083.90
937.71	1074.77
938.01	1089.75
938.31	1094.67
938.61	1089.99
938.91	1093.50
939.21	1105.67
939.51	1086.94
939.81	1080.86
940.11	1079.22
940.41	1077.35
940.71	1068.92
941.01	1065.18
941.31	1067.05
941.61	1077.35
941.91	1068.45
942.21	1066.35
942.51	1074.54
942.81	1078.52
943.11	1079.46
943.41	1079.92
943.71	1082.26
944.01	1081.80
944.31	1076.18
944.61	1062.14
944.90	1064.01
945.20	1071.26
945.50	1078.75
945.80	1065.88
946.10	1071.97
946.40	1077.58
946.70	1068.92
947.00	1072.90
947.30	1080.39
947.60	1073.60
947.89	1062.37
948.19	1064.24
948.49	1057.45
948.79	1064.24
949.09	1077.35
949.39	1088.58
949.69	1089.99
949.98	1082.26
950.28	1072.43
950.58	1060.96
950.88	1053.94
951.18	1053.94
951.48	1064.24
951.77	1072.67
952.07	1086.24
952.37	1087.18
952.67	1083.20
952.97	1083.20
953.26	1076.18
953.56	1066.82
953.86	1078.52
954.16	1091.86
954.45	1084.84
954.75	1086.71
955.05	1089.05
955.35	1082.26
955.64	1077.11
955.94	1073.37
956.24	1076.41
956.54	1086.71
956.83	1083.43
957.13	1079.69
957.43	1092.09
957.72	1088.35
958.02	1075.01
958.32	1071.03
958.61	1067.28
958.91	1068.69
959.21	1072.43
959.50	1082.50
959.80	1086.94
960.10	1094.43
960.39	1094.43
960.69	1093.03
960.99	1090.46
961.28	1100.99
961.58	1085.54
961.87	1079.69
962.17	1086.71
962.47	1072.43
962.76	1063.07
963.06	1076.18
963.36	1070.80
963.65	1064.24
963.95	1065.18
964.24	1053.71
964.54	1059.33
964.83	1067.99
965.13	1067.75
965.42	1064.71
965.72	1074.54
966.02	1061.67
966.31	1057.69
966.61	1064.01
966.90	1080.86
967.20	1082.50
967.49	1089.99
967.79	1088.58
968.08	1081.09
968.38	1077.35
968.67	1084.37
968.97	1093.73
969.26	1097.71
969.56	1102.39
969.85	1098.41
970.15	1092.80
970.44	1084.14
970.74	1080.39
971.03	1077.11
971.32	1078.75
971.62	1078.28
971.91	1079.92
972.21	1079.46
972.50	1094.67
972.80	1094.43
973.09	1095.14
973.38	1092.80
973.68	1084.37
973.97	1083.20
974.27	1078.75
974.56	1074.77
974.85	1073.60
975.15	1083.20
975.44	1074.77
975.73	1071.97
976.03	1073.84
976.32	1071.50
976.61	1070.80
976.91	1066.82
977.20	1067.05
977.49	1081.09
977.79	1087.65
978.08	1088.58
978.37	1090.46
978.67	1095.84
978.96	1084.60
979.25	1082.73
979.55	1082.73
979.84	1078.28
980.13	1074.54
980.42	1079.92
980.72	1082.03
981.01	1082.73
981.30	1084.84
981.59	1087.41
981.89	1084.37
982.18	1082.03
982.47	1080.16
982.76	1086.48
983.06	1081.56
983.35	1079.46
983.64	1078.75
983.93	1076.88
984.22	1071.73
984.52	1087.88
984.81	1082.73
985.10	1079.69
985.39	1087.41
985.68	1081.09
985.97	1077.82
986.27	1081.56
986.56	1086.01
986.85	1079.69
987.14	1087.65
987.43	1079.22
987.72	1069.86
988.01	1071.50
988.31	1060.73
988.60	1063.31
988.89	1068.22
989.18	1068.22
989.47	1071.50
989.76	1084.60
990.05	1087.88
990.34	1093.97
990.63	1099.35
990.92	1092.33
991.21	1092.09
991.51	1090.46
991.80	1089.52
992.09	1083.90
992.38	1077.82
992.67	1078.75
992.96	1073.37
993.25	1064.94
993.54	1069.16
993.83	1066.11
994.12	1064.94
994.41	1068.92
994.70	1078.28
994.99	1078.28
995.28	1082.97
995.57	1083.43
995.86	1082.26
996.15	1070.80
996.44	1065.41
996.73	1064.01
997.02	1061.90
997.31	1055.35
997.59	1054.88
997.88	1065.65
998.17	1069.62
998.46	1063.31
998.75	1067.99
999.04	1077.82
999.33	1086.71
999.62	1092.09
999.91	1096.78
1000.20	1097.95
1000.49	1088.58
1000.77	1073.60
1001.06	1061.43
1001.35	1062.14
1001.64	1067.75
1001.93	1079.69
1002.22	1082.73
1002.51	1088.82
1002.79	1094.67
1003.08	1071.26
1003.37	1061.67
1003.66	1060.26
1003.95	1059.09
1004.23	1053.48
1004.52	1069.86
1004.81	1063.77
1005.10	1060.50
1005.39	1059.56
1005.67	1062.37
1005.96	1056.05
1006.25	1073.14
1006.54	1077.82
1006.83	1086.94
1007.11	1083.43
1007.40	1094.20
1007.69	1086.24
1007.97	1088.58
1008.26	1085.77
1008.55	1091.39
1008.84	1083.67
1009.12	1078.52
1009.41	1082.73
1009.70	1082.03
1009.98	1080.86
1010.27	1083.43
1010.56	1094.67
1010.85	1088.58
1011.13	1087.18
1011.42	1085.77
1011.71	1089.29
1011.99	1085.07
1012.28	1082.73
1012.56	1082.97
1012.85	1077.35
1013.14	1070.80
1013.42	1068.22
1013.71	1072.43
1014.00	1075.94
1014.28	1076.65
1014.57	1069.16
1014.85	1070.33
1015.14	1070.09
1015.43	1071.03
1015.71	1069.39
1016.00	1080.63
1016.28	1080.86
1016.57	1080.39
1016.85	1073.14
1017.14	1083.20
1017.43	1088.35
1017.71	1083.90
1018.00	1072.67
1018.28	1083.43
1018.57	1081.33
1018.85	1074.31
1019.14	1073.14
1019.42	1078.75
1019.71	1070.80
1019.99	1076.18
1020.28	1078.52
1020.56	1088.82
1020.85	1096.31
1021.13	1092.80
1021.42	1086.24
1021.70	1086.24
1021.99	1082.26
1022.27	1089.99
1022.55	1093.03
1022.84	1131.65
>>>>>End Processed Spectral Data<<<<<
