SpectraSuite Data File
++++++++++++++++++++++++++++++++++++
Date: Mon Aug 26 10:25:58 PDT 2019
User: corrico
Dark Spectrum Present: No
Reference Spectrum Present: No
Number of Sampled Component Spectra: 1
Spectrometers: USB2+H06089
Integration Time (usec): 10000 (USB2+H06089)
Spectra Averaged: 2 (USB2+H06089)
Boxcar Smoothing: 2 (USB2+H06089)
Correct for Electrical Dark: No (USB2+H06089)
Strobe/Lamp Enabled: No (USB2+H06089)
Correct for Detector Non-linearity: No (USB2+H06089)
Correct for Stray Light: No (USB2+H06089)
Number of Pixels in Processed Spectrum: 2048
>>>>>Begin Processed Spectral Data<<<<<
339.70	1013.45
340.07	1013.45
340.45	986.07
340.82	976.24
341.19	957.98
341.57	937.85
341.94	918.19
342.31	917.96
342.69	906.02
343.06	906.02
343.43	905.79
343.81	917.49
344.18	908.60
344.55	910.94
344.93	906.72
345.30	908.83
345.67	912.11
346.04	932.70
346.42	941.13
346.79	953.30
347.16	965.94
347.54	974.60
347.91	968.05
348.28	973.43
348.65	982.56
349.03	988.41
349.40	999.88
349.77	1021.41
350.14	1024.92
350.52	1029.37
350.89	1042.71
351.26	1043.88
351.63	1043.88
352.01	1055.58
352.38	1068.92
352.75	1068.45
353.12	1077.82
353.50	1081.09
353.87	1096.78
354.24	1094.20
354.61	1088.82
354.98	1078.99
355.36	1086.01
355.73	1084.37
356.10	1081.09
356.47	1078.05
356.84	1089.05
357.22	1081.80
357.59	1069.86
357.96	1068.92
358.33	1079.22
358.70	1073.37
359.08	1067.28
359.45	1073.84
359.82	1076.41
360.19	1070.80
360.56	1068.92
360.94	1075.71
361.31	1077.11
361.68	1069.62
362.05	1073.60
362.42	1071.50
362.79	1076.41
363.16	1069.16
363.54	1077.35
363.91	1075.24
364.28	1076.18
364.65	1067.99
365.02	1067.75
365.39	1060.73
365.76	1065.18
366.14	1060.73
366.51	1063.07
366.88	1065.65
367.25	1075.24
367.62	1069.62
367.99	1078.52
368.36	1075.48
368.73	1077.11
369.10	1071.26
369.48	1070.09
369.85	1074.31
370.22	1065.88
370.59	1061.67
370.96	1066.82
371.33	1066.82
371.70	1063.54
372.07	1079.69
372.44	1075.01
372.81	1072.43
373.18	1074.54
373.55	1075.24
373.93	1069.62
374.30	1075.01
374.67	1075.71
375.04	1071.73
375.41	1057.92
375.78	1056.52
376.15	1065.65
376.52	1058.62
376.89	1064.94
377.26	1088.58
377.63	1086.01
378.00	1079.69
378.37	1089.05
378.74	1086.01
379.11	1077.35
379.48	1079.69
379.85	1078.52
380.22	1078.05
380.59	1076.18
380.96	1068.22
381.33	1062.14
381.70	1059.56
382.07	1060.73
382.44	1072.43
382.81	1076.88
383.18	1076.88
383.55	1077.35
383.92	1076.65
384.29	1079.46
384.66	1073.37
385.03	1079.92
385.40	1085.77
385.77	1087.88
386.14	1082.97
386.51	1091.39
386.88	1092.09
387.25	1084.14
387.62	1071.73
387.99	1060.73
388.36	1060.03
388.73	1067.99
389.10	1069.16
389.46	1081.09
389.83	1084.37
390.20	1079.46
390.57	1080.63
390.94	1084.60
391.31	1070.33
391.68	1071.26
392.05	1076.88
392.42	1060.03
392.79	1054.41
393.16	1069.39
393.53	1074.77
393.89	1075.24
394.26	1091.39
394.63	1097.24
395.00	1090.92
395.37	1084.84
395.74	1089.75
396.11	1074.31
396.48	1074.54
396.84	1067.05
397.21	1066.11
397.58	1053.71
397.95	1056.52
398.32	1056.05
398.69	1063.77
399.06	1066.11
399.42	1072.90
399.79	1072.90
400.16	1071.73
400.53	1066.11
400.90	1066.82
401.27	1059.09
401.64	1076.65
402.00	1074.77
402.37	1080.16
402.74	1075.48
403.11	1079.22
403.48	1075.01
403.84	1071.73
404.21	1072.90
404.58	1079.69
404.95	1085.54
405.32	1079.69
405.68	1078.75
406.05	1077.11
406.42	1076.65
406.79	1069.16
407.16	1065.88
407.52	1076.65
407.89	1082.26
408.26	1077.35
408.63	1084.14
408.99	1082.73
409.36	1073.60
409.73	1066.82
410.10	1074.31
410.47	1065.18
410.83	1062.60
411.20	1069.86
411.57	1074.54
411.94	1071.73
412.30	1091.39
412.67	1100.99
413.04	1103.09
413.40	1107.54
413.77	1114.10
414.14	1111.75
414.51	1105.44
414.87	1099.82
415.24	1090.69
415.61	1082.26
415.97	1076.88
416.34	1071.50
416.71	1079.92
417.08	1084.60
417.44	1083.43
417.81	1074.77
418.18	1081.33
418.54	1072.43
418.91	1069.16
419.28	1074.54
419.64	1083.20
420.01	1081.56
420.38	1078.75
420.74	1083.20
421.11	1083.43
421.48	1083.67
421.84	1088.82
422.21	1093.73
422.58	1090.46
422.94	1082.50
423.31	1072.43
423.68	1072.43
424.04	1073.60
424.41	1071.50
424.77	1068.92
425.14	1067.99
425.51	1068.45
425.87	1057.45
426.24	1059.09
426.61	1060.50
426.97	1074.07
427.34	1066.58
427.70	1076.65
428.07	1075.48
428.44	1087.18
428.80	1073.37
429.17	1080.63
429.53	1076.88
429.90	1078.52
430.27	1066.11
430.63	1074.31
431.00	1072.90
431.36	1082.50
431.73	1090.92
432.09	1100.29
432.46	1094.20
432.83	1087.18
433.19	1081.80
433.56	1071.26
433.92	1071.97
434.29	1082.97
434.65	1081.80
435.02	1086.01
435.38	1099.35
435.75	1083.43
436.11	1071.03
436.48	1081.09
436.84	1071.26
437.21	1060.73
437.57	1076.41
437.94	1082.97
438.30	1071.26
438.67	1077.82
439.03	1076.18
439.40	1069.62
439.76	1065.41
440.13	1074.31
440.49	1070.56
440.86	1075.71
441.22	1078.75
441.59	1080.16
441.95	1082.50
442.32	1086.94
442.68	1082.26
443.05	1078.05
443.41	1078.52
443.78	1076.41
444.14	1075.71
444.51	1079.92
444.87	1080.39
445.24	1079.92
445.60	1078.99
445.96	1071.03
446.33	1074.77
446.69	1071.97
447.06	1082.97
447.42	1081.09
447.79	1094.43
448.15	1089.52
448.51	1102.39
448.88	1086.48
449.24	1085.31
449.61	1081.80
449.97	1082.73
450.33	1084.60
450.70	1094.67
451.06	1095.14
451.43	1086.48
451.79	1084.60
452.15	1067.28
452.52	1059.09
452.88	1062.84
453.24	1067.05
453.61	1063.77
453.97	1064.48
454.34	1064.01
454.70	1061.43
455.06	1067.28
455.43	1075.01
455.79	1085.07
456.15	1091.86
456.52	1093.26
456.88	1092.09
457.24	1086.48
457.61	1084.14
457.97	1082.50
458.33	1083.20
458.70	1068.22
459.06	1064.01
459.42	1067.99
459.79	1066.58
460.15	1074.31
460.51	1080.16
460.88	1080.86
461.24	1071.50
461.60	1069.39
461.96	1059.33
462.33	1063.54
462.69	1063.07
463.05	1071.26
463.42	1080.39
463.78	1080.86
464.14	1085.54
464.50	1087.65
464.87	1086.24
465.23	1082.26
465.59	1076.41
465.95	1064.01
466.32	1064.48
466.68	1058.86
467.04	1059.56
467.40	1063.54
467.77	1064.48
468.13	1062.37
468.49	1063.07
468.85	1067.99
469.22	1077.35
469.58	1090.69
469.94	1096.31
470.30	1102.16
470.66	1087.65
471.03	1084.14
471.39	1080.39
471.75	1074.54
472.11	1073.84
472.47	1090.69
472.84	1085.77
473.20	1077.35
473.56	1066.82
473.92	1076.88
474.28	1071.97
474.65	1076.41
475.01	1081.33
475.37	1100.52
475.73	1097.01
476.09	1100.05
476.45	1100.75
476.81	1097.48
477.18	1095.84
477.54	1091.86
477.90	1086.71
478.26	1097.24
478.62	1095.60
478.98	1089.99
479.34	1081.56
479.71	1076.18
480.07	1061.20
480.43	1067.99
480.79	1063.77
481.15	1069.39
481.51	1076.65
481.87	1073.60
482.23	1072.67
482.59	1084.60
482.96	1088.12
483.32	1086.24
483.68	1090.46
484.04	1091.39
484.40	1086.01
484.76	1086.01
485.12	1080.39
485.48	1079.46
485.84	1074.31
486.20	1068.69
486.56	1070.56
486.92	1075.94
487.28	1080.63
487.64	1088.82
488.00	1088.58
488.37	1084.60
488.73	1083.20
489.09	1084.60
489.45	1084.37
489.81	1093.50
490.17	1093.03
490.53	1078.28
490.89	1074.07
491.25	1066.35
491.61	1054.41
491.97	1053.71
492.33	1075.24
492.69	1074.54
493.05	1081.56
493.41	1090.22
493.77	1083.20
494.13	1071.50
494.49	1077.82
494.85	1074.54
495.21	1067.52
495.57	1072.20
495.93	1080.16
496.29	1072.20
496.64	1076.41
497.00	1086.94
497.36	1085.07
497.72	1080.16
498.08	1083.20
498.44	1075.01
498.80	1079.92
499.16	1092.33
499.52	1089.52
499.88	1095.60
500.24	1106.37
500.60	1096.31
500.96	1087.88
501.32	1094.67
501.68	1081.33
502.03	1071.73
502.39	1080.86
502.75	1077.82
503.11	1075.94
503.47	1086.71
503.83	1087.41
504.19	1082.50
504.55	1086.24
504.91	1089.99
505.26	1089.05
505.62	1095.14
505.98	1090.92
506.34	1094.90
506.70	1095.14
507.06	1093.03
507.42	1089.99
507.78	1094.43
508.13	1086.94
508.49	1079.69
508.85	1080.39
509.21	1084.84
509.57	1078.75
509.93	1079.46
510.28	1088.12
510.64	1090.22
511.00	1078.99
511.36	1076.41
511.72	1076.41
512.07	1076.65
512.43	1072.20
512.79	1077.82
513.15	1087.18
513.51	1090.92
513.86	1084.84
514.22	1089.05
514.58	1089.29
514.94	1093.50
515.30	1090.46
515.65	1083.20
516.01	1079.92
516.37	1082.50
516.73	1067.05
517.08	1074.07
517.44	1074.77
517.80	1071.26
518.16	1077.58
518.51	1083.43
518.87	1087.41
519.23	1096.78
519.59	1103.09
519.94	1094.43
520.30	1097.24
520.66	1078.75
521.01	1078.05
521.37	1079.46
521.73	1076.88
522.09	1070.56
522.44	1084.37
522.80	1091.63
523.16	1086.94
523.51	1086.24
523.87	1097.48
524.23	1091.86
524.58	1089.05
524.94	1096.07
525.30	1105.20
525.65	1106.37
526.01	1112.46
526.37	1107.31
526.72	1102.86
527.08	1095.14
527.44	1090.46
527.79	1089.29
528.15	1088.35
528.51	1093.50
528.86	1098.88
529.22	1093.03
529.58	1084.14
529.93	1087.65
530.29	1082.97
530.65	1074.07
531.00	1080.63
531.36	1080.86
531.71	1072.90
532.07	1068.69
532.43	1080.86
532.78	1087.88
533.14	1098.65
533.49	1106.14
533.85	1113.86
534.21	1107.78
534.56	1094.20
534.92	1092.80
535.27	1086.24
535.63	1085.77
535.98	1080.16
536.34	1083.90
536.69	1087.41
537.05	1093.73
537.41	1086.94
537.76	1089.05
538.12	1094.43
538.47	1086.71
538.83	1077.82
539.18	1077.58
539.54	1089.52
539.89	1086.94
540.25	1091.63
540.60	1089.05
540.96	1092.80
541.31	1093.97
541.67	1089.05
542.02	1079.69
542.38	1090.92
542.73	1092.56
543.09	1088.12
543.44	1091.86
543.80	1096.07
544.15	1098.41
544.51	1100.05
544.86	1100.99
545.22	1108.71
545.57	1102.63
545.93	1105.67
546.28	1096.07
546.64	1091.39
546.99	1090.92
547.35	1103.80
547.70	1102.86
548.05	1102.39
548.41	1100.29
548.76	1100.99
549.12	1100.75
549.47	1093.50
549.83	1104.03
550.18	1113.86
550.53	1102.63
550.89	1093.73
551.24	1091.63
551.60	1088.58
551.95	1078.52
552.30	1067.99
552.66	1063.54
553.01	1066.11
553.37	1057.69
553.72	1061.43
554.07	1085.07
554.43	1086.01
554.78	1087.65
555.13	1092.33
555.49	1086.48
555.84	1074.77
556.19	1083.67
556.55	1083.90
556.90	1085.07
557.26	1092.33
557.61	1089.75
557.96	1085.54
558.32	1089.05
558.67	1085.77
559.02	1076.18
559.37	1071.03
559.73	1069.16
560.08	1063.54
560.43	1067.75
560.79	1063.77
561.14	1063.54
561.49	1065.65
561.85	1068.45
562.20	1062.37
562.55	1072.90
562.90	1090.22
563.26	1093.26
563.61	1088.35
563.96	1102.63
564.32	1105.20
564.67	1095.84
565.02	1090.69
565.37	1089.75
565.73	1084.60
566.08	1080.63
566.43	1077.58
566.78	1085.31
567.14	1090.92
567.49	1089.29
567.84	1078.05
568.19	1067.99
568.54	1061.20
568.90	1059.79
569.25	1059.79
569.60	1074.54
569.95	1083.20
570.31	1083.20
570.66	1082.26
571.01	1092.80
571.36	1080.63
571.71	1075.94
572.06	1085.31
572.42	1082.73
572.77	1072.90
573.12	1084.37
573.47	1093.97
573.82	1079.92
574.18	1081.33
574.53	1077.58
574.88	1071.03
575.23	1071.50
575.58	1074.77
575.93	1077.11
576.28	1081.33
576.64	1087.65
576.99	1085.77
577.34	1100.05
577.69	1092.33
578.04	1082.03
578.39	1075.48
578.74	1078.05
579.09	1059.33
579.44	1061.90
579.80	1071.26
580.15	1067.99
580.50	1068.92
580.85	1079.92
581.20	1082.73
581.55	1077.82
581.90	1083.43
582.25	1080.63
582.60	1081.56
582.95	1081.80
583.30	1085.31
583.65	1074.77
584.00	1071.50
584.35	1075.24
584.71	1071.03
585.06	1061.20
585.41	1071.26
585.76	1082.26
586.11	1079.46
586.46	1086.48
586.81	1101.22
587.16	1107.54
587.51	1099.35
587.86	1092.56
588.21	1091.16
588.56	1081.80
588.91	1068.92
589.26	1072.67
589.61	1073.60
589.96	1069.86
590.31	1074.77
590.66	1083.20
591.01	1080.39
591.36	1077.82
591.71	1079.92
592.06	1080.39
592.41	1076.41
592.76	1077.35
593.10	1075.94
593.45	1075.48
593.80	1068.92
594.15	1066.58
594.50	1070.33
594.85	1068.45
595.20	1071.73
595.55	1071.03
595.90	1078.99
596.25	1075.01
596.60	1082.73
596.95	1080.63
597.30	1087.18
597.64	1131.65
597.99	1141.71
598.34	1145.69
598.69	1147.56
599.04	1147.56
599.39	1097.01
599.74	1080.16
600.09	1083.43
600.44	1084.60
600.78	1102.16
601.13	1108.71
601.48	1116.20
601.83	1109.65
602.18	1095.14
602.53	1080.63
602.88	1085.31
603.22	1089.29
603.57	1098.18
603.92	1109.41
604.27	1091.16
604.62	1088.82
604.97	1079.69
605.31	1066.58
605.66	1072.67
606.01	1088.12
606.36	1078.52
606.71	1082.26
607.05	1092.56
607.40	1089.75
607.75	1078.28
608.10	1086.94
608.44	1076.65
608.79	1062.60
609.14	1059.33
609.49	1062.14
609.84	1049.03
610.18	1057.45
610.53	1067.99
610.88	1063.54
611.23	1075.71
611.57	1087.65
611.92	1095.84
612.27	1088.82
612.62	1093.97
612.96	1093.03
613.31	1092.09
613.66	1088.58
614.00	1093.97
614.35	1096.31
614.70	1096.54
615.05	1102.16
615.39	1093.73
615.74	1085.77
616.09	1077.82
616.43	1070.56
616.78	1062.14
617.13	1066.11
617.47	1062.60
617.82	1069.39
618.17	1069.62
618.51	1066.82
618.86	1067.28
619.21	1081.33
619.55	1077.11
619.90	1077.11
620.25	1080.39
620.59	1086.01
620.94	1079.22
621.29	1093.26
621.63	1093.50
621.98	1090.22
622.32	1089.99
622.67	1093.73
623.02	1079.22
623.36	1076.88
623.71	1077.82
624.05	1073.84
624.40	1081.33
624.75	1089.05
625.09	1099.35
625.44	1099.35
625.78	1107.31
626.13	1103.56
626.48	1108.71
626.82	1105.67
627.17	1111.75
627.51	1110.35
627.86	1104.03
628.20	1096.78
628.55	1091.63
628.89	1096.78
629.24	1081.09
629.58	1081.09
629.93	1091.63
630.28	1098.65
630.62	1095.14
630.97	1113.86
631.31	1112.46
631.66	1094.90
632.00	1092.56
632.35	1077.82
632.69	1071.26
633.04	1077.82
633.38	1086.01
633.73	1085.77
634.07	1090.46
634.42	1090.46
634.76	1086.01
635.11	1072.67
635.45	1063.07
635.79	1060.96
636.14	1058.62
636.48	1056.52
636.83	1063.54
637.17	1071.73
637.52	1070.33
637.86	1074.77
638.21	1088.58
638.55	1088.58
638.89	1090.22
639.24	1103.56
639.58	1103.80
639.93	1091.16
640.27	1098.65
640.61	1095.60
640.96	1093.26
641.30	1083.43
641.65	1078.99
641.99	1066.35
642.33	1067.05
642.68	1064.01
643.02	1070.56
643.37	1071.50
643.71	1082.26
644.05	1084.84
644.40	1086.48
644.74	1089.05
645.08	1092.33
645.43	1089.75
645.77	1090.22
646.11	1086.71
646.46	1090.69
646.80	1087.88
647.14	1086.01
647.49	1081.56
647.83	1078.05
648.17	1069.62
648.52	1075.94
648.86	1079.46
649.20	1089.05
649.55	1099.58
649.89	1094.43
650.23	1102.63
650.57	1103.33
650.92	1089.05
651.26	1078.05
651.60	1084.60
651.95	1072.20
652.29	1071.03
652.63	1075.48
652.97	1082.03
653.32	1071.97
653.66	1082.73
654.00	1069.39
654.34	1075.71
654.69	1080.39
655.03	1092.33
655.37	1085.54
655.71	1089.52
656.05	1088.12
656.40	1088.12
656.74	1087.65
657.08	1090.92
657.42	1099.82
657.76	1095.14
658.11	1095.37
658.45	1087.88
658.79	1087.41
659.13	1085.54
659.47	1089.52
659.82	1078.28
660.16	1085.54
660.50	1074.31
660.84	1074.31
661.18	1065.88
661.52	1076.41
661.87	1077.58
662.21	1085.54
662.55	1085.31
662.89	1085.54
663.23	1078.52
663.57	1075.24
663.91	1081.09
664.25	1074.07
664.60	1075.01
664.94	1086.01
665.28	1089.29
665.62	1083.43
665.96	1088.82
666.30	1097.95
666.64	1099.58
666.98	1095.14
667.32	1094.90
667.66	1098.41
668.01	1090.69
668.35	1086.24
668.69	1086.48
669.03	1083.90
669.37	1087.18
669.71	1087.65
670.05	1082.50
670.39	1076.88
670.73	1077.35
671.07	1066.82
671.41	1073.14
671.75	1077.11
672.09	1079.69
672.43	1080.63
672.77	1086.24
673.11	1067.28
673.45	1060.03
673.79	1061.90
674.13	1061.43
674.47	1061.20
674.81	1075.01
675.15	1075.94
675.49	1078.75
675.83	1078.28
676.17	1079.69
676.51	1079.46
676.85	1077.35
677.19	1076.41
677.53	1083.43
677.87	1089.75
678.21	1100.05
678.55	1111.52
678.89	1104.97
679.23	1106.61
679.57	1093.26
679.90	1081.56
680.24	1075.24
680.58	1092.56
680.92	1085.54
681.26	1087.65
681.60	1084.84
681.94	1086.24
682.28	1072.20
682.62	1066.82
682.96	1071.03
683.29	1069.86
683.63	1063.77
683.97	1064.94
684.31	1063.07
684.65	1061.20
684.99	1064.71
685.33	1064.48
685.67	1067.28
686.00	1070.33
686.34	1065.41
686.68	1068.45
687.02	1073.14
687.36	1071.73
687.70	1076.41
688.03	1085.07
688.37	1078.05
688.71	1080.39
689.05	1082.97
689.39	1082.50
689.72	1079.92
690.06	1096.78
690.40	1103.80
690.74	1101.22
691.08	1106.37
691.41	1125.10
691.75	1114.33
692.09	1102.39
692.43	1098.18
692.76	1092.56
693.10	1074.31
693.44	1070.33
693.78	1081.56
694.11	1090.22
694.45	1086.48
694.79	1085.07
695.13	1091.16
695.46	1081.09
695.80	1078.52
696.14	1073.60
696.48	1078.99
696.81	1077.35
697.15	1075.94
697.49	1073.60
697.82	1073.60
698.16	1068.92
698.50	1064.24
698.83	1067.05
699.17	1056.28
699.51	1076.41
699.84	1082.03
700.18	1098.18
700.52	1091.39
700.85	1109.18
701.19	1098.65
701.53	1090.92
701.86	1086.94
702.20	1087.18
702.54	1084.37
702.87	1087.18
703.21	1093.97
703.55	1082.73
703.88	1099.35
704.22	1099.12
704.55	1096.31
704.89	1090.46
705.23	1100.05
705.56	1097.71
705.90	1101.46
706.23	1103.56
706.57	1100.75
706.91	1097.48
707.24	1090.92
707.58	1088.82
707.91	1084.60
708.25	1077.35
708.58	1076.41
708.92	1065.65
709.26	1059.79
709.59	1059.33
709.93	1069.86
710.26	1080.86
710.60	1094.43
710.93	1096.07
711.27	1098.18
711.60	1095.14
711.94	1079.92
712.27	1085.31
712.61	1085.77
712.94	1084.84
713.28	1099.82
713.61	1103.33
713.95	1097.01
714.28	1089.99
714.62	1092.09
714.95	1087.41
715.29	1088.12
715.62	1078.99
715.96	1085.54
716.29	1088.82
716.63	1084.60
716.96	1078.05
717.29	1079.92
717.63	1086.48
717.96	1075.48
718.30	1076.18
718.63	1080.86
718.97	1085.77
719.30	1065.88
719.63	1076.18
719.97	1075.71
720.30	1080.86
720.64	1084.14
720.97	1091.86
721.30	1084.60
721.64	1081.09
721.97	1073.60
722.31	1065.88
722.64	1066.58
722.97	1062.37
723.31	1064.71
723.64	1068.69
723.97	1073.14
724.31	1084.84
724.64	1085.77
724.98	1086.94
725.31	1085.07
725.64	1081.80
725.98	1072.43
726.31	1081.56
726.64	1073.60
726.97	1071.50
727.31	1071.26
727.64	1070.09
727.97	1064.24
728.31	1066.82
728.64	1071.03
728.97	1080.16
729.31	1078.99
729.64	1090.22
729.97	1085.07
730.30	1089.29
730.64	1082.50
730.97	1088.35
731.30	1081.33
731.63	1090.22
731.97	1090.69
732.30	1088.35
732.63	1081.33
732.96	1088.12
733.30	1080.39
733.63	1067.05
733.96	1070.56
734.29	1080.16
734.63	1073.14
734.96	1082.50
735.29	1097.95
735.62	1103.80
735.95	1095.60
736.29	1088.82
736.62	1086.01
736.95	1078.99
737.28	1067.52
737.61	1073.60
737.94	1075.94
738.28	1071.73
738.61	1075.71
738.94	1075.71
739.27	1067.99
739.60	1069.86
739.93	1071.50
740.27	1064.71
740.60	1060.73
740.93	1071.03
741.26	1071.03
741.59	1072.90
741.92	1075.01
742.25	1084.84
742.58	1079.92
742.91	1082.03
743.25	1084.60
743.58	1079.22
743.91	1078.99
744.24	1080.16
744.57	1076.41
744.90	1075.48
745.23	1083.90
745.56	1076.18
745.89	1078.75
746.22	1073.14
746.55	1064.24
746.88	1066.58
747.21	1066.58
747.54	1064.94
747.87	1068.92
748.20	1075.94
748.53	1076.88
748.87	1083.20
749.20	1079.46
749.53	1074.54
749.86	1086.71
750.19	1076.18
750.52	1073.60
750.85	1068.45
751.18	1069.16
751.51	1055.35
751.84	1064.24
752.16	1071.50
752.49	1082.97
752.82	1085.77
753.15	1094.90
753.48	1091.16
753.81	1079.69
754.14	1067.99
754.47	1069.62
754.80	1065.88
755.13	1065.88
755.46	1074.54
755.79	1072.20
756.12	1075.01
756.45	1067.75
756.78	1063.07
757.11	1056.52
757.43	1075.24
757.76	1074.07
758.09	1083.90
758.42	1082.26
758.75	1085.31
759.08	1084.37
759.41	1083.67
759.74	1078.28
760.07	1088.82
760.39	1097.01
760.72	1087.65
761.05	1097.71
761.38	1104.26
761.71	1099.12
762.04	1093.03
762.36	1090.69
762.69	1088.58
763.02	1087.18
763.35	1087.41
763.68	1087.65
764.01	1098.41
764.33	1095.60
764.66	1093.26
764.99	1092.09
765.32	1081.09
765.65	1070.56
765.97	1067.75
766.30	1056.05
766.63	1057.69
766.96	1066.82
767.28	1069.16
767.61	1069.62
767.94	1078.99
768.27	1086.48
768.59	1095.14
768.92	1105.67
769.25	1097.48
769.58	1102.16
769.90	1093.26
770.23	1089.52
770.56	1081.80
770.89	1089.05
771.21	1081.33
771.54	1079.92
771.87	1070.09
772.19	1065.41
772.52	1067.52
772.85	1071.73
773.17	1078.05
773.50	1078.99
773.83	1084.84
774.15	1096.31
774.48	1099.58
774.81	1097.24
775.13	1107.07
775.46	1102.86
775.79	1084.60
776.11	1083.90
776.44	1074.31
776.77	1069.39
777.09	1072.67
777.42	1081.09
777.74	1074.54
778.07	1084.84
778.40	1083.90
778.72	1081.09
779.05	1082.50
779.37	1084.84
779.70	1082.26
780.03	1083.67
780.35	1089.99
780.68	1090.22
781.00	1085.54
781.33	1094.43
781.65	1089.75
781.98	1087.88
782.31	1080.16
782.63	1081.33
782.96	1069.16
783.28	1068.69
783.61	1071.50
783.93	1068.92
784.26	1073.84
784.58	1078.52
784.91	1089.99
785.23	1077.82
785.56	1071.03
785.88	1077.11
786.21	1080.39
786.53	1072.43
786.86	1073.37
787.18	1075.01
787.51	1069.86
787.83	1059.56
788.16	1070.80
788.48	1069.39
788.81	1077.58
789.13	1070.09
789.46	1076.41
789.78	1068.45
790.10	1072.20
790.43	1074.07
790.75	1086.48
791.08	1088.35
791.40	1085.77
791.73	1087.18
792.05	1088.35
792.37	1093.50
792.70	1089.05
793.02	1081.56
793.35	1087.18
793.67	1086.71
793.99	1077.11
794.32	1079.92
794.64	1084.14
794.96	1077.11
795.29	1075.24
795.61	1078.28
795.93	1085.31
796.26	1094.90
796.58	1089.52
796.91	1094.67
797.23	1085.54
797.55	1075.71
797.87	1064.24
798.20	1074.07
798.52	1067.75
798.84	1071.26
799.17	1073.84
799.49	1081.56
799.81	1079.46
800.14	1090.22
800.46	1090.92
800.78	1086.71
801.10	1080.63
801.43	1076.88
801.75	1066.58
802.07	1056.05
802.40	1059.09
802.72	1066.11
803.04	1066.35
803.36	1074.54
803.69	1098.41
804.01	1105.90
804.33	1102.39
804.65	1116.20
804.97	1112.69
805.30	1101.69
805.62	1096.07
805.94	1099.35
806.26	1090.69
806.58	1095.14
806.91	1090.46
807.23	1095.14
807.55	1085.31
807.87	1079.22
808.19	1066.35
808.52	1076.18
808.84	1071.50
809.16	1078.99
809.48	1092.09
809.80	1106.61
810.12	1101.69
810.44	1094.43
810.77	1091.16
811.09	1096.07
811.41	1092.56
811.73	1093.03
812.05	1100.99
812.37	1102.39
812.69	1086.01
813.01	1079.92
813.33	1083.43
813.66	1078.75
813.98	1075.01
814.30	1071.73
814.62	1074.54
814.94	1070.56
815.26	1075.24
815.58	1079.69
815.90	1085.77
816.22	1083.43
816.54	1087.88
816.86	1090.22
817.18	1094.20
817.50	1091.86
817.82	1087.41
818.14	1080.63
818.46	1078.05
818.78	1065.18
819.10	1067.52
819.42	1070.33
819.74	1074.54
820.06	1067.52
820.38	1081.09
820.70	1075.01
821.02	1075.48
821.34	1080.16
821.66	1083.43
821.98	1082.50
822.30	1091.16
822.62	1099.82
822.94	1083.67
823.26	1084.14
823.58	1089.99
823.90	1085.54
824.22	1079.69
824.54	1085.31
824.86	1089.29
825.18	1072.90
825.50	1066.35
825.81	1062.37
826.13	1063.07
826.45	1066.58
826.77	1071.03
827.09	1072.90
827.41	1075.71
827.73	1064.01
828.05	1058.16
828.36	1063.54
828.68	1071.73
829.00	1067.52
829.32	1071.73
829.64	1078.05
829.96	1073.37
830.28	1069.39
830.59	1072.90
830.91	1079.69
831.23	1077.11
831.55	1084.60
831.87	1096.07
832.19	1092.56
832.50	1094.90
832.82	1096.54
833.14	1089.99
833.46	1072.90
833.78	1076.41
834.09	1078.28
834.41	1080.86
834.73	1083.43
835.05	1094.20
835.36	1103.80
835.68	1092.33
836.00	1086.94
836.32	1084.14
836.63	1084.60
836.95	1082.26
837.27	1090.69
837.59	1088.58
837.90	1084.84
838.22	1082.26
838.54	1068.22
838.85	1064.94
839.17	1065.88
839.49	1073.60
839.80	1080.86
840.12	1089.05
840.44	1099.12
840.76	1091.16
841.07	1088.12
841.39	1077.58
841.71	1070.09
842.02	1066.35
842.34	1070.33
842.65	1071.73
842.97	1072.43
843.29	1076.88
843.60	1070.56
843.92	1070.56
844.24	1074.77
844.55	1084.14
844.87	1091.39
845.18	1097.71
845.50	1101.92
845.82	1091.63
846.13	1088.58
846.45	1091.39
846.76	1092.33
847.08	1089.52
847.40	1094.67
847.71	1087.65
848.03	1067.52
848.34	1066.35
848.66	1070.56
848.97	1071.26
849.29	1076.65
849.60	1088.58
849.92	1082.50
850.24	1069.39
850.55	1066.82
850.87	1066.82
851.18	1063.31
851.50	1056.52
851.81	1075.01
852.13	1078.28
852.44	1077.82
852.76	1081.09
853.07	1092.80
853.39	1082.26
853.70	1082.73
854.01	1083.20
854.33	1084.84
854.64	1085.07
854.96	1086.24
855.27	1092.80
855.59	1084.14
855.90	1089.05
856.22	1086.94
856.53	1094.20
856.84	1082.03
857.16	1086.01
857.47	1083.20
857.79	1089.05
858.10	1086.01
858.41	1089.99
858.73	1084.60
859.04	1078.75
859.36	1070.09
859.67	1066.58
859.98	1069.16
860.30	1088.12
860.61	1091.63
860.92	1093.50
861.24	1097.48
861.55	1094.20
861.87	1082.73
862.18	1083.67
862.49	1076.65
862.81	1073.84
863.12	1084.84
863.43	1079.22
863.74	1078.28
864.06	1086.71
864.37	1076.65
864.68	1063.77
865.00	1070.09
865.31	1064.24
865.62	1059.79
865.94	1072.67
866.25	1075.24
866.56	1078.52
866.87	1078.75
867.19	1080.39
867.50	1085.54
867.81	1093.03
868.12	1095.84
868.44	1099.82
868.75	1099.58
869.06	1095.60
869.37	1085.31
869.68	1074.31
870.00	1084.84
870.31	1088.58
870.62	1094.43
870.93	1097.01
871.24	1099.12
871.56	1075.24
871.87	1075.01
872.18	1066.58
872.49	1069.39
872.80	1071.03
873.12	1088.82
873.43	1091.16
873.74	1088.82
874.05	1086.94
874.36	1094.20
874.67	1089.29
874.98	1085.54
875.29	1091.86
875.61	1090.46
875.92	1082.97
876.23	1082.03
876.54	1080.39
876.85	1073.37
877.16	1071.26
877.47	1070.33
877.78	1074.07
878.09	1067.99
878.40	1063.31
878.72	1060.73
879.03	1069.16
879.34	1062.60
879.65	1074.31
879.96	1077.82
880.27	1080.39
880.58	1073.14
880.89	1071.97
881.20	1070.33
881.51	1074.07
881.82	1086.48
882.13	1090.46
882.44	1094.20
882.75	1088.58
883.06	1082.73
883.37	1075.48
883.68	1067.52
883.99	1067.52
884.30	1086.01
884.61	1090.22
884.92	1091.63
885.23	1109.88
885.54	1114.33
885.85	1093.73
886.16	1084.14
886.47	1077.82
886.78	1060.26
887.08	1054.65
887.39	1071.03
887.70	1087.18
888.01	1096.07
888.32	1113.39
888.63	1104.97
888.94	1096.78
889.25	1099.58
889.56	1097.01
889.87	1075.01
890.17	1077.82
890.48	1076.88
890.79	1071.50
891.10	1073.60
891.41	1069.39
891.72	1074.31
892.03	1067.75
892.34	1057.45
892.64	1048.79
892.95	1053.71
893.26	1054.18
893.57	1061.67
893.88	1065.18
894.18	1064.71
894.49	1076.41
894.80	1075.24
895.11	1078.05
895.42	1077.35
895.72	1090.46
896.03	1078.28
896.34	1087.65
896.65	1082.26
896.96	1088.12
897.26	1077.11
897.57	1082.03
897.88	1079.46
898.19	1077.35
898.49	1078.05
898.80	1080.39
899.11	1088.82
899.41	1092.09
899.72	1098.88
900.03	1089.99
900.34	1092.09
900.64	1086.48
900.95	1082.50
901.26	1081.56
901.56	1084.37
901.87	1085.31
902.18	1091.39
902.48	1091.16
902.79	1090.92
903.10	1099.82
903.40	1089.99
903.71	1079.46
904.02	1072.90
904.32	1070.33
904.63	1071.03
904.94	1078.75
905.24	1079.92
905.55	1089.29
905.85	1086.94
906.16	1087.65
906.47	1090.92
906.77	1093.26
907.08	1090.46
907.38	1091.16
907.69	1076.65
908.00	1070.33
908.30	1071.26
908.61	1074.77
908.91	1079.22
909.22	1094.90
909.52	1099.12
909.83	1098.18
910.14	1091.63
910.44	1095.14
910.75	1094.20
911.05	1084.37
911.36	1075.48
911.66	1079.22
911.97	1064.48
912.27	1058.39
912.58	1055.82
912.88	1073.60
913.19	1084.37
913.49	1090.92
913.80	1077.58
914.10	1090.46
914.41	1081.80
914.71	1076.18
915.01	1073.14
915.32	1088.82
915.62	1086.71
915.93	1080.16
916.23	1071.73
916.54	1069.39
916.84	1065.18
917.15	1066.58
917.45	1082.97
917.75	1085.54
918.06	1090.22
918.36	1088.58
918.67	1088.35
918.97	1077.11
919.27	1073.60
919.58	1081.33
919.88	1081.80
920.18	1075.94
920.49	1079.46
920.79	1085.07
921.10	1081.80
921.40	1095.14
921.70	1103.09
922.01	1112.92
922.31	1107.78
922.61	1102.63
922.92	1093.03
923.22	1089.29
923.52	1076.18
923.82	1067.05
924.13	1066.58
924.43	1067.05
924.73	1067.75
925.04	1068.45
925.34	1086.24
925.64	1094.90
925.94	1095.14
926.25	1090.46
926.55	1090.69
926.85	1092.56
927.15	1096.07
927.46	1092.56
927.76	1090.46
928.06	1088.35
928.36	1086.94
928.67	1075.71
928.97	1073.84
929.27	1085.54
929.57	1091.39
929.87	1077.82
930.18	1082.50
930.48	1093.97
930.78	1087.88
931.08	1093.50
931.38	1100.52
931.69	1101.46
931.99	1087.41
932.29	1090.46
932.59	1080.39
932.89	1073.37
933.19	1067.75
933.49	1079.92
933.80	1078.05
934.10	1081.33
934.40	1086.24
934.70	1084.14
935.00	1081.80
935.30	1086.01
935.60	1087.41
935.90	1093.03
936.20	1104.03
936.50	1101.92
936.81	1103.09
937.11	1098.65
937.41	1097.48
937.71	1095.84
938.01	1099.82
938.31	1087.41
938.61	1097.71
938.91	1098.18
939.21	1095.14
939.51	1089.99
939.81	1091.39
940.11	1087.18
940.41	1083.67
940.71	1085.31
941.01	1082.03
941.31	1082.03
941.61	1085.31
941.91	1082.50
942.21	1077.35
942.51	1089.52
942.81	1091.63
943.11	1074.77
943.41	1077.82
943.71	1077.82
944.01	1063.07
944.31	1072.43
944.61	1074.07
944.90	1072.67
945.20	1079.22
945.50	1081.33
945.80	1070.80
946.10	1081.80
946.40	1087.41
946.70	1079.22
947.00	1086.24
947.30	1085.54
947.60	1080.86
947.89	1078.28
948.19	1089.05
948.49	1078.52
948.79	1077.58
949.09	1079.69
949.39	1087.18
949.69	1073.60
949.98	1081.09
950.28	1089.52
950.58	1092.56
950.88	1094.90
951.18	1101.92
951.48	1100.05
951.77	1094.67
952.07	1090.69
952.37	1075.24
952.67	1081.56
952.97	1079.92
953.26	1073.84
953.56	1070.80
953.86	1066.58
954.16	1062.14
954.45	1064.24
954.75	1076.65
955.05	1082.26
955.35	1093.26
955.64	1090.46
955.94	1086.01
956.24	1082.73
956.54	1067.75
956.83	1068.45
957.13	1067.28
957.43	1063.31
957.72	1060.50
958.02	1075.24
958.32	1076.65
958.61	1075.24
958.91	1089.29
959.21	1101.69
959.50	1102.86
959.80	1103.80
960.10	1107.54
960.39	1101.22
960.69	1081.80
960.99	1069.62
961.28	1055.58
961.58	1056.52
961.87	1049.26
962.17	1054.65
962.47	1061.67
962.76	1071.73
963.06	1069.62
963.36	1073.14
963.65	1071.97
963.95	1075.24
964.24	1071.50
964.54	1070.80
964.83	1074.07
965.13	1078.75
965.42	1074.77
965.72	1071.26
966.02	1075.48
966.31	1080.16
966.61	1080.16
966.90	1085.54
967.20	1088.82
967.49	1082.03
967.79	1073.37
968.08	1072.90
968.38	1069.16
968.67	1068.92
968.97	1070.56
969.26	1075.24
969.56	1076.88
969.85	1089.75
970.15	1094.90
970.44	1099.35
970.74	1096.54
971.03	1095.37
971.32	1086.94
971.62	1087.88
971.91	1086.01
972.21	1091.16
972.50	1093.26
972.80	1101.92
973.09	1110.82
973.38	1113.86
973.68	1104.73
973.97	1100.75
974.27	1087.18
974.56	1070.56
974.85	1074.31
975.15	1081.09
975.44	1078.05
975.73	1077.11
976.03	1086.24
976.32	1078.99
976.61	1087.88
976.91	1090.92
977.20	1089.99
977.49	1083.67
977.79	1088.58
978.08	1078.28
978.37	1073.37
978.67	1072.20
978.96	1070.56
979.25	1061.43
979.55	1059.33
979.84	1068.22
980.13	1075.24
980.42	1080.86
980.72	1093.73
981.01	1095.60
981.30	1084.14
981.59	1083.67
981.89	1083.20
982.18	1076.88
982.47	1082.26
982.76	1091.63
983.06	1082.26
983.35	1066.11
983.64	1067.28
983.93	1062.84
984.22	1063.31
984.52	1068.22
984.81	1081.80
985.10	1074.31
985.39	1071.97
985.68	1072.67
985.97	1078.99
986.27	1083.67
986.56	1089.29
986.85	1087.41
987.14	1086.24
987.43	1080.86
987.72	1078.05
988.01	1064.94
988.31	1072.43
988.60	1073.14
988.89	1077.35
989.18	1088.82
989.47	1104.26
989.76	1108.71
990.05	1111.52
990.34	1110.58
990.63	1108.48
990.92	1107.31
991.21	1102.39
991.51	1089.75
991.80	1086.71
992.09	1083.43
992.38	1077.35
992.67	1075.01
992.96	1088.82
993.25	1080.86
993.54	1076.88
993.83	1080.16
994.12	1072.43
994.41	1066.82
994.70	1075.48
994.99	1063.54
995.28	1065.18
995.57	1075.94
995.86	1081.56
996.15	1074.77
996.44	1079.92
996.73	1077.11
997.02	1067.99
997.31	1069.86
997.59	1072.20
997.88	1075.71
998.17	1074.54
998.46	1085.77
998.75	1081.33
999.04	1085.07
999.33	1093.50
999.62	1089.05
999.91	1086.48
1000.20	1088.12
1000.49	1077.82
1000.77	1066.35
1001.06	1064.48
1001.35	1052.77
1001.64	1036.62
1001.93	1047.16
1002.22	1053.94
1002.51	1058.86
1002.79	1064.71
1003.08	1072.67
1003.37	1073.14
1003.66	1066.82
1003.95	1067.28
1004.23	1067.05
1004.52	1074.31
1004.81	1075.94
1005.10	1076.41
1005.39	1076.88
1005.67	1075.94
1005.96	1060.73
1006.25	1060.50
1006.54	1059.79
1006.83	1063.54
1007.11	1070.09
1007.40	1079.92
1007.69	1067.05
1007.97	1079.22
1008.26	1080.16
1008.55	1073.60
1008.84	1076.18
1009.12	1086.71
1009.41	1076.18
1009.70	1076.18
1009.98	1079.92
1010.27	1077.35
1010.56	1079.22
1010.85	1071.26
1011.13	1068.22
1011.42	1064.71
1011.71	1066.35
1011.99	1070.56
1012.28	1074.31
1012.56	1067.05
1012.85	1076.88
1013.14	1076.65
1013.42	1071.26
1013.71	1084.37
1014.00	1095.60
1014.28	1085.31
1014.57	1080.86
1014.85	1085.54
1015.14	1083.67
1015.43	1081.09
1015.71	1090.22
1016.00	1095.37
1016.28	1084.37
1016.57	1076.88
1016.85	1078.52
1017.14	1077.35
1017.43	1079.69
1017.71	1092.09
1018.00	1097.48
1018.28	1091.39
1018.57	1085.07
1018.85	1086.71
1019.14	1071.73
1019.42	1070.80
1019.71	1084.37
1019.99	1091.86
1020.28	1084.84
1020.56	1099.58
1020.85	1098.88
1021.13	1095.60
1021.42	1091.16
1021.70	1097.71
1021.99	1088.58
1022.27	1081.56
1022.55	1061.43
1022.84	1055.58
>>>>>End Processed Spectral Data<<<<<
