SpectraSuite Data File
++++++++++++++++++++++++++++++++++++
Date: Mon Aug 26 10:25:55 PDT 2019
User: corrico
Dark Spectrum Present: No
Reference Spectrum Present: No
Number of Sampled Component Spectra: 1
Spectrometers: USB2+H06089
Integration Time (usec): 10000 (USB2+H06089)
Spectra Averaged: 2 (USB2+H06089)
Boxcar Smoothing: 2 (USB2+H06089)
Correct for Electrical Dark: No (USB2+H06089)
Strobe/Lamp Enabled: No (USB2+H06089)
Correct for Detector Non-linearity: No (USB2+H06089)
Correct for Stray Light: No (USB2+H06089)
Number of Pixels in Processed Spectrum: 2048
>>>>>Begin Processed Spectral Data<<<<<
339.70	1054.41
340.07	1054.41
340.45	1010.88
340.82	982.09
341.19	958.92
341.57	929.19
341.94	916.32
342.31	907.66
342.69	900.17
343.06	885.89
343.43	888.47
343.81	886.13
344.18	882.85
344.55	893.38
344.93	902.51
345.30	909.06
345.67	928.49
346.04	952.60
346.42	960.32
346.79	971.56
347.16	976.47
347.54	977.17
347.91	973.43
348.28	975.30
348.65	989.11
349.03	991.68
349.40	993.09
349.77	1004.79
350.14	1018.60
350.52	1019.54
350.89	1022.35
351.26	1030.30
351.63	1038.50
352.01	1049.26
352.38	1049.73
352.75	1056.28
353.12	1067.75
353.50	1070.09
353.87	1060.73
354.24	1070.09
354.61	1078.05
354.98	1076.65
355.36	1078.28
355.73	1088.82
356.10	1089.75
356.47	1096.54
356.84	1098.65
357.22	1093.73
357.59	1085.54
357.96	1079.46
358.33	1069.16
358.70	1072.20
359.08	1075.48
359.45	1074.77
359.82	1082.03
360.19	1093.73
360.56	1083.90
360.94	1086.01
361.31	1089.05
361.68	1081.09
362.05	1069.86
362.42	1067.99
362.79	1069.62
363.16	1073.37
363.54	1063.31
363.91	1067.99
364.28	1071.73
364.65	1071.26
365.02	1064.71
365.39	1065.18
365.76	1056.28
366.14	1045.52
366.51	1041.54
366.88	1043.41
367.25	1046.22
367.62	1050.20
367.99	1055.11
368.36	1056.05
368.73	1053.01
369.10	1060.03
369.48	1061.43
369.85	1059.09
370.22	1053.24
370.59	1056.99
370.96	1060.73
371.33	1062.37
371.70	1069.86
372.07	1067.99
372.44	1066.11
372.81	1061.43
373.18	1053.94
373.55	1058.62
373.93	1061.20
374.30	1062.14
374.67	1059.56
375.04	1057.45
375.41	1045.28
375.78	1049.73
376.15	1053.01
376.52	1053.48
376.89	1061.43
377.26	1075.24
377.63	1074.77
378.00	1076.41
378.37	1075.94
378.74	1073.60
379.11	1071.50
379.48	1075.48
379.85	1079.22
380.22	1079.22
380.59	1083.20
380.96	1075.94
381.33	1069.16
381.70	1061.43
382.07	1067.52
382.44	1059.33
382.81	1065.65
383.18	1070.33
383.55	1060.50
383.92	1059.09
384.29	1067.52
384.66	1064.94
385.03	1071.50
385.40	1080.16
385.77	1080.16
386.14	1079.69
386.51	1077.35
386.88	1064.71
387.25	1046.69
387.62	1028.43
387.99	1018.84
388.36	1016.49
388.73	1015.09
389.10	1036.86
389.46	1056.99
389.83	1064.71
390.20	1073.37
390.57	1079.22
390.94	1074.07
391.31	1074.31
391.68	1082.03
392.05	1075.24
392.42	1085.54
392.79	1086.24
393.16	1080.86
393.53	1069.16
393.89	1065.18
394.26	1060.96
394.63	1064.01
395.00	1068.45
395.37	1071.26
395.74	1079.46
396.11	1074.77
396.48	1071.26
396.84	1061.67
397.21	1060.26
397.58	1063.77
397.95	1063.07
398.32	1061.67
398.69	1071.03
399.06	1072.20
399.42	1064.94
399.79	1059.09
400.16	1056.28
400.53	1060.73
400.90	1060.03
401.27	1057.45
401.64	1062.84
402.00	1074.07
402.37	1065.88
402.74	1074.77
403.11	1074.31
403.48	1069.39
403.84	1057.92
404.21	1063.07
404.58	1062.60
404.95	1058.39
405.32	1068.45
405.68	1073.14
406.05	1057.45
406.42	1061.67
406.79	1071.73
407.16	1065.88
407.52	1071.97
407.89	1085.31
408.26	1073.37
408.63	1068.92
408.99	1073.84
409.36	1073.14
409.73	1068.69
410.10	1080.63
410.47	1085.07
410.83	1077.82
411.20	1073.60
411.57	1083.20
411.94	1077.82
412.30	1072.43
412.67	1074.54
413.04	1066.58
413.40	1061.43
413.77	1061.67
414.14	1068.69
414.51	1066.82
414.87	1077.58
415.24	1073.37
415.61	1075.48
415.97	1064.48
416.34	1067.52
416.71	1072.90
417.08	1064.01
417.44	1062.37
417.81	1072.90
418.18	1069.86
418.54	1055.11
418.91	1068.92
419.28	1074.54
419.64	1070.09
420.01	1074.31
420.38	1073.84
420.74	1071.73
421.11	1067.52
421.48	1067.75
421.84	1067.05
422.21	1071.73
422.58	1064.71
422.94	1064.24
423.31	1064.94
423.68	1063.07
424.04	1072.67
424.41	1082.50
424.77	1071.97
425.14	1080.63
425.51	1083.43
425.87	1078.28
426.24	1078.52
426.61	1086.01
426.97	1079.22
427.34	1075.71
427.70	1075.48
428.07	1075.24
428.44	1075.01
428.80	1071.50
429.17	1073.14
429.53	1068.69
429.90	1060.96
430.27	1064.94
430.63	1063.07
431.00	1063.54
431.36	1054.65
431.73	1064.71
432.09	1067.05
432.46	1078.28
432.83	1076.65
433.19	1088.35
433.56	1077.58
433.92	1070.09
434.29	1064.48
434.65	1067.28
435.02	1067.99
435.38	1066.82
435.75	1064.24
436.11	1074.54
436.48	1071.26
436.84	1074.07
437.21	1087.41
437.57	1096.78
437.94	1080.16
438.30	1080.39
438.67	1072.20
439.03	1065.65
439.40	1056.99
439.76	1064.48
440.13	1074.77
440.49	1077.35
440.86	1083.67
441.22	1087.88
441.59	1093.03
441.95	1081.56
442.32	1087.18
442.68	1081.80
443.05	1083.43
443.41	1083.67
443.78	1092.56
444.14	1091.39
444.51	1088.82
444.87	1084.84
445.24	1086.71
445.60	1075.71
445.96	1075.01
446.33	1081.33
446.69	1089.05
447.06	1080.63
447.42	1093.03
447.79	1091.16
448.15	1087.41
448.51	1072.90
448.88	1073.60
449.24	1065.18
449.61	1064.48
449.97	1067.52
450.33	1078.28
450.70	1082.97
451.06	1091.16
451.43	1103.09
451.79	1092.33
452.15	1090.69
452.52	1080.63
452.88	1068.45
453.24	1054.18
453.61	1063.31
453.97	1066.58
454.34	1075.94
454.70	1093.03
455.06	1097.95
455.43	1101.46
455.79	1095.84
456.15	1097.01
456.52	1082.03
456.88	1083.43
457.24	1082.97
457.61	1092.80
457.97	1086.24
458.33	1090.69
458.70	1091.63
459.06	1091.39
459.42	1084.14
459.79	1088.58
460.15	1078.75
460.51	1072.43
460.88	1066.58
461.24	1067.05
461.60	1066.35
461.96	1075.01
462.33	1082.03
462.69	1081.56
463.05	1080.39
463.42	1077.82
463.78	1078.05
464.14	1063.54
464.50	1076.18
464.87	1075.01
465.23	1077.11
465.59	1066.82
465.95	1071.26
466.32	1062.60
466.68	1062.84
467.04	1059.33
467.40	1056.75
467.77	1062.37
468.13	1060.03
468.49	1069.16
468.85	1069.16
469.22	1079.69
469.58	1072.67
469.94	1077.58
470.30	1074.77
470.66	1072.67
471.03	1071.26
471.39	1089.29
471.75	1086.24
472.11	1085.07
472.47	1079.46
472.84	1086.01
473.20	1077.11
473.56	1068.45
473.92	1059.33
474.28	1073.37
474.65	1069.62
475.01	1070.33
475.37	1079.46
475.73	1074.77
476.09	1071.03
476.45	1079.22
476.81	1082.97
477.18	1090.22
477.54	1107.31
477.90	1107.31
478.26	1094.20
478.62	1092.33
478.98	1086.71
479.34	1082.03
479.71	1086.01
480.07	1097.48
480.43	1091.39
480.79	1089.75
481.15	1086.94
481.51	1094.20
481.87	1090.69
482.23	1093.50
482.59	1096.31
482.96	1093.26
483.32	1073.37
483.68	1075.24
484.04	1073.14
484.40	1061.43
484.76	1063.54
485.12	1069.86
485.48	1060.50
485.84	1062.37
486.20	1073.60
486.56	1075.24
486.92	1081.56
487.28	1088.12
487.64	1089.05
488.00	1089.75
488.37	1076.18
488.73	1072.90
489.09	1079.46
489.45	1082.26
489.81	1088.82
490.17	1098.41
490.53	1098.88
490.89	1101.46
491.25	1091.16
491.61	1082.26
491.97	1084.14
492.33	1078.05
492.69	1077.58
493.05	1086.94
493.41	1084.14
493.77	1080.63
494.13	1093.26
494.49	1092.56
494.85	1095.14
495.21	1097.24
495.57	1098.41
495.93	1093.26
496.29	1081.56
496.64	1077.35
497.00	1077.11
497.36	1077.58
497.72	1069.16
498.08	1074.77
498.44	1070.56
498.80	1067.28
499.16	1073.60
499.52	1075.48
499.88	1069.16
500.24	1073.60
500.60	1078.05
500.96	1081.09
501.32	1080.63
501.68	1085.54
502.03	1086.71
502.39	1096.07
502.75	1079.22
503.11	1084.37
503.47	1079.69
503.83	1073.84
504.19	1066.11
504.55	1079.46
504.91	1070.09
505.26	1080.86
505.62	1085.07
505.98	1084.37
506.34	1078.52
506.70	1087.41
507.06	1078.52
507.42	1076.88
507.78	1071.50
508.13	1070.09
508.49	1064.48
508.85	1059.09
509.21	1051.37
509.57	1048.09
509.93	1049.50
510.28	1061.67
510.64	1069.16
511.00	1084.60
511.36	1098.65
511.72	1111.29
512.07	1114.80
512.43	1115.97
512.79	1113.86
513.15	1110.35
513.51	1100.99
513.86	1092.09
514.22	1084.60
514.58	1082.26
514.94	1086.94
515.30	1078.52
515.65	1071.50
516.01	1081.80
516.37	1082.73
516.73	1065.88
517.08	1066.58
517.44	1067.52
517.80	1060.50
518.16	1055.11
518.51	1061.67
518.87	1072.43
519.23	1083.67
519.59	1090.22
519.94	1097.48
520.30	1099.35
520.66	1089.75
521.01	1087.88
521.37	1086.01
521.73	1083.43
522.09	1084.60
522.44	1094.90
522.80	1093.26
523.16	1087.88
523.51	1075.01
523.87	1085.54
524.23	1082.97
524.58	1088.58
524.94	1095.60
525.30	1108.71
525.65	1091.86
526.01	1097.71
526.37	1093.73
526.72	1088.35
527.08	1088.35
527.44	1089.99
527.79	1087.41
528.15	1085.77
528.51	1085.77
528.86	1090.22
529.22	1095.84
529.58	1096.31
529.93	1093.03
530.29	1098.18
530.65	1100.29
531.00	1107.31
531.36	1106.61
531.71	1111.05
532.07	1106.61
532.43	1097.24
532.78	1091.16
533.14	1080.86
533.49	1086.48
533.85	1090.46
534.21	1093.03
534.56	1101.69
534.92	1110.12
535.27	1104.97
535.63	1100.75
535.98	1093.26
536.34	1089.75
536.69	1086.48
537.05	1092.56
537.41	1089.99
537.76	1094.90
538.12	1095.37
538.47	1090.46
538.83	1085.07
539.18	1093.03
539.54	1095.60
539.89	1083.43
540.25	1085.07
540.60	1082.73
540.96	1081.80
541.31	1086.48
541.67	1104.50
542.02	1108.71
542.38	1112.92
542.73	1104.03
543.09	1096.54
543.44	1085.31
543.80	1081.80
544.15	1074.54
544.51	1086.01
544.86	1094.90
545.22	1100.75
545.57	1105.67
545.93	1108.71
546.28	1111.99
546.64	1102.63
546.99	1096.54
547.35	1097.24
547.70	1096.07
548.05	1087.88
548.41	1085.77
548.76	1079.22
549.12	1085.07
549.47	1078.52
549.83	1071.73
550.18	1073.60
550.53	1074.54
550.89	1057.92
551.24	1070.56
551.60	1071.73
551.95	1073.84
552.30	1080.63
552.66	1089.52
553.01	1084.14
553.37	1089.99
553.72	1089.75
554.07	1083.90
554.43	1076.41
554.78	1066.82
555.13	1066.35
555.49	1062.37
555.84	1070.09
556.19	1070.56
556.55	1073.14
556.90	1080.16
557.26	1091.39
557.61	1089.99
557.96	1097.01
558.32	1101.22
558.67	1090.69
559.02	1084.84
559.37	1085.77
559.73	1080.16
560.08	1082.97
560.43	1085.77
560.79	1083.20
561.14	1077.11
561.49	1082.97
561.85	1087.18
562.20	1078.99
562.55	1085.07
562.90	1083.67
563.26	1089.05
563.61	1088.82
563.96	1092.56
564.32	1096.54
564.67	1106.14
565.02	1089.75
565.37	1077.82
565.73	1082.03
566.08	1070.09
566.43	1062.14
566.78	1075.48
567.14	1090.22
567.49	1099.12
567.84	1096.31
568.19	1098.18
568.54	1089.29
568.90	1087.88
569.25	1081.09
569.60	1082.03
569.95	1081.33
570.31	1085.54
570.66	1079.46
571.01	1080.63
571.36	1080.39
571.71	1086.01
572.06	1082.73
572.42	1086.71
572.77	1082.97
573.12	1091.16
573.47	1083.90
573.82	1096.54
574.18	1087.41
574.53	1093.03
574.88	1086.94
575.23	1095.14
575.58	1095.60
575.93	1099.58
576.28	1086.48
576.64	1097.95
576.99	1091.16
577.34	1064.48
577.69	1061.43
578.04	1065.18
578.39	1057.69
578.74	1060.73
579.09	1081.09
579.44	1084.14
579.80	1090.69
580.15	1093.50
580.50	1085.77
580.85	1083.43
581.20	1078.99
581.55	1080.16
581.90	1078.75
582.25	1082.97
582.60	1082.73
582.95	1087.41
583.30	1082.97
583.65	1086.71
584.00	1073.14
584.35	1069.86
584.71	1073.84
585.06	1066.35
585.41	1053.48
585.76	1063.77
586.11	1066.35
586.46	1069.16
586.81	1072.43
587.16	1073.37
587.51	1080.63
587.86	1085.31
588.21	1079.22
588.56	1083.43
588.91	1093.26
589.26	1077.58
589.61	1070.56
589.96	1076.18
590.31	1089.52
590.66	1088.35
591.01	1105.67
591.36	1117.84
591.71	1111.05
592.06	1092.56
592.41	1080.63
592.76	1073.14
593.10	1071.03
593.45	1079.69
593.80	1086.94
594.15	1092.80
594.50	1089.29
594.85	1081.09
595.20	1071.73
595.55	1069.86
595.90	1074.31
596.25	1076.65
596.60	1075.01
596.95	1071.73
597.30	1071.97
597.64	1118.31
597.99	1128.14
598.34	1126.27
598.69	1121.82
599.04	1119.71
599.39	1069.62
599.74	1061.90
600.09	1060.96
600.44	1067.75
600.78	1068.22
601.13	1062.37
601.48	1070.33
601.83	1077.11
602.18	1075.24
602.53	1080.86
602.88	1083.43
603.22	1084.84
603.57	1086.71
603.92	1085.07
604.27	1081.09
604.62	1090.22
604.97	1072.20
605.31	1063.77
605.66	1070.09
606.01	1076.88
606.36	1084.60
606.71	1091.16
607.05	1087.18
607.40	1079.92
607.75	1075.71
608.10	1073.37
608.44	1067.99
608.79	1079.22
609.14	1089.29
609.49	1090.69
609.84	1075.01
610.18	1080.86
610.53	1082.03
610.88	1070.33
611.23	1056.28
611.57	1064.71
611.92	1065.41
612.27	1064.94
612.62	1063.31
612.96	1071.97
613.31	1069.62
613.66	1071.26
614.00	1071.73
614.35	1081.09
614.70	1078.28
615.05	1081.09
615.39	1086.71
615.74	1078.75
616.09	1077.11
616.43	1085.54
616.78	1087.88
617.13	1075.71
617.47	1078.52
617.82	1083.67
618.17	1077.82
618.51	1075.71
618.86	1088.35
619.21	1090.22
619.55	1091.39
619.90	1092.33
620.25	1080.16
620.59	1069.62
620.94	1075.01
621.29	1071.50
621.63	1074.77
621.98	1086.24
622.32	1097.48
622.67	1094.67
623.02	1092.09
623.36	1092.09
623.71	1089.52
624.05	1086.71
624.40	1086.94
624.75	1088.58
625.09	1081.80
625.44	1081.09
625.78	1085.54
626.13	1080.63
626.48	1082.73
626.82	1087.65
627.17	1090.46
627.51	1077.82
627.86	1086.71
628.20	1086.48
628.55	1081.33
628.89	1076.41
629.24	1086.94
629.58	1083.20
629.93	1077.35
630.28	1082.03
630.62	1084.84
630.97	1078.99
631.31	1088.12
631.66	1096.07
632.00	1091.63
632.35	1087.65
632.69	1086.48
633.04	1066.82
633.38	1063.54
633.73	1064.24
634.07	1062.14
634.42	1058.39
634.76	1061.90
635.11	1059.56
635.45	1057.45
635.79	1070.33
636.14	1072.43
636.48	1080.86
636.83	1077.11
637.17	1082.50
637.52	1080.39
637.86	1078.75
638.21	1070.80
638.55	1080.39
638.89	1082.03
639.24	1073.84
639.58	1087.65
639.93	1089.99
640.27	1081.09
640.61	1073.84
640.96	1074.77
641.30	1066.82
641.65	1073.14
641.99	1075.48
642.33	1078.99
642.68	1080.63
643.02	1078.52
643.37	1071.50
643.71	1062.84
644.05	1068.69
644.40	1075.94
644.74	1085.31
645.08	1092.56
645.43	1110.12
645.77	1103.56
646.11	1095.60
646.46	1089.99
646.80	1092.56
647.14	1081.09
647.49	1087.65
647.83	1088.12
648.17	1079.92
648.52	1071.50
648.86	1084.37
649.20	1078.75
649.55	1074.31
649.89	1075.94
650.23	1075.01
650.57	1059.56
650.92	1063.77
651.26	1078.52
651.60	1077.82
651.95	1076.88
652.29	1085.07
652.63	1077.35
652.97	1069.62
653.32	1070.09
653.66	1067.75
654.00	1065.65
654.34	1072.90
654.69	1074.54
655.03	1070.09
655.37	1069.39
655.71	1066.11
656.05	1058.16
656.40	1065.88
656.74	1065.88
657.08	1069.39
657.42	1067.05
657.76	1072.43
658.11	1065.41
658.45	1065.65
658.79	1068.69
659.13	1079.92
659.47	1084.84
659.82	1076.65
660.16	1089.29
660.50	1085.31
660.84	1079.46
661.18	1075.71
661.52	1076.18
661.87	1075.01
662.21	1075.71
662.55	1070.56
662.89	1075.71
663.23	1077.58
663.57	1082.26
663.91	1078.05
664.25	1079.69
664.60	1078.52
664.94	1082.03
665.28	1067.99
665.62	1079.46
665.96	1078.99
666.30	1073.14
666.64	1078.75
666.98	1088.58
667.32	1088.12
667.66	1093.97
668.01	1095.14
668.35	1095.84
668.69	1093.50
669.03	1090.92
669.37	1093.26
669.71	1089.75
670.05	1086.94
670.39	1081.80
670.73	1075.01
671.07	1073.37
671.41	1082.97
671.75	1081.56
672.09	1084.37
672.43	1090.69
672.77	1084.60
673.11	1081.09
673.45	1081.09
673.79	1080.16
674.13	1069.86
674.47	1066.82
674.81	1068.45
675.15	1069.16
675.49	1080.39
675.83	1090.92
676.17	1099.35
676.51	1097.95
676.85	1085.07
677.19	1079.69
677.53	1083.20
677.87	1084.37
678.21	1081.80
678.55	1091.86
678.89	1082.50
679.23	1069.86
679.57	1064.24
679.90	1066.82
680.24	1073.14
680.58	1086.71
680.92	1094.90
681.26	1101.92
681.60	1103.80
681.94	1105.20
682.28	1092.09
682.62	1094.20
682.96	1099.58
683.29	1087.88
683.63	1087.41
683.97	1091.86
684.31	1073.14
684.65	1055.58
684.99	1058.16
685.33	1051.60
685.67	1049.50
686.00	1063.07
686.34	1070.80
686.68	1074.07
687.02	1080.39
687.36	1082.73
687.70	1084.37
688.03	1079.69
688.37	1080.39
688.71	1072.67
689.05	1077.82
689.39	1070.80
689.72	1069.39
690.06	1077.82
690.40	1083.90
690.74	1070.09
691.08	1076.18
691.41	1082.73
691.75	1071.73
692.09	1064.71
692.43	1082.97
692.76	1086.71
693.10	1086.71
693.44	1099.82
693.78	1097.71
694.11	1088.12
694.45	1079.69
694.79	1080.86
695.13	1081.09
695.46	1089.52
695.80	1089.75
696.14	1092.80
696.48	1094.67
696.81	1096.54
697.15	1086.71
697.49	1086.71
697.82	1087.65
698.16	1080.86
698.50	1064.94
698.83	1066.35
699.17	1071.03
699.51	1076.88
699.84	1080.16
700.18	1088.35
700.52	1088.35
700.85	1090.46
701.19	1079.22
701.53	1083.20
701.86	1076.18
702.20	1081.80
702.54	1079.22
702.87	1080.63
703.21	1076.18
703.55	1085.31
703.88	1081.80
704.22	1078.05
704.55	1076.41
704.89	1078.28
705.23	1076.18
705.56	1073.60
705.90	1070.09
706.23	1069.62
706.57	1075.94
706.91	1079.22
707.24	1083.67
707.58	1075.71
707.91	1074.54
708.25	1065.18
708.58	1051.37
708.92	1053.94
709.26	1060.26
709.59	1062.37
709.93	1066.11
710.26	1073.37
710.60	1068.92
710.93	1068.22
711.27	1077.11
711.60	1076.65
711.94	1065.65
712.27	1064.48
712.61	1080.63
712.94	1083.90
713.28	1077.82
713.61	1087.65
713.95	1086.24
714.28	1083.90
714.62	1075.24
714.95	1085.31
715.29	1091.86
715.62	1100.52
715.96	1096.78
716.29	1085.31
716.63	1077.58
716.96	1059.33
717.29	1056.75
717.63	1059.79
717.96	1076.65
718.30	1079.46
718.63	1095.60
718.97	1087.65
719.30	1081.09
719.63	1081.33
719.97	1085.31
720.30	1071.73
720.64	1079.46
720.97	1079.69
721.30	1072.43
721.64	1063.31
721.97	1072.67
722.31	1072.90
722.64	1071.50
722.97	1068.69
723.31	1080.39
723.64	1078.28
723.97	1078.99
724.31	1079.92
724.64	1087.88
724.98	1078.28
725.31	1081.33
725.64	1075.94
725.98	1078.28
726.31	1091.63
726.64	1098.41
726.97	1097.48
727.31	1104.03
727.64	1097.24
727.97	1088.35
728.31	1090.46
728.64	1088.82
728.97	1075.94
729.31	1082.73
729.64	1068.69
729.97	1056.99
730.30	1054.18
730.64	1060.73
730.97	1053.48
731.30	1067.52
731.63	1080.86
731.97	1082.73
732.30	1082.97
732.63	1090.22
732.96	1086.24
733.30	1078.99
733.63	1086.71
733.96	1086.24
734.29	1082.03
734.63	1081.80
734.96	1078.52
735.29	1074.31
735.62	1073.84
735.95	1065.88
736.29	1060.26
736.62	1064.01
736.95	1062.84
737.28	1068.22
737.61	1074.54
737.94	1078.52
738.28	1082.73
738.61	1081.33
738.94	1078.75
739.27	1080.16
739.60	1085.54
739.93	1079.69
740.27	1086.24
740.60	1083.67
740.93	1086.01
741.26	1079.69
741.59	1079.22
741.92	1074.54
742.25	1078.28
742.58	1077.82
742.91	1069.16
743.25	1076.88
743.58	1075.94
743.91	1076.41
744.24	1063.07
744.57	1069.86
744.90	1071.73
745.23	1065.41
745.56	1060.50
745.89	1071.97
746.22	1072.43
746.55	1064.71
746.88	1067.28
747.21	1067.52
747.54	1069.39
747.87	1082.50
748.20	1080.16
748.53	1092.80
748.87	1093.50
749.20	1081.56
749.53	1073.37
749.86	1069.16
750.19	1056.52
750.52	1068.22
750.85	1074.31
751.18	1070.56
751.51	1071.26
751.84	1071.73
752.16	1057.69
752.49	1056.28
752.82	1047.39
753.15	1047.16
753.48	1051.37
753.81	1053.94
754.14	1058.62
754.47	1066.11
754.80	1081.33
755.13	1082.50
755.46	1086.01
755.79	1086.71
756.12	1102.16
756.45	1085.77
756.78	1084.84
757.11	1076.88
757.43	1071.26
757.76	1057.92
758.09	1067.75
758.42	1069.39
758.75	1083.67
759.08	1090.92
759.41	1088.82
759.74	1077.11
760.07	1071.97
760.39	1066.58
760.72	1064.71
761.05	1069.62
761.38	1083.20
761.71	1083.67
762.04	1084.60
762.36	1084.60
762.69	1083.90
763.02	1077.11
763.35	1079.46
763.68	1071.97
764.01	1080.86
764.33	1080.39
764.66	1079.46
764.99	1082.03
765.32	1082.03
765.65	1072.20
765.97	1075.48
766.30	1075.01
766.63	1078.28
766.96	1091.39
767.28	1095.84
767.61	1088.58
767.94	1085.54
768.27	1078.99
768.59	1065.41
768.92	1055.35
769.25	1061.43
769.58	1068.22
769.90	1072.20
770.23	1073.84
770.56	1066.58
770.89	1072.43
771.21	1068.69
771.54	1072.20
771.87	1064.94
772.19	1081.09
772.52	1062.84
772.85	1065.41
773.17	1063.07
773.50	1076.18
773.83	1073.14
774.15	1087.18
774.48	1086.71
774.81	1085.77
775.13	1080.16
775.46	1078.75
775.79	1072.90
776.11	1070.80
776.44	1063.54
776.77	1064.24
777.09	1066.82
777.42	1063.77
777.74	1070.56
778.07	1078.05
778.40	1095.14
778.72	1103.80
779.05	1100.05
779.37	1084.14
779.70	1085.54
780.03	1072.20
780.35	1062.14
780.68	1071.97
781.00	1079.92
781.33	1076.41
781.65	1080.86
781.98	1083.43
782.31	1077.11
782.63	1083.20
782.96	1089.05
783.28	1087.41
783.61	1086.48
783.93	1089.99
784.26	1086.71
784.58	1077.11
784.91	1074.54
785.23	1075.71
785.56	1069.16
785.88	1074.31
786.21	1079.22
786.53	1072.43
786.86	1079.46
787.18	1077.58
787.51	1076.88
787.83	1076.65
788.16	1084.84
788.48	1086.01
788.81	1099.58
789.13	1093.73
789.46	1090.69
789.78	1093.26
790.10	1081.09
790.43	1070.33
790.75	1066.35
791.08	1064.71
791.40	1053.94
791.73	1059.33
792.05	1060.26
792.37	1060.96
792.70	1065.88
793.02	1076.88
793.35	1078.28
793.67	1070.80
793.99	1087.88
794.32	1092.09
794.64	1088.12
794.96	1081.80
795.29	1101.22
795.61	1081.09
795.93	1079.22
796.26	1082.26
796.58	1084.84
796.91	1078.28
797.23	1076.88
797.55	1067.75
797.87	1071.03
798.20	1069.86
798.52	1072.67
798.84	1084.60
799.17	1094.67
799.49	1085.54
799.81	1084.84
800.14	1093.26
800.46	1094.43
800.78	1085.31
801.10	1077.11
801.43	1081.80
801.75	1072.67
802.07	1069.62
802.40	1072.43
802.72	1074.77
803.04	1071.73
803.36	1064.48
803.69	1065.88
804.01	1073.84
804.33	1073.60
804.65	1072.20
804.97	1086.24
805.30	1086.24
805.62	1082.50
805.94	1089.05
806.26	1098.88
806.58	1089.29
806.91	1082.50
807.23	1087.65
807.55	1080.86
807.87	1075.48
808.19	1085.54
808.52	1094.20
808.84	1082.73
809.16	1090.46
809.48	1085.54
809.80	1071.73
810.12	1075.24
810.44	1076.88
810.77	1069.62
811.09	1078.52
811.41	1089.75
811.73	1087.88
812.05	1093.50
812.37	1099.58
812.69	1088.12
813.01	1084.14
813.33	1082.50
813.66	1083.20
813.98	1078.28
814.30	1075.71
814.62	1062.37
814.94	1062.84
815.26	1056.52
815.58	1066.82
815.90	1070.33
816.22	1085.54
816.54	1080.39
816.86	1077.58
817.18	1077.11
817.50	1081.33
817.82	1076.65
818.14	1066.35
818.46	1068.22
818.78	1064.94
819.10	1060.26
819.42	1056.75
819.74	1064.24
820.06	1063.31
820.38	1059.33
820.70	1067.52
821.02	1070.56
821.34	1066.82
821.66	1062.14
821.98	1064.94
822.30	1059.56
822.62	1056.05
822.94	1063.07
823.26	1067.05
823.58	1059.33
823.90	1056.28
824.22	1064.48
824.54	1067.52
824.86	1077.58
825.18	1084.60
825.50	1093.50
825.81	1094.90
826.13	1086.01
826.45	1081.80
826.77	1077.82
827.09	1076.65
827.41	1057.45
827.73	1063.54
828.05	1050.43
828.36	1049.73
828.68	1049.26
829.00	1064.01
829.32	1062.37
829.64	1066.58
829.96	1074.31
830.28	1075.71
830.59	1077.11
830.91	1082.73
831.23	1089.75
831.55	1081.09
831.87	1072.67
832.19	1079.46
832.50	1071.50
832.82	1073.60
833.14	1075.01
833.46	1083.20
833.78	1075.24
834.09	1076.18
834.41	1072.67
834.73	1076.88
835.05	1073.37
835.36	1067.05
835.68	1064.94
836.00	1066.11
836.32	1065.18
836.63	1071.50
836.95	1065.41
837.27	1057.69
837.59	1056.05
837.90	1049.26
838.22	1048.79
838.54	1061.20
838.85	1078.99
839.17	1086.94
839.49	1089.29
839.80	1082.50
840.12	1078.99
840.44	1067.75
840.76	1050.90
841.07	1052.30
841.39	1049.96
841.71	1058.39
842.02	1068.22
842.34	1075.94
842.65	1083.20
842.97	1082.50
843.29	1074.31
843.60	1063.77
843.92	1066.11
844.24	1063.77
844.55	1070.33
844.87	1074.54
845.18	1087.88
845.50	1075.94
845.82	1078.52
846.13	1076.65
846.45	1078.99
846.76	1070.80
847.08	1085.31
847.40	1077.11
847.71	1072.90
848.03	1072.20
848.34	1082.97
848.66	1081.09
848.97	1083.90
849.29	1091.39
849.60	1083.20
849.92	1073.84
850.24	1075.48
850.55	1072.67
850.87	1075.71
851.18	1082.26
851.50	1073.14
851.81	1065.65
852.13	1066.82
852.44	1046.45
852.76	1041.07
853.07	1050.90
853.39	1066.58
853.70	1076.18
854.01	1087.88
854.33	1092.56
854.64	1096.07
854.96	1081.33
855.27	1076.88
855.59	1082.26
855.90	1087.65
856.22	1083.43
856.53	1088.12
856.84	1089.05
857.16	1083.90
857.47	1079.92
857.79	1083.43
858.10	1090.22
858.41	1081.56
858.73	1086.48
859.04	1083.43
859.36	1086.71
859.67	1074.31
859.98	1080.39
860.30	1080.63
860.61	1086.71
860.92	1079.92
861.24	1076.41
861.55	1077.35
861.87	1078.05
862.18	1067.05
862.49	1062.14
862.81	1070.33
863.12	1073.60
863.43	1071.26
863.74	1077.11
864.06	1087.65
864.37	1081.56
864.68	1080.39
865.00	1066.58
865.31	1070.33
865.62	1065.88
865.94	1064.48
866.25	1069.62
866.56	1079.22
866.87	1076.65
867.19	1077.58
867.50	1084.37
867.81	1080.63
868.12	1085.31
868.44	1086.48
868.75	1078.75
869.06	1089.05
869.37	1089.05
869.68	1079.69
870.00	1073.84
870.31	1086.48
870.62	1078.75
870.93	1078.52
871.24	1081.80
871.56	1095.60
871.87	1083.90
872.18	1080.39
872.49	1085.07
872.80	1083.67
873.12	1069.86
873.43	1071.26
873.74	1073.84
874.05	1065.88
874.36	1075.48
874.67	1078.75
874.98	1080.16
875.29	1087.65
875.61	1084.84
875.92	1082.50
876.23	1090.92
876.54	1102.16
876.85	1100.75
877.16	1095.37
877.47	1100.99
877.78	1087.18
878.09	1082.97
878.40	1085.07
878.72	1087.88
879.03	1073.37
879.34	1075.94
879.65	1071.73
879.96	1064.71
880.27	1069.16
880.58	1066.58
880.89	1067.05
881.20	1068.92
881.51	1068.22
881.82	1074.54
882.13	1086.24
882.44	1093.97
882.75	1092.33
883.06	1093.03
883.37	1090.69
883.68	1085.31
883.99	1081.56
884.30	1080.86
884.61	1068.45
884.92	1062.60
885.23	1067.99
885.54	1064.24
885.85	1057.92
886.16	1064.94
886.47	1080.16
886.78	1072.90
887.08	1072.43
887.39	1079.92
887.70	1090.92
888.01	1086.24
888.32	1076.65
888.63	1080.39
888.94	1077.11
889.25	1064.71
889.56	1063.54
889.87	1075.01
890.17	1081.09
890.48	1081.56
890.79	1085.07
891.10	1079.69
891.41	1072.43
891.72	1063.54
892.03	1068.22
892.34	1064.48
892.64	1054.41
892.95	1061.90
893.26	1063.77
893.57	1056.99
893.88	1064.48
894.18	1065.65
894.49	1068.45
894.80	1064.01
895.11	1077.11
895.42	1077.35
895.72	1090.22
896.03	1100.52
896.34	1106.14
896.65	1092.56
896.96	1089.75
897.26	1082.26
897.57	1067.75
897.88	1066.58
898.19	1069.16
898.49	1060.50
898.80	1065.18
899.11	1073.84
899.41	1071.26
899.72	1073.84
900.03	1078.05
900.34	1073.37
900.64	1063.77
900.95	1065.18
901.26	1064.24
901.56	1075.24
901.87	1085.07
902.18	1084.14
902.48	1083.20
902.79	1078.52
903.10	1077.35
903.40	1070.56
903.71	1077.58
904.02	1076.18
904.32	1073.60
904.63	1059.33
904.94	1056.28
905.24	1061.67
905.55	1053.24
905.85	1051.13
906.16	1062.84
906.47	1060.73
906.77	1044.82
907.08	1062.84
907.38	1073.84
907.69	1078.52
908.00	1077.35
908.30	1080.16
908.61	1078.52
908.91	1078.28
909.22	1068.92
909.52	1078.75
909.83	1081.09
910.14	1082.50
910.44	1079.22
910.75	1081.09
911.05	1080.16
911.36	1084.37
911.66	1078.99
911.97	1078.28
912.27	1078.75
912.58	1072.90
912.88	1076.41
913.19	1072.90
913.49	1079.69
913.80	1081.33
914.10	1080.63
914.41	1072.67
914.71	1082.03
915.01	1075.71
915.32	1070.33
915.62	1065.88
915.93	1076.18
916.23	1062.37
916.54	1071.26
916.84	1078.05
917.15	1078.52
917.45	1072.67
917.75	1080.63
918.06	1071.26
918.36	1071.97
918.67	1072.43
918.97	1069.16
919.27	1063.07
919.58	1072.90
919.88	1067.05
920.18	1073.84
920.49	1070.33
920.79	1075.94
921.10	1068.92
921.40	1078.05
921.70	1073.37
922.01	1076.18
922.31	1071.50
922.61	1063.54
922.92	1051.60
923.22	1053.01
923.52	1057.22
923.82	1066.58
924.13	1076.18
924.43	1085.77
924.73	1091.63
925.04	1082.50
925.34	1085.77
925.64	1092.56
925.94	1089.99
926.25	1084.37
926.55	1096.31
926.85	1096.07
927.15	1090.22
927.46	1084.60
927.76	1083.43
928.06	1076.65
928.36	1067.05
928.67	1060.96
928.97	1068.45
929.27	1074.54
929.57	1071.73
929.87	1068.69
930.18	1064.01
930.48	1062.60
930.78	1064.94
931.08	1071.73
931.38	1084.84
931.69	1097.24
931.99	1094.90
932.29	1090.69
932.59	1086.01
932.89	1074.77
933.19	1071.03
933.49	1066.11
933.80	1063.07
934.10	1071.26
934.40	1083.43
934.70	1087.18
935.00	1091.39
935.30	1104.03
935.60	1104.97
935.90	1100.52
936.20	1097.48
936.50	1097.71
936.81	1083.43
937.11	1072.67
937.41	1066.11
937.71	1054.88
938.01	1062.37
938.31	1067.52
938.61	1071.26
938.91	1069.16
939.21	1084.37
939.51	1071.03
939.81	1069.86
940.11	1068.69
940.41	1074.07
940.71	1070.56
941.01	1081.80
941.31	1084.60
941.61	1085.54
941.91	1078.28
942.21	1084.14
942.51	1078.52
942.81	1076.18
943.11	1085.31
943.41	1086.94
943.71	1075.94
944.01	1074.31
944.31	1076.18
944.61	1067.52
944.90	1070.80
945.20	1071.73
945.50	1084.60
945.80	1076.65
946.10	1077.82
946.40	1081.80
946.70	1085.07
947.00	1074.77
947.30	1077.82
947.60	1080.63
947.89	1074.07
948.19	1083.20
948.49	1084.84
948.79	1089.75
949.09	1088.35
949.39	1099.35
949.69	1090.69
949.98	1091.86
950.28	1089.99
950.58	1087.18
950.88	1084.60
951.18	1083.90
951.48	1079.92
951.77	1081.33
952.07	1086.01
952.37	1083.20
952.67	1081.09
952.97	1076.18
953.26	1074.77
953.56	1066.35
953.86	1061.67
954.16	1062.60
954.45	1059.56
954.75	1070.09
955.05	1081.09
955.35	1083.67
955.64	1084.37
955.94	1092.80
956.24	1086.24
956.54	1081.33
956.83	1078.05
957.13	1079.92
957.43	1095.60
957.72	1094.90
958.02	1088.12
958.32	1089.99
958.61	1084.37
958.91	1069.62
959.21	1068.92
959.50	1074.31
959.80	1072.20
960.10	1079.22
960.39	1077.35
960.69	1074.54
960.99	1073.84
961.28	1071.50
961.58	1070.80
961.87	1078.52
962.17	1074.31
962.47	1078.05
962.76	1078.05
963.06	1074.77
963.36	1071.97
963.65	1081.09
963.95	1072.67
964.24	1077.11
964.54	1090.22
964.83	1093.97
965.13	1088.35
965.42	1095.84
965.72	1094.20
966.02	1077.82
966.31	1067.75
966.61	1067.75
966.90	1060.73
967.20	1067.99
967.49	1067.75
967.79	1072.67
968.08	1077.11
968.38	1085.54
968.67	1081.56
968.97	1092.09
969.26	1098.18
969.56	1088.58
969.85	1085.07
970.15	1094.90
970.44	1087.65
970.74	1079.92
971.03	1089.99
971.32	1086.24
971.62	1073.60
971.91	1074.77
972.21	1075.94
972.50	1063.54
972.80	1064.94
973.09	1071.03
973.38	1066.82
973.68	1072.90
973.97	1091.63
974.27	1090.69
974.56	1077.82
974.85	1082.97
975.15	1076.88
975.44	1067.75
975.73	1071.03
976.03	1086.48
976.32	1087.41
976.61	1080.16
976.91	1075.24
977.20	1071.03
977.49	1067.75
977.79	1066.11
978.08	1073.14
978.37	1068.69
978.67	1074.31
978.96	1077.58
979.25	1079.46
979.55	1075.01
979.84	1082.50
980.13	1088.82
980.42	1088.58
980.72	1083.43
981.01	1087.41
981.30	1087.41
981.59	1080.86
981.89	1071.97
982.18	1078.05
982.47	1075.94
982.76	1079.69
983.06	1082.03
983.35	1085.07
983.64	1090.69
983.93	1093.73
984.22	1094.67
984.52	1093.26
984.81	1093.03
985.10	1084.37
985.39	1087.65
985.68	1081.56
985.97	1080.63
986.27	1075.01
986.56	1082.03
986.85	1078.99
987.14	1082.26
987.43	1090.22
987.72	1102.63
988.01	1089.99
988.31	1080.63
988.60	1084.37
988.89	1078.99
989.18	1076.41
989.47	1080.63
989.76	1087.65
990.05	1079.92
990.34	1072.43
990.63	1062.37
990.92	1057.92
991.21	1058.62
991.51	1058.39
991.80	1066.82
992.09	1072.20
992.38	1079.46
992.67	1068.22
992.96	1064.71
993.25	1058.86
993.54	1052.54
993.83	1050.20
994.12	1051.37
994.41	1056.05
994.70	1059.79
994.99	1063.77
995.28	1068.92
995.57	1088.35
995.86	1086.01
996.15	1081.56
996.44	1081.33
996.73	1078.52
997.02	1071.73
997.31	1078.75
997.59	1080.63
997.88	1091.16
998.17	1086.48
998.46	1089.52
998.75	1093.73
999.04	1095.37
999.33	1082.03
999.62	1086.24
999.91	1079.92
1000.20	1068.22
1000.49	1070.80
1000.77	1073.37
1001.06	1072.67
1001.35	1075.01
1001.64	1061.90
1001.93	1068.45
1002.22	1068.92
1002.51	1069.16
1002.79	1066.82
1003.08	1078.05
1003.37	1067.99
1003.66	1069.39
1003.95	1076.18
1004.23	1078.28
1004.52	1083.67
1004.81	1083.43
1005.10	1084.84
1005.39	1078.99
1005.67	1079.46
1005.96	1074.77
1006.25	1069.16
1006.54	1067.28
1006.83	1061.67
1007.11	1057.45
1007.40	1066.82
1007.69	1072.90
1007.97	1081.80
1008.26	1087.41
1008.55	1093.26
1008.84	1079.46
1009.12	1074.77
1009.41	1065.88
1009.70	1067.75
1009.98	1062.60
1010.27	1066.58
1010.56	1071.03
1010.85	1070.09
1011.13	1069.62
1011.42	1073.14
1011.71	1083.20
1011.99	1077.58
1012.28	1078.52
1012.56	1079.46
1012.85	1080.39
1013.14	1069.16
1013.42	1082.97
1013.71	1093.26
1014.00	1092.56
1014.28	1095.84
1014.57	1095.14
1014.85	1082.97
1015.14	1080.63
1015.43	1073.14
1015.71	1069.16
1016.00	1076.18
1016.28	1074.07
1016.57	1071.97
1016.85	1076.41
1017.14	1070.80
1017.43	1070.80
1017.71	1076.88
1018.00	1067.05
1018.28	1060.03
1018.57	1067.75
1018.85	1063.31
1019.14	1068.22
1019.42	1068.22
1019.71	1081.33
1019.99	1078.99
1020.28	1088.58
1020.56	1088.12
1020.85	1092.33
1021.13	1094.43
1021.42	1094.67
1021.70	1089.05
1021.99	1085.07
1022.27	1089.99
1022.55	1078.99
1022.84	1090.69
>>>>>End Processed Spectral Data<<<<<
