SpectraSuite Data File
++++++++++++++++++++++++++++++++++++
Date: Mon Aug 26 10:25:55 PDT 2019
User: corrico
Dark Spectrum Present: No
Reference Spectrum Present: No
Number of Sampled Component Spectra: 1
Spectrometers: USB2+H06089
Integration Time (usec): 10000 (USB2+H06089)
Spectra Averaged: 2 (USB2+H06089)
Boxcar Smoothing: 2 (USB2+H06089)
Correct for Electrical Dark: No (USB2+H06089)
Strobe/Lamp Enabled: No (USB2+H06089)
Correct for Detector Non-linearity: No (USB2+H06089)
Correct for Stray Light: No (USB2+H06089)
Number of Pixels in Processed Spectrum: 2048
>>>>>Begin Processed Spectral Data<<<<<
339.70	1043.88
340.07	1043.88
340.45	1007.60
340.82	986.54
341.19	958.22
341.57	937.62
341.94	922.41
342.31	916.32
342.69	908.13
343.06	903.68
343.43	896.66
343.81	897.36
344.18	881.91
344.55	894.55
344.93	894.55
345.30	903.68
345.67	922.17
346.04	952.36
346.42	957.75
346.79	972.02
347.16	974.83
347.54	973.43
347.91	976.24
348.28	970.39
348.65	979.05
349.03	985.60
349.40	994.96
349.77	991.22
350.14	997.07
350.52	999.41
350.89	998.24
351.26	1010.18
351.63	1018.13
352.01	1030.77
352.38	1046.92
352.75	1061.43
353.12	1063.31
353.50	1072.90
353.87	1082.73
354.24	1079.69
354.61	1072.20
354.98	1074.31
355.36	1074.54
355.73	1074.31
356.10	1082.97
356.47	1097.24
356.84	1096.78
357.22	1100.75
357.59	1098.65
357.96	1097.48
358.33	1097.71
358.70	1100.29
359.08	1094.20
359.45	1092.80
359.82	1079.46
360.19	1076.65
360.56	1077.58
360.94	1083.67
361.31	1084.84
361.68	1086.94
362.05	1087.88
362.42	1079.22
362.79	1073.84
363.16	1068.92
363.54	1076.65
363.91	1069.86
364.28	1072.67
364.65	1069.39
365.02	1075.71
365.39	1078.28
365.76	1074.77
366.14	1072.90
366.51	1085.31
366.88	1077.11
367.25	1068.22
367.62	1075.94
367.99	1075.24
368.36	1058.39
368.73	1057.92
369.10	1052.54
369.48	1050.90
369.85	1055.58
370.22	1064.01
370.59	1080.16
370.96	1094.43
371.33	1091.16
371.70	1081.56
372.07	1084.84
372.44	1070.80
372.81	1057.22
373.18	1056.28
373.55	1072.20
373.93	1065.65
374.30	1063.54
374.67	1066.11
375.04	1065.18
375.41	1049.26
375.78	1055.11
376.15	1056.28
376.52	1054.65
376.89	1064.01
377.26	1070.56
377.63	1068.45
378.00	1068.22
378.37	1082.97
378.74	1080.63
379.11	1080.16
379.48	1078.75
379.85	1082.97
380.22	1073.84
380.59	1075.94
380.96	1072.90
381.33	1076.88
381.70	1082.50
382.07	1079.46
382.44	1078.52
382.81	1076.65
383.18	1075.48
383.55	1068.69
383.92	1078.28
384.29	1075.01
384.66	1074.77
385.03	1069.86
385.40	1066.58
385.77	1065.18
386.14	1063.77
386.51	1066.82
386.88	1073.14
387.25	1078.05
387.62	1073.84
387.99	1074.07
388.36	1066.35
388.73	1059.56
389.10	1053.71
389.46	1047.16
389.83	1045.75
390.20	1059.79
390.57	1062.14
390.94	1068.22
391.31	1069.86
391.68	1070.56
392.05	1060.96
392.42	1060.26
392.79	1060.50
393.16	1063.31
393.53	1068.22
393.89	1066.35
394.26	1063.07
394.63	1064.48
395.00	1066.35
395.37	1064.24
395.74	1067.28
396.11	1066.35
396.48	1061.67
396.84	1061.20
397.21	1063.77
397.58	1071.50
397.95	1078.52
398.32	1073.84
398.69	1080.39
399.06	1070.80
399.42	1072.90
399.79	1073.14
400.16	1073.37
400.53	1064.24
400.90	1075.94
401.27	1068.45
401.64	1070.80
402.00	1075.48
402.37	1075.94
402.74	1071.50
403.11	1069.86
403.48	1058.39
403.84	1062.84
404.21	1066.35
404.58	1062.84
404.95	1064.94
405.32	1080.16
405.68	1070.80
406.05	1070.09
406.42	1064.24
406.79	1062.60
407.16	1045.05
407.52	1049.03
407.89	1038.96
408.26	1053.94
408.63	1060.50
408.99	1068.92
409.36	1065.65
409.73	1077.35
410.10	1071.97
410.47	1065.41
410.83	1071.50
411.20	1079.22
411.57	1072.43
411.94	1063.07
412.30	1070.09
412.67	1072.43
413.04	1065.18
413.40	1069.16
413.77	1081.33
414.14	1077.35
414.51	1074.07
414.87	1079.69
415.24	1066.58
415.61	1061.43
415.97	1060.96
416.34	1057.69
416.71	1056.52
417.08	1078.05
417.44	1071.73
417.81	1071.50
418.18	1070.09
418.54	1069.86
418.91	1064.71
419.28	1072.20
419.64	1075.94
420.01	1067.75
420.38	1067.52
420.74	1067.99
421.11	1067.75
421.48	1063.31
421.84	1073.14
422.21	1078.75
422.58	1071.03
422.94	1066.11
423.31	1070.09
423.68	1067.52
424.04	1065.65
424.41	1074.77
424.77	1078.99
425.14	1087.65
425.51	1093.26
425.87	1093.26
426.24	1086.24
426.61	1086.94
426.97	1071.73
427.34	1080.63
427.70	1077.35
428.07	1085.31
428.44	1087.65
428.80	1094.20
429.17	1079.69
429.53	1088.35
429.90	1087.18
430.27	1086.24
430.63	1079.22
431.00	1083.20
431.36	1062.84
431.73	1061.43
432.09	1058.16
432.46	1064.94
432.83	1066.35
433.19	1077.82
433.56	1082.50
433.92	1088.35
434.29	1082.26
434.65	1089.05
435.02	1097.48
435.38	1090.46
435.75	1090.69
436.11	1087.88
436.48	1080.63
436.84	1083.67
437.21	1081.09
437.57	1081.80
437.94	1088.58
438.30	1077.11
438.67	1066.11
439.03	1069.62
439.40	1065.65
439.76	1061.43
440.13	1075.48
440.49	1082.03
440.86	1084.14
441.22	1084.37
441.59	1090.46
441.95	1093.50
442.32	1084.84
442.68	1081.80
443.05	1080.16
443.41	1076.88
443.78	1057.69
444.14	1059.79
444.51	1051.37
444.87	1049.50
445.24	1047.86
445.60	1053.24
445.96	1058.62
446.33	1078.28
446.69	1078.05
447.06	1082.03
447.42	1091.63
447.79	1086.01
448.15	1077.82
448.51	1083.20
448.88	1083.90
449.24	1084.37
449.61	1088.82
449.97	1080.63
450.33	1079.46
450.70	1078.05
451.06	1072.20
451.43	1080.63
451.79	1086.71
452.15	1089.99
452.52	1091.39
452.88	1088.12
453.24	1069.62
453.61	1070.33
453.97	1073.14
454.34	1071.73
454.70	1069.62
455.06	1076.65
455.43	1077.11
455.79	1057.92
456.15	1056.28
456.52	1066.35
456.88	1057.45
457.24	1050.20
457.61	1068.69
457.97	1065.18
458.33	1060.03
458.70	1065.18
459.06	1076.18
459.42	1074.07
459.79	1070.33
460.15	1074.54
460.51	1069.16
460.88	1062.84
461.24	1059.56
461.60	1071.03
461.96	1066.82
462.33	1073.14
462.69	1072.43
463.05	1072.20
463.42	1062.14
463.78	1063.07
464.14	1075.01
464.50	1077.82
464.87	1077.35
465.23	1082.03
465.59	1081.56
465.95	1078.28
466.32	1076.41
466.68	1071.97
467.04	1078.52
467.40	1076.18
467.77	1065.41
468.13	1066.82
468.49	1067.52
468.85	1055.11
469.22	1056.75
469.58	1066.58
469.94	1065.41
470.30	1067.99
470.66	1082.50
471.03	1079.92
471.39	1073.14
471.75	1070.80
472.11	1075.48
472.47	1065.88
472.84	1071.03
473.20	1077.82
473.56	1089.05
473.92	1086.94
474.28	1095.84
474.65	1100.99
475.01	1097.71
475.37	1089.52
475.73	1085.07
476.09	1072.90
476.45	1074.31
476.81	1067.75
477.18	1063.31
477.54	1064.24
477.90	1064.94
478.26	1061.90
478.62	1063.07
478.98	1055.35
479.34	1054.88
479.71	1056.28
480.07	1057.69
480.43	1060.03
480.79	1077.11
481.15	1078.75
481.51	1085.54
481.87	1083.20
482.23	1080.86
482.59	1075.71
482.96	1085.07
483.32	1079.46
483.68	1074.07
484.04	1074.77
484.40	1070.33
484.76	1063.31
485.12	1064.94
485.48	1068.69
485.84	1067.05
486.20	1063.31
486.56	1065.18
486.92	1067.52
487.28	1071.50
487.64	1073.14
488.00	1078.75
488.37	1075.94
488.73	1075.94
489.09	1078.75
489.45	1081.33
489.81	1073.60
490.17	1071.26
490.53	1071.26
490.89	1061.90
491.25	1066.82
491.61	1078.28
491.97	1082.03
492.33	1077.35
492.69	1080.39
493.05	1073.14
493.41	1077.11
493.77	1079.69
494.13	1086.24
494.49	1081.80
494.85	1083.67
495.21	1073.60
495.57	1072.67
495.93	1070.56
496.29	1077.82
496.64	1083.67
497.00	1086.48
497.36	1086.24
497.72	1085.07
498.08	1076.65
498.44	1071.73
498.80	1077.82
499.16	1074.54
499.52	1078.99
499.88	1092.33
500.24	1093.26
500.60	1088.12
500.96	1092.80
501.32	1089.05
501.68	1077.11
502.03	1073.84
502.39	1073.37
502.75	1065.41
503.11	1071.97
503.47	1076.88
503.83	1084.60
504.19	1096.07
504.55	1098.65
504.91	1094.43
505.26	1089.75
505.62	1089.99
505.98	1084.60
506.34	1085.54
506.70	1085.31
507.06	1091.39
507.42	1086.24
507.78	1084.60
508.13	1084.60
508.49	1075.48
508.85	1078.99
509.21	1084.37
509.57	1083.20
509.93	1084.60
510.28	1098.18
510.64	1097.24
511.00	1094.67
511.36	1104.03
511.72	1107.31
512.07	1107.78
512.43	1092.80
512.79	1087.18
513.15	1081.56
513.51	1075.48
513.86	1070.33
514.22	1077.11
514.58	1075.48
514.94	1071.73
515.30	1073.60
515.65	1076.41
516.01	1085.77
516.37	1094.20
516.73	1094.67
517.08	1093.03
517.44	1085.54
517.80	1087.88
518.16	1092.56
518.51	1099.35
518.87	1101.22
519.23	1107.78
519.59	1108.24
519.94	1097.24
520.30	1089.29
520.66	1093.73
521.01	1093.50
521.37	1092.09
521.73	1094.43
522.09	1096.78
522.44	1095.84
522.80	1087.65
523.16	1083.43
523.51	1087.88
523.87	1093.50
524.23	1095.84
524.58	1109.41
524.94	1110.82
525.30	1105.44
525.65	1099.58
526.01	1099.12
526.37	1101.22
526.72	1092.80
527.08	1099.82
527.44	1110.12
527.79	1101.69
528.15	1105.44
528.51	1109.88
528.86	1102.16
529.22	1089.29
529.58	1100.52
529.93	1079.22
530.29	1076.18
530.65	1078.05
531.00	1083.20
531.36	1076.18
531.71	1077.58
532.07	1075.94
532.43	1079.69
532.78	1077.11
533.14	1077.58
533.49	1078.28
533.85	1075.24
534.21	1075.01
534.56	1069.62
534.92	1080.63
535.27	1087.88
535.63	1104.73
535.98	1102.39
536.34	1108.48
536.69	1101.92
537.05	1098.88
537.41	1088.35
537.76	1093.50
538.12	1101.92
538.47	1098.18
538.83	1103.56
539.18	1113.86
539.54	1109.88
539.89	1097.71
540.25	1099.58
540.60	1094.67
540.96	1091.39
541.31	1097.71
541.67	1108.48
542.02	1113.39
542.38	1112.92
542.73	1109.41
543.09	1098.88
543.44	1092.33
543.80	1086.01
544.15	1087.18
544.51	1088.12
544.86	1097.24
545.22	1093.26
545.57	1092.09
545.93	1091.16
546.28	1099.82
546.64	1096.78
546.99	1097.01
547.35	1093.26
547.70	1091.16
548.05	1079.69
548.41	1078.05
548.76	1076.41
549.12	1078.75
549.47	1082.50
549.83	1082.26
550.18	1086.71
550.53	1100.29
550.89	1097.24
551.24	1094.90
551.60	1091.39
551.95	1082.50
552.30	1081.33
552.66	1086.94
553.01	1094.67
553.37	1093.97
553.72	1088.12
554.07	1074.54
554.43	1072.67
554.78	1068.92
555.13	1084.37
555.49	1097.24
555.84	1102.39
556.19	1105.67
556.55	1109.18
556.90	1100.52
557.26	1090.92
557.61	1087.41
557.96	1080.16
558.32	1078.99
558.67	1081.33
559.02	1086.94
559.37	1098.88
559.73	1101.92
560.08	1090.46
560.43	1093.50
560.79	1093.26
561.14	1078.99
561.49	1089.75
561.85	1084.37
562.20	1072.43
562.55	1077.58
562.90	1084.14
563.26	1075.24
563.61	1088.12
563.96	1093.97
564.32	1085.77
564.67	1090.22
565.02	1083.90
565.37	1081.80
565.73	1077.82
566.08	1078.52
566.43	1065.41
566.78	1075.01
567.14	1084.60
567.49	1085.54
567.84	1097.01
568.19	1100.05
568.54	1094.90
568.90	1094.67
569.25	1099.35
569.60	1086.48
569.95	1089.52
570.31	1077.82
570.66	1070.33
571.01	1074.31
571.36	1082.26
571.71	1076.88
572.06	1092.33
572.42	1091.86
572.77	1084.60
573.12	1083.90
573.47	1088.82
573.82	1083.67
574.18	1078.52
574.53	1079.46
574.88	1076.65
575.23	1078.28
575.58	1084.84
575.93	1093.26
576.28	1091.63
576.64	1083.20
576.99	1083.67
577.34	1078.75
577.69	1074.31
578.04	1071.73
578.39	1073.60
578.74	1066.58
579.09	1072.90
579.44	1078.05
579.80	1079.92
580.15	1078.75
580.50	1074.77
580.85	1059.33
581.20	1055.58
581.55	1057.22
581.90	1063.31
582.25	1068.92
582.60	1082.97
582.95	1080.86
583.30	1075.94
583.65	1078.28
584.00	1067.99
584.35	1063.77
584.71	1069.16
585.06	1078.28
585.41	1075.01
585.76	1094.67
586.11	1093.97
586.46	1092.09
586.81	1078.99
587.16	1076.65
587.51	1078.99
587.86	1075.01
588.21	1067.75
588.56	1082.73
588.91	1084.14
589.26	1074.54
589.61	1073.84
589.96	1086.24
590.31	1076.65
590.66	1082.03
591.01	1078.28
591.36	1086.24
591.71	1077.35
592.06	1082.26
592.41	1082.26
592.76	1105.20
593.10	1099.35
593.45	1107.31
593.80	1107.31
594.15	1101.69
594.50	1079.92
594.85	1083.67
595.20	1074.54
595.55	1075.24
595.90	1071.97
596.25	1076.88
596.60	1076.41
596.95	1085.31
597.30	1088.35
597.64	1142.42
597.99	1136.10
598.34	1130.24
598.69	1132.12
599.04	1128.37
599.39	1078.05
599.74	1088.58
600.09	1082.97
600.44	1074.31
600.78	1064.24
601.13	1062.37
601.48	1065.41
601.83	1076.88
602.18	1070.80
602.53	1077.35
602.88	1089.75
603.22	1078.99
603.57	1072.67
603.92	1080.86
604.27	1081.09
604.62	1073.37
604.97	1072.20
605.31	1079.22
605.66	1086.24
606.01	1080.63
606.36	1076.41
606.71	1073.37
607.05	1082.26
607.40	1075.01
607.75	1082.73
608.10	1085.54
608.44	1081.56
608.79	1073.37
609.14	1075.01
609.49	1073.37
609.84	1080.39
610.18	1104.73
610.53	1109.88
610.88	1111.99
611.23	1111.05
611.57	1109.88
611.92	1101.22
612.27	1092.33
612.62	1084.60
612.96	1082.03
613.31	1074.54
613.66	1068.45
614.00	1074.07
614.35	1075.71
614.70	1078.28
615.05	1085.54
615.39	1093.26
615.74	1088.58
616.09	1090.92
616.43	1082.50
616.78	1078.75
617.13	1071.97
617.47	1075.94
617.82	1076.88
618.17	1087.65
618.51	1095.60
618.86	1091.39
619.21	1083.90
619.55	1082.50
619.90	1086.71
620.25	1079.92
620.59	1081.33
620.94	1089.99
621.29	1079.69
621.63	1071.26
621.98	1065.18
622.32	1061.43
622.67	1059.56
623.02	1070.09
623.36	1068.22
623.71	1071.97
624.05	1073.60
624.40	1073.60
624.75	1079.69
625.09	1084.14
625.44	1087.41
625.78	1094.67
626.13	1093.97
626.48	1085.07
626.82	1085.77
627.17	1083.67
627.51	1079.22
627.86	1085.07
628.20	1089.75
628.55	1090.92
628.89	1090.69
629.24	1097.71
629.58	1100.52
629.93	1095.84
630.28	1096.31
630.62	1105.90
630.97	1105.67
631.31	1095.14
631.66	1092.56
632.00	1091.63
632.35	1084.14
632.69	1079.69
633.04	1083.43
633.38	1077.11
633.73	1068.22
634.07	1061.67
634.42	1060.26
634.76	1042.71
635.11	1048.79
635.45	1054.88
635.79	1061.67
636.14	1064.24
636.48	1080.16
636.83	1078.05
637.17	1078.75
637.52	1068.92
637.86	1062.60
638.21	1060.96
638.55	1067.28
638.89	1060.50
639.24	1064.01
639.58	1077.82
639.93	1086.94
640.27	1096.07
640.61	1099.82
640.96	1100.05
641.30	1093.73
641.65	1086.71
641.99	1077.35
642.33	1082.26
642.68	1077.35
643.02	1070.56
643.37	1069.62
643.71	1068.22
644.05	1071.73
644.40	1088.58
644.74	1097.01
645.08	1093.03
645.43	1096.78
645.77	1093.97
646.11	1079.92
646.46	1071.73
646.80	1078.52
647.14	1081.33
647.49	1079.69
647.83	1079.69
648.17	1082.50
648.52	1075.94
648.86	1081.33
649.20	1081.56
649.55	1081.56
649.89	1089.29
650.23	1093.26
650.57	1089.52
650.92	1088.12
651.26	1089.05
651.60	1081.56
651.95	1071.97
652.29	1069.62
652.63	1072.67
652.97	1071.50
653.32	1077.58
653.66	1089.29
654.00	1093.73
654.34	1091.86
654.69	1097.24
655.03	1081.09
655.37	1083.43
655.71	1073.37
656.05	1069.39
656.40	1066.11
656.74	1069.39
657.08	1061.67
657.42	1064.94
657.76	1066.58
658.11	1059.56
658.45	1072.43
658.79	1076.88
659.13	1065.65
659.47	1058.16
659.82	1057.45
660.16	1059.09
660.50	1061.67
660.84	1073.84
661.18	1081.80
661.52	1087.18
661.87	1078.75
662.21	1078.99
662.55	1077.11
662.89	1078.99
663.23	1090.22
663.57	1090.22
663.91	1087.41
664.25	1084.37
664.60	1078.75
664.94	1081.33
665.28	1090.69
665.62	1088.58
665.96	1089.75
666.30	1094.90
666.64	1081.80
666.98	1080.16
667.32	1081.56
667.66	1082.50
668.01	1083.43
668.35	1090.46
668.69	1075.48
669.03	1073.84
669.37	1073.37
669.71	1064.48
670.05	1069.39
670.39	1082.03
670.73	1077.82
671.07	1076.88
671.41	1081.09
671.75	1057.45
672.09	1060.73
672.43	1066.82
672.77	1075.71
673.11	1086.24
673.45	1108.48
673.79	1103.56
674.13	1104.26
674.47	1099.35
674.81	1095.60
675.15	1098.65
675.49	1093.73
675.83	1089.75
676.17	1090.69
676.51	1087.18
676.85	1080.86
677.19	1074.54
677.53	1073.14
677.87	1060.03
678.21	1057.45
678.55	1055.58
678.89	1066.11
679.23	1073.14
679.57	1074.31
679.90	1070.56
680.24	1063.77
680.58	1063.31
680.92	1058.86
681.26	1071.26
681.60	1076.18
681.94	1082.73
682.28	1083.67
682.62	1084.84
682.96	1085.77
683.29	1084.14
683.63	1078.99
683.97	1080.16
684.31	1081.80
684.65	1072.67
684.99	1070.09
685.33	1061.43
685.67	1055.11
686.00	1051.84
686.34	1054.18
686.68	1063.07
687.02	1073.14
687.36	1075.01
687.70	1069.39
688.03	1072.43
688.37	1075.94
688.71	1081.80
689.05	1077.82
689.39	1083.67
689.72	1082.03
690.06	1072.90
690.40	1059.33
690.74	1066.35
691.08	1064.48
691.41	1066.35
691.75	1076.41
692.09	1085.77
692.43	1082.50
692.76	1093.73
693.10	1098.18
693.44	1093.73
693.78	1097.24
694.11	1110.12
694.45	1099.12
694.79	1082.03
695.13	1075.24
695.46	1076.88
695.80	1070.09
696.14	1069.39
696.48	1081.56
696.81	1085.77
697.15	1081.80
697.49	1075.94
697.82	1069.62
698.16	1073.37
698.50	1075.94
698.83	1075.71
699.17	1076.41
699.51	1077.58
699.84	1062.84
700.18	1062.14
700.52	1062.84
700.85	1062.37
701.19	1073.14
701.53	1096.07
701.86	1096.07
702.20	1096.78
702.54	1096.31
702.87	1093.73
703.21	1079.69
703.55	1083.90
703.88	1079.69
704.22	1085.31
704.55	1078.75
704.89	1080.39
705.23	1063.54
705.56	1061.90
705.90	1065.88
706.23	1078.75
706.57	1082.97
706.91	1100.29
707.24	1103.80
707.58	1098.41
707.91	1098.41
708.25	1100.05
708.58	1087.65
708.92	1094.43
709.26	1089.99
709.59	1085.31
709.93	1080.63
710.26	1081.80
710.60	1070.33
710.93	1077.58
711.27	1072.43
711.60	1078.99
711.94	1088.82
712.27	1090.69
712.61	1092.80
712.94	1091.39
713.28	1083.67
713.61	1074.07
713.95	1070.33
714.28	1064.48
714.62	1076.65
714.95	1072.20
715.29	1072.20
715.62	1083.90
715.96	1085.54
716.29	1078.52
716.63	1085.77
716.96	1092.56
717.29	1086.71
717.63	1082.26
717.96	1074.07
718.30	1073.37
718.63	1086.01
718.97	1086.01
719.30	1095.37
719.63	1111.52
719.97	1106.14
720.30	1093.03
720.64	1094.90
720.97	1094.20
721.30	1083.20
721.64	1082.50
721.97	1082.26
722.31	1080.39
722.64	1080.63
722.97	1074.77
723.31	1087.65
723.64	1094.90
723.97	1097.95
724.31	1092.56
724.64	1106.61
724.98	1089.75
725.31	1079.69
725.64	1081.33
725.98	1074.54
726.31	1067.52
726.64	1072.67
726.97	1074.31
727.31	1079.46
727.64	1089.75
727.97	1082.73
728.31	1072.20
728.64	1070.80
728.97	1063.54
729.31	1056.52
729.64	1061.20
729.97	1076.88
730.30	1080.16
730.64	1087.41
730.97	1092.80
731.30	1090.69
731.63	1089.05
731.97	1088.82
732.30	1091.63
732.63	1090.22
732.96	1093.26
733.30	1096.78
733.63	1088.12
733.96	1076.65
734.29	1069.62
734.63	1070.09
734.96	1062.14
735.29	1079.22
735.62	1081.56
735.95	1079.92
736.29	1079.22
736.62	1086.01
736.95	1072.43
737.28	1071.97
737.61	1076.18
737.94	1077.82
738.28	1078.75
738.61	1080.63
738.94	1078.52
739.27	1093.26
739.60	1094.90
739.93	1093.03
740.27	1081.56
740.60	1085.07
740.93	1063.07
741.26	1059.56
741.59	1057.22
741.92	1077.35
742.25	1080.16
742.58	1087.18
742.91	1085.77
743.25	1085.54
743.58	1077.58
743.91	1067.99
744.24	1069.16
744.57	1081.33
744.90	1080.16
745.23	1082.97
745.56	1087.88
745.89	1083.43
746.22	1077.35
746.55	1079.92
746.88	1074.54
747.21	1077.35
747.54	1088.58
747.87	1089.75
748.20	1086.24
748.53	1087.65
748.87	1083.43
749.20	1077.11
749.53	1071.97
749.86	1075.94
750.19	1086.94
750.52	1086.01
750.85	1080.86
751.18	1088.58
751.51	1084.14
751.84	1082.26
752.16	1079.92
752.49	1092.09
752.82	1082.03
753.15	1093.97
753.48	1099.35
753.81	1104.97
754.14	1104.03
754.47	1108.95
754.80	1103.56
755.13	1093.50
755.46	1095.14
755.79	1082.97
756.12	1088.12
756.45	1092.80
756.78	1092.56
757.11	1091.86
757.43	1103.56
757.76	1098.65
758.09	1080.63
758.42	1076.18
758.75	1073.60
759.08	1069.62
759.41	1073.37
759.74	1081.80
760.07	1088.58
760.39	1088.58
760.72	1091.16
761.05	1085.31
761.38	1090.69
761.71	1081.56
762.04	1079.69
762.36	1069.86
762.69	1071.50
763.02	1075.48
763.35	1072.67
763.68	1070.56
764.01	1071.03
764.33	1080.16
764.66	1072.43
764.99	1072.90
765.32	1076.41
765.65	1086.01
765.97	1082.50
766.30	1077.11
766.63	1081.09
766.96	1090.69
767.28	1087.41
767.61	1077.58
767.94	1080.16
768.27	1082.73
768.59	1074.54
768.92	1078.28
769.25	1079.22
769.58	1090.69
769.90	1082.03
770.23	1078.05
770.56	1071.50
770.89	1072.90
771.21	1063.31
771.54	1080.39
771.87	1087.18
772.19	1095.37
772.52	1103.09
772.85	1107.07
773.17	1110.12
773.50	1115.97
773.83	1111.29
774.15	1106.14
774.48	1106.84
774.81	1093.73
775.13	1079.92
775.46	1071.50
775.79	1076.18
776.11	1072.67
776.44	1076.18
776.77	1083.43
777.09	1085.54
777.42	1080.86
777.74	1076.41
778.07	1076.88
778.40	1071.50
778.72	1080.39
779.05	1076.41
779.37	1086.94
779.70	1086.48
780.03	1093.26
780.35	1079.46
780.68	1086.24
781.00	1079.46
781.33	1071.97
781.65	1066.35
781.98	1078.28
782.31	1083.67
782.63	1085.31
782.96	1086.71
783.28	1102.86
783.61	1103.56
783.93	1107.07
784.26	1111.29
784.58	1119.95
784.91	1104.97
785.23	1097.48
785.56	1086.71
785.88	1085.07
786.21	1086.48
786.53	1081.09
786.86	1080.39
787.18	1075.71
787.51	1070.09
787.83	1069.62
788.16	1084.14
788.48	1093.97
788.81	1097.48
789.13	1096.54
789.46	1089.05
789.78	1073.37
790.10	1063.54
790.43	1066.58
790.75	1078.28
791.08	1082.73
791.40	1089.05
791.73	1102.63
792.05	1099.12
792.37	1091.86
792.70	1090.92
793.02	1087.18
793.35	1080.86
793.67	1075.48
793.99	1073.14
794.32	1076.88
794.64	1078.28
794.96	1075.94
795.29	1078.75
795.61	1092.56
795.93	1077.82
796.26	1076.18
796.58	1078.52
796.91	1083.90
797.23	1070.33
797.55	1076.65
797.87	1087.88
798.20	1089.52
798.52	1089.75
798.84	1084.84
799.17	1086.94
799.49	1080.39
799.81	1078.99
800.14	1065.88
800.46	1070.33
800.78	1066.58
801.10	1058.86
801.43	1058.16
801.75	1068.92
802.07	1070.09
802.40	1069.62
802.72	1078.28
803.04	1081.09
803.36	1088.35
803.69	1093.26
804.01	1098.88
804.33	1104.50
804.65	1105.20
804.97	1095.37
805.30	1098.18
805.62	1096.07
805.94	1096.78
806.26	1091.63
806.58	1092.33
806.91	1070.33
807.23	1068.92
807.55	1062.60
807.87	1065.41
808.19	1063.77
808.52	1075.94
808.84	1090.92
809.16	1093.50
809.48	1089.05
809.80	1096.54
810.12	1093.26
810.44	1089.75
810.77	1084.37
811.09	1081.56
811.41	1080.39
811.73	1088.12
812.05	1082.50
812.37	1087.88
812.69	1090.92
813.01	1082.73
813.33	1080.16
813.66	1078.99
813.98	1077.58
814.30	1086.24
814.62	1091.39
814.94	1090.46
815.26	1080.39
815.58	1077.82
815.90	1067.05
816.22	1061.43
816.54	1062.37
816.86	1067.52
817.18	1068.45
817.50	1076.41
817.82	1073.37
818.14	1070.80
818.46	1080.16
818.78	1085.07
819.10	1082.26
819.42	1089.52
819.74	1083.67
820.06	1072.43
820.38	1074.07
820.70	1075.94
821.02	1074.31
821.34	1079.46
821.66	1094.43
821.98	1081.09
822.30	1076.41
822.62	1067.99
822.94	1073.60
823.26	1068.92
823.58	1075.24
823.90	1079.46
824.22	1087.88
824.54	1084.37
824.86	1078.75
825.18	1070.33
825.50	1061.67
825.81	1056.99
826.13	1065.41
826.45	1067.52
826.77	1075.48
827.09	1074.77
827.41	1076.65
827.73	1065.65
828.05	1066.11
828.36	1062.37
828.68	1068.22
829.00	1066.58
829.32	1070.56
829.64	1068.69
829.96	1069.62
830.28	1057.92
830.59	1066.35
830.91	1067.99
831.23	1066.82
831.55	1067.99
831.87	1077.82
832.19	1062.60
832.50	1061.43
832.82	1060.03
833.14	1056.99
833.46	1061.20
833.78	1068.22
834.09	1073.60
834.41	1069.86
834.73	1077.35
835.05	1072.67
835.36	1084.37
835.68	1073.60
836.00	1081.80
836.32	1082.03
836.63	1090.69
836.95	1082.50
837.27	1088.58
837.59	1084.37
837.90	1082.73
838.22	1068.69
838.54	1071.03
838.85	1067.28
839.17	1070.33
839.49	1067.75
839.80	1074.31
840.12	1070.09
840.44	1065.65
840.76	1061.67
841.07	1054.65
841.39	1063.07
841.71	1075.01
842.02	1080.63
842.34	1088.58
842.65	1094.90
842.97	1094.67
843.29	1083.20
843.60	1081.09
843.92	1081.80
844.24	1084.37
844.55	1078.75
844.87	1078.05
845.18	1075.94
845.50	1074.07
845.82	1075.48
846.13	1079.69
846.45	1077.35
846.76	1093.50
847.08	1089.29
847.40	1084.60
847.71	1075.71
848.03	1084.37
848.34	1067.75
848.66	1067.75
848.97	1078.28
849.29	1078.52
849.60	1076.18
849.92	1081.09
850.24	1081.33
850.55	1068.22
850.87	1071.73
851.18	1082.26
851.50	1090.46
851.81	1094.67
852.13	1101.22
852.44	1095.84
852.76	1076.18
853.07	1069.16
853.39	1057.22
853.70	1051.13
854.01	1056.52
854.33	1065.65
854.64	1064.71
854.96	1083.20
855.27	1083.90
855.59	1086.71
855.90	1081.56
856.22	1087.18
856.53	1075.48
856.84	1081.09
857.16	1079.22
857.47	1082.26
857.79	1071.03
858.10	1072.90
858.41	1071.73
858.73	1071.97
859.04	1072.43
859.36	1078.75
859.67	1080.86
859.98	1080.16
860.30	1086.01
860.61	1093.73
860.92	1095.37
861.24	1093.97
861.55	1098.18
861.87	1097.71
862.18	1093.03
862.49	1091.39
862.81	1092.56
863.12	1083.43
863.43	1067.05
863.74	1054.18
864.06	1047.39
864.37	1046.22
864.68	1054.18
865.00	1061.90
865.31	1079.69
865.62	1082.50
865.94	1085.31
866.25	1092.56
866.56	1093.26
866.87	1088.58
867.19	1099.35
867.50	1092.80
867.81	1082.50
868.12	1079.92
868.44	1078.28
868.75	1069.86
869.06	1084.84
869.37	1090.22
869.68	1105.20
870.00	1106.84
870.31	1115.03
870.62	1098.65
870.93	1095.60
871.24	1083.90
871.56	1081.56
871.87	1063.77
872.18	1066.35
872.49	1054.88
872.80	1055.58
873.12	1055.58
873.43	1070.80
873.74	1075.94
874.05	1090.92
874.36	1088.12
874.67	1088.12
874.98	1085.77
875.29	1077.35
875.61	1058.39
875.92	1060.26
876.23	1064.94
876.54	1056.28
876.85	1059.79
877.16	1072.43
877.47	1066.82
877.78	1061.67
878.09	1070.56
878.40	1077.82
878.72	1078.28
879.03	1082.03
879.34	1079.46
879.65	1078.05
879.96	1069.39
880.27	1060.96
880.58	1071.03
880.89	1075.94
881.20	1075.24
881.51	1067.52
881.82	1065.41
882.13	1062.37
882.44	1055.58
882.75	1047.86
883.06	1049.73
883.37	1060.96
883.68	1052.30
883.99	1063.77
884.30	1072.67
884.61	1079.92
884.92	1082.97
885.23	1090.69
885.54	1086.01
885.85	1083.43
886.16	1085.54
886.47	1083.90
886.78	1078.75
887.08	1074.54
887.39	1069.16
887.70	1067.28
888.01	1066.11
888.32	1073.14
888.63	1086.24
888.94	1086.01
889.25	1075.48
889.56	1075.01
889.87	1066.35
890.17	1059.09
890.48	1066.82
890.79	1082.50
891.10	1085.77
891.41	1096.54
891.72	1095.60
892.03	1089.29
892.34	1083.20
892.64	1087.41
892.95	1074.54
893.26	1081.09
893.57	1093.73
893.88	1104.97
894.18	1087.88
894.49	1091.63
894.80	1091.63
895.11	1080.86
895.42	1066.11
895.72	1078.28
896.03	1085.54
896.34	1083.20
896.65	1095.37
896.96	1111.52
897.26	1111.99
897.57	1105.90
897.88	1104.73
898.19	1105.44
898.49	1103.80
898.80	1101.46
899.11	1102.16
899.41	1093.26
899.72	1080.86
900.03	1074.54
900.34	1073.84
900.64	1072.43
900.95	1079.22
901.26	1079.92
901.56	1074.77
901.87	1075.24
902.18	1082.50
902.48	1086.94
902.79	1094.43
903.10	1088.12
903.40	1086.24
903.71	1088.82
904.02	1080.16
904.32	1073.60
904.63	1078.75
904.94	1082.73
905.24	1070.80
905.55	1068.92
905.85	1068.22
906.16	1069.16
906.47	1060.26
906.77	1063.77
907.08	1072.43
907.38	1072.43
907.69	1077.11
908.00	1086.71
908.30	1087.41
908.61	1088.58
908.91	1108.24
909.22	1109.18
909.52	1103.56
909.83	1105.20
910.14	1093.03
910.44	1082.50
910.75	1078.52
911.05	1079.46
911.36	1073.37
911.66	1082.97
911.97	1083.90
912.27	1088.12
912.58	1083.43
912.88	1085.54
913.19	1078.28
913.49	1069.62
913.80	1067.28
914.10	1082.73
914.41	1084.37
914.71	1089.52
915.01	1096.54
915.32	1092.56
915.62	1075.48
915.93	1076.65
916.23	1074.31
916.54	1068.45
916.84	1069.86
917.15	1080.16
917.45	1084.37
917.75	1086.01
918.06	1085.77
918.36	1093.03
918.67	1089.99
918.97	1088.58
919.27	1086.48
919.58	1089.52
919.88	1075.24
920.18	1083.20
920.49	1094.43
920.79	1098.65
921.10	1099.58
921.40	1114.56
921.70	1108.95
922.01	1092.33
922.31	1086.48
922.61	1085.31
922.92	1083.43
923.22	1075.94
923.52	1071.50
923.82	1070.09
924.13	1066.82
924.43	1065.18
924.73	1070.80
925.04	1080.16
925.34	1073.60
925.64	1089.05
925.94	1084.84
926.25	1084.37
926.55	1080.39
926.85	1090.22
927.15	1076.88
927.46	1079.69
927.76	1071.73
928.06	1075.71
928.36	1076.18
928.67	1071.73
928.97	1066.35
929.27	1067.28
929.57	1062.37
929.87	1061.90
930.18	1066.82
930.48	1075.71
930.78	1081.80
931.08	1083.90
931.38	1089.52
931.69	1091.16
931.99	1082.03
932.29	1084.37
932.59	1085.07
932.89	1080.39
933.19	1077.11
933.49	1077.82
933.80	1078.52
934.10	1072.90
934.40	1068.69
934.70	1075.94
935.00	1080.63
935.30	1076.65
935.60	1076.65
935.90	1076.65
936.20	1058.86
936.50	1060.96
936.81	1057.92
937.11	1063.77
937.41	1053.48
937.71	1062.37
938.01	1068.22
938.31	1080.16
938.61	1075.24
938.91	1089.05
939.21	1083.20
939.51	1071.73
939.81	1059.79
940.11	1063.31
940.41	1072.20
940.71	1076.41
941.01	1082.73
941.31	1086.94
941.61	1083.20
941.91	1083.67
942.21	1085.54
942.51	1078.75
942.81	1081.56
943.11	1082.03
943.41	1076.65
943.71	1080.86
944.01	1085.31
944.31	1090.69
944.61	1099.12
944.90	1090.22
945.20	1088.35
945.50	1089.29
945.80	1081.33
946.10	1066.82
946.40	1072.43
946.70	1078.28
947.00	1069.62
947.30	1065.41
947.60	1079.46
947.89	1084.37
948.19	1069.62
948.49	1068.45
948.79	1076.65
949.09	1074.77
949.39	1071.50
949.69	1080.86
949.98	1092.56
950.28	1083.67
950.58	1073.60
950.88	1070.56
951.18	1068.69
951.48	1069.16
951.77	1073.60
952.07	1073.14
952.37	1072.43
952.67	1069.16
952.97	1063.77
953.26	1068.22
953.56	1080.16
953.86	1086.01
954.16	1086.24
954.45	1079.92
954.75	1075.71
955.05	1060.73
955.35	1061.90
955.64	1068.22
955.94	1077.11
956.24	1078.28
956.54	1088.82
956.83	1088.82
957.13	1080.86
957.43	1081.09
957.72	1087.41
958.02	1081.56
958.32	1078.99
958.61	1082.73
958.91	1080.39
959.21	1075.94
959.50	1085.54
959.80	1083.90
960.10	1092.56
960.39	1088.58
960.69	1083.90
960.99	1092.80
961.28	1095.60
961.58	1090.69
961.87	1094.67
962.17	1097.71
962.47	1080.16
962.76	1076.65
963.06	1072.90
963.36	1078.05
963.65	1078.52
963.95	1083.20
964.24	1078.52
964.54	1078.05
964.83	1074.54
965.13	1067.05
965.42	1071.73
965.72	1070.56
966.02	1068.22
966.31	1064.94
966.61	1065.65
966.90	1058.39
967.20	1068.92
967.49	1074.07
967.79	1073.84
968.08	1085.77
968.38	1087.88
968.67	1089.29
968.97	1091.63
969.26	1100.29
969.56	1092.80
969.85	1090.46
970.15	1088.58
970.44	1088.58
970.74	1067.28
971.03	1071.73
971.32	1074.54
971.62	1067.99
971.91	1054.88
972.21	1063.07
972.50	1053.71
972.80	1043.41
973.09	1052.07
973.38	1063.07
973.68	1078.52
973.97	1084.84
974.27	1100.05
974.56	1090.46
974.85	1089.52
975.15	1077.11
975.44	1076.18
975.73	1068.69
976.03	1072.43
976.32	1065.41
976.61	1078.52
976.91	1080.16
977.20	1090.69
977.49	1094.43
977.79	1100.29
978.08	1089.99
978.37	1091.63
978.67	1078.99
978.96	1082.50
979.25	1086.24
979.55	1093.97
979.84	1087.41
980.13	1097.24
980.42	1089.05
980.72	1086.48
981.01	1068.92
981.30	1078.28
981.59	1070.80
981.89	1077.58
982.18	1075.94
982.47	1083.20
982.76	1081.56
983.06	1086.48
983.35	1083.20
983.64	1076.65
983.93	1076.18
984.22	1072.90
984.52	1071.97
984.81	1066.11
985.10	1072.20
985.39	1071.26
985.68	1072.43
985.97	1070.56
986.27	1076.65
986.56	1076.41
986.85	1079.46
987.14	1068.92
987.43	1073.14
987.72	1077.82
988.01	1083.43
988.31	1088.35
988.60	1086.94
988.89	1082.97
989.18	1078.75
989.47	1076.88
989.76	1076.88
990.05	1089.05
990.34	1090.69
990.63	1084.60
990.92	1075.48
991.21	1075.48
991.51	1068.45
991.80	1064.71
992.09	1066.11
992.38	1061.43
992.67	1060.26
992.96	1068.45
993.25	1062.60
993.54	1071.26
993.83	1084.60
994.12	1081.33
994.41	1083.90
994.70	1087.41
994.99	1070.56
995.28	1069.86
995.57	1078.05
995.86	1079.92
996.15	1086.24
996.44	1095.84
996.73	1093.73
997.02	1086.01
997.31	1085.54
997.59	1085.77
997.88	1086.24
998.17	1089.75
998.46	1092.33
998.75	1087.18
999.04	1086.24
999.33	1097.95
999.62	1102.16
999.91	1107.78
1000.20	1111.05
1000.49	1117.14
1000.77	1102.86
1001.06	1088.35
1001.35	1084.84
1001.64	1079.92
1001.93	1078.05
1002.22	1081.56
1002.51	1091.86
1002.79	1092.33
1003.08	1093.73
1003.37	1082.50
1003.66	1085.31
1003.95	1081.56
1004.23	1083.67
1004.52	1092.56
1004.81	1093.50
1005.10	1083.67
1005.39	1082.97
1005.67	1069.16
1005.96	1056.99
1006.25	1061.67
1006.54	1069.62
1006.83	1072.20
1007.11	1079.22
1007.40	1086.94
1007.69	1087.18
1007.97	1091.39
1008.26	1089.05
1008.55	1089.29
1008.84	1072.90
1009.12	1072.43
1009.41	1068.92
1009.70	1070.80
1009.98	1073.14
1010.27	1084.37
1010.56	1085.54
1010.85	1082.50
1011.13	1080.63
1011.42	1073.37
1011.71	1068.92
1011.99	1066.58
1012.28	1062.60
1012.56	1062.60
1012.85	1070.09
1013.14	1070.80
1013.42	1072.67
1013.71	1072.20
1014.00	1074.54
1014.28	1075.94
1014.57	1070.56
1014.85	1071.26
1015.14	1082.97
1015.43	1081.56
1015.71	1071.03
1016.00	1083.90
1016.28	1091.86
1016.57	1072.67
1016.85	1081.56
1017.14	1086.71
1017.43	1080.86
1017.71	1065.41
1018.00	1067.75
1018.28	1065.41
1018.57	1067.05
1018.85	1067.28
1019.14	1070.56
1019.42	1087.18
1019.71	1081.80
1019.99	1075.94
1020.28	1075.71
1020.56	1080.86
1020.85	1069.62
1021.13	1075.01
1021.42	1080.63
1021.70	1079.92
1021.99	1067.05
1022.27	1078.05
1022.55	1022.81
1022.84	1111.75
>>>>>End Processed Spectral Data<<<<<
