SpectraSuite Data File
++++++++++++++++++++++++++++++++++++
Date: Mon Aug 26 10:25:57 PDT 2019
User: corrico
Dark Spectrum Present: No
Reference Spectrum Present: No
Number of Sampled Component Spectra: 1
Spectrometers: USB2+H06089
Integration Time (usec): 10000 (USB2+H06089)
Spectra Averaged: 2 (USB2+H06089)
Boxcar Smoothing: 2 (USB2+H06089)
Correct for Electrical Dark: No (USB2+H06089)
Strobe/Lamp Enabled: No (USB2+H06089)
Correct for Detector Non-linearity: No (USB2+H06089)
Correct for Stray Light: No (USB2+H06089)
Number of Pixels in Processed Spectrum: 2048
>>>>>Begin Processed Spectral Data<<<<<
339.70	1046.22
340.07	1046.22
340.45	998.24
340.82	963.60
341.19	933.87
341.57	913.98
341.94	896.89
342.31	900.87
342.69	903.91
343.06	906.26
343.43	900.40
343.81	901.81
344.18	902.28
344.55	912.57
344.93	927.79
345.30	924.98
345.67	928.96
346.04	928.49
346.42	931.07
346.79	927.32
347.16	937.15
347.54	955.87
347.91	978.11
348.28	993.09
348.65	1001.75
349.03	1023.28
349.40	1031.24
349.77	1041.77
350.14	1043.88
350.52	1053.94
350.89	1045.75
351.26	1045.05
351.63	1040.37
352.01	1043.18
352.38	1038.96
352.75	1052.30
353.12	1056.28
353.50	1056.52
353.87	1056.28
354.24	1060.73
354.61	1062.14
354.98	1074.54
355.36	1086.48
355.73	1098.41
356.10	1100.52
356.47	1098.41
356.84	1100.75
357.22	1093.97
357.59	1086.71
357.96	1082.03
358.33	1078.75
358.70	1072.43
359.08	1082.73
359.45	1086.24
359.82	1090.22
360.19	1093.50
360.56	1077.82
360.94	1061.90
361.31	1056.28
361.68	1049.26
362.05	1032.18
362.42	1045.05
362.79	1045.75
363.16	1050.20
363.54	1062.14
363.91	1082.26
364.28	1078.28
364.65	1082.50
365.02	1078.28
365.39	1086.01
365.76	1079.92
366.14	1074.77
366.51	1081.80
366.88	1083.43
367.25	1069.16
367.62	1078.52
367.99	1075.24
368.36	1071.97
368.73	1069.86
369.10	1067.05
369.48	1055.11
369.85	1057.45
370.22	1048.09
370.59	1052.30
370.96	1054.65
371.33	1061.90
371.70	1070.80
372.07	1076.65
372.44	1073.37
372.81	1067.75
373.18	1059.79
373.55	1066.82
373.93	1059.79
374.30	1065.18
374.67	1072.20
375.04	1078.99
375.41	1066.35
375.78	1080.63
376.15	1082.26
376.52	1085.07
376.89	1082.73
377.26	1079.22
377.63	1067.28
378.00	1060.03
378.37	1047.16
378.74	1045.28
379.11	1048.79
379.48	1049.96
379.85	1055.35
380.22	1064.48
380.59	1067.75
380.96	1071.50
381.33	1070.09
381.70	1068.22
382.07	1073.84
382.44	1075.24
382.81	1074.77
383.18	1079.22
383.55	1082.03
383.92	1078.28
384.29	1076.88
384.66	1070.09
385.03	1062.37
385.40	1057.22
385.77	1060.50
386.14	1062.60
386.51	1077.58
386.88	1083.20
387.25	1083.43
387.62	1081.09
387.99	1080.63
388.36	1076.18
388.73	1069.62
389.10	1063.77
389.46	1060.03
389.83	1055.58
390.20	1048.56
390.57	1046.92
390.94	1053.71
391.31	1060.96
391.68	1065.18
392.05	1077.58
392.42	1095.14
392.79	1096.54
393.16	1089.29
393.53	1086.01
393.89	1086.01
394.26	1078.75
394.63	1079.22
395.00	1084.37
395.37	1088.12
395.74	1081.33
396.11	1078.99
396.48	1079.92
396.84	1073.60
397.21	1066.82
397.58	1071.73
397.95	1072.90
398.32	1064.48
398.69	1075.01
399.06	1082.26
399.42	1069.62
399.79	1067.99
400.16	1069.86
400.53	1072.20
400.90	1069.86
401.27	1079.92
401.64	1084.60
402.00	1088.58
402.37	1084.60
402.74	1084.37
403.11	1070.80
403.48	1066.11
403.84	1066.11
404.21	1063.77
404.58	1064.01
404.95	1075.01
405.32	1082.50
405.68	1082.26
406.05	1076.65
406.42	1077.35
406.79	1084.14
407.16	1078.05
407.52	1078.28
407.89	1084.37
408.26	1089.05
408.63	1083.67
408.99	1093.26
409.36	1096.78
409.73	1097.24
410.10	1087.41
410.47	1092.80
410.83	1084.60
411.20	1081.09
411.57	1082.73
411.94	1091.86
412.30	1085.54
412.67	1084.84
413.04	1085.31
413.40	1078.28
413.77	1066.35
414.14	1070.80
414.51	1078.28
414.87	1084.37
415.24	1090.92
415.61	1097.48
415.97	1094.90
416.34	1078.28
416.71	1069.39
417.08	1068.22
417.44	1067.99
417.81	1053.24
418.18	1071.97
418.54	1081.09
418.91	1083.43
419.28	1083.20
419.64	1093.97
420.01	1095.14
420.38	1077.82
420.74	1069.86
421.11	1068.22
421.48	1070.56
421.84	1058.86
422.21	1064.48
422.58	1071.26
422.94	1069.39
423.31	1069.39
423.68	1074.77
424.04	1079.92
424.41	1078.99
424.77	1075.48
425.14	1074.07
425.51	1070.56
425.87	1069.86
426.24	1070.33
426.61	1082.26
426.97	1083.90
427.34	1077.82
427.70	1078.99
428.07	1072.67
428.44	1061.43
428.80	1059.09
429.17	1066.35
429.53	1069.16
429.90	1069.39
430.27	1070.80
430.63	1072.43
431.00	1071.26
431.36	1070.56
431.73	1072.43
432.09	1072.43
432.46	1079.92
432.83	1078.75
433.19	1071.26
433.56	1075.48
433.92	1076.65
434.29	1065.88
434.65	1071.97
435.02	1081.56
435.38	1081.33
435.75	1085.07
436.11	1084.37
436.48	1084.37
436.84	1089.29
437.21	1073.84
437.57	1067.99
437.94	1067.99
438.30	1062.84
438.67	1056.05
439.03	1067.28
439.40	1078.05
439.76	1083.20
440.13	1081.56
440.49	1079.22
440.86	1087.65
441.22	1082.97
441.59	1080.39
441.95	1087.41
442.32	1085.31
442.68	1076.41
443.05	1075.01
443.41	1075.94
443.78	1065.88
444.14	1068.22
444.51	1076.65
444.87	1081.80
445.24	1080.63
445.60	1085.31
445.96	1082.03
446.33	1078.05
446.69	1078.28
447.06	1079.92
447.42	1089.99
447.79	1090.46
448.15	1088.58
448.51	1089.05
448.88	1088.35
449.24	1079.69
449.61	1085.77
449.97	1081.80
450.33	1085.54
450.70	1083.67
451.06	1073.37
451.43	1061.67
451.79	1063.07
452.15	1055.35
452.52	1062.60
452.88	1068.22
453.24	1073.14
453.61	1066.58
453.97	1065.65
454.34	1052.07
454.70	1060.50
455.06	1061.90
455.43	1069.62
455.79	1067.99
456.15	1075.94
456.52	1076.41
456.88	1078.52
457.24	1079.22
457.61	1084.37
457.97	1082.97
458.33	1071.73
458.70	1068.92
459.06	1066.11
459.42	1061.90
459.79	1055.11
460.15	1062.84
460.51	1071.97
460.88	1064.71
461.24	1068.92
461.60	1077.11
461.96	1076.65
462.33	1071.26
462.69	1076.65
463.05	1082.26
463.42	1081.33
463.78	1078.05
464.14	1077.82
464.50	1081.56
464.87	1078.75
465.23	1080.16
465.59	1074.31
465.95	1074.77
466.32	1082.97
466.68	1080.39
467.04	1078.75
467.40	1090.46
467.77	1090.46
468.13	1085.07
468.49	1075.94
468.85	1082.50
469.22	1079.69
469.58	1080.63
469.94	1079.22
470.30	1085.77
470.66	1083.90
471.03	1094.20
471.39	1095.84
471.75	1098.88
472.11	1097.71
472.47	1092.33
472.84	1075.48
473.20	1076.65
473.56	1081.09
473.92	1084.37
474.28	1089.29
474.65	1099.58
475.01	1088.58
475.37	1069.39
475.73	1059.09
476.09	1058.39
476.45	1059.09
476.81	1055.11
477.18	1056.52
477.54	1063.07
477.90	1068.22
478.26	1069.86
478.62	1081.33
478.98	1098.41
479.34	1102.86
479.71	1090.92
480.07	1088.12
480.43	1089.99
480.79	1079.92
481.15	1072.20
481.51	1068.69
481.87	1076.41
482.23	1065.65
482.59	1064.01
482.96	1068.22
483.32	1085.07
483.68	1078.75
484.04	1081.33
484.40	1092.80
484.76	1092.56
485.12	1088.58
485.48	1082.73
485.84	1087.65
486.20	1080.16
486.56	1086.94
486.92	1084.84
487.28	1092.09
487.64	1084.14
488.00	1086.94
488.37	1080.16
488.73	1083.90
489.09	1086.01
489.45	1093.03
489.81	1088.58
490.17	1087.41
490.53	1084.14
490.89	1070.80
491.25	1077.58
491.61	1076.18
491.97	1084.14
492.33	1086.71
492.69	1088.12
493.05	1085.54
493.41	1097.95
493.77	1098.18
494.13	1091.39
494.49	1095.14
494.85	1101.22
495.21	1088.35
495.57	1086.01
495.93	1092.09
496.29	1094.90
496.64	1089.75
497.00	1094.20
497.36	1086.94
497.72	1081.09
498.08	1073.37
498.44	1066.35
498.80	1065.88
499.16	1064.71
499.52	1071.97
499.88	1079.22
500.24	1074.07
500.60	1066.82
500.96	1063.31
501.32	1062.84
501.68	1060.73
502.03	1069.62
502.39	1081.33
502.75	1089.99
503.11	1075.01
503.47	1078.28
503.83	1077.58
504.19	1075.71
504.55	1077.35
504.91	1087.18
505.26	1082.50
505.62	1089.99
505.98	1089.75
506.34	1098.88
506.70	1099.12
507.06	1101.69
507.42	1102.39
507.78	1094.90
508.13	1087.41
508.49	1079.92
508.85	1075.94
509.21	1069.86
509.57	1070.09
509.93	1071.26
510.28	1079.22
510.64	1078.05
511.00	1070.80
511.36	1076.88
511.72	1068.22
512.07	1060.26
512.43	1064.24
512.79	1066.11
513.15	1063.77
513.51	1068.22
513.86	1081.80
514.22	1082.73
514.58	1081.09
514.94	1087.88
515.30	1085.07
515.65	1081.56
516.01	1088.82
516.37	1092.56
516.73	1093.50
517.08	1087.41
517.44	1089.99
517.80	1078.05
518.16	1081.33
518.51	1074.54
518.87	1087.88
519.23	1089.99
519.59	1100.29
519.94	1102.63
520.30	1104.03
520.66	1103.56
521.01	1093.26
521.37	1094.20
521.73	1097.95
522.09	1090.22
522.44	1092.80
522.80	1112.46
523.16	1114.56
523.51	1102.86
523.87	1107.31
524.23	1107.31
524.58	1087.18
524.94	1071.97
525.30	1074.54
525.65	1082.50
526.01	1078.52
526.37	1082.50
526.72	1096.31
527.08	1099.82
527.44	1098.65
527.79	1099.12
528.15	1103.33
528.51	1102.16
528.86	1105.67
529.22	1104.50
529.58	1102.16
529.93	1105.20
530.29	1102.63
530.65	1099.58
531.00	1097.71
531.36	1098.65
531.71	1095.60
532.07	1090.92
532.43	1093.73
532.78	1103.56
533.14	1099.82
533.49	1099.12
533.85	1102.39
534.21	1103.33
534.56	1101.69
534.92	1099.12
535.27	1100.75
535.63	1094.20
535.98	1086.71
536.34	1076.41
536.69	1080.39
537.05	1076.88
537.41	1083.67
537.76	1078.28
538.12	1080.86
538.47	1088.82
538.83	1083.90
539.18	1080.39
539.54	1091.16
539.89	1094.43
540.25	1094.67
540.60	1091.86
540.96	1098.88
541.31	1104.73
541.67	1102.16
542.02	1105.44
542.38	1101.46
542.73	1090.92
543.09	1078.99
543.44	1075.01
543.80	1069.39
544.15	1073.84
544.51	1078.75
544.86	1084.84
545.22	1091.63
545.57	1083.90
545.93	1094.43
546.28	1093.26
546.64	1087.18
546.99	1080.39
547.35	1090.69
547.70	1080.16
548.05	1086.71
548.41	1094.43
548.76	1089.05
549.12	1083.20
549.47	1089.29
549.83	1081.80
550.18	1080.86
550.53	1094.67
550.89	1094.20
551.24	1096.07
551.60	1104.03
551.95	1085.54
552.30	1073.14
552.66	1074.54
553.01	1073.37
553.37	1060.50
553.72	1078.05
554.07	1089.05
554.43	1081.56
554.78	1085.07
555.13	1095.14
555.49	1089.05
555.84	1094.90
556.19	1095.14
556.55	1081.56
556.90	1073.60
557.26	1069.16
557.61	1061.20
557.96	1067.28
558.32	1077.11
558.67	1077.58
559.02	1080.16
559.37	1082.03
559.73	1074.77
560.08	1073.14
560.43	1076.41
560.79	1081.80
561.14	1074.77
561.49	1080.86
561.85	1086.01
562.20	1086.71
562.55	1084.60
562.90	1084.60
563.26	1081.56
563.61	1080.39
563.96	1076.41
564.32	1079.92
564.67	1085.31
565.02	1094.90
565.37	1094.90
565.73	1100.52
566.08	1097.71
566.43	1102.16
566.78	1095.14
567.14	1096.31
567.49	1091.86
567.84	1096.31
568.19	1094.43
568.54	1096.07
568.90	1094.43
569.25	1103.09
569.60	1096.78
569.95	1089.05
570.31	1084.37
570.66	1082.03
571.01	1089.52
571.36	1095.60
571.71	1111.75
572.06	1119.24
572.42	1117.14
572.77	1094.43
573.12	1088.82
573.47	1077.82
573.82	1065.41
574.18	1067.28
574.53	1074.07
574.88	1072.43
575.23	1075.94
575.58	1084.60
575.93	1083.20
576.28	1097.48
576.64	1101.46
576.99	1093.50
577.34	1094.20
577.69	1086.94
578.04	1071.73
578.39	1062.84
578.74	1059.56
579.09	1065.18
579.44	1066.58
579.80	1071.26
580.15	1079.22
580.50	1086.71
580.85	1084.37
581.20	1085.31
581.55	1083.43
581.90	1077.35
582.25	1082.03
582.60	1080.39
582.95	1089.52
583.30	1091.86
583.65	1097.24
584.00	1082.50
584.35	1076.88
584.71	1078.99
585.06	1066.11
585.41	1073.60
585.76	1073.37
586.11	1088.35
586.46	1083.67
586.81	1099.58
587.16	1093.73
587.51	1105.67
587.86	1097.71
588.21	1101.22
588.56	1097.95
588.91	1103.80
589.26	1109.41
589.61	1103.56
589.96	1104.97
590.31	1112.92
590.66	1100.99
591.01	1085.31
591.36	1086.48
591.71	1075.48
592.06	1069.62
592.41	1071.73
592.76	1088.58
593.10	1088.58
593.45	1088.35
593.80	1086.71
594.15	1081.80
594.50	1073.14
594.85	1065.88
595.20	1071.03
595.55	1072.43
595.90	1080.39
596.25	1084.37
596.60	1086.24
596.95	1087.88
597.30	1083.67
597.64	1138.20
597.99	1135.86
598.34	1138.44
598.69	1131.41
599.04	1128.37
599.39	1072.90
599.74	1067.28
600.09	1065.88
600.44	1076.88
600.78	1083.43
601.13	1086.24
601.48	1090.22
601.83	1091.39
602.18	1080.16
602.53	1082.03
602.88	1078.28
603.22	1086.71
603.57	1088.82
603.92	1093.50
604.27	1080.86
604.62	1090.92
604.97	1082.50
605.31	1090.69
605.66	1084.37
606.01	1087.88
606.36	1089.52
606.71	1084.37
607.05	1071.50
607.40	1080.63
607.75	1084.37
608.10	1080.39
608.44	1079.69
608.79	1086.71
609.14	1087.88
609.49	1085.77
609.84	1089.52
610.18	1105.67
610.53	1118.78
610.88	1110.12
611.23	1113.63
611.57	1105.90
611.92	1094.67
612.27	1079.22
612.62	1085.77
612.96	1088.82
613.31	1097.01
613.66	1106.14
614.00	1114.56
614.35	1122.99
614.70	1127.90
615.05	1123.46
615.39	1123.93
615.74	1119.48
616.09	1107.31
616.43	1099.82
616.78	1097.95
617.13	1089.99
617.47	1089.75
617.82	1094.67
618.17	1093.73
618.51	1089.99
618.86	1088.58
619.21	1085.77
619.55	1079.69
619.90	1080.86
620.25	1082.73
620.59	1076.18
620.94	1079.46
621.29	1088.58
621.63	1097.95
621.98	1095.60
622.32	1104.26
622.67	1100.29
623.02	1097.24
623.36	1096.78
623.71	1101.69
624.05	1096.78
624.40	1104.50
624.75	1112.92
625.09	1100.99
625.44	1097.48
625.78	1100.52
626.13	1096.78
626.48	1088.58
626.82	1086.71
627.17	1083.67
627.51	1074.54
627.86	1066.58
628.20	1060.03
628.55	1062.37
628.89	1062.14
629.24	1070.33
629.58	1078.05
629.93	1081.56
630.28	1078.99
630.62	1085.54
630.97	1093.73
631.31	1084.37
631.66	1087.88
632.00	1082.97
632.35	1076.88
632.69	1073.37
633.04	1079.69
633.38	1088.35
633.73	1110.58
634.07	1108.95
634.42	1091.63
634.76	1093.50
635.11	1083.67
635.45	1068.45
635.79	1064.24
636.14	1080.86
636.48	1081.56
636.83	1086.48
637.17	1086.71
637.52	1081.09
637.86	1080.63
638.21	1077.11
638.55	1075.01
638.89	1079.69
639.24	1094.20
639.58	1090.46
639.93	1089.99
640.27	1088.12
640.61	1084.84
640.96	1089.05
641.30	1094.20
641.65	1094.67
641.99	1090.69
642.33	1085.54
642.68	1081.33
643.02	1079.69
643.37	1079.22
643.71	1084.14
644.05	1096.07
644.40	1093.50
644.74	1091.16
645.08	1087.41
645.43	1095.60
645.77	1086.71
646.11	1087.41
646.46	1086.71
646.80	1093.50
647.14	1081.80
647.49	1082.03
647.83	1083.20
648.17	1082.50
648.52	1071.26
648.86	1073.14
649.20	1074.07
649.55	1074.31
649.89	1085.54
650.23	1096.54
650.57	1101.69
650.92	1103.56
651.26	1099.58
651.60	1082.73
651.95	1083.20
652.29	1075.94
652.63	1073.60
652.97	1075.48
653.32	1080.39
653.66	1083.43
654.00	1085.31
654.34	1085.54
654.69	1081.56
655.03	1077.35
655.37	1076.18
655.71	1079.46
656.05	1082.97
656.40	1093.97
656.74	1095.84
657.08	1087.65
657.42	1084.60
657.76	1086.71
658.11	1077.58
658.45	1071.50
658.79	1073.14
659.13	1065.41
659.47	1061.20
659.82	1068.92
660.16	1079.69
660.50	1084.37
660.84	1085.77
661.18	1091.63
661.52	1085.54
661.87	1084.14
662.21	1085.31
662.55	1093.26
662.89	1086.48
663.23	1086.48
663.57	1075.48
663.91	1068.69
664.25	1063.77
664.60	1058.39
664.94	1057.45
665.28	1067.28
665.62	1073.14
665.96	1078.99
666.30	1079.69
666.64	1076.88
666.98	1081.33
667.32	1082.26
667.66	1075.01
668.01	1082.03
668.35	1086.01
668.69	1075.01
669.03	1067.28
669.37	1066.35
669.71	1061.90
670.05	1069.62
670.39	1081.33
670.73	1087.18
671.07	1091.39
671.41	1095.84
671.75	1092.09
672.09	1090.46
672.43	1082.73
672.77	1092.56
673.11	1091.63
673.45	1092.80
673.79	1086.01
674.13	1092.56
674.47	1090.92
674.81	1090.22
675.15	1080.86
675.49	1077.58
675.83	1080.16
676.17	1075.94
676.51	1075.48
676.85	1086.24
677.19	1095.84
677.53	1095.84
677.87	1082.73
678.21	1086.48
678.55	1082.03
678.89	1077.35
679.23	1072.20
679.57	1082.26
679.90	1082.03
680.24	1083.90
680.58	1083.20
680.92	1091.86
681.26	1087.41
681.60	1083.67
681.94	1067.52
682.28	1069.86
682.62	1067.52
682.96	1073.14
683.29	1066.82
683.63	1077.58
683.97	1075.01
684.31	1070.56
684.65	1060.50
684.99	1064.71
685.33	1068.92
685.67	1063.77
686.00	1066.11
686.34	1070.09
686.68	1069.62
687.02	1082.03
687.36	1092.33
687.70	1088.35
688.03	1090.69
688.37	1093.26
688.71	1089.99
689.05	1086.01
689.39	1091.16
689.72	1086.01
690.06	1083.20
690.40	1080.39
690.74	1086.24
691.08	1084.37
691.41	1087.88
691.75	1083.43
692.09	1077.58
692.43	1074.07
692.76	1072.90
693.10	1082.73
693.44	1098.88
693.78	1095.60
694.11	1099.82
694.45	1102.16
694.79	1088.12
695.13	1079.22
695.46	1077.35
695.80	1076.88
696.14	1079.22
696.48	1088.58
696.81	1094.43
697.15	1097.71
697.49	1094.43
697.82	1085.07
698.16	1083.43
698.50	1069.39
698.83	1069.39
699.17	1068.92
699.51	1067.75
699.84	1056.75
700.18	1057.92
700.52	1051.60
700.85	1048.56
701.19	1058.39
701.53	1068.69
701.86	1073.14
702.20	1087.18
702.54	1090.92
702.87	1088.35
703.21	1086.71
703.55	1095.14
703.88	1086.01
704.22	1081.80
704.55	1083.67
704.89	1078.52
705.23	1076.18
705.56	1073.14
705.90	1078.05
706.23	1075.94
706.57	1086.24
706.91	1085.31
707.24	1084.60
707.58	1076.18
707.91	1070.33
708.25	1059.09
708.58	1063.07
708.92	1065.41
709.26	1070.33
709.59	1079.22
709.93	1083.90
710.26	1071.26
710.60	1068.22
710.93	1064.94
711.27	1068.69
711.60	1072.20
711.94	1075.71
712.27	1079.22
712.61	1087.88
712.94	1080.86
713.28	1077.58
713.61	1092.80
713.95	1091.16
714.28	1086.24
714.62	1091.86
714.95	1100.52
715.29	1088.82
715.62	1084.60
715.96	1089.05
716.29	1082.26
716.63	1074.31
716.96	1082.03
717.29	1086.24
717.63	1080.63
717.96	1073.37
718.30	1077.82
718.63	1064.01
718.97	1067.28
719.30	1073.14
719.63	1075.01
719.97	1074.07
720.30	1078.75
720.64	1081.33
720.97	1072.67
721.30	1083.67
721.64	1077.58
721.97	1087.88
722.31	1089.99
722.64	1099.12
722.97	1097.01
723.31	1102.16
723.64	1091.86
723.97	1086.71
724.31	1079.22
724.64	1079.22
724.98	1081.09
725.31	1093.73
725.64	1100.99
725.98	1101.46
726.31	1097.48
726.64	1091.16
726.97	1080.16
727.31	1072.90
727.64	1074.77
727.97	1080.39
728.31	1085.54
728.64	1087.88
728.97	1085.77
729.31	1079.69
729.64	1074.07
729.97	1075.94
730.30	1063.31
730.64	1068.45
730.97	1070.56
731.30	1072.67
731.63	1071.50
731.97	1082.50
732.30	1077.35
732.63	1089.29
732.96	1085.07
733.30	1084.14
733.63	1084.14
733.96	1091.86
734.29	1082.97
734.63	1084.84
734.96	1089.05
735.29	1093.26
735.62	1083.67
735.95	1086.71
736.29	1084.84
736.62	1082.97
736.95	1072.90
737.28	1087.88
737.61	1089.52
737.94	1093.73
738.28	1103.09
738.61	1111.52
738.94	1098.88
739.27	1085.07
739.60	1083.43
739.93	1070.56
740.27	1068.92
740.60	1071.03
740.93	1084.60
741.26	1088.12
741.59	1093.03
741.92	1088.12
742.25	1090.92
742.58	1086.48
742.91	1084.84
743.25	1092.56
743.58	1098.18
743.91	1100.29
744.24	1108.48
744.57	1112.92
744.90	1097.48
745.23	1093.97
745.56	1090.92
745.89	1081.33
746.22	1075.24
746.55	1077.58
746.88	1089.75
747.21	1090.22
747.54	1093.50
747.87	1093.26
748.20	1093.26
748.53	1087.88
748.87	1080.39
749.20	1080.63
749.53	1086.94
749.86	1081.33
750.19	1069.62
750.52	1072.20
750.85	1068.69
751.18	1064.94
751.51	1079.46
751.84	1089.75
752.16	1094.43
752.49	1107.07
752.82	1108.71
753.15	1105.90
753.48	1096.31
753.81	1095.60
754.14	1081.80
754.47	1075.24
754.80	1066.82
755.13	1073.14
755.46	1073.14
755.79	1074.77
756.12	1069.16
756.45	1079.22
756.78	1079.92
757.11	1072.43
757.43	1074.31
757.76	1077.58
758.09	1075.48
758.42	1069.62
758.75	1072.20
759.08	1077.35
759.41	1080.86
759.74	1078.28
760.07	1072.43
760.39	1076.88
760.72	1076.41
761.05	1079.92
761.38	1081.56
761.71	1083.20
762.04	1085.07
762.36	1081.56
762.69	1070.33
763.02	1063.07
763.35	1075.01
763.68	1070.09
764.01	1069.62
764.33	1088.58
764.66	1090.69
764.99	1087.65
765.32	1083.43
765.65	1083.43
765.97	1072.43
766.30	1069.16
766.63	1065.65
766.96	1081.56
767.28	1082.50
767.61	1086.48
767.94	1097.95
768.27	1103.33
768.59	1090.46
768.92	1095.37
769.25	1096.31
769.58	1087.41
769.90	1088.12
770.23	1083.90
770.56	1083.20
770.89	1085.54
771.21	1086.48
771.54	1082.73
771.87	1088.58
772.19	1077.58
772.52	1072.20
772.85	1073.84
773.17	1075.71
773.50	1076.18
773.83	1075.24
774.15	1073.60
774.48	1071.03
774.81	1062.60
775.13	1062.14
775.46	1071.50
775.79	1075.01
776.11	1078.28
776.44	1092.56
776.77	1082.26
777.09	1089.05
777.42	1090.92
777.74	1083.90
778.07	1075.48
778.40	1082.50
778.72	1073.14
779.05	1058.39
779.37	1064.94
779.70	1059.09
780.03	1056.75
780.35	1053.71
780.68	1061.43
781.00	1060.03
781.33	1066.58
781.65	1070.09
781.98	1071.26
782.31	1073.37
782.63	1080.63
782.96	1086.71
783.28	1086.71
783.61	1089.29
783.93	1093.97
784.26	1101.22
784.58	1096.31
784.91	1096.78
785.23	1096.54
785.56	1095.60
785.88	1093.50
786.21	1101.46
786.53	1113.86
786.86	1115.03
787.18	1111.52
787.51	1091.86
787.83	1083.43
788.16	1076.18
788.48	1064.24
788.81	1069.39
789.13	1081.33
789.46	1073.84
789.78	1064.24
790.10	1071.50
790.43	1075.48
790.75	1069.39
791.08	1080.16
791.40	1091.39
791.73	1101.22
792.05	1079.92
792.37	1085.54
792.70	1079.92
793.02	1082.03
793.35	1076.88
793.67	1089.52
793.99	1088.12
794.32	1088.35
794.64	1086.48
794.96	1088.12
795.29	1084.37
795.61	1089.75
795.93	1089.29
796.26	1088.58
796.58	1089.75
796.91	1088.35
797.23	1081.09
797.55	1086.48
797.87	1082.26
798.20	1082.97
798.52	1085.77
798.84	1091.63
799.17	1097.01
799.49	1098.18
799.81	1095.60
800.14	1095.60
800.46	1092.56
800.78	1088.82
801.10	1075.94
801.43	1082.50
801.75	1080.63
802.07	1082.97
802.40	1077.82
802.72	1087.18
803.04	1080.86
803.36	1084.60
803.69	1084.60
804.01	1086.71
804.33	1083.67
804.65	1078.05
804.97	1084.84
805.30	1080.63
805.62	1078.99
805.94	1091.63
806.26	1089.05
806.58	1078.05
806.91	1082.73
807.23	1089.75
807.55	1085.54
807.87	1091.63
808.19	1100.05
808.52	1096.31
808.84	1083.90
809.16	1076.88
809.48	1078.99
809.80	1066.82
810.12	1063.54
810.44	1070.80
810.77	1073.84
811.09	1066.35
811.41	1068.69
811.73	1078.75
812.05	1079.69
812.37	1086.71
812.69	1092.56
813.01	1098.88
813.33	1092.33
813.66	1089.99
813.98	1079.69
814.30	1083.67
814.62	1081.80
814.94	1076.18
815.26	1071.50
815.58	1080.16
815.90	1074.31
816.22	1068.69
816.54	1073.60
816.86	1076.88
817.18	1078.05
817.50	1079.46
817.82	1087.41
818.14	1088.82
818.46	1092.56
818.78	1079.69
819.10	1077.82
819.42	1074.07
819.74	1076.18
820.06	1068.22
820.38	1079.69
820.70	1081.80
821.02	1073.84
821.34	1068.69
821.66	1069.86
821.98	1071.03
822.30	1071.26
822.62	1085.31
822.94	1080.16
823.26	1084.37
823.58	1077.82
823.90	1070.33
824.22	1072.43
824.54	1076.41
824.86	1075.94
825.18	1070.33
825.50	1072.43
825.81	1065.88
826.13	1061.43
826.45	1058.62
826.77	1068.92
827.09	1073.14
827.41	1074.31
827.73	1071.97
828.05	1079.46
828.36	1078.99
828.68	1070.09
829.00	1069.39
829.32	1087.65
829.64	1080.63
829.96	1076.65
830.28	1086.71
830.59	1090.92
830.91	1085.54
831.23	1090.92
831.55	1089.52
831.87	1083.67
832.19	1082.97
832.50	1076.88
832.82	1073.60
833.14	1079.46
833.46	1084.84
833.78	1080.39
834.09	1084.37
834.41	1083.90
834.73	1083.90
835.05	1084.60
835.36	1082.73
835.68	1086.48
836.00	1091.63
836.32	1093.03
836.63	1095.37
836.95	1110.35
837.27	1097.01
837.59	1093.73
837.90	1087.88
838.22	1089.99
838.54	1076.88
838.85	1083.20
839.17	1079.22
839.49	1077.35
839.80	1073.84
840.12	1079.69
840.44	1075.94
840.76	1076.41
841.07	1076.41
841.39	1068.92
841.71	1060.26
842.02	1061.67
842.34	1059.79
842.65	1063.31
842.97	1071.03
843.29	1078.75
843.60	1084.84
843.92	1094.20
844.24	1085.54
844.55	1084.84
844.87	1078.05
845.18	1078.05
845.50	1071.50
845.82	1080.39
846.13	1067.05
846.45	1076.41
846.76	1071.97
847.08	1069.62
847.40	1073.14
847.71	1085.77
848.03	1082.97
848.34	1079.46
848.66	1089.99
848.97	1084.60
849.29	1086.24
849.60	1089.05
849.92	1105.20
850.24	1096.07
850.55	1091.16
850.87	1086.71
851.18	1077.35
851.50	1063.54
851.81	1063.07
852.13	1070.56
852.44	1079.46
852.76	1082.97
853.07	1086.94
853.39	1094.20
853.70	1087.88
854.01	1079.22
854.33	1079.46
854.64	1087.88
854.96	1093.50
855.27	1096.31
855.59	1099.35
855.90	1097.48
856.22	1092.56
856.53	1081.09
856.84	1076.88
857.16	1079.46
857.47	1079.92
857.79	1080.39
858.10	1085.77
858.41	1102.63
858.73	1100.52
859.04	1096.31
859.36	1089.75
859.67	1095.60
859.98	1084.84
860.30	1082.03
860.61	1082.50
860.92	1079.46
861.24	1072.20
861.55	1071.73
861.87	1070.33
862.18	1077.82
862.49	1083.43
862.81	1082.50
863.12	1083.20
863.43	1085.07
863.74	1092.09
864.06	1095.60
864.37	1087.41
864.68	1075.94
865.00	1066.11
865.31	1049.96
865.62	1050.20
865.94	1060.03
866.25	1067.52
866.56	1086.01
866.87	1087.18
867.19	1088.12
867.50	1084.60
867.81	1083.20
868.12	1080.39
868.44	1086.24
868.75	1080.63
869.06	1072.20
869.37	1070.09
869.68	1060.26
870.00	1059.09
870.31	1048.56
870.62	1062.60
870.93	1070.09
871.24	1080.39
871.56	1086.24
871.87	1093.26
872.18	1083.43
872.49	1081.33
872.80	1086.94
873.12	1083.20
873.43	1089.05
873.74	1087.18
874.05	1089.29
874.36	1073.84
874.67	1068.92
874.98	1060.73
875.29	1065.65
875.61	1061.20
875.92	1060.26
876.23	1055.35
876.54	1059.79
876.85	1059.33
877.16	1066.35
877.47	1063.54
877.78	1079.92
878.09	1084.60
878.40	1081.09
878.72	1071.26
879.03	1086.24
879.34	1073.37
879.65	1064.71
879.96	1077.82
880.27	1083.43
880.58	1074.31
880.89	1071.26
881.20	1079.22
881.51	1068.69
881.82	1066.82
882.13	1076.88
882.44	1078.05
882.75	1071.73
883.06	1071.03
883.37	1081.09
883.68	1071.03
883.99	1067.28
884.30	1071.26
884.61	1078.05
884.92	1073.60
885.23	1079.22
885.54	1091.63
885.85	1085.54
886.16	1081.33
886.47	1072.67
886.78	1070.09
887.08	1069.86
887.39	1081.80
887.70	1089.05
888.01	1098.65
888.32	1096.78
888.63	1097.71
888.94	1088.58
889.25	1073.60
889.56	1071.97
889.87	1074.31
890.17	1078.99
890.48	1082.73
890.79	1094.43
891.10	1091.16
891.41	1088.82
891.72	1084.37
892.03	1079.92
892.34	1084.60
892.64	1090.92
892.95	1092.56
893.26	1090.69
893.57	1088.82
893.88	1085.54
894.18	1087.65
894.49	1086.94
894.80	1072.43
895.11	1078.05
895.42	1072.90
895.72	1070.09
896.03	1076.88
896.34	1094.90
896.65	1096.07
896.96	1094.90
897.26	1097.24
897.57	1084.60
897.88	1089.99
898.19	1090.69
898.49	1104.73
898.80	1102.86
899.11	1118.78
899.41	1111.52
899.72	1113.39
900.03	1096.31
900.34	1088.35
900.64	1082.03
900.95	1081.33
901.26	1084.60
901.56	1079.92
901.87	1086.48
902.18	1082.50
902.48	1079.22
902.79	1066.58
903.10	1075.94
903.40	1076.88
903.71	1075.24
904.02	1075.94
904.32	1086.24
904.63	1087.41
904.94	1086.94
905.24	1091.86
905.55	1085.77
905.85	1083.43
906.16	1069.86
906.47	1067.28
906.77	1053.24
907.08	1055.58
907.38	1055.11
907.69	1066.58
908.00	1066.35
908.30	1069.39
908.61	1069.16
908.91	1066.35
909.22	1069.16
909.52	1074.07
909.83	1078.52
910.14	1088.82
910.44	1094.90
910.75	1090.46
911.05	1089.52
911.36	1094.67
911.66	1090.69
911.97	1083.67
912.27	1090.22
912.58	1084.37
912.88	1078.05
913.19	1068.69
913.49	1057.69
913.80	1055.82
914.10	1053.94
914.41	1064.71
914.71	1075.24
915.01	1086.24
915.32	1090.22
915.62	1091.39
915.93	1080.39
916.23	1074.54
916.54	1071.26
916.84	1053.94
917.15	1054.18
917.45	1050.43
917.75	1059.56
918.06	1063.31
918.36	1068.45
918.67	1078.99
918.97	1086.48
919.27	1084.84
919.58	1084.84
919.88	1095.14
920.18	1086.24
920.49	1088.58
920.79	1088.12
921.10	1085.07
921.40	1077.35
921.70	1079.46
922.01	1074.07
922.31	1078.75
922.61	1080.39
922.92	1087.65
923.22	1072.20
923.52	1070.09
923.82	1058.86
924.13	1049.73
924.43	1049.26
924.73	1063.07
925.04	1075.24
925.34	1087.18
925.64	1093.26
925.94	1094.90
926.25	1086.48
926.55	1085.31
926.85	1076.41
927.15	1083.67
927.46	1083.90
927.76	1089.99
928.06	1087.88
928.36	1081.56
928.67	1074.54
928.97	1073.60
929.27	1076.65
929.57	1068.45
929.87	1072.43
930.18	1077.35
930.48	1073.84
930.78	1066.35
931.08	1076.88
931.38	1082.50
931.69	1078.99
931.99	1080.16
932.29	1086.48
932.59	1086.71
932.89	1081.33
933.19	1083.90
933.49	1085.77
933.80	1076.18
934.10	1075.71
934.40	1079.46
934.70	1085.77
935.00	1083.20
935.30	1095.60
935.60	1092.09
935.90	1094.20
936.20	1079.92
936.50	1079.69
936.81	1086.24
937.11	1083.90
937.41	1086.94
937.71	1101.46
938.01	1107.78
938.31	1092.09
938.61	1093.26
938.91	1087.18
939.21	1085.77
939.51	1086.94
939.81	1098.41
940.11	1096.31
940.41	1095.37
940.71	1093.03
941.01	1089.75
941.31	1086.24
941.61	1089.29
941.91	1088.82
942.21	1089.05
942.51	1088.12
942.81	1092.56
943.11	1091.39
943.41	1088.12
943.71	1093.03
944.01	1091.39
944.31	1084.60
944.61	1088.12
944.90	1091.86
945.20	1079.92
945.50	1087.41
945.80	1095.60
946.10	1099.82
946.40	1097.01
946.70	1109.65
947.00	1100.29
947.30	1089.52
947.60	1083.90
947.89	1078.99
948.19	1071.73
948.49	1065.18
948.79	1060.03
949.09	1061.90
949.39	1069.39
949.69	1070.33
949.98	1077.82
950.28	1085.07
950.58	1084.37
950.88	1091.39
951.18	1089.29
951.48	1080.16
951.77	1077.82
952.07	1073.37
952.37	1070.33
952.67	1064.71
952.97	1074.77
953.26	1086.24
953.56	1083.43
953.86	1084.14
954.16	1092.80
954.45	1082.50
954.75	1065.41
955.05	1076.65
955.35	1071.03
955.64	1077.58
955.94	1090.22
956.24	1092.80
956.54	1083.43
956.83	1077.35
957.13	1058.62
957.43	1047.86
957.72	1041.07
958.02	1052.07
958.32	1058.16
958.61	1068.22
958.91	1075.24
959.21	1086.01
959.50	1077.82
959.80	1077.82
960.10	1074.31
960.39	1074.77
960.69	1071.73
960.99	1071.97
961.28	1073.14
961.58	1084.14
961.87	1081.56
962.17	1087.88
962.47	1091.63
962.76	1090.92
963.06	1079.46
963.36	1076.41
963.65	1068.69
963.95	1066.11
964.24	1061.67
964.54	1059.09
964.83	1071.73
965.13	1086.24
965.42	1087.18
965.72	1093.97
966.02	1100.29
966.31	1093.03
966.61	1084.14
966.90	1087.41
967.20	1089.75
967.49	1083.90
967.79	1083.90
968.08	1083.90
968.38	1078.75
968.67	1076.88
968.97	1080.16
969.26	1072.43
969.56	1070.80
969.85	1072.67
970.15	1078.05
970.44	1080.86
970.74	1097.01
971.03	1102.16
971.32	1104.03
971.62	1100.99
971.91	1091.86
972.21	1084.60
972.50	1084.37
972.80	1076.41
973.09	1069.62
973.38	1077.58
973.68	1075.48
973.97	1075.24
974.27	1082.73
974.56	1086.48
974.85	1099.58
975.15	1090.22
975.44	1082.73
975.73	1075.94
976.03	1074.07
976.32	1059.33
976.61	1067.75
976.91	1080.16
977.20	1091.86
977.49	1089.05
977.79	1100.75
978.08	1099.82
978.37	1090.46
978.67	1073.37
978.96	1079.22
979.25	1075.71
979.55	1079.92
979.84	1086.01
980.13	1095.14
980.42	1093.97
980.72	1096.54
981.01	1098.18
981.30	1104.73
981.59	1099.12
981.89	1092.33
982.18	1074.54
982.47	1056.28
982.76	1050.90
983.06	1067.05
983.35	1074.31
983.64	1081.09
983.93	1096.78
984.22	1100.29
984.52	1097.48
984.81	1100.05
985.10	1101.69
985.39	1102.16
985.68	1100.99
985.97	1094.90
986.27	1095.60
986.56	1103.56
986.85	1106.14
987.14	1103.33
987.43	1102.16
987.72	1097.71
988.01	1088.58
988.31	1086.01
988.60	1085.54
988.89	1081.80
989.18	1086.48
989.47	1080.16
989.76	1077.58
990.05	1076.65
990.34	1081.56
990.63	1077.58
990.92	1086.94
991.21	1091.16
991.51	1078.52
991.80	1081.80
992.09	1079.92
992.38	1075.71
992.67	1069.39
992.96	1075.24
993.25	1067.99
993.54	1071.26
993.83	1083.20
994.12	1077.35
994.41	1088.12
994.70	1095.60
994.99	1100.52
995.28	1096.07
995.57	1104.73
995.86	1086.71
996.15	1085.77
996.44	1087.65
996.73	1082.26
997.02	1084.14
997.31	1099.35
997.59	1095.14
997.88	1088.35
998.17	1095.14
998.46	1099.58
998.75	1104.03
999.04	1104.73
999.33	1106.37
999.62	1104.26
999.91	1094.90
1000.20	1090.69
1000.49	1090.69
1000.77	1085.31
1001.06	1092.56
1001.35	1086.48
1001.64	1082.03
1001.93	1078.05
1002.22	1086.94
1002.51	1081.56
1002.79	1090.22
1003.08	1085.07
1003.37	1087.88
1003.66	1080.16
1003.95	1077.11
1004.23	1075.71
1004.52	1080.63
1004.81	1086.71
1005.10	1093.97
1005.39	1090.92
1005.67	1093.03
1005.96	1088.35
1006.25	1072.67
1006.54	1060.03
1006.83	1070.56
1007.11	1064.48
1007.40	1071.50
1007.69	1084.84
1007.97	1077.82
1008.26	1071.73
1008.55	1072.20
1008.84	1072.43
1009.12	1078.99
1009.41	1084.60
1009.70	1084.84
1009.98	1082.03
1010.27	1079.69
1010.56	1066.11
1010.85	1079.22
1011.13	1077.35
1011.42	1082.97
1011.71	1087.88
1011.99	1096.54
1012.28	1088.35
1012.56	1087.65
1012.85	1083.43
1013.14	1074.31
1013.42	1065.88
1013.71	1067.05
1014.00	1060.96
1014.28	1068.45
1014.57	1069.62
1014.85	1070.80
1015.14	1075.24
1015.43	1078.28
1015.71	1075.01
1016.00	1086.24
1016.28	1098.88
1016.57	1092.56
1016.85	1091.39
1017.14	1091.16
1017.43	1095.84
1017.71	1086.71
1018.00	1085.07
1018.28	1085.54
1018.57	1082.97
1018.85	1067.99
1019.14	1072.90
1019.42	1068.22
1019.71	1069.16
1019.99	1074.31
1020.28	1071.73
1020.56	1061.67
1020.85	1076.41
1021.13	1079.69
1021.42	1085.31
1021.70	1094.67
1021.99	1102.86
1022.27	1088.58
1022.55	1108.24
1022.84	1040.37
>>>>>End Processed Spectral Data<<<<<
