SpectraSuite Data File
++++++++++++++++++++++++++++++++++++
Date: Mon Aug 26 10:25:57 PDT 2019
User: corrico
Dark Spectrum Present: No
Reference Spectrum Present: No
Number of Sampled Component Spectra: 1
Spectrometers: USB2+H06089
Integration Time (usec): 10000 (USB2+H06089)
Spectra Averaged: 2 (USB2+H06089)
Boxcar Smoothing: 2 (USB2+H06089)
Correct for Electrical Dark: No (USB2+H06089)
Strobe/Lamp Enabled: No (USB2+H06089)
Correct for Detector Non-linearity: No (USB2+H06089)
Correct for Stray Light: No (USB2+H06089)
Number of Pixels in Processed Spectrum: 2048
>>>>>Begin Processed Spectral Data<<<<<
339.70	1047.39
340.07	1047.39
340.45	1003.86
340.82	972.02
341.19	942.77
341.57	909.06
341.94	893.62
342.31	888.70
342.69	887.77
343.06	882.85
343.43	887.30
343.81	898.30
344.18	904.38
344.55	912.81
344.93	925.68
345.30	940.90
345.67	942.07
346.04	946.51
346.42	948.62
346.79	953.53
347.16	955.64
347.54	964.30
347.91	973.90
348.28	985.60
348.65	989.34
349.03	1001.98
349.40	1001.05
349.77	1008.54
350.14	1022.35
350.52	1034.98
350.89	1041.77
351.26	1054.65
351.63	1059.09
352.01	1057.69
352.38	1056.75
352.75	1054.18
353.12	1057.22
353.50	1065.88
353.87	1063.77
354.24	1070.80
354.61	1069.62
354.98	1071.03
355.36	1063.31
355.73	1067.52
356.10	1064.48
356.47	1070.33
356.84	1069.62
357.22	1080.39
357.59	1086.48
357.96	1089.29
358.33	1090.46
358.70	1088.35
359.08	1078.75
359.45	1071.73
359.82	1070.33
360.19	1060.50
360.56	1067.28
360.94	1064.48
361.31	1064.01
361.68	1061.90
362.05	1061.90
362.42	1058.16
362.79	1056.28
363.16	1059.09
363.54	1063.07
363.91	1059.09
364.28	1059.33
364.65	1065.88
365.02	1058.39
365.39	1060.26
365.76	1072.43
366.14	1083.90
366.51	1086.48
366.88	1090.46
367.25	1078.99
367.62	1072.20
367.99	1055.35
368.36	1050.90
368.73	1061.20
369.10	1074.54
369.48	1070.80
369.85	1084.37
370.22	1083.43
370.59	1081.09
370.96	1069.86
371.33	1067.99
371.70	1067.28
372.07	1071.50
372.44	1067.75
372.81	1066.82
373.18	1083.67
373.55	1078.99
373.93	1074.07
374.30	1067.99
374.67	1079.46
375.04	1067.28
375.41	1062.37
375.78	1071.73
376.15	1086.48
376.52	1082.26
376.89	1081.56
377.26	1078.52
377.63	1069.39
378.00	1049.73
378.37	1050.43
378.74	1056.28
379.11	1059.56
379.48	1059.33
379.85	1069.16
380.22	1068.69
380.59	1063.07
380.96	1058.86
381.33	1053.48
381.70	1054.88
382.07	1049.26
382.44	1052.07
382.81	1058.16
383.18	1064.48
383.55	1063.54
383.92	1070.80
384.29	1067.28
384.66	1060.73
385.03	1054.88
385.40	1054.88
385.77	1053.01
386.14	1056.75
386.51	1073.60
386.88	1081.56
387.25	1071.97
387.62	1081.09
387.99	1078.28
388.36	1069.16
388.73	1072.67
389.10	1075.24
389.46	1068.45
389.83	1077.11
390.20	1080.16
390.57	1074.31
390.94	1079.69
391.31	1077.35
391.68	1070.09
392.05	1071.03
392.42	1071.73
392.79	1071.50
393.16	1069.16
393.53	1077.11
393.89	1072.20
394.26	1065.18
394.63	1066.58
395.00	1071.26
395.37	1070.80
395.74	1067.99
396.11	1069.62
396.48	1071.26
396.84	1068.22
397.21	1061.67
397.58	1066.82
397.95	1069.62
398.32	1071.97
398.69	1080.86
399.06	1085.77
399.42	1088.12
399.79	1088.35
400.16	1090.92
400.53	1079.69
400.90	1073.14
401.27	1073.14
401.64	1078.99
402.00	1075.24
402.37	1081.33
402.74	1080.16
403.11	1079.69
403.48	1079.92
403.84	1081.09
404.21	1070.80
404.58	1085.07
404.95	1088.58
405.32	1087.65
405.68	1084.37
406.05	1088.82
406.42	1087.65
406.79	1079.92
407.16	1074.77
407.52	1069.62
407.89	1081.09
408.26	1067.75
408.63	1064.48
408.99	1061.67
409.36	1065.88
409.73	1049.26
410.10	1054.88
410.47	1057.92
410.83	1067.99
411.20	1068.22
411.57	1075.94
411.94	1063.54
412.30	1053.71
412.67	1042.24
413.04	1042.71
413.40	1033.81
413.77	1049.26
414.14	1054.65
414.51	1059.79
414.87	1052.07
415.24	1060.96
415.61	1062.37
415.97	1067.05
416.34	1064.94
416.71	1074.77
417.08	1077.11
417.44	1072.43
417.81	1076.41
418.18	1081.56
418.54	1083.43
418.91	1080.63
419.28	1078.99
419.64	1074.54
420.01	1082.73
420.38	1084.37
420.74	1086.48
421.11	1087.88
421.48	1087.18
421.84	1084.60
422.21	1088.12
422.58	1089.75
422.94	1084.84
423.31	1090.69
423.68	1084.60
424.04	1080.86
424.41	1074.31
424.77	1084.37
425.14	1077.58
425.51	1076.18
425.87	1072.90
426.24	1071.03
426.61	1070.80
426.97	1075.71
427.34	1078.99
427.70	1077.82
428.07	1086.94
428.44	1092.56
428.80	1091.16
429.17	1087.41
429.53	1086.94
429.90	1089.52
430.27	1076.88
430.63	1082.03
431.00	1083.20
431.36	1084.84
431.73	1077.35
432.09	1082.73
432.46	1082.97
432.83	1084.84
433.19	1083.20
433.56	1075.94
433.92	1074.07
434.29	1067.05
434.65	1058.86
435.02	1063.07
435.38	1073.14
435.75	1077.35
436.11	1085.77
436.48	1094.90
436.84	1092.80
437.21	1098.41
437.57	1103.09
437.94	1098.65
438.30	1098.18
438.67	1098.88
439.03	1092.80
439.40	1079.92
439.76	1086.71
440.13	1085.07
440.49	1079.22
440.86	1071.50
441.22	1065.88
441.59	1053.94
441.95	1049.26
442.32	1053.24
442.68	1058.86
443.05	1073.60
443.41	1071.73
443.78	1081.80
444.14	1079.22
444.51	1076.88
444.87	1066.58
445.24	1072.43
445.60	1070.33
445.96	1075.71
446.33	1084.14
446.69	1084.37
447.06	1081.09
447.42	1086.24
447.79	1078.99
448.15	1073.84
448.51	1081.09
448.88	1083.90
449.24	1070.80
449.61	1081.56
449.97	1083.43
450.33	1078.52
450.70	1084.37
451.06	1087.18
451.43	1077.35
451.79	1071.50
452.15	1067.28
452.52	1058.86
452.88	1056.05
453.24	1056.99
453.61	1077.58
453.97	1078.52
454.34	1081.80
454.70	1080.16
455.06	1080.39
455.43	1064.71
455.79	1061.20
456.15	1058.16
456.52	1067.52
456.88	1077.11
457.24	1086.01
457.61	1095.60
457.97	1100.05
458.33	1096.78
458.70	1094.20
459.06	1083.43
459.42	1075.01
459.79	1074.31
460.15	1071.73
460.51	1066.35
460.88	1070.56
461.24	1081.33
461.60	1077.35
461.96	1083.43
462.33	1084.14
462.69	1081.33
463.05	1066.11
463.42	1062.14
463.78	1052.30
464.14	1047.16
464.50	1044.58
464.87	1059.56
465.23	1073.60
465.59	1086.24
465.95	1082.73
466.32	1076.65
466.68	1063.54
467.04	1051.37
467.40	1040.13
467.77	1042.94
468.13	1050.20
468.49	1063.77
468.85	1070.33
469.22	1080.86
469.58	1078.99
469.94	1084.14
470.30	1075.01
470.66	1075.01
471.03	1068.45
471.39	1073.14
471.75	1070.33
472.11	1071.97
472.47	1074.77
472.84	1080.39
473.20	1071.73
473.56	1076.41
473.92	1079.22
474.28	1071.50
474.65	1069.16
475.01	1080.86
475.37	1079.46
475.73	1080.39
476.09	1088.82
476.45	1079.22
476.81	1085.54
477.18	1081.56
477.54	1077.82
477.90	1072.67
478.26	1070.33
478.62	1067.28
478.98	1060.96
479.34	1058.86
479.71	1062.37
480.07	1068.22
480.43	1077.58
480.79	1091.16
481.15	1092.80
481.51	1079.92
481.87	1083.90
482.23	1066.58
482.59	1054.41
482.96	1061.43
483.32	1067.75
483.68	1065.18
484.04	1075.94
484.40	1081.09
484.76	1079.22
485.12	1078.28
485.48	1081.09
485.84	1065.18
486.20	1069.62
486.56	1076.65
486.92	1076.18
487.28	1083.43
487.64	1092.33
488.00	1086.71
488.37	1073.60
488.73	1079.92
489.09	1071.73
489.45	1072.43
489.81	1069.62
490.17	1075.01
490.53	1074.77
490.89	1078.05
491.25	1079.46
491.61	1081.09
491.97	1083.90
492.33	1086.48
492.69	1082.73
493.05	1082.97
493.41	1089.75
493.77	1083.90
494.13	1077.11
494.49	1079.92
494.85	1082.26
495.21	1078.99
495.57	1076.88
495.93	1079.46
496.29	1069.86
496.64	1071.73
497.00	1069.39
497.36	1071.26
497.72	1064.71
498.08	1079.46
498.44	1077.58
498.80	1084.37
499.16	1090.22
499.52	1109.18
499.88	1109.41
500.24	1095.37
500.60	1086.94
500.96	1081.33
501.32	1065.41
501.68	1063.31
502.03	1077.58
502.39	1082.50
502.75	1086.01
503.11	1096.07
503.47	1093.73
503.83	1080.63
504.19	1075.94
504.55	1074.31
504.91	1061.90
505.26	1051.37
505.62	1057.92
505.98	1061.20
506.34	1057.45
506.70	1062.37
507.06	1071.97
507.42	1078.52
507.78	1085.77
508.13	1092.33
508.49	1089.29
508.85	1088.82
509.21	1077.58
509.57	1064.24
509.93	1063.31
510.28	1070.56
510.64	1064.71
511.00	1076.65
511.36	1082.26
511.72	1084.14
512.07	1091.63
512.43	1101.46
512.79	1095.84
513.15	1093.97
513.51	1090.46
513.86	1085.07
514.22	1082.03
514.58	1084.84
514.94	1087.18
515.30	1082.26
515.65	1080.63
516.01	1078.75
516.37	1079.69
516.73	1083.43
517.08	1099.58
517.44	1100.75
517.80	1096.78
518.16	1096.54
518.51	1100.52
518.87	1090.22
519.23	1088.35
519.59	1096.31
519.94	1104.26
520.30	1099.58
520.66	1099.82
521.01	1095.14
521.37	1089.05
521.73	1080.63
522.09	1071.03
522.44	1067.75
522.80	1065.18
523.16	1069.86
523.51	1060.03
523.87	1072.20
524.23	1078.28
524.58	1078.52
524.94	1073.37
525.30	1085.31
525.65	1078.75
526.01	1082.03
526.37	1097.01
526.72	1110.35
527.08	1107.31
527.44	1111.52
527.79	1103.09
528.15	1091.63
528.51	1072.90
528.86	1074.54
529.22	1081.80
529.58	1087.65
529.93	1090.92
530.29	1107.07
530.65	1102.39
531.00	1101.92
531.36	1090.92
531.71	1088.58
532.07	1088.35
532.43	1092.80
532.78	1077.11
533.14	1090.46
533.49	1085.31
533.85	1078.75
534.21	1085.31
534.56	1096.54
534.92	1097.24
535.27	1099.12
535.63	1098.65
535.98	1086.24
536.34	1081.09
536.69	1084.60
537.05	1087.41
537.41	1087.88
537.76	1089.75
538.12	1089.99
538.47	1083.20
538.83	1078.28
539.18	1072.43
539.54	1067.75
539.89	1071.97
540.25	1081.09
540.60	1091.86
540.96	1095.84
541.31	1095.60
541.67	1100.52
542.02	1096.07
542.38	1094.43
542.73	1104.03
543.09	1107.78
543.44	1106.61
543.80	1099.35
544.15	1096.54
544.51	1083.90
544.86	1093.26
545.22	1089.75
545.57	1086.71
545.93	1088.58
546.28	1086.71
546.64	1074.77
546.99	1071.50
547.35	1076.41
547.70	1078.05
548.05	1083.43
548.41	1087.65
548.76	1090.46
549.12	1089.99
549.47	1092.33
549.83	1092.33
550.18	1099.35
550.53	1092.80
550.89	1094.43
551.24	1085.31
551.60	1086.01
551.95	1077.11
552.30	1086.71
552.66	1081.09
553.01	1086.48
553.37	1089.99
553.72	1099.58
554.07	1094.20
554.43	1096.07
554.78	1102.39
555.13	1097.71
555.49	1091.16
555.84	1087.88
556.19	1093.03
556.55	1075.01
556.90	1078.28
557.26	1075.94
557.61	1077.11
557.96	1071.26
558.32	1078.99
558.67	1085.07
559.02	1089.05
559.37	1084.60
559.73	1087.88
560.08	1093.03
560.43	1083.90
560.79	1088.35
561.14	1094.20
561.49	1090.92
561.85	1087.65
562.20	1095.84
562.55	1088.35
562.90	1078.52
563.26	1082.97
563.61	1089.99
563.96	1081.09
564.32	1085.54
564.67	1101.69
565.02	1100.05
565.37	1092.33
565.73	1095.14
566.08	1096.54
566.43	1078.28
566.78	1075.24
567.14	1075.71
567.49	1069.39
567.84	1061.67
568.19	1082.50
568.54	1089.52
568.90	1077.58
569.25	1079.92
569.60	1076.65
569.95	1066.58
570.31	1067.28
570.66	1091.39
571.01	1102.39
571.36	1104.03
571.71	1097.24
572.06	1089.29
572.42	1082.26
572.77	1072.90
573.12	1076.18
573.47	1081.33
573.82	1090.22
574.18	1085.07
574.53	1090.69
574.88	1089.52
575.23	1095.84
575.58	1086.01
575.93	1077.82
576.28	1071.03
576.64	1085.77
576.99	1082.50
577.34	1086.71
577.69	1094.67
578.04	1095.60
578.39	1082.97
578.74	1080.16
579.09	1078.52
579.44	1076.18
579.80	1078.52
580.15	1074.77
580.50	1073.37
580.85	1068.92
581.20	1072.67
581.55	1073.84
581.90	1077.11
582.25	1085.54
582.60	1089.05
582.95	1086.94
583.30	1089.05
583.65	1088.82
584.00	1080.39
584.35	1075.01
584.71	1075.94
585.06	1075.24
585.41	1067.75
585.76	1072.67
586.11	1069.62
586.46	1062.14
586.81	1053.01
587.16	1073.60
587.51	1078.75
587.86	1091.86
588.21	1100.99
588.56	1110.12
588.91	1095.60
589.26	1096.07
589.61	1092.09
589.96	1088.35
590.31	1083.90
590.66	1082.03
591.01	1068.92
591.36	1059.56
591.71	1056.28
592.06	1046.92
592.41	1044.58
592.76	1046.45
593.10	1057.22
593.45	1063.31
593.80	1075.71
594.15	1086.48
594.50	1082.03
594.85	1078.75
595.20	1080.63
595.55	1079.46
595.90	1071.03
596.25	1072.43
596.60	1076.65
596.95	1069.39
597.30	1064.01
597.64	1118.31
597.99	1131.18
598.34	1125.80
598.69	1130.01
599.04	1140.07
599.39	1093.73
599.74	1088.35
600.09	1096.31
600.44	1103.56
600.78	1097.24
601.13	1093.50
601.48	1102.86
601.83	1104.26
602.18	1100.75
602.53	1110.58
602.88	1108.71
603.22	1105.44
603.57	1096.07
603.92	1093.97
604.27	1081.80
604.62	1086.71
604.97	1084.84
605.31	1086.01
605.66	1072.43
606.01	1079.69
606.36	1066.11
606.71	1062.84
607.05	1063.07
607.40	1075.24
607.75	1070.33
608.10	1081.33
608.44	1074.07
608.79	1080.63
609.14	1076.41
609.49	1081.33
609.84	1076.65
610.18	1074.31
610.53	1067.28
610.88	1069.62
611.23	1073.37
611.57	1077.11
611.92	1086.24
612.27	1092.09
612.62	1097.95
612.96	1091.16
613.31	1086.48
613.66	1087.88
614.00	1080.39
614.35	1074.54
614.70	1078.05
615.05	1091.39
615.39	1085.31
615.74	1093.03
616.09	1104.26
616.43	1094.20
616.78	1085.31
617.13	1089.52
617.47	1085.07
617.82	1077.82
618.17	1090.46
618.51	1083.20
618.86	1084.37
619.21	1087.88
619.55	1089.75
619.90	1077.11
620.25	1084.37
620.59	1084.84
620.94	1094.43
621.29	1097.24
621.63	1107.07
621.98	1112.22
622.32	1108.95
622.67	1097.24
623.02	1091.39
623.36	1095.37
623.71	1096.31
624.05	1094.90
624.40	1089.05
624.75	1087.41
625.09	1078.75
625.44	1075.48
625.78	1089.05
626.13	1092.56
626.48	1087.65
626.82	1092.09
627.17	1083.90
627.51	1070.09
627.86	1071.50
628.20	1076.18
628.55	1059.09
628.89	1073.37
629.24	1077.35
629.58	1077.35
629.93	1070.80
630.28	1085.54
630.62	1080.86
630.97	1074.07
631.31	1074.07
631.66	1078.28
632.00	1078.05
632.35	1072.67
632.69	1071.50
633.04	1071.73
633.38	1074.31
633.73	1072.20
634.07	1073.60
634.42	1075.48
634.76	1075.71
635.11	1079.22
635.45	1082.73
635.79	1083.90
636.14	1094.20
636.48	1080.86
636.83	1081.09
637.17	1077.82
637.52	1080.86
637.86	1076.41
638.21	1085.07
638.55	1083.20
638.89	1084.60
639.24	1083.43
639.58	1083.67
639.93	1082.03
640.27	1079.46
640.61	1085.77
640.96	1086.94
641.30	1089.52
641.65	1095.60
641.99	1106.14
642.33	1097.71
642.68	1102.16
643.02	1098.65
643.37	1094.43
643.71	1078.99
644.05	1080.39
644.40	1062.37
644.74	1062.37
645.08	1065.88
645.43	1059.09
645.77	1060.26
646.11	1082.97
646.46	1071.73
646.80	1070.09
647.14	1083.67
647.49	1072.67
647.83	1055.58
648.17	1057.22
648.52	1061.90
648.86	1066.35
649.20	1075.24
649.55	1073.14
649.89	1071.73
650.23	1078.05
650.57	1079.22
650.92	1076.18
651.26	1077.11
651.60	1090.46
651.95	1078.99
652.29	1068.22
652.63	1081.80
652.97	1087.41
653.32	1073.60
653.66	1084.60
654.00	1085.07
654.34	1075.71
654.69	1077.11
655.03	1090.92
655.37	1073.84
655.71	1080.63
656.05	1081.09
656.40	1085.54
656.74	1072.67
657.08	1069.16
657.42	1052.77
657.76	1049.26
658.11	1040.13
658.45	1054.41
658.79	1068.22
659.13	1076.41
659.47	1073.84
659.82	1081.80
660.16	1082.73
660.50	1088.82
660.84	1093.50
661.18	1095.14
661.52	1092.33
661.87	1091.16
662.21	1086.01
662.55	1084.84
662.89	1087.65
663.23	1092.09
663.57	1080.86
663.91	1078.05
664.25	1082.26
664.60	1086.01
664.94	1075.48
665.28	1084.60
665.62	1084.60
665.96	1080.39
666.30	1072.20
666.64	1078.05
666.98	1072.43
667.32	1064.94
667.66	1071.26
668.01	1078.05
668.35	1080.16
668.69	1084.84
669.03	1096.78
669.37	1093.73
669.71	1097.71
670.05	1101.46
670.39	1108.24
670.73	1105.67
671.07	1113.16
671.41	1111.99
671.75	1105.44
672.09	1090.22
672.43	1087.88
672.77	1073.84
673.11	1071.50
673.45	1077.11
673.79	1082.26
674.13	1080.86
674.47	1091.39
674.81	1093.97
675.15	1088.58
675.49	1096.31
675.83	1091.86
676.17	1076.88
676.51	1065.88
676.85	1063.54
677.19	1054.18
677.53	1059.79
677.87	1077.11
678.21	1082.73
678.55	1090.46
678.89	1097.48
679.23	1094.90
679.57	1092.56
679.90	1091.39
680.24	1073.14
680.58	1073.14
680.92	1088.12
681.26	1084.60
681.60	1088.58
681.94	1100.99
682.28	1095.84
682.62	1088.82
682.96	1084.37
683.29	1083.43
683.63	1084.14
683.97	1092.09
684.31	1090.69
684.65	1087.88
684.99	1078.05
685.33	1074.77
685.67	1070.80
686.00	1068.92
686.34	1086.48
686.68	1103.33
687.02	1106.84
687.36	1104.50
687.70	1106.84
688.03	1100.75
688.37	1090.22
688.71	1092.09
689.05	1092.09
689.39	1086.71
689.72	1074.77
690.06	1080.63
690.40	1073.14
690.74	1078.99
691.08	1082.26
691.41	1083.90
691.75	1087.18
692.09	1088.58
692.43	1076.65
692.76	1071.50
693.10	1077.58
693.44	1070.33
693.78	1070.09
694.11	1076.41
694.45	1081.80
694.79	1077.11
695.13	1073.37
695.46	1078.28
695.80	1079.69
696.14	1083.90
696.48	1085.07
696.81	1081.56
697.15	1087.65
697.49	1089.05
697.82	1075.01
698.16	1074.07
698.50	1091.39
698.83	1091.16
699.17	1082.26
699.51	1092.33
699.84	1096.54
700.18	1089.29
700.52	1079.22
700.85	1083.90
701.19	1077.82
701.53	1076.41
701.86	1078.52
702.20	1078.99
702.54	1087.41
702.87	1092.33
703.21	1086.94
703.55	1084.60
703.88	1085.31
704.22	1084.14
704.55	1077.58
704.89	1083.67
705.23	1078.52
705.56	1087.65
705.90	1080.86
706.23	1075.24
706.57	1078.75
706.91	1081.80
707.24	1071.50
707.58	1065.18
707.91	1079.46
708.25	1080.16
708.58	1080.86
708.92	1074.07
709.26	1080.63
709.59	1073.84
709.93	1068.22
710.26	1066.82
710.60	1076.65
710.93	1079.22
711.27	1079.69
711.60	1068.69
711.94	1063.31
712.27	1050.90
712.61	1055.82
712.94	1065.88
713.28	1071.73
713.61	1076.41
713.95	1081.09
714.28	1078.05
714.62	1074.07
714.95	1083.90
715.29	1086.01
715.62	1094.20
715.96	1095.37
716.29	1085.07
716.63	1079.46
716.96	1077.82
717.29	1078.05
717.63	1072.90
717.96	1071.73
718.30	1075.71
718.63	1087.65
718.97	1086.94
719.30	1090.92
719.63	1102.63
719.97	1098.65
720.30	1093.97
720.64	1093.50
720.97	1089.05
721.30	1080.39
721.64	1080.86
721.97	1070.80
722.31	1061.90
722.64	1056.75
722.97	1063.07
723.31	1074.31
723.64	1082.26
723.97	1084.60
724.31	1085.54
724.64	1097.01
724.98	1092.33
725.31	1090.46
725.64	1093.50
725.98	1102.86
726.31	1095.84
726.64	1101.22
726.97	1102.86
727.31	1102.63
727.64	1101.69
727.97	1097.48
728.31	1082.97
728.64	1075.71
728.97	1078.75
729.31	1077.58
729.64	1074.54
729.97	1083.43
730.30	1081.80
730.64	1088.12
730.97	1079.22
731.30	1076.41
731.63	1070.56
731.97	1076.41
732.30	1065.88
732.63	1076.18
732.96	1079.92
733.30	1082.73
733.63	1074.77
733.96	1075.48
734.29	1075.48
734.63	1077.11
734.96	1079.69
735.29	1082.97
735.62	1091.86
735.95	1077.82
736.29	1077.35
736.62	1071.26
736.95	1069.16
737.28	1062.37
737.61	1070.56
737.94	1075.01
738.28	1066.11
738.61	1074.77
738.94	1085.31
739.27	1089.75
739.60	1082.03
739.93	1092.56
740.27	1101.69
740.60	1103.33
740.93	1097.95
741.26	1097.95
741.59	1100.99
741.92	1085.07
742.25	1071.26
742.58	1068.22
742.91	1068.92
743.25	1067.99
743.58	1082.26
743.91	1085.31
744.24	1097.48
744.57	1101.92
744.90	1102.63
745.23	1089.75
745.56	1087.88
745.89	1079.22
746.22	1083.90
746.55	1079.69
746.88	1078.05
747.21	1089.99
747.54	1089.99
747.87	1087.18
748.20	1089.75
748.53	1090.92
748.87	1080.16
749.20	1080.63
749.53	1073.14
749.86	1074.54
750.19	1075.01
750.52	1084.14
750.85	1086.48
751.18	1093.97
751.51	1089.29
751.84	1089.29
752.16	1075.71
752.49	1071.50
752.82	1073.84
753.15	1077.82
753.48	1078.75
753.81	1082.73
754.14	1074.54
754.47	1061.43
754.80	1052.54
755.13	1049.96
755.46	1038.50
755.79	1048.56
756.12	1057.92
756.45	1063.07
756.78	1066.11
757.11	1078.05
757.43	1079.46
757.76	1085.07
758.09	1091.63
758.42	1092.80
758.75	1095.84
759.08	1096.07
759.41	1087.18
759.74	1083.90
760.07	1087.41
760.39	1090.92
760.72	1087.41
761.05	1082.97
761.38	1078.05
761.71	1078.52
762.04	1073.14
762.36	1075.48
762.69	1080.63
763.02	1080.63
763.35	1079.92
763.68	1084.14
764.01	1075.94
764.33	1074.31
764.66	1068.45
764.99	1057.45
765.32	1060.26
765.65	1073.60
765.97	1073.60
766.30	1085.77
766.63	1093.26
766.96	1080.16
767.28	1075.48
767.61	1083.67
767.94	1080.63
768.27	1078.99
768.59	1089.75
768.92	1087.18
769.25	1069.86
769.58	1066.11
769.90	1070.80
770.23	1067.52
770.56	1070.09
770.89	1074.31
771.21	1087.41
771.54	1090.46
771.87	1089.75
772.19	1086.01
772.52	1099.82
772.85	1086.01
773.17	1071.50
773.50	1060.26
773.83	1064.48
774.15	1054.88
774.48	1055.35
774.81	1052.07
775.13	1057.22
775.46	1056.75
775.79	1057.22
776.11	1071.50
776.44	1078.52
776.77	1083.20
777.09	1090.92
777.42	1093.50
777.74	1073.84
778.07	1082.73
778.40	1090.22
778.72	1080.16
779.05	1083.67
779.37	1087.18
779.70	1083.67
780.03	1070.09
780.35	1076.65
780.68	1072.90
781.00	1087.18
781.33	1089.52
781.65	1085.54
781.98	1079.46
782.31	1085.77
782.63	1077.82
782.96	1069.16
783.28	1075.01
783.61	1076.88
783.93	1059.33
784.26	1055.82
784.58	1062.84
784.91	1073.84
785.23	1072.20
785.56	1089.29
785.88	1094.90
786.21	1099.12
786.53	1090.92
786.86	1086.48
787.18	1077.58
787.51	1071.97
787.83	1060.73
788.16	1058.16
788.48	1055.35
788.81	1059.33
789.13	1056.52
789.46	1068.69
789.78	1074.07
790.10	1086.24
790.43	1093.97
790.75	1100.99
791.08	1092.56
791.40	1093.03
791.73	1095.84
792.05	1089.99
792.37	1086.94
792.70	1097.01
793.02	1095.14
793.35	1089.52
793.67	1091.16
793.99	1092.33
794.32	1083.67
794.64	1087.41
794.96	1086.71
795.29	1076.41
795.61	1079.69
795.93	1078.52
796.26	1067.28
796.58	1067.75
796.91	1081.56
797.23	1074.31
797.55	1079.69
797.87	1090.22
798.20	1097.24
798.52	1093.26
798.84	1089.05
799.17	1094.67
799.49	1096.07
799.81	1093.03
800.14	1096.07
800.46	1103.09
800.78	1089.75
801.10	1079.69
801.43	1073.60
801.75	1070.09
802.07	1068.22
802.40	1079.22
802.72	1084.14
803.04	1090.69
803.36	1084.84
803.69	1081.80
804.01	1077.11
804.33	1076.18
804.65	1065.65
804.97	1055.58
805.30	1056.52
805.62	1045.28
805.94	1044.82
806.26	1056.52
806.58	1072.43
806.91	1080.86
807.23	1091.63
807.55	1089.05
807.87	1085.77
808.19	1084.37
808.52	1085.54
808.84	1089.75
809.16	1090.92
809.48	1091.16
809.80	1093.50
810.12	1091.39
810.44	1095.60
810.77	1101.92
811.09	1109.41
811.41	1108.24
811.73	1111.52
812.05	1097.24
812.37	1100.52
812.69	1091.63
813.01	1076.65
813.33	1064.94
813.66	1067.99
813.98	1055.11
814.30	1047.39
814.62	1056.28
814.94	1073.84
815.26	1082.73
815.58	1085.31
815.90	1089.05
816.22	1087.41
816.54	1070.56
816.86	1060.96
817.18	1070.09
817.50	1063.54
817.82	1060.50
818.14	1063.77
818.46	1064.71
818.78	1063.77
819.10	1067.75
819.42	1078.05
819.74	1078.05
820.06	1088.35
820.38	1089.29
820.70	1100.52
821.02	1097.24
821.34	1101.46
821.66	1090.69
821.98	1079.22
822.30	1073.60
822.62	1071.73
822.94	1068.69
823.26	1082.97
823.58	1094.20
823.90	1086.94
824.22	1091.39
824.54	1095.60
824.86	1075.94
825.18	1069.16
825.50	1081.09
825.81	1076.88
826.13	1079.46
826.45	1095.37
826.77	1088.12
827.09	1085.77
827.41	1087.18
827.73	1086.71
828.05	1072.43
828.36	1093.50
828.68	1094.90
829.00	1096.54
829.32	1090.22
829.64	1102.86
829.96	1092.80
830.28	1091.63
830.59	1082.03
830.91	1084.14
831.23	1072.43
831.55	1071.03
831.87	1067.75
832.19	1078.05
832.50	1082.03
832.82	1085.77
833.14	1085.77
833.46	1084.37
833.78	1089.29
834.09	1080.86
834.41	1084.14
834.73	1082.73
835.05	1090.69
835.36	1086.71
835.68	1097.24
836.00	1102.16
836.32	1099.12
836.63	1089.05
836.95	1087.41
837.27	1080.39
837.59	1070.56
837.90	1073.14
838.22	1086.71
838.54	1085.54
838.85	1092.09
839.17	1095.60
839.49	1090.69
839.80	1083.67
840.12	1090.69
840.44	1088.35
840.76	1092.80
841.07	1099.35
841.39	1102.86
841.71	1084.84
842.02	1082.26
842.34	1077.11
842.65	1075.01
842.97	1070.09
843.29	1087.88
843.60	1083.67
843.92	1084.14
844.24	1080.63
844.55	1080.63
844.87	1077.58
845.18	1084.37
845.50	1076.65
845.82	1080.39
846.13	1083.90
846.45	1086.48
846.76	1084.84
847.08	1093.26
847.40	1089.99
847.71	1082.97
848.03	1078.75
848.34	1075.71
848.66	1069.86
848.97	1076.88
849.29	1082.97
849.60	1071.50
849.92	1069.16
850.24	1067.99
850.55	1059.09
850.87	1055.11
851.18	1074.54
851.50	1075.94
851.81	1076.88
852.13	1080.63
852.44	1075.24
852.76	1061.20
853.07	1058.16
853.39	1060.96
853.70	1066.82
854.01	1072.20
854.33	1080.16
854.64	1083.20
854.96	1078.05
855.27	1086.48
855.59	1092.33
855.90	1085.31
856.22	1089.05
856.53	1098.18
856.84	1085.07
857.16	1077.82
857.47	1082.03
857.79	1071.97
858.10	1067.52
858.41	1072.43
858.73	1077.11
859.04	1075.94
859.36	1076.65
859.67	1071.97
859.98	1079.69
860.30	1075.71
860.61	1078.75
860.92	1081.56
861.24	1094.43
861.55	1086.48
861.87	1084.37
862.18	1083.20
862.49	1091.39
862.81	1086.94
863.12	1087.65
863.43	1098.18
863.74	1089.75
864.06	1083.67
864.37	1084.37
864.68	1078.52
865.00	1070.56
865.31	1074.54
865.62	1074.77
865.94	1080.63
866.25	1098.65
866.56	1104.73
866.87	1104.03
867.19	1104.97
867.50	1094.20
867.81	1079.69
868.12	1073.14
868.44	1086.24
868.75	1088.82
869.06	1093.50
869.37	1086.94
869.68	1083.67
870.00	1077.11
870.31	1080.63
870.62	1077.11
870.93	1084.37
871.24	1084.37
871.56	1085.77
871.87	1086.48
872.18	1082.97
872.49	1082.73
872.80	1081.33
873.12	1074.31
873.43	1073.14
873.74	1081.09
874.05	1076.65
874.36	1073.14
874.67	1077.58
874.98	1076.41
875.29	1071.73
875.61	1073.37
875.92	1074.54
876.23	1071.26
876.54	1065.88
876.85	1075.24
877.16	1082.73
877.47	1094.43
877.78	1094.43
878.09	1096.78
878.40	1082.26
878.72	1081.09
879.03	1081.09
879.34	1081.56
879.65	1081.80
879.96	1094.20
880.27	1092.56
880.58	1087.18
880.89	1086.48
881.20	1087.88
881.51	1085.31
881.82	1073.60
882.13	1077.58
882.44	1079.22
882.75	1078.75
883.06	1083.20
883.37	1094.43
883.68	1087.41
883.99	1081.80
884.30	1079.46
884.61	1065.88
884.92	1064.71
885.23	1069.62
885.54	1067.99
885.85	1075.24
886.16	1093.03
886.47	1087.18
886.78	1086.01
887.08	1094.90
887.39	1084.37
887.70	1062.60
888.01	1071.26
888.32	1069.16
888.63	1068.22
888.94	1067.75
889.25	1072.90
889.56	1067.05
889.87	1073.60
890.17	1068.69
890.48	1073.60
890.79	1079.22
891.10	1080.39
891.41	1081.33
891.72	1079.92
892.03	1082.97
892.34	1073.84
892.64	1069.16
892.95	1057.22
893.26	1072.43
893.57	1069.39
893.88	1069.16
894.18	1067.05
894.49	1075.48
894.80	1076.88
895.11	1075.71
895.42	1088.12
895.72	1098.65
896.03	1111.29
896.34	1098.65
896.65	1099.58
896.96	1092.09
897.26	1096.07
897.57	1076.41
897.88	1074.31
898.19	1081.56
898.49	1081.09
898.80	1061.20
899.11	1060.26
899.41	1062.84
899.72	1051.37
900.03	1050.20
900.34	1050.43
900.64	1060.96
900.95	1061.20
901.26	1064.01
901.56	1061.90
901.87	1076.65
902.18	1066.82
902.48	1067.28
902.79	1076.41
903.10	1073.84
903.40	1071.03
903.71	1083.90
904.02	1078.05
904.32	1064.01
904.63	1073.37
904.94	1078.52
905.24	1073.84
905.55	1087.41
905.85	1091.39
906.16	1096.31
906.47	1092.56
906.77	1092.80
907.08	1083.67
907.38	1089.29
907.69	1083.67
908.00	1091.63
908.30	1092.33
908.61	1094.67
908.91	1090.92
909.22	1096.54
909.52	1085.07
909.83	1082.97
910.14	1079.46
910.44	1078.75
910.75	1070.33
911.05	1078.28
911.36	1083.67
911.66	1086.24
911.97	1086.48
912.27	1089.52
912.58	1087.41
912.88	1080.86
913.19	1076.88
913.49	1072.43
913.80	1075.71
914.10	1080.63
914.41	1080.16
914.71	1091.63
915.01	1106.37
915.32	1096.07
915.62	1091.16
915.93	1089.52
916.23	1080.86
916.54	1065.41
916.84	1074.54
917.15	1065.88
917.45	1066.11
917.75	1071.97
918.06	1077.82
918.36	1070.56
918.67	1068.92
918.97	1072.43
919.27	1076.65
919.58	1074.77
919.88	1080.63
920.18	1082.97
920.49	1083.20
920.79	1067.75
921.10	1066.58
921.40	1062.84
921.70	1065.41
922.01	1056.75
922.31	1066.35
922.61	1065.41
922.92	1075.01
923.22	1080.16
923.52	1087.88
923.82	1086.01
924.13	1083.90
924.43	1077.58
924.73	1070.80
925.04	1071.50
925.34	1064.94
925.64	1075.24
925.94	1073.37
926.25	1071.26
926.55	1066.11
926.85	1068.92
927.15	1063.54
927.46	1067.99
927.76	1078.28
928.06	1073.37
928.36	1078.05
928.67	1086.48
928.97	1075.48
929.27	1078.28
929.57	1084.14
929.87	1086.94
930.18	1079.92
930.48	1089.05
930.78	1076.41
931.08	1081.80
931.38	1069.16
931.69	1072.67
931.99	1074.77
932.29	1078.52
932.59	1084.84
932.89	1095.84
933.19	1092.56
933.49	1088.82
933.80	1087.41
934.10	1076.88
934.40	1073.37
934.70	1079.92
935.00	1079.22
935.30	1083.43
935.60	1089.99
935.90	1085.77
936.20	1078.28
936.50	1079.46
936.81	1082.50
937.11	1080.16
937.41	1087.65
937.71	1090.69
938.01	1082.73
938.31	1082.03
938.61	1077.35
938.91	1077.58
939.21	1075.24
939.51	1084.60
939.81	1079.92
940.11	1080.63
940.41	1082.97
940.71	1083.20
941.01	1086.71
941.31	1082.50
941.61	1083.43
941.91	1073.84
942.21	1077.35
942.51	1067.99
942.81	1076.65
943.11	1080.39
943.41	1084.84
943.71	1075.01
944.01	1080.86
944.31	1071.50
944.61	1064.01
944.90	1063.77
945.20	1074.77
945.50	1076.18
945.80	1087.88
946.10	1095.37
946.40	1099.12
946.70	1093.50
947.00	1088.35
947.30	1085.31
947.60	1080.63
947.89	1079.22
948.19	1081.09
948.49	1082.73
948.79	1085.07
949.09	1083.43
949.39	1082.50
949.69	1074.31
949.98	1073.84
950.28	1064.71
950.58	1060.73
950.88	1060.73
951.18	1059.09
951.48	1056.99
951.77	1064.71
952.07	1065.65
952.37	1065.41
952.67	1068.69
952.97	1071.03
953.26	1076.88
953.56	1075.71
953.86	1076.41
954.16	1085.54
954.45	1093.50
954.75	1077.11
955.05	1082.03
955.35	1082.03
955.64	1081.09
955.94	1088.82
956.24	1092.80
956.54	1096.78
956.83	1089.52
957.13	1089.99
957.43	1084.14
957.72	1080.39
958.02	1082.03
958.32	1082.26
958.61	1079.22
958.91	1074.31
959.21	1082.73
959.50	1081.09
959.80	1095.14
960.10	1098.65
960.39	1097.01
960.69	1092.33
960.99	1100.29
961.28	1090.22
961.58	1083.20
961.87	1085.77
962.17	1090.69
962.47	1076.41
962.76	1079.69
963.06	1086.48
963.36	1078.75
963.65	1079.46
963.95	1085.54
964.24	1084.37
964.54	1078.99
964.83	1086.01
965.13	1082.50
965.42	1099.12
965.72	1093.26
966.02	1096.54
966.31	1097.95
966.61	1101.46
966.90	1079.92
967.20	1091.63
967.49	1091.63
967.79	1083.67
968.08	1084.37
968.38	1089.99
968.67	1092.09
968.97	1101.69
969.26	1101.92
969.56	1104.26
969.85	1098.65
970.15	1085.54
970.44	1077.11
970.74	1068.22
971.03	1057.45
971.32	1064.71
971.62	1080.16
971.91	1070.56
972.21	1083.20
972.50	1085.07
972.80	1089.52
973.09	1074.77
973.38	1077.82
973.68	1082.97
973.97	1094.90
974.27	1081.33
974.56	1072.67
974.85	1069.62
975.15	1062.84
975.44	1049.96
975.73	1051.37
976.03	1066.35
976.32	1077.82
976.61	1075.24
976.91	1087.41
977.20	1087.41
977.49	1091.63
977.79	1088.12
978.08	1088.82
978.37	1078.05
978.67	1084.84
978.96	1080.63
979.25	1087.41
979.55	1093.50
979.84	1097.01
980.13	1095.84
980.42	1093.03
980.72	1082.73
981.01	1074.77
981.30	1077.11
981.59	1077.82
981.89	1078.99
982.18	1082.03
982.47	1079.92
982.76	1077.82
983.06	1070.56
983.35	1059.79
983.64	1065.88
983.93	1069.62
984.22	1069.16
984.52	1073.60
984.81	1077.11
985.10	1078.99
985.39	1078.05
985.68	1073.14
985.97	1071.26
986.27	1078.28
986.56	1077.82
986.85	1082.03
987.14	1080.86
987.43	1085.54
987.72	1084.84
988.01	1082.50
988.31	1079.69
988.60	1080.86
988.89	1076.65
989.18	1078.75
989.47	1082.50
989.76	1079.22
990.05	1086.01
990.34	1087.65
990.63	1077.58
990.92	1069.62
991.21	1075.01
991.51	1069.39
991.80	1072.67
992.09	1091.39
992.38	1088.58
992.67	1091.39
992.96	1090.22
993.25	1077.82
993.54	1074.07
993.83	1075.01
994.12	1073.84
994.41	1080.39
994.70	1088.12
994.99	1077.58
995.28	1078.28
995.57	1081.56
995.86	1079.92
996.15	1082.03
996.44	1090.69
996.73	1094.43
997.02	1087.41
997.31	1086.24
997.59	1085.77
997.88	1073.37
998.17	1066.35
998.46	1074.31
998.75	1075.94
999.04	1071.50
999.33	1077.58
999.62	1079.22
999.91	1076.18
1000.20	1071.26
1000.49	1082.03
1000.77	1089.52
1001.06	1096.07
1001.35	1088.58
1001.64	1093.03
1001.93	1085.07
1002.22	1071.26
1002.51	1069.62
1002.79	1066.35
1003.08	1067.52
1003.37	1071.50
1003.66	1071.03
1003.95	1057.45
1004.23	1069.39
1004.52	1066.35
1004.81	1062.60
1005.10	1060.03
1005.39	1068.45
1005.67	1069.86
1005.96	1079.46
1006.25	1087.65
1006.54	1093.26
1006.83	1089.75
1007.11	1084.37
1007.40	1076.41
1007.69	1070.80
1007.97	1066.82
1008.26	1073.60
1008.55	1073.37
1008.84	1067.28
1009.12	1064.94
1009.41	1071.26
1009.70	1066.82
1009.98	1068.69
1010.27	1071.26
1010.56	1066.58
1010.85	1065.65
1011.13	1060.96
1011.42	1066.11
1011.71	1073.14
1011.99	1076.18
1012.28	1080.63
1012.56	1085.77
1012.85	1068.22
1013.14	1073.84
1013.42	1074.77
1013.71	1070.56
1014.00	1076.18
1014.28	1086.94
1014.57	1070.09
1014.85	1072.43
1015.14	1076.18
1015.43	1070.80
1015.71	1080.16
1016.00	1092.56
1016.28	1084.84
1016.57	1084.37
1016.85	1090.46
1017.14	1081.56
1017.43	1072.90
1017.71	1081.09
1018.00	1081.80
1018.28	1079.22
1018.57	1077.11
1018.85	1078.05
1019.14	1078.75
1019.42	1079.22
1019.71	1074.07
1019.99	1075.24
1020.28	1083.90
1020.56	1081.09
1020.85	1090.22
1021.13	1090.69
1021.42	1089.99
1021.70	1078.52
1021.99	1074.77
1022.27	1063.77
1022.55	1053.24
1022.84	1077.82
>>>>>End Processed Spectral Data<<<<<
