SpectraSuite Data File
++++++++++++++++++++++++++++++++++++
Date: Mon Aug 26 10:25:56 PDT 2019
User: corrico
Dark Spectrum Present: No
Reference Spectrum Present: No
Number of Sampled Component Spectra: 1
Spectrometers: USB2+H06089
Integration Time (usec): 10000 (USB2+H06089)
Spectra Averaged: 2 (USB2+H06089)
Boxcar Smoothing: 2 (USB2+H06089)
Correct for Electrical Dark: No (USB2+H06089)
Strobe/Lamp Enabled: No (USB2+H06089)
Correct for Detector Non-linearity: No (USB2+H06089)
Correct for Stray Light: No (USB2+H06089)
Number of Pixels in Processed Spectrum: 2048
>>>>>Begin Processed Spectral Data<<<<<
339.70	1015.79
340.07	1015.79
340.45	980.68
340.82	959.15
341.19	939.26
341.57	918.89
341.94	909.53
342.31	897.36
342.69	899.70
343.06	901.81
343.43	894.79
343.81	905.55
344.18	913.51
344.55	910.23
344.93	907.43
345.30	914.92
345.67	905.55
346.04	916.32
346.42	930.83
346.79	931.77
347.16	943.70
347.54	962.66
347.91	971.56
348.28	977.64
348.65	995.66
349.03	1016.03
349.40	1030.07
349.77	1033.58
350.14	1031.94
350.52	1047.39
350.89	1037.33
351.26	1031.94
351.63	1045.28
352.01	1051.37
352.38	1053.71
352.75	1052.77
353.12	1069.62
353.50	1071.26
353.87	1085.31
354.24	1077.11
354.61	1077.82
354.98	1071.50
355.36	1066.82
355.73	1057.22
356.10	1069.62
356.47	1081.80
356.84	1084.60
357.22	1088.82
357.59	1092.56
357.96	1082.26
358.33	1074.07
358.70	1071.50
359.08	1065.65
359.45	1068.69
359.82	1068.92
360.19	1077.11
360.56	1085.54
360.94	1096.31
361.31	1101.22
361.68	1105.90
362.05	1108.71
362.42	1091.86
362.79	1084.37
363.16	1078.52
363.54	1068.92
363.91	1058.62
364.28	1071.26
364.65	1068.92
365.02	1067.99
365.39	1070.56
365.76	1069.62
366.14	1057.45
366.51	1058.62
366.88	1060.73
367.25	1071.50
367.62	1077.82
367.99	1079.92
368.36	1076.88
368.73	1071.26
369.10	1057.22
369.48	1054.41
369.85	1062.37
370.22	1062.37
370.59	1061.43
370.96	1070.56
371.33	1071.26
371.70	1068.45
372.07	1061.43
372.44	1059.56
372.81	1055.35
373.18	1057.92
373.55	1058.39
373.93	1065.65
374.30	1069.16
374.67	1078.52
375.04	1078.99
375.41	1075.24
375.78	1086.24
376.15	1089.99
376.52	1081.80
376.89	1078.52
377.26	1077.58
377.63	1068.92
378.00	1066.58
378.37	1071.03
378.74	1072.43
379.11	1067.52
379.48	1063.54
379.85	1071.97
380.22	1065.65
380.59	1074.31
380.96	1070.09
381.33	1073.14
381.70	1062.14
382.07	1067.75
382.44	1065.41
382.81	1076.18
383.18	1082.26
383.55	1084.37
383.92	1078.28
384.29	1074.07
384.66	1081.56
385.03	1077.11
385.40	1075.94
385.77	1067.05
386.14	1062.37
386.51	1058.86
386.88	1062.14
387.25	1070.09
387.62	1081.33
387.99	1075.71
388.36	1072.43
388.73	1062.14
389.10	1069.86
389.46	1075.01
389.83	1078.75
390.20	1082.26
390.57	1088.82
390.94	1078.05
391.31	1078.52
391.68	1078.99
392.05	1075.94
392.42	1076.41
392.79	1069.16
393.16	1067.05
393.53	1073.37
393.89	1071.50
394.26	1068.92
394.63	1074.54
395.00	1068.69
395.37	1069.16
395.74	1069.62
396.11	1077.82
396.48	1071.26
396.84	1068.69
397.21	1063.07
397.58	1061.20
397.95	1056.75
398.32	1064.71
398.69	1069.62
399.06	1064.48
399.42	1063.31
399.79	1057.69
400.16	1054.41
400.53	1054.65
400.90	1068.22
401.27	1071.03
401.64	1067.52
402.00	1072.20
402.37	1073.14
402.74	1080.86
403.11	1086.01
403.48	1097.48
403.84	1091.86
404.21	1097.48
404.58	1084.60
404.95	1082.26
405.32	1077.82
405.68	1083.43
406.05	1073.84
406.42	1070.09
406.79	1068.69
407.16	1065.18
407.52	1054.41
407.89	1060.50
408.26	1062.60
408.63	1059.79
408.99	1060.73
409.36	1066.11
409.73	1064.94
410.10	1067.05
410.47	1066.58
410.83	1071.03
411.20	1066.82
411.57	1065.65
411.94	1057.92
412.30	1065.41
412.67	1064.24
413.04	1070.09
413.40	1076.65
413.77	1088.12
414.14	1073.14
414.51	1074.77
414.87	1063.07
415.24	1063.54
415.61	1060.03
415.97	1068.69
416.34	1067.52
416.71	1080.16
417.08	1075.01
417.44	1070.33
417.81	1075.24
418.18	1070.09
418.54	1073.14
418.91	1071.26
419.28	1083.20
419.64	1085.31
420.01	1096.54
420.38	1089.29
420.74	1086.01
421.11	1077.82
421.48	1071.73
421.84	1065.65
422.21	1058.86
422.58	1061.90
422.94	1057.45
423.31	1059.33
423.68	1065.18
424.04	1069.39
424.41	1070.33
424.77	1076.41
425.14	1082.97
425.51	1075.48
425.87	1087.88
426.24	1089.52
426.61	1098.65
426.97	1097.48
427.34	1092.80
427.70	1087.65
428.07	1090.46
428.44	1075.71
428.80	1072.90
429.17	1068.92
429.53	1066.11
429.90	1065.88
430.27	1075.48
430.63	1066.58
431.00	1075.71
431.36	1082.97
431.73	1077.82
432.09	1066.58
432.46	1076.18
432.83	1081.33
433.19	1064.94
433.56	1063.77
433.92	1070.80
434.29	1065.65
434.65	1051.13
435.02	1063.07
435.38	1058.39
435.75	1053.24
436.11	1051.84
436.48	1060.03
436.84	1057.92
437.21	1056.75
437.57	1055.82
437.94	1062.84
438.30	1067.99
438.67	1066.35
439.03	1071.73
439.40	1086.01
439.76	1084.37
440.13	1082.26
440.49	1085.77
440.86	1095.37
441.22	1083.43
441.59	1078.75
441.95	1078.05
442.32	1089.05
442.68	1079.69
443.05	1080.86
443.41	1086.48
443.78	1094.90
444.14	1083.90
444.51	1082.50
444.87	1084.60
445.24	1087.18
445.60	1084.37
445.96	1072.67
446.33	1073.60
446.69	1071.26
447.06	1066.82
447.42	1059.56
447.79	1066.11
448.15	1071.97
448.51	1071.50
448.88	1081.33
449.24	1078.05
449.61	1083.90
449.97	1068.92
450.33	1066.58
450.70	1053.48
451.06	1058.16
451.43	1061.67
451.79	1067.52
452.15	1075.01
452.52	1082.50
452.88	1089.29
453.24	1089.05
453.61	1092.33
453.97	1088.82
454.34	1093.73
454.70	1095.14
455.06	1091.16
455.43	1088.35
455.79	1094.67
456.15	1084.60
456.52	1074.07
456.88	1072.90
457.24	1074.54
457.61	1065.65
457.97	1062.84
458.33	1069.62
458.70	1061.43
459.06	1055.35
459.42	1064.94
459.79	1072.67
460.15	1067.99
460.51	1081.33
460.88	1083.90
461.24	1076.88
461.60	1071.73
461.96	1064.94
462.33	1063.54
462.69	1066.82
463.05	1064.01
463.42	1061.20
463.78	1066.58
464.14	1065.88
464.50	1071.03
464.87	1068.92
465.23	1077.35
465.59	1083.43
465.95	1083.90
466.32	1083.67
466.68	1094.43
467.04	1094.43
467.40	1093.73
467.77	1086.94
468.13	1087.41
468.49	1081.80
468.85	1071.03
469.22	1063.31
469.58	1072.20
469.94	1074.54
470.30	1070.56
470.66	1079.69
471.03	1089.05
471.39	1076.18
471.75	1067.99
472.11	1084.84
472.47	1082.73
472.84	1078.05
473.20	1086.24
473.56	1093.26
473.92	1087.18
474.28	1094.90
474.65	1098.41
475.01	1102.63
475.37	1107.78
475.73	1108.95
476.09	1101.92
476.45	1091.63
476.81	1083.20
477.18	1065.41
477.54	1054.41
477.90	1055.58
478.26	1058.62
478.62	1072.67
478.98	1086.01
479.34	1088.35
479.71	1083.67
480.07	1085.31
480.43	1078.99
480.79	1064.48
481.15	1068.22
481.51	1071.97
481.87	1074.07
482.23	1073.14
482.59	1081.56
482.96	1071.73
483.32	1068.22
483.68	1066.11
484.04	1063.07
484.40	1069.86
484.76	1087.65
485.12	1096.07
485.48	1093.97
485.84	1087.88
486.20	1086.48
486.56	1075.94
486.92	1074.54
487.28	1082.03
487.64	1086.24
488.00	1080.39
488.37	1082.03
488.73	1071.97
489.09	1071.50
489.45	1075.71
489.81	1079.46
490.17	1082.73
490.53	1089.99
490.89	1094.20
491.25	1088.82
491.61	1089.05
491.97	1088.58
492.33	1081.80
492.69	1077.35
493.05	1075.01
493.41	1071.73
493.77	1062.60
494.13	1057.45
494.49	1051.37
494.85	1062.60
495.21	1071.03
495.57	1076.41
495.93	1091.86
496.29	1098.18
496.64	1077.58
497.00	1066.82
497.36	1070.09
497.72	1060.03
498.08	1049.73
498.44	1061.20
498.80	1070.56
499.16	1065.88
499.52	1071.03
499.88	1078.52
500.24	1077.11
500.60	1073.14
500.96	1071.03
501.32	1072.90
501.68	1076.18
502.03	1082.26
502.39	1077.11
502.75	1084.14
503.11	1083.20
503.47	1078.75
503.83	1069.86
504.19	1073.84
504.55	1072.67
504.91	1071.50
505.26	1076.18
505.62	1080.16
505.98	1084.84
506.34	1082.97
506.70	1076.65
507.06	1081.09
507.42	1086.01
507.78	1082.26
508.13	1087.65
508.49	1089.75
508.85	1077.35
509.21	1081.33
509.57	1083.90
509.93	1080.86
510.28	1078.28
510.64	1087.65
511.00	1087.18
511.36	1077.35
511.72	1073.37
512.07	1083.43
512.43	1082.50
512.79	1072.20
513.15	1078.05
513.51	1075.48
513.86	1073.37
514.22	1067.99
514.58	1064.48
514.94	1070.56
515.30	1082.73
515.65	1073.84
516.01	1083.67
516.37	1088.82
516.73	1087.65
517.08	1087.41
517.44	1096.07
517.80	1094.43
518.16	1104.73
518.51	1106.37
518.87	1099.12
519.23	1099.58
519.59	1095.84
519.94	1095.84
520.30	1084.37
520.66	1089.99
521.01	1091.86
521.37	1088.58
521.73	1085.31
522.09	1089.99
522.44	1083.43
522.80	1078.75
523.16	1084.60
523.51	1081.80
523.87	1083.20
524.23	1086.48
524.58	1081.33
524.94	1075.71
525.30	1084.84
525.65	1086.71
526.01	1091.63
526.37	1104.50
526.72	1103.56
527.08	1093.97
527.44	1094.90
527.79	1086.24
528.15	1071.26
528.51	1073.84
528.86	1081.56
529.22	1082.50
529.58	1083.67
529.93	1098.88
530.29	1092.56
530.65	1079.92
531.00	1083.43
531.36	1089.05
531.71	1084.60
532.07	1089.99
532.43	1099.58
532.78	1093.03
533.14	1097.71
533.49	1102.86
533.85	1111.05
534.21	1110.35
534.56	1108.24
534.92	1093.03
535.27	1091.86
535.63	1083.90
535.98	1083.67
536.34	1089.05
536.69	1096.78
537.05	1087.18
537.41	1094.90
537.76	1090.46
538.12	1096.78
538.47	1103.80
538.83	1101.22
539.18	1098.41
539.54	1097.24
539.89	1088.82
540.25	1072.43
540.60	1081.56
540.96	1073.84
541.31	1086.48
541.67	1091.63
542.02	1093.26
542.38	1089.05
542.73	1086.48
543.09	1079.22
543.44	1082.03
543.80	1092.56
544.15	1094.20
544.51	1104.26
544.86	1101.22
545.22	1097.48
545.57	1097.71
545.93	1100.52
546.28	1097.01
546.64	1102.16
546.99	1094.90
547.35	1095.84
547.70	1092.56
548.05	1093.73
548.41	1094.20
548.76	1097.48
549.12	1086.48
549.47	1072.43
549.83	1069.86
550.18	1059.56
550.53	1052.30
550.89	1043.41
551.24	1060.73
551.60	1061.67
551.95	1078.05
552.30	1083.43
552.66	1102.39
553.01	1105.67
553.37	1104.73
553.72	1090.22
554.07	1084.60
554.43	1077.35
554.78	1069.86
555.13	1078.52
555.49	1081.80
555.84	1083.20
556.19	1081.33
556.55	1090.69
556.90	1086.24
557.26	1089.75
557.61	1098.18
557.96	1093.97
558.32	1087.65
558.67	1086.01
559.02	1084.14
559.37	1078.28
559.73	1076.41
560.08	1074.77
560.43	1074.77
560.79	1074.31
561.14	1073.60
561.49	1083.43
561.85	1083.43
562.20	1076.41
562.55	1068.45
562.90	1071.26
563.26	1066.35
563.61	1061.67
563.96	1070.80
564.32	1079.69
564.67	1088.82
565.02	1093.26
565.37	1101.92
565.73	1100.52
566.08	1104.97
566.43	1089.52
566.78	1088.35
567.14	1079.46
567.49	1074.54
567.84	1067.05
568.19	1067.75
568.54	1066.58
568.90	1075.71
569.25	1075.48
569.60	1083.90
569.95	1094.90
570.31	1096.78
570.66	1091.63
571.01	1095.60
571.36	1095.14
571.71	1090.22
572.06	1089.52
572.42	1083.20
572.77	1078.05
573.12	1062.84
573.47	1065.65
573.82	1070.09
574.18	1080.39
574.53	1077.11
574.88	1085.54
575.23	1076.41
575.58	1072.20
575.93	1070.80
576.28	1076.65
576.64	1072.90
576.99	1081.33
577.34	1091.39
577.69	1086.71
578.04	1088.35
578.39	1089.75
578.74	1099.58
579.09	1087.65
579.44	1086.71
579.80	1090.22
580.15	1084.60
580.50	1068.69
580.85	1070.09
581.20	1074.77
581.55	1071.97
581.90	1082.50
582.25	1089.52
582.60	1091.63
582.95	1081.56
583.30	1078.52
583.65	1070.80
584.00	1076.41
584.35	1077.58
584.71	1094.67
585.06	1101.46
585.41	1100.29
585.76	1090.46
586.11	1086.94
586.46	1081.80
586.81	1071.26
587.16	1074.07
587.51	1078.99
587.86	1079.92
588.21	1071.73
588.56	1080.39
588.91	1082.03
589.26	1077.35
589.61	1078.99
589.96	1085.31
590.31	1085.07
590.66	1091.16
591.01	1099.58
591.36	1100.75
591.71	1096.31
592.06	1106.14
592.41	1106.37
592.76	1097.01
593.10	1082.50
593.45	1076.65
593.80	1053.71
594.15	1045.28
594.50	1050.67
594.85	1065.18
595.20	1074.07
595.55	1087.41
595.90	1094.67
596.25	1082.73
596.60	1076.65
596.95	1086.71
597.30	1088.58
597.64	1136.80
597.99	1146.16
598.34	1147.56
598.69	1141.95
599.04	1138.90
599.39	1078.99
599.74	1072.20
600.09	1071.26
600.44	1067.99
600.78	1063.54
601.13	1075.24
601.48	1072.20
601.83	1080.39
602.18	1070.33
602.53	1069.39
602.88	1070.56
603.22	1073.60
603.57	1073.37
603.92	1081.33
604.27	1082.97
604.62	1088.35
604.97	1093.97
605.31	1088.35
605.66	1092.56
606.01	1097.95
606.36	1080.39
606.71	1077.35
607.05	1084.84
607.40	1079.69
607.75	1076.41
608.10	1079.69
608.44	1078.99
608.79	1068.92
609.14	1072.67
609.49	1079.46
609.84	1074.07
610.18	1079.46
610.53	1086.24
610.88	1088.35
611.23	1091.39
611.57	1097.71
611.92	1095.14
612.27	1091.16
612.62	1087.41
612.96	1077.35
613.31	1078.05
613.66	1068.22
614.00	1072.90
614.35	1071.97
614.70	1071.73
615.05	1083.43
615.39	1093.03
615.74	1084.14
616.09	1083.20
616.43	1087.65
616.78	1083.90
617.13	1081.33
617.47	1085.31
617.82	1086.71
618.17	1080.39
618.51	1079.22
618.86	1081.80
619.21	1086.94
619.55	1085.31
619.90	1087.41
620.25	1082.26
620.59	1082.97
620.94	1081.80
621.29	1089.29
621.63	1093.73
621.98	1090.92
622.32	1090.69
622.67	1089.99
623.02	1086.48
623.36	1080.63
623.71	1080.39
624.05	1080.39
624.40	1086.48
624.75	1078.28
625.09	1082.26
625.44	1092.56
625.78	1092.80
626.13	1085.77
626.48	1093.97
626.82	1091.39
627.17	1082.97
627.51	1088.35
627.86	1090.69
628.20	1092.09
628.55	1099.35
628.89	1104.50
629.24	1096.31
629.58	1091.16
629.93	1095.60
630.28	1080.63
630.62	1079.92
630.97	1077.35
631.31	1081.33
631.66	1067.52
632.00	1078.52
632.35	1075.71
632.69	1084.14
633.04	1085.31
633.38	1089.99
633.73	1083.20
634.07	1085.07
634.42	1082.03
634.76	1071.03
635.11	1073.60
635.45	1070.33
635.79	1067.75
636.14	1070.09
636.48	1078.75
636.83	1077.82
637.17	1088.58
637.52	1089.99
637.86	1080.63
638.21	1084.14
638.55	1087.41
638.89	1080.63
639.24	1075.24
639.58	1084.14
639.93	1082.50
640.27	1066.58
640.61	1069.39
640.96	1071.97
641.30	1079.92
641.65	1086.24
641.99	1097.24
642.33	1093.03
642.68	1080.16
643.02	1072.20
643.37	1058.39
643.71	1060.73
644.05	1061.20
644.40	1079.92
644.74	1077.58
645.08	1082.97
645.43	1077.58
645.77	1070.80
646.11	1076.88
646.46	1080.16
646.80	1082.73
647.14	1094.90
647.49	1106.14
647.83	1099.58
648.17	1097.24
648.52	1098.65
648.86	1092.56
649.20	1096.78
649.55	1089.29
649.89	1094.90
650.23	1091.86
650.57	1089.52
650.92	1081.09
651.26	1075.94
651.60	1075.71
651.95	1081.56
652.29	1090.22
652.63	1095.37
652.97	1102.39
653.32	1099.12
653.66	1093.50
654.00	1084.60
654.34	1072.20
654.69	1070.33
655.03	1075.01
655.37	1071.50
655.71	1080.86
656.05	1093.73
656.40	1102.63
656.74	1101.22
657.08	1109.65
657.42	1096.31
657.76	1088.82
658.11	1085.31
658.45	1085.31
658.79	1075.24
659.13	1085.54
659.47	1093.50
659.82	1087.65
660.16	1084.14
660.50	1082.26
660.84	1075.48
661.18	1074.07
661.52	1082.03
661.87	1075.71
662.21	1079.46
662.55	1080.63
662.89	1080.16
663.23	1075.94
663.57	1083.67
663.91	1092.09
664.25	1089.05
664.60	1084.60
664.94	1080.86
665.28	1068.69
665.62	1074.07
665.96	1077.11
666.30	1086.94
666.64	1097.95
666.98	1106.84
667.32	1089.52
667.66	1085.54
668.01	1087.88
668.35	1077.35
668.69	1081.56
669.03	1086.71
669.37	1093.50
669.71	1079.22
670.05	1087.88
670.39	1082.50
670.73	1079.92
671.07	1064.01
671.41	1071.73
671.75	1060.96
672.09	1057.92
672.43	1049.96
672.77	1060.03
673.11	1062.14
673.45	1071.03
673.79	1074.54
674.13	1073.84
674.47	1074.54
674.81	1071.73
675.15	1066.82
675.49	1066.82
675.83	1084.84
676.17	1086.01
676.51	1082.73
676.85	1080.39
677.19	1081.09
677.53	1067.28
677.87	1068.22
678.21	1070.80
678.55	1084.14
678.89	1083.67
679.23	1086.94
679.57	1082.26
679.90	1080.16
680.24	1060.26
680.58	1060.96
680.92	1055.11
681.26	1056.99
681.60	1064.24
681.94	1068.69
682.28	1068.69
682.62	1081.09
682.96	1076.41
683.29	1073.84
683.63	1085.31
683.97	1079.92
684.31	1075.48
684.65	1087.88
684.99	1081.33
685.33	1079.69
685.67	1089.05
686.00	1088.12
686.34	1079.22
686.68	1078.75
687.02	1072.90
687.36	1074.31
687.70	1080.16
688.03	1082.03
688.37	1086.48
688.71	1095.37
689.05	1091.63
689.39	1086.48
689.72	1088.58
690.06	1091.86
690.40	1090.69
690.74	1088.82
691.08	1097.71
691.41	1099.58
691.75	1092.33
692.09	1089.75
692.43	1085.77
692.76	1081.56
693.10	1074.54
693.44	1074.31
693.78	1071.73
694.11	1068.69
694.45	1059.09
694.79	1068.45
695.13	1080.86
695.46	1080.39
695.80	1082.73
696.14	1087.18
696.48	1082.50
696.81	1078.99
697.15	1087.18
697.49	1095.37
697.82	1098.41
698.16	1104.03
698.50	1105.44
698.83	1086.01
699.17	1081.33
699.51	1081.09
699.84	1085.31
700.18	1074.07
700.52	1082.50
700.85	1089.52
701.19	1089.52
701.53	1081.80
701.86	1078.52
702.20	1089.99
702.54	1087.18
702.87	1089.75
703.21	1091.63
703.55	1096.78
703.88	1088.82
704.22	1095.60
704.55	1099.35
704.89	1097.24
705.23	1094.20
705.56	1092.09
705.90	1084.37
706.23	1073.14
706.57	1069.62
706.91	1072.67
707.24	1074.31
707.58	1082.26
707.91	1085.31
708.25	1086.71
708.58	1084.37
708.92	1082.03
709.26	1069.39
709.59	1077.11
709.93	1076.65
710.26	1079.46
710.60	1086.01
710.93	1087.65
711.27	1080.16
711.60	1083.90
711.94	1082.03
712.27	1068.22
712.61	1073.60
712.94	1073.37
713.28	1074.07
713.61	1075.48
713.95	1087.18
714.28	1084.84
714.62	1084.37
714.95	1078.05
715.29	1081.56
715.62	1077.11
715.96	1079.69
716.29	1078.99
716.63	1081.09
716.96	1069.62
717.29	1071.97
717.63	1072.43
717.96	1069.86
718.30	1074.07
718.63	1074.31
718.97	1080.16
719.30	1068.45
719.63	1075.48
719.97	1075.24
720.30	1081.80
720.64	1070.80
720.97	1079.22
721.30	1073.37
721.64	1070.56
721.97	1074.31
722.31	1080.63
722.64	1075.01
722.97	1075.94
723.31	1079.69
723.64	1080.16
723.97	1073.37
724.31	1072.67
724.64	1079.69
724.98	1073.14
725.31	1080.86
725.64	1089.99
725.98	1089.29
726.31	1089.75
726.64	1086.48
726.97	1076.88
727.31	1075.01
727.64	1078.75
727.97	1075.24
728.31	1072.43
728.64	1068.22
728.97	1064.71
729.31	1061.43
729.64	1056.75
729.97	1067.05
730.30	1068.69
730.64	1070.09
730.97	1078.75
731.30	1081.09
731.63	1083.43
731.97	1089.29
732.30	1089.52
732.63	1086.01
732.96	1089.75
733.30	1089.99
733.63	1086.24
733.96	1085.77
734.29	1086.71
734.63	1095.14
734.96	1086.24
735.29	1090.46
735.62	1097.48
735.95	1097.71
736.29	1093.03
736.62	1102.16
736.95	1106.84
737.28	1102.16
737.61	1100.99
737.94	1095.14
738.28	1097.71
738.61	1089.29
738.94	1084.60
739.27	1093.73
739.60	1098.88
739.93	1100.99
740.27	1097.95
740.60	1107.54
740.93	1093.26
741.26	1087.18
741.59	1083.20
741.92	1094.90
742.25	1088.82
742.58	1095.84
742.91	1100.75
743.25	1093.03
743.58	1086.71
743.91	1089.52
744.24	1086.48
744.57	1078.52
744.90	1081.09
745.23	1083.20
745.56	1074.31
745.89	1075.01
746.22	1074.54
746.55	1078.52
746.88	1076.18
747.21	1083.67
747.54	1081.09
747.87	1086.71
748.20	1081.80
748.53	1079.46
748.87	1075.94
749.20	1085.77
749.53	1085.31
749.86	1083.67
750.19	1087.18
750.52	1093.26
750.85	1092.33
751.18	1095.14
751.51	1095.14
751.84	1096.78
752.16	1094.67
752.49	1091.63
752.82	1086.48
753.15	1084.14
753.48	1073.84
753.81	1071.26
754.14	1074.07
754.47	1073.37
754.80	1067.52
755.13	1084.60
755.46	1089.99
755.79	1088.12
756.12	1093.26
756.45	1109.18
756.78	1094.90
757.11	1085.31
757.43	1078.05
757.76	1075.24
758.09	1064.24
758.42	1071.03
758.75	1072.67
759.08	1070.09
759.41	1070.09
759.74	1069.62
760.07	1065.41
760.39	1067.52
760.72	1068.92
761.05	1071.73
761.38	1082.26
761.71	1085.54
762.04	1088.12
762.36	1090.46
762.69	1085.07
763.02	1082.97
763.35	1091.63
763.68	1095.60
764.01	1096.78
764.33	1093.97
764.66	1093.26
764.99	1078.75
765.32	1071.50
765.65	1070.80
765.97	1073.84
766.30	1075.71
766.63	1074.07
766.96	1077.58
767.28	1071.50
767.61	1065.18
767.94	1058.86
768.27	1064.71
768.59	1054.88
768.92	1052.54
769.25	1054.88
769.58	1050.20
769.90	1048.56
770.23	1056.05
770.56	1071.50
770.89	1077.58
771.21	1083.43
771.54	1085.54
771.87	1080.16
772.19	1078.75
772.52	1074.77
772.85	1070.80
773.17	1065.18
773.50	1067.28
773.83	1069.16
774.15	1071.03
774.48	1076.18
774.81	1083.20
775.13	1092.56
775.46	1093.50
775.79	1099.58
776.11	1109.18
776.44	1100.75
776.77	1086.94
777.09	1072.67
777.42	1058.86
777.74	1044.82
778.07	1055.35
778.40	1064.24
778.72	1071.73
779.05	1078.28
779.37	1075.48
779.70	1070.80
780.03	1069.86
780.35	1068.92
780.68	1071.73
781.00	1082.97
781.33	1092.09
781.65	1091.63
781.98	1096.07
782.31	1088.12
782.63	1089.75
782.96	1080.16
783.28	1085.07
783.61	1086.71
783.93	1097.01
784.26	1097.01
784.58	1095.14
784.91	1091.16
785.23	1079.92
785.56	1081.09
785.88	1070.33
786.21	1068.92
786.53	1061.90
786.86	1069.39
787.18	1069.86
787.51	1073.60
787.83	1077.82
788.16	1080.16
788.48	1075.01
788.81	1070.56
789.13	1075.01
789.46	1077.58
789.78	1077.11
790.10	1075.01
790.43	1074.31
790.75	1073.60
791.08	1066.35
791.40	1068.92
791.73	1080.39
792.05	1075.01
792.37	1069.16
792.70	1080.86
793.02	1079.69
793.35	1072.20
793.67	1069.62
793.99	1080.63
794.32	1075.94
794.64	1086.71
794.96	1084.37
795.29	1093.97
795.61	1087.88
795.93	1071.97
796.26	1068.45
796.58	1078.28
796.91	1071.50
797.23	1065.41
797.55	1088.82
797.87	1082.26
798.20	1073.14
798.52	1082.26
798.84	1087.65
799.17	1073.37
799.49	1078.05
799.81	1078.75
800.14	1072.20
800.46	1071.97
800.78	1076.41
801.10	1076.65
801.43	1081.56
801.75	1086.94
802.07	1071.50
802.40	1071.50
802.72	1076.88
803.04	1074.54
803.36	1072.67
803.69	1086.48
804.01	1087.41
804.33	1083.90
804.65	1086.24
804.97	1084.84
805.30	1090.22
805.62	1082.73
805.94	1085.54
806.26	1079.46
806.58	1084.14
806.91	1075.48
807.23	1081.56
807.55	1075.48
807.87	1082.50
808.19	1074.07
808.52	1085.77
808.84	1085.54
809.16	1093.97
809.48	1089.75
809.80	1089.29
810.12	1082.26
810.44	1085.07
810.77	1074.77
811.09	1072.20
811.41	1077.35
811.73	1076.65
812.05	1069.16
812.37	1075.01
812.69	1071.50
813.01	1074.54
813.33	1071.03
813.66	1073.84
813.98	1066.82
814.30	1070.56
814.62	1067.28
814.94	1073.14
815.26	1062.14
815.58	1066.58
815.90	1067.28
816.22	1070.80
816.54	1068.92
816.86	1075.71
817.18	1077.82
817.50	1080.39
817.82	1079.92
818.14	1074.07
818.46	1073.60
818.78	1056.99
819.10	1052.30
819.42	1052.54
819.74	1056.52
820.06	1059.56
820.38	1070.09
820.70	1075.01
821.02	1077.82
821.34	1088.82
821.66	1093.26
821.98	1100.99
822.30	1101.46
822.62	1089.05
822.94	1079.22
823.26	1081.56
823.58	1077.58
823.90	1088.12
824.22	1097.71
824.54	1091.16
824.86	1084.14
825.18	1084.60
825.50	1084.37
825.81	1071.97
826.13	1071.50
826.45	1070.33
826.77	1070.80
827.09	1062.14
827.41	1065.65
827.73	1070.33
828.05	1081.33
828.36	1082.50
828.68	1078.05
829.00	1086.24
829.32	1091.39
829.64	1083.67
829.96	1078.52
830.28	1079.69
830.59	1075.24
830.91	1076.41
831.23	1073.14
831.55	1073.84
831.87	1069.62
832.19	1074.77
832.50	1076.41
832.82	1079.92
833.14	1081.80
833.46	1086.24
833.78	1086.24
834.09	1081.33
834.41	1074.77
834.73	1067.99
835.05	1068.22
835.36	1052.54
835.68	1055.82
836.00	1061.67
836.32	1063.54
836.63	1066.58
836.95	1075.01
837.27	1073.60
837.59	1068.92
837.90	1068.92
838.22	1066.58
838.54	1061.90
838.85	1060.73
839.17	1069.86
839.49	1072.67
839.80	1073.14
840.12	1081.09
840.44	1085.07
840.76	1083.20
841.07	1082.73
841.39	1077.11
841.71	1078.75
842.02	1070.56
842.34	1070.80
842.65	1070.33
842.97	1073.84
843.29	1070.09
843.60	1079.46
843.92	1078.75
844.24	1081.33
844.55	1086.94
844.87	1093.50
845.18	1079.69
845.50	1081.80
845.82	1082.73
846.13	1074.54
846.45	1075.24
846.76	1083.90
847.08	1080.86
847.40	1078.99
847.71	1086.01
848.03	1073.37
848.34	1070.80
848.66	1065.41
848.97	1063.77
849.29	1062.60
849.60	1075.71
849.92	1072.20
850.24	1080.63
850.55	1086.48
850.87	1085.07
851.18	1079.22
851.50	1081.33
851.81	1074.31
852.13	1065.41
852.44	1065.65
852.76	1069.16
853.07	1061.43
853.39	1067.28
853.70	1071.73
854.01	1068.69
854.33	1073.14
854.64	1075.01
854.96	1066.35
855.27	1075.01
855.59	1067.75
855.90	1057.69
856.22	1073.37
856.53	1085.07
856.84	1076.18
857.16	1083.90
857.47	1086.01
857.79	1090.46
858.10	1084.60
858.41	1082.97
858.73	1088.35
859.04	1092.09
859.36	1082.73
859.67	1078.28
859.98	1084.60
860.30	1077.35
860.61	1067.05
860.92	1062.37
861.24	1070.09
861.55	1066.11
861.87	1072.43
862.18	1084.14
862.49	1091.16
862.81	1088.58
863.12	1094.67
863.43	1088.82
863.74	1081.56
864.06	1074.54
864.37	1067.28
864.68	1064.71
865.00	1067.52
865.31	1079.46
865.62	1083.90
865.94	1097.48
866.25	1093.26
866.56	1089.99
866.87	1076.41
867.19	1075.48
867.50	1067.52
867.81	1072.43
868.12	1083.43
868.44	1090.46
868.75	1086.48
869.06	1085.07
869.37	1075.71
869.68	1064.24
870.00	1063.54
870.31	1065.88
870.62	1074.54
870.93	1079.69
871.24	1082.97
871.56	1088.82
871.87	1093.50
872.18	1080.86
872.49	1071.73
872.80	1067.05
873.12	1055.35
873.43	1051.84
873.74	1052.77
874.05	1063.31
874.36	1067.99
874.67	1076.41
874.98	1075.48
875.29	1083.90
875.61	1074.54
875.92	1072.43
876.23	1069.39
876.54	1066.58
876.85	1062.37
877.16	1070.09
877.47	1072.90
877.78	1071.03
878.09	1076.41
878.40	1067.99
878.72	1061.20
879.03	1067.99
879.34	1061.90
879.65	1056.75
879.96	1066.82
880.27	1066.58
880.58	1056.75
880.89	1071.97
881.20	1075.94
881.51	1076.18
881.82	1087.41
882.13	1096.54
882.44	1088.58
882.75	1091.63
883.06	1093.73
883.37	1090.69
883.68	1092.33
883.99	1084.60
884.30	1081.80
884.61	1091.86
884.92	1085.07
885.23	1076.18
885.54	1085.31
885.85	1081.80
886.16	1074.77
886.47	1088.58
886.78	1088.12
887.08	1085.31
887.39	1091.39
887.70	1087.18
888.01	1076.18
888.32	1075.01
888.63	1070.09
888.94	1056.75
889.25	1052.77
889.56	1056.05
889.87	1052.30
890.17	1065.18
890.48	1065.18
890.79	1071.97
891.10	1064.71
891.41	1063.31
891.72	1054.88
892.03	1056.99
892.34	1050.90
892.64	1055.35
892.95	1067.75
893.26	1064.71
893.57	1072.20
893.88	1076.65
894.18	1075.71
894.49	1075.94
894.80	1084.60
895.11	1087.18
895.42	1091.39
895.72	1094.90
896.03	1095.84
896.34	1090.92
896.65	1087.41
896.96	1085.07
897.26	1083.67
897.57	1085.77
897.88	1086.24
898.19	1089.52
898.49	1088.12
898.80	1095.37
899.11	1091.63
899.41	1094.43
899.72	1089.52
900.03	1088.58
900.34	1076.41
900.64	1067.28
900.95	1056.75
901.26	1057.69
901.56	1052.54
901.87	1054.65
902.18	1051.37
902.48	1056.75
902.79	1060.73
903.10	1064.71
903.40	1065.18
903.71	1072.90
904.02	1067.75
904.32	1075.24
904.63	1085.07
904.94	1095.37
905.24	1105.20
905.55	1106.61
905.85	1095.84
906.16	1082.03
906.47	1082.03
906.77	1078.28
907.08	1092.33
907.38	1093.50
907.69	1103.09
908.00	1088.12
908.30	1079.46
908.61	1072.20
908.91	1068.45
909.22	1064.01
909.52	1072.43
909.83	1076.18
910.14	1072.20
910.44	1072.67
910.75	1076.18
911.05	1079.92
911.36	1078.99
911.66	1085.07
911.97	1091.86
912.27	1090.92
912.58	1090.22
912.88	1093.03
913.19	1089.75
913.49	1087.65
913.80	1082.26
914.10	1076.65
914.41	1072.90
914.71	1069.62
915.01	1060.03
915.32	1060.03
915.62	1065.65
915.93	1071.73
916.23	1078.05
916.54	1095.37
916.84	1093.97
917.15	1096.31
917.45	1082.73
917.75	1083.43
918.06	1079.69
918.36	1087.88
918.67	1080.63
918.97	1086.48
919.27	1094.43
919.58	1082.50
919.88	1079.69
920.18	1079.22
920.49	1075.94
920.79	1058.86
921.10	1061.90
921.40	1064.01
921.70	1073.14
922.01	1079.69
922.31	1084.14
922.61	1091.16
922.92	1092.33
923.22	1086.01
923.52	1078.75
923.82	1086.01
924.13	1082.73
924.43	1078.75
924.73	1072.67
925.04	1076.18
925.34	1070.80
925.64	1062.14
925.94	1064.71
926.25	1071.97
926.55	1086.48
926.85	1086.71
927.15	1095.60
927.46	1094.90
927.76	1089.29
928.06	1077.11
928.36	1072.43
928.67	1069.62
928.97	1065.41
929.27	1063.54
929.57	1069.62
929.87	1075.48
930.18	1077.35
930.48	1079.69
930.78	1077.58
931.08	1082.97
931.38	1081.56
931.69	1079.22
931.99	1087.41
932.29	1102.16
932.59	1090.69
932.89	1094.67
933.19	1097.01
933.49	1078.52
933.80	1071.97
934.10	1066.11
934.40	1059.33
934.70	1056.75
935.00	1062.37
935.30	1061.20
935.60	1068.22
935.90	1060.96
936.20	1060.50
936.50	1053.24
936.81	1064.71
937.11	1065.88
937.41	1070.33
937.71	1080.39
938.01	1084.37
938.31	1076.65
938.61	1072.67
938.91	1074.31
939.21	1060.26
939.51	1064.24
939.81	1064.24
940.11	1060.96
940.41	1067.99
940.71	1072.43
941.01	1066.82
941.31	1071.03
941.61	1073.60
941.91	1062.14
942.21	1062.60
942.51	1081.80
942.81	1075.94
943.11	1075.71
943.41	1093.26
943.71	1098.88
944.01	1086.01
944.31	1084.37
944.61	1095.14
944.90	1095.37
945.20	1089.29
945.50	1084.84
945.80	1095.60
946.10	1090.46
946.40	1078.99
946.70	1094.67
947.00	1106.37
947.30	1098.65
947.60	1100.52
947.89	1104.97
948.19	1086.48
948.49	1084.84
948.79	1080.63
949.09	1071.73
949.39	1076.88
949.69	1093.50
949.98	1086.48
950.28	1082.73
950.58	1090.92
950.88	1088.82
951.18	1075.71
951.48	1080.63
951.77	1086.48
952.07	1077.58
952.37	1074.31
952.67	1076.88
952.97	1075.24
953.26	1070.09
953.56	1082.03
953.86	1072.90
954.16	1073.14
954.45	1078.99
954.75	1084.84
955.05	1083.90
955.35	1097.48
955.64	1102.63
955.94	1094.67
956.24	1091.63
956.54	1087.41
956.83	1080.39
957.13	1086.48
957.43	1093.97
957.72	1084.84
958.02	1086.24
958.32	1086.71
958.61	1081.56
958.91	1078.99
959.21	1093.26
959.50	1089.05
959.80	1085.77
960.10	1071.97
960.39	1069.86
960.69	1071.26
960.99	1075.71
961.28	1078.99
961.58	1075.24
961.87	1070.33
962.17	1066.82
962.47	1069.86
962.76	1068.45
963.06	1076.41
963.36	1084.37
963.65	1091.39
963.95	1084.84
964.24	1090.69
964.54	1097.48
964.83	1083.90
965.13	1073.14
965.42	1078.05
965.72	1068.22
966.02	1061.67
966.31	1067.52
966.61	1066.58
966.90	1071.26
967.20	1073.84
967.49	1073.84
967.79	1086.24
968.08	1095.60
968.38	1085.77
968.67	1085.07
968.97	1083.67
969.26	1078.52
969.56	1075.94
969.85	1086.01
970.15	1090.22
970.44	1089.52
970.74	1094.20
971.03	1091.16
971.32	1081.56
971.62	1093.03
971.91	1099.35
972.21	1092.56
972.50	1097.95
972.80	1102.39
973.09	1092.80
973.38	1090.46
973.68	1089.29
973.97	1081.09
974.27	1073.37
974.56	1064.24
974.85	1054.18
975.15	1056.99
975.44	1056.99
975.73	1051.84
976.03	1052.30
976.32	1060.96
976.61	1060.50
976.91	1072.90
977.20	1079.92
977.49	1086.48
977.79	1090.22
978.08	1084.37
978.37	1079.92
978.67	1085.07
978.96	1074.54
979.25	1068.69
979.55	1077.35
979.84	1072.20
980.13	1065.65
980.42	1072.90
980.72	1094.20
981.01	1095.60
981.30	1096.07
981.59	1094.20
981.89	1093.73
982.18	1083.67
982.47	1073.37
982.76	1079.69
983.06	1084.84
983.35	1086.24
983.64	1080.39
983.93	1081.09
984.22	1084.14
984.52	1078.28
984.81	1078.75
985.10	1073.14
985.39	1078.05
985.68	1066.11
985.97	1076.65
986.27	1078.99
986.56	1084.37
986.85	1079.92
987.14	1086.01
987.43	1086.71
987.72	1091.63
988.01	1090.46
988.31	1085.54
988.60	1091.86
988.89	1081.33
989.18	1078.75
989.47	1085.77
989.76	1082.26
990.05	1068.69
990.34	1070.80
990.63	1065.41
990.92	1063.54
991.21	1066.82
991.51	1070.80
991.80	1069.86
992.09	1078.99
992.38	1073.37
992.67	1073.37
992.96	1077.35
993.25	1082.26
993.54	1072.43
993.83	1078.75
994.12	1088.35
994.41	1079.22
994.70	1085.31
994.99	1090.69
995.28	1077.82
995.57	1073.14
995.86	1065.18
996.15	1049.03
996.44	1051.13
996.73	1057.22
997.02	1062.84
997.31	1067.75
997.59	1070.56
997.88	1068.45
998.17	1061.43
998.46	1060.26
998.75	1071.97
999.04	1076.18
999.33	1063.07
999.62	1072.67
999.91	1069.16
1000.20	1073.37
1000.49	1087.65
1000.77	1098.88
1001.06	1091.63
1001.35	1096.78
1001.64	1087.41
1001.93	1070.09
1002.22	1068.92
1002.51	1066.11
1002.79	1052.54
1003.08	1047.62
1003.37	1059.79
1003.66	1052.54
1003.95	1056.75
1004.23	1069.16
1004.52	1065.65
1004.81	1062.14
1005.10	1070.80
1005.39	1076.41
1005.67	1075.48
1005.96	1072.90
1006.25	1075.71
1006.54	1067.28
1006.83	1069.39
1007.11	1071.50
1007.40	1083.20
1007.69	1081.56
1007.97	1080.39
1008.26	1076.18
1008.55	1085.31
1008.84	1089.75
1009.12	1093.73
1009.41	1101.46
1009.70	1111.29
1009.98	1100.29
1010.27	1099.35
1010.56	1088.82
1010.85	1086.24
1011.13	1074.54
1011.42	1065.65
1011.71	1063.07
1011.99	1064.01
1012.28	1068.45
1012.56	1070.56
1012.85	1072.43
1013.14	1063.77
1013.42	1055.58
1013.71	1051.13
1014.00	1053.01
1014.28	1061.90
1014.57	1067.52
1014.85	1075.71
1015.14	1081.56
1015.43	1081.56
1015.71	1070.56
1016.00	1074.77
1016.28	1078.05
1016.57	1089.99
1016.85	1078.28
1017.14	1080.86
1017.43	1082.73
1017.71	1086.71
1018.00	1070.80
1018.28	1078.52
1018.57	1085.77
1018.85	1077.82
1019.14	1070.80
1019.42	1069.62
1019.71	1076.41
1019.99	1079.92
1020.28	1085.54
1020.56	1090.92
1020.85	1096.31
1021.13	1097.95
1021.42	1089.29
1021.70	1095.84
1021.99	1094.43
1022.27	1085.77
1022.55	1095.37
1022.84	1048.56
>>>>>End Processed Spectral Data<<<<<
