SpectraSuite Data File
++++++++++++++++++++++++++++++++++++
Date: Mon Aug 26 10:25:56 PDT 2019
User: corrico
Dark Spectrum Present: No
Reference Spectrum Present: No
Number of Sampled Component Spectra: 1
Spectrometers: USB2+H06089
Integration Time (usec): 10000 (USB2+H06089)
Spectra Averaged: 2 (USB2+H06089)
Boxcar Smoothing: 2 (USB2+H06089)
Correct for Electrical Dark: No (USB2+H06089)
Strobe/Lamp Enabled: No (USB2+H06089)
Correct for Detector Non-linearity: No (USB2+H06089)
Correct for Stray Light: No (USB2+H06089)
Number of Pixels in Processed Spectrum: 2048
>>>>>Begin Processed Spectral Data<<<<<
339.70	1033.35
340.07	1033.35
340.45	1008.07
340.82	992.62
341.19	976.71
341.57	951.19
341.94	926.62
342.31	915.15
342.69	902.04
343.06	895.96
343.43	901.34
343.81	910.94
344.18	912.11
344.55	921.23
344.93	926.38
345.30	927.79
345.67	930.13
346.04	949.56
346.42	946.98
346.79	946.98
347.16	951.43
347.54	964.77
347.91	961.26
348.28	981.62
348.65	989.34
349.03	999.17
349.40	1001.98
349.77	1016.03
350.14	1022.35
350.52	1030.30
350.89	1040.37
351.26	1052.07
351.63	1059.56
352.01	1062.14
352.38	1075.01
352.75	1082.73
353.12	1079.22
353.50	1086.24
353.87	1086.71
354.24	1080.39
354.61	1075.01
354.98	1064.48
355.36	1053.94
355.73	1057.92
356.10	1062.14
356.47	1068.22
356.84	1082.26
357.22	1080.39
357.59	1078.28
357.96	1072.20
358.33	1075.24
358.70	1077.11
359.08	1078.75
359.45	1073.14
359.82	1076.41
360.19	1065.88
360.56	1068.45
360.94	1073.37
361.31	1082.73
361.68	1089.99
362.05	1087.88
362.42	1082.50
362.79	1082.50
363.16	1076.18
363.54	1072.20
363.91	1076.41
364.28	1065.88
364.65	1065.18
365.02	1062.60
365.39	1045.75
365.76	1045.28
366.14	1061.20
366.51	1067.28
366.88	1075.24
367.25	1084.14
367.62	1082.97
367.99	1082.73
368.36	1071.26
368.73	1063.77
369.10	1063.77
369.48	1052.77
369.85	1053.48
370.22	1050.90
370.59	1048.79
370.96	1050.90
371.33	1063.77
371.70	1050.90
372.07	1060.50
372.44	1067.52
372.81	1071.03
373.18	1065.18
373.55	1070.09
373.93	1068.92
374.30	1069.62
374.67	1070.33
375.04	1084.37
375.41	1081.80
375.78	1075.24
376.15	1069.86
376.52	1057.22
376.89	1048.33
377.26	1049.50
377.63	1055.58
378.00	1050.90
378.37	1067.28
378.74	1071.03
379.11	1070.33
379.48	1072.90
379.85	1076.41
380.22	1074.07
380.59	1066.35
380.96	1070.56
381.33	1063.77
381.70	1073.14
382.07	1077.58
382.44	1084.14
382.81	1083.20
383.18	1070.09
383.55	1067.05
383.92	1058.39
384.29	1053.48
384.66	1044.82
385.03	1056.75
385.40	1059.56
385.77	1058.39
386.14	1053.71
386.51	1060.50
386.88	1058.86
387.25	1045.75
387.62	1050.67
387.99	1054.88
388.36	1050.67
388.73	1063.77
389.10	1075.48
389.46	1074.31
389.83	1071.97
390.20	1070.33
390.57	1054.18
390.94	1051.84
391.31	1054.41
391.68	1056.75
392.05	1062.60
392.42	1071.73
392.79	1073.84
393.16	1068.45
393.53	1074.77
393.89	1082.73
394.26	1084.14
394.63	1085.31
395.00	1088.58
395.37	1084.60
395.74	1091.39
396.11	1083.90
396.48	1086.71
396.84	1077.11
397.21	1079.69
397.58	1063.07
397.95	1073.60
398.32	1069.16
398.69	1089.99
399.06	1096.54
399.42	1099.35
399.79	1093.73
400.16	1095.14
400.53	1075.71
400.90	1060.03
401.27	1051.84
401.64	1056.05
402.00	1053.01
402.37	1060.26
402.74	1062.37
403.11	1072.20
403.48	1065.18
403.84	1067.99
404.21	1065.18
404.58	1063.07
404.95	1058.62
405.32	1067.28
405.68	1067.99
406.05	1072.67
406.42	1078.75
406.79	1083.67
407.16	1085.54
407.52	1070.80
407.89	1065.88
408.26	1068.22
408.63	1071.03
408.99	1059.09
409.36	1071.03
409.73	1071.03
410.10	1060.96
410.47	1067.05
410.83	1070.09
411.20	1061.90
411.57	1073.84
411.94	1080.39
412.30	1074.77
412.67	1077.82
413.04	1086.48
413.40	1074.54
413.77	1076.41
414.14	1078.05
414.51	1081.09
414.87	1077.35
415.24	1081.09
415.61	1077.58
415.97	1068.92
416.34	1060.26
416.71	1065.18
417.08	1067.52
417.44	1081.56
417.81	1094.90
418.18	1103.80
418.54	1099.82
418.91	1098.18
419.28	1093.26
419.64	1085.07
420.01	1074.07
420.38	1065.65
420.74	1061.90
421.11	1057.22
421.48	1056.05
421.84	1064.01
422.21	1073.37
422.58	1073.84
422.94	1076.65
423.31	1082.73
423.68	1078.52
424.04	1086.94
424.41	1099.58
424.77	1105.90
425.14	1107.07
425.51	1110.82
425.87	1106.61
426.24	1093.73
426.61	1082.26
426.97	1074.77
427.34	1074.07
427.70	1067.99
428.07	1078.05
428.44	1066.82
428.80	1063.07
429.17	1065.18
429.53	1070.33
429.90	1075.48
430.27	1102.63
430.63	1102.86
431.00	1099.58
431.36	1100.99
431.73	1093.50
432.09	1081.56
432.46	1087.41
432.83	1095.14
433.19	1091.16
433.56	1087.65
433.92	1082.73
434.29	1083.67
434.65	1076.65
435.02	1072.43
435.38	1066.58
435.75	1065.41
436.11	1053.24
436.48	1060.73
436.84	1055.82
437.21	1056.05
437.57	1067.52
437.94	1076.65
438.30	1074.77
438.67	1072.43
439.03	1078.75
439.40	1070.09
439.76	1066.35
440.13	1071.03
440.49	1091.16
440.86	1088.35
441.22	1091.86
441.59	1095.60
441.95	1092.56
442.32	1087.18
442.68	1090.22
443.05	1093.50
443.41	1098.18
443.78	1095.37
444.14	1093.26
444.51	1089.29
444.87	1085.54
445.24	1086.24
445.60	1089.29
445.96	1083.20
446.33	1083.20
446.69	1087.18
447.06	1069.16
447.42	1056.75
447.79	1062.60
448.15	1065.65
448.51	1056.99
448.88	1068.69
449.24	1067.28
449.61	1071.26
449.97	1076.18
450.33	1074.54
450.70	1073.14
451.06	1086.01
451.43	1082.97
451.79	1075.71
452.15	1084.60
452.52	1084.14
452.88	1086.71
453.24	1078.99
453.61	1087.41
453.97	1089.05
454.34	1094.67
454.70	1088.82
455.06	1099.82
455.43	1092.80
455.79	1089.29
456.15	1083.90
456.52	1089.29
456.88	1083.20
457.24	1082.26
457.61	1081.56
457.97	1082.97
458.33	1079.69
458.70	1080.16
459.06	1079.69
459.42	1075.01
459.79	1071.26
460.15	1063.77
460.51	1062.14
460.88	1064.71
461.24	1062.14
461.60	1075.71
461.96	1075.48
462.33	1068.22
462.69	1066.35
463.05	1068.92
463.42	1066.11
463.78	1079.22
464.14	1093.26
464.50	1090.69
464.87	1093.50
465.23	1088.35
465.59	1081.80
465.95	1077.58
466.32	1080.16
466.68	1083.43
467.04	1084.14
467.40	1072.90
467.77	1074.07
468.13	1072.20
468.49	1067.52
468.85	1062.60
469.22	1064.71
469.58	1055.11
469.94	1057.69
470.30	1062.14
470.66	1062.84
471.03	1078.75
471.39	1089.05
471.75	1086.48
472.11	1086.48
472.47	1091.16
472.84	1087.41
473.20	1085.07
473.56	1089.75
473.92	1087.65
474.28	1079.92
474.65	1066.58
475.01	1065.18
475.37	1057.22
475.73	1056.99
476.09	1069.16
476.45	1078.05
476.81	1077.35
477.18	1087.41
477.54	1069.16
477.90	1058.86
478.26	1055.35
478.62	1061.67
478.98	1053.94
479.34	1071.73
479.71	1081.09
480.07	1078.99
480.43	1081.09
480.79	1088.82
481.15	1085.07
481.51	1075.24
481.87	1085.77
482.23	1084.84
482.59	1078.99
482.96	1077.58
483.32	1081.56
483.68	1079.22
484.04	1076.88
484.40	1083.43
484.76	1089.75
485.12	1092.56
485.48	1098.41
485.84	1102.39
486.20	1098.18
486.56	1092.33
486.92	1092.80
487.28	1083.67
487.64	1081.33
488.00	1081.33
488.37	1089.52
488.73	1086.01
489.09	1094.20
489.45	1097.95
489.81	1089.29
490.17	1082.50
490.53	1087.41
490.89	1079.69
491.25	1065.41
491.61	1078.52
491.97	1075.01
492.33	1064.24
492.69	1065.65
493.05	1066.35
493.41	1058.39
493.77	1061.67
494.13	1069.39
494.49	1064.94
494.85	1065.18
495.21	1067.28
495.57	1069.16
495.93	1063.77
496.29	1062.37
496.64	1060.26
497.00	1056.52
497.36	1060.96
497.72	1071.73
498.08	1076.41
498.44	1085.31
498.80	1085.54
499.16	1083.20
499.52	1068.92
499.88	1067.75
500.24	1062.37
500.60	1066.58
500.96	1067.99
501.32	1084.60
501.68	1089.99
502.03	1106.37
502.39	1106.37
502.75	1108.24
503.11	1100.75
503.47	1097.95
503.83	1078.05
504.19	1089.52
504.55	1087.41
504.91	1080.16
505.26	1076.88
505.62	1092.09
505.98	1095.14
506.34	1094.90
506.70	1102.63
507.06	1105.67
507.42	1094.90
507.78	1080.86
508.13	1087.88
508.49	1086.48
508.85	1085.54
509.21	1088.58
509.57	1094.67
509.93	1095.37
510.28	1089.75
510.64	1097.48
511.00	1102.39
511.36	1095.84
511.72	1088.12
512.07	1095.37
512.43	1089.99
512.79	1086.71
513.15	1089.52
513.51	1089.52
513.86	1089.52
514.22	1091.16
514.58	1086.01
514.94	1080.39
515.30	1082.03
515.65	1081.09
516.01	1084.84
516.37	1089.52
516.73	1084.37
517.08	1070.33
517.44	1072.67
517.80	1065.18
518.16	1054.88
518.51	1058.86
518.87	1080.16
519.23	1078.75
519.59	1079.92
519.94	1093.03
520.30	1102.86
520.66	1100.05
521.01	1102.63
521.37	1102.16
521.73	1103.56
522.09	1102.16
522.44	1101.46
522.80	1099.12
523.16	1101.22
523.51	1096.54
523.87	1092.33
524.23	1091.39
524.58	1098.65
524.94	1103.33
525.30	1102.39
525.65	1110.82
526.01	1107.78
526.37	1102.16
526.72	1100.29
527.08	1107.31
527.44	1097.01
527.79	1092.33
528.15	1087.65
528.51	1083.20
528.86	1074.07
529.22	1068.22
529.58	1083.43
529.93	1088.82
530.29	1093.97
530.65	1099.12
531.00	1117.61
531.36	1113.63
531.71	1114.10
532.07	1110.35
532.43	1103.56
532.78	1095.60
533.14	1082.26
533.49	1075.71
533.85	1078.28
534.21	1083.43
534.56	1083.90
534.92	1095.84
535.27	1104.50
535.63	1097.95
535.98	1099.58
536.34	1098.18
536.69	1092.33
537.05	1093.73
537.41	1100.05
537.76	1095.60
538.12	1088.82
538.47	1088.35
538.83	1087.65
539.18	1085.07
539.54	1083.67
539.89	1095.37
540.25	1098.65
540.60	1094.90
540.96	1094.67
541.31	1096.31
541.67	1095.37
542.02	1097.01
542.38	1104.97
542.73	1109.41
543.09	1116.44
543.44	1104.73
543.80	1102.86
544.15	1088.35
544.51	1090.69
544.86	1082.73
545.22	1093.26
545.57	1098.18
545.93	1101.92
546.28	1092.09
546.64	1084.60
546.99	1086.48
547.35	1084.60
547.70	1080.39
548.05	1095.14
548.41	1106.84
548.76	1098.18
549.12	1091.86
549.47	1094.20
549.83	1087.65
550.18	1087.65
550.53	1091.63
550.89	1094.67
551.24	1092.09
551.60	1084.37
551.95	1083.67
552.30	1083.90
552.66	1087.65
553.01	1084.14
553.37	1084.84
553.72	1095.14
554.07	1095.84
554.43	1090.69
554.78	1098.41
555.13	1100.75
555.49	1092.33
555.84	1094.90
556.19	1088.58
556.55	1092.33
556.90	1090.92
557.26	1095.84
557.61	1082.73
557.96	1081.56
558.32	1075.48
558.67	1082.50
559.02	1076.88
559.37	1082.26
559.73	1091.86
560.08	1096.78
560.43	1082.03
560.79	1086.48
561.14	1088.35
561.49	1096.07
561.85	1084.37
562.20	1093.26
562.55	1081.80
562.90	1078.75
563.26	1075.94
563.61	1087.88
563.96	1090.22
564.32	1095.14
564.67	1108.71
565.02	1090.22
565.37	1095.37
565.73	1083.67
566.08	1081.33
566.43	1065.88
566.78	1084.84
567.14	1070.33
567.49	1086.01
567.84	1086.48
568.19	1078.28
568.54	1071.73
568.90	1079.92
569.25	1070.80
569.60	1072.67
569.95	1084.60
570.31	1086.01
570.66	1084.14
571.01	1083.90
571.36	1089.29
571.71	1091.63
572.06	1093.26
572.42	1098.18
572.77	1096.31
573.12	1090.46
573.47	1091.63
573.82	1084.37
574.18	1081.56
574.53	1078.99
574.88	1084.37
575.23	1079.22
575.58	1087.41
575.93	1093.50
576.28	1100.29
576.64	1094.20
576.99	1096.07
577.34	1079.46
577.69	1073.60
578.04	1076.65
578.39	1074.77
578.74	1084.84
579.09	1092.80
579.44	1095.37
579.80	1098.88
580.15	1105.67
580.50	1097.48
580.85	1095.14
581.20	1097.95
581.55	1088.35
581.90	1085.31
582.25	1087.18
582.60	1105.44
582.95	1097.48
583.30	1090.92
583.65	1088.82
584.00	1088.82
584.35	1077.11
584.71	1079.22
585.06	1087.88
585.41	1084.37
585.76	1087.18
586.11	1089.75
586.46	1093.73
586.81	1090.92
587.16	1093.97
587.51	1086.94
587.86	1075.24
588.21	1060.50
588.56	1066.82
588.91	1068.22
589.26	1071.50
589.61	1079.46
589.96	1087.65
590.31	1085.31
590.66	1076.18
591.01	1074.54
591.36	1078.05
591.71	1081.33
592.06	1083.90
592.41	1092.33
592.76	1088.58
593.10	1082.97
593.45	1075.48
593.80	1075.94
594.15	1075.71
594.50	1081.56
594.85	1079.22
595.20	1076.88
595.55	1070.33
595.90	1071.26
596.25	1084.84
596.60	1087.88
596.95	1099.82
597.30	1101.92
597.64	1151.31
597.99	1142.65
598.34	1138.20
598.69	1138.90
599.04	1133.99
599.39	1090.22
599.74	1080.39
600.09	1084.14
600.44	1079.69
600.78	1093.26
601.13	1085.54
601.48	1094.67
601.83	1092.56
602.18	1089.52
602.53	1079.92
602.88	1077.11
603.22	1071.03
603.57	1069.62
603.92	1070.56
604.27	1067.99
604.62	1066.82
604.97	1063.77
605.31	1063.07
605.66	1057.92
606.01	1063.31
606.36	1072.90
606.71	1071.97
607.05	1085.77
607.40	1086.71
607.75	1085.77
608.10	1088.12
608.44	1094.20
608.79	1085.54
609.14	1094.43
609.49	1095.60
609.84	1089.75
610.18	1088.12
610.53	1089.99
610.88	1085.77
611.23	1083.67
611.57	1087.65
611.92	1083.67
612.27	1084.37
612.62	1085.54
612.96	1084.37
613.31	1082.50
613.66	1091.86
614.00	1088.35
614.35	1085.77
614.70	1089.99
615.05	1082.97
615.39	1075.71
615.74	1079.69
616.09	1084.14
616.43	1082.50
616.78	1088.35
617.13	1100.52
617.47	1095.14
617.82	1093.26
618.17	1093.26
618.51	1090.69
618.86	1075.94
619.21	1089.99
619.55	1085.31
619.90	1083.20
620.25	1088.82
620.59	1094.20
620.94	1086.94
621.29	1090.46
621.63	1094.43
621.98	1081.33
622.32	1078.99
622.67	1073.14
623.02	1069.16
623.36	1060.03
623.71	1061.90
624.05	1056.99
624.40	1061.90
624.75	1063.77
625.09	1064.71
625.44	1074.54
625.78	1083.67
626.13	1085.54
626.48	1089.29
626.82	1090.92
627.17	1087.18
627.51	1080.63
627.86	1075.48
628.20	1069.62
628.55	1068.92
628.89	1068.22
629.24	1073.60
629.58	1080.63
629.93	1094.90
630.28	1090.69
630.62	1084.14
630.97	1083.20
631.31	1072.20
631.66	1063.54
632.00	1074.31
632.35	1077.82
632.69	1082.26
633.04	1093.03
633.38	1097.48
633.73	1095.37
634.07	1101.46
634.42	1089.52
634.76	1084.84
635.11	1079.92
635.45	1079.46
635.79	1085.77
636.14	1097.01
636.48	1091.39
636.83	1082.73
637.17	1089.99
637.52	1086.24
637.86	1080.39
638.21	1084.84
638.55	1097.01
638.89	1087.18
639.24	1092.80
639.58	1103.56
639.93	1103.80
640.27	1094.90
640.61	1102.63
640.96	1092.56
641.30	1084.60
641.65	1083.90
641.99	1079.92
642.33	1077.58
642.68	1080.39
643.02	1083.90
643.37	1077.11
643.71	1080.86
644.05	1075.71
644.40	1068.45
644.74	1060.26
645.08	1061.43
645.43	1070.80
645.77	1076.41
646.11	1078.99
646.46	1088.58
646.80	1097.01
647.14	1090.22
647.49	1089.05
647.83	1089.29
648.17	1084.14
648.52	1073.60
648.86	1082.26
649.20	1085.54
649.55	1084.14
649.89	1081.09
650.23	1091.16
650.57	1081.56
650.92	1071.03
651.26	1076.18
651.60	1083.67
651.95	1079.69
652.29	1079.46
652.63	1081.80
652.97	1074.54
653.32	1072.20
653.66	1070.56
654.00	1074.54
654.34	1077.11
654.69	1077.82
655.03	1068.22
655.37	1072.20
655.71	1072.67
656.05	1072.43
656.40	1084.14
656.74	1096.31
657.08	1095.60
657.42	1096.31
657.76	1101.92
658.11	1098.65
658.45	1084.14
658.79	1081.33
659.13	1076.65
659.47	1074.07
659.82	1074.77
660.16	1089.52
660.50	1087.41
660.84	1093.97
661.18	1094.90
661.52	1095.60
661.87	1090.22
662.21	1089.52
662.55	1081.80
662.89	1079.22
663.23	1069.62
663.57	1066.82
663.91	1075.01
664.25	1079.22
664.60	1072.20
664.94	1084.60
665.28	1082.97
665.62	1079.69
665.96	1083.20
666.30	1087.18
666.64	1078.05
666.98	1085.07
667.32	1090.46
667.66	1085.31
668.01	1091.63
668.35	1098.41
668.69	1092.56
669.03	1091.63
669.37	1091.86
669.71	1084.37
670.05	1079.69
670.39	1074.77
670.73	1077.11
671.07	1070.56
671.41	1078.28
671.75	1079.69
672.09	1081.80
672.43	1069.86
672.77	1079.92
673.11	1069.16
673.45	1064.01
673.79	1073.37
674.13	1080.16
674.47	1079.46
674.81	1092.33
675.15	1103.09
675.49	1104.26
675.83	1097.48
676.17	1087.18
676.51	1074.77
676.85	1071.03
677.19	1071.50
677.53	1077.82
677.87	1082.50
678.21	1078.75
678.55	1083.43
678.89	1083.90
679.23	1086.71
679.57	1084.37
679.90	1094.67
680.24	1084.60
680.58	1077.58
680.92	1076.88
681.26	1081.09
681.60	1076.65
681.94	1082.97
682.28	1089.05
682.62	1087.18
682.96	1095.37
683.29	1092.33
683.63	1091.16
683.97	1091.86
684.31	1095.14
684.65	1088.12
684.99	1093.97
685.33	1093.50
685.67	1084.14
686.00	1080.86
686.34	1090.92
686.68	1080.39
687.02	1083.43
687.36	1081.33
687.70	1084.60
688.03	1071.26
688.37	1075.71
688.71	1064.71
689.05	1069.86
689.39	1066.35
689.72	1069.86
690.06	1071.97
690.40	1078.75
690.74	1090.69
691.08	1086.24
691.41	1073.84
691.75	1075.94
692.09	1069.86
692.43	1050.67
692.76	1048.79
693.10	1051.13
693.44	1053.94
693.78	1055.35
694.11	1065.18
694.45	1078.99
694.79	1089.99
695.13	1092.09
695.46	1093.73
695.80	1087.88
696.14	1078.75
696.48	1082.26
696.81	1077.11
697.15	1085.31
697.49	1091.16
697.82	1082.97
698.16	1075.24
698.50	1084.14
698.83	1084.14
699.17	1077.58
699.51	1083.90
699.84	1091.39
700.18	1081.80
700.52	1073.84
700.85	1078.99
701.19	1079.69
701.53	1074.31
701.86	1080.16
702.20	1078.75
702.54	1078.52
702.87	1085.31
703.21	1085.77
703.55	1081.09
703.88	1091.16
704.22	1091.86
704.55	1074.54
704.89	1078.28
705.23	1078.99
705.56	1067.52
705.90	1065.41
706.23	1077.58
706.57	1070.33
706.91	1071.50
707.24	1077.35
707.58	1076.18
707.91	1077.11
708.25	1081.09
708.58	1080.16
708.92	1077.11
709.26	1078.05
709.59	1070.09
709.93	1064.94
710.26	1061.43
710.60	1064.24
710.93	1069.16
711.27	1077.11
711.60	1086.48
711.94	1081.33
712.27	1084.37
712.61	1075.48
712.94	1071.97
713.28	1068.69
713.61	1086.71
713.95	1081.09
714.28	1081.09
714.62	1087.41
714.95	1078.75
715.29	1065.88
715.62	1070.56
715.96	1077.58
716.29	1060.73
716.63	1064.94
716.96	1074.77
717.29	1076.41
717.63	1071.26
717.96	1084.60
718.30	1081.33
718.63	1067.75
718.97	1060.50
719.30	1050.90
719.63	1051.37
719.97	1056.28
720.30	1061.20
720.64	1062.37
720.97	1076.18
721.30	1069.62
721.64	1074.77
721.97	1075.71
722.31	1073.37
722.64	1072.67
722.97	1080.39
723.31	1079.92
723.64	1083.43
723.97	1088.58
724.31	1093.03
724.64	1087.18
724.98	1086.71
725.31	1077.82
725.64	1074.07
725.98	1064.01
726.31	1066.58
726.64	1062.37
726.97	1074.07
727.31	1060.96
727.64	1071.03
727.97	1067.28
728.31	1073.37
728.64	1075.94
728.97	1091.16
729.31	1091.39
729.64	1107.31
729.97	1112.69
730.30	1100.99
730.64	1100.05
730.97	1098.88
731.30	1087.65
731.63	1090.22
731.97	1101.46
732.30	1092.56
732.63	1096.07
732.96	1093.26
733.30	1078.75
733.63	1078.28
733.96	1090.46
734.29	1075.71
734.63	1075.48
734.96	1081.09
735.29	1082.50
735.62	1083.43
735.95	1091.16
736.29	1090.69
736.62	1083.90
736.95	1073.60
737.28	1068.69
737.61	1060.26
737.94	1062.60
738.28	1063.31
738.61	1067.28
738.94	1061.67
739.27	1073.84
739.60	1079.92
739.93	1082.97
740.27	1085.77
740.60	1094.67
740.93	1078.99
741.26	1078.28
741.59	1077.82
741.92	1079.69
742.25	1074.77
742.58	1090.69
742.91	1089.99
743.25	1092.09
743.58	1087.41
743.91	1089.99
744.24	1077.35
744.57	1075.24
744.90	1075.01
745.23	1060.50
745.56	1054.41
745.89	1057.69
746.22	1057.92
746.55	1056.05
746.88	1064.94
747.21	1070.33
747.54	1076.88
747.87	1079.92
748.20	1077.82
748.53	1075.71
748.87	1076.41
749.20	1066.35
749.53	1065.41
749.86	1063.77
750.19	1073.14
750.52	1073.37
750.85	1076.88
751.18	1071.26
751.51	1078.05
751.84	1090.22
752.16	1090.46
752.49	1086.71
752.82	1079.22
753.15	1077.35
753.48	1067.52
753.81	1069.86
754.14	1080.63
754.47	1093.03
754.80	1096.54
755.13	1100.52
755.46	1093.03
755.79	1084.60
756.12	1079.22
756.45	1067.99
756.78	1060.50
757.11	1067.75
757.43	1069.62
757.76	1069.39
758.09	1075.71
758.42	1066.58
758.75	1057.45
759.08	1059.33
759.41	1056.52
759.74	1055.35
760.07	1065.88
760.39	1077.35
760.72	1079.69
761.05	1080.39
761.38	1080.39
761.71	1076.88
762.04	1072.20
762.36	1071.73
762.69	1080.63
763.02	1072.90
763.35	1070.09
763.68	1077.58
764.01	1081.09
764.33	1075.24
764.66	1093.26
764.99	1093.50
765.32	1081.80
765.65	1078.05
765.97	1074.54
766.30	1057.22
766.63	1062.37
766.96	1062.84
767.28	1065.41
767.61	1075.94
767.94	1082.26
768.27	1083.90
768.59	1093.73
768.92	1092.56
769.25	1094.43
769.58	1083.43
769.90	1077.35
770.23	1068.69
770.56	1055.35
770.89	1049.26
771.21	1062.84
771.54	1060.96
771.87	1071.26
772.19	1098.88
772.52	1102.39
772.85	1107.54
773.17	1109.88
773.50	1099.82
773.83	1085.07
774.15	1074.31
774.48	1073.84
774.81	1084.14
775.13	1089.75
775.46	1091.39
775.79	1097.24
776.11	1094.43
776.44	1080.39
776.77	1066.58
777.09	1065.88
777.42	1057.22
777.74	1043.18
778.07	1047.16
778.40	1062.60
778.72	1061.90
779.05	1072.90
779.37	1077.58
779.70	1078.28
780.03	1067.75
780.35	1067.99
780.68	1060.50
781.00	1069.16
781.33	1067.99
781.65	1070.33
781.98	1070.09
782.31	1079.22
782.63	1077.58
782.96	1086.94
783.28	1092.09
783.61	1092.09
783.93	1087.41
784.26	1088.35
784.58	1079.46
784.91	1085.77
785.23	1087.41
785.56	1087.88
785.88	1087.41
786.21	1089.05
786.53	1080.16
786.86	1082.50
787.18	1086.94
787.51	1091.39
787.83	1085.54
788.16	1081.33
788.48	1077.82
788.81	1078.05
789.13	1071.97
789.46	1082.03
789.78	1092.33
790.10	1096.07
790.43	1086.01
790.75	1084.14
791.08	1073.84
791.40	1074.54
791.73	1071.03
792.05	1070.80
792.37	1067.52
792.70	1070.33
793.02	1065.65
793.35	1057.22
793.67	1058.39
793.99	1075.48
794.32	1084.37
794.64	1092.80
794.96	1101.22
795.29	1106.61
795.61	1100.29
795.93	1095.14
796.26	1088.82
796.58	1091.39
796.91	1080.86
797.23	1087.41
797.55	1090.46
797.87	1095.60
798.20	1097.24
798.52	1103.09
798.84	1092.56
799.17	1087.88
799.49	1084.84
799.81	1073.37
800.14	1077.82
800.46	1083.90
800.78	1093.26
801.10	1095.60
801.43	1099.82
801.75	1106.61
802.07	1106.61
802.40	1095.84
802.72	1089.99
803.04	1096.54
803.36	1085.07
803.69	1078.05
804.01	1081.09
804.33	1076.88
804.65	1073.37
804.97	1082.50
805.30	1082.73
805.62	1086.24
805.94	1085.31
806.26	1086.24
806.58	1078.52
806.91	1080.86
807.23	1074.77
807.55	1075.94
807.87	1060.96
808.19	1062.84
808.52	1051.37
808.84	1048.56
809.16	1049.26
809.48	1060.26
809.80	1065.65
810.12	1075.71
810.44	1083.90
810.77	1088.82
811.09	1090.22
811.41	1086.48
811.73	1090.69
812.05	1085.31
812.37	1082.73
812.69	1075.01
813.01	1075.01
813.33	1067.28
813.66	1058.16
813.98	1055.58
814.30	1064.24
814.62	1064.24
814.94	1058.16
815.26	1080.39
815.58	1081.56
815.90	1090.22
816.22	1091.16
816.54	1101.69
816.86	1101.69
817.18	1096.31
817.50	1093.97
817.82	1096.31
818.14	1091.63
818.46	1084.60
818.78	1083.43
819.10	1075.24
819.42	1075.48
819.74	1087.88
820.06	1091.63
820.38	1100.29
820.70	1105.67
821.02	1103.80
821.34	1097.95
821.66	1084.37
821.98	1077.35
822.30	1072.20
822.62	1075.48
822.94	1073.14
823.26	1078.28
823.58	1083.20
823.90	1076.65
824.22	1088.58
824.54	1085.54
824.86	1076.88
825.18	1075.01
825.50	1082.03
825.81	1055.11
826.13	1054.18
826.45	1061.67
826.77	1065.41
827.09	1075.01
827.41	1083.90
827.73	1093.50
828.05	1091.63
828.36	1094.90
828.68	1078.05
829.00	1083.20
829.32	1072.90
829.64	1082.03
829.96	1074.77
830.28	1080.39
830.59	1086.01
830.91	1082.26
831.23	1078.75
831.55	1083.20
831.87	1087.88
832.19	1084.84
832.50	1098.88
832.82	1098.18
833.14	1108.71
833.46	1104.97
833.78	1097.48
834.09	1085.54
834.41	1078.52
834.73	1054.65
835.05	1044.82
835.36	1038.96
835.68	1044.11
836.00	1051.13
836.32	1059.79
836.63	1069.62
836.95	1074.77
837.27	1082.03
837.59	1079.22
837.90	1075.24
838.22	1068.45
838.54	1068.45
838.85	1066.11
839.17	1060.73
839.49	1064.71
839.80	1081.80
840.12	1089.05
840.44	1092.33
840.76	1113.63
841.07	1114.80
841.39	1104.50
841.71	1104.26
842.02	1085.31
842.34	1072.90
842.65	1073.37
842.97	1075.94
843.29	1073.84
843.60	1090.92
843.92	1096.54
844.24	1096.07
844.55	1097.24
844.87	1097.95
845.18	1083.20
845.50	1075.94
845.82	1071.73
846.13	1071.26
846.45	1066.11
846.76	1075.48
847.08	1075.48
847.40	1084.60
847.71	1086.71
848.03	1092.09
848.34	1094.20
848.66	1090.69
848.97	1083.90
849.29	1080.63
849.60	1075.24
849.92	1078.05
850.24	1080.39
850.55	1079.22
850.87	1080.63
851.18	1082.73
851.50	1078.99
851.81	1079.69
852.13	1080.16
852.44	1082.26
852.76	1076.18
853.07	1078.52
853.39	1075.94
853.70	1084.37
854.01	1072.67
854.33	1070.56
854.64	1070.56
854.96	1075.24
855.27	1070.56
855.59	1076.41
855.90	1080.86
856.22	1077.35
856.53	1074.07
856.84	1081.80
857.16	1084.60
857.47	1086.01
857.79	1085.77
858.10	1089.99
858.41	1079.69
858.73	1075.94
859.04	1082.26
859.36	1082.73
859.67	1076.41
859.98	1083.43
860.30	1089.99
860.61	1078.52
860.92	1075.24
861.24	1076.65
861.55	1075.71
861.87	1072.20
862.18	1081.09
862.49	1085.54
862.81	1082.50
863.12	1085.07
863.43	1086.01
863.74	1075.01
864.06	1079.92
864.37	1079.46
864.68	1075.48
865.00	1078.99
865.31	1092.33
865.62	1086.94
865.94	1091.86
866.25	1094.20
866.56	1093.03
866.87	1085.31
867.19	1082.03
867.50	1080.63
867.81	1067.99
868.12	1064.48
868.44	1067.99
868.75	1075.24
869.06	1089.05
869.37	1092.33
869.68	1090.46
870.00	1100.05
870.31	1087.41
870.62	1071.26
870.93	1075.01
871.24	1075.48
871.56	1055.58
871.87	1069.16
872.18	1072.20
872.49	1069.16
872.80	1071.26
873.12	1082.03
873.43	1075.24
873.74	1073.14
874.05	1078.05
874.36	1074.07
874.67	1069.86
874.98	1077.58
875.29	1098.65
875.61	1101.69
875.92	1103.80
876.23	1104.03
876.54	1097.71
876.85	1079.69
877.16	1078.05
877.47	1078.05
877.78	1084.14
878.09	1081.80
878.40	1088.35
878.72	1086.24
879.03	1087.88
879.34	1082.26
879.65	1086.48
879.96	1080.86
880.27	1075.48
880.58	1074.07
880.89	1077.82
881.20	1069.39
881.51	1066.35
881.82	1074.07
882.13	1083.43
882.44	1080.39
882.75	1081.33
883.06	1082.03
883.37	1091.86
883.68	1085.31
883.99	1087.65
884.30	1091.16
884.61	1092.09
884.92	1081.33
885.23	1080.39
885.54	1080.39
885.85	1080.39
886.16	1072.43
886.47	1071.50
886.78	1060.50
887.08	1059.09
887.39	1066.58
887.70	1082.03
888.01	1084.37
888.32	1094.43
888.63	1099.58
888.94	1094.90
889.25	1089.99
889.56	1088.58
889.87	1088.82
890.17	1074.54
890.48	1078.52
890.79	1080.39
891.10	1078.99
891.41	1073.84
891.72	1084.37
892.03	1082.73
892.34	1082.03
892.64	1088.35
892.95	1094.20
893.26	1090.69
893.57	1092.09
893.88	1081.09
894.18	1078.05
894.49	1077.35
894.80	1071.73
895.11	1066.82
895.42	1077.82
895.72	1083.90
896.03	1092.80
896.34	1093.03
896.65	1093.26
896.96	1090.69
897.26	1088.82
897.57	1082.50
897.88	1095.84
898.19	1094.43
898.49	1098.65
898.80	1094.90
899.11	1090.22
899.41	1091.86
899.72	1086.94
900.03	1078.28
900.34	1070.56
900.64	1065.65
900.95	1051.37
901.26	1063.07
901.56	1066.58
901.87	1073.60
902.18	1085.31
902.48	1094.20
902.79	1083.67
903.10	1086.48
903.40	1079.92
903.71	1081.33
904.02	1080.86
904.32	1090.22
904.63	1094.67
904.94	1097.95
905.24	1096.54
905.55	1100.05
905.85	1094.43
906.16	1087.65
906.47	1091.16
906.77	1086.71
907.08	1078.75
907.38	1077.82
907.69	1082.50
908.00	1081.33
908.30	1082.73
908.61	1083.20
908.91	1084.14
909.22	1084.37
909.52	1078.99
909.83	1083.90
910.14	1084.37
910.44	1093.97
910.75	1083.67
911.05	1090.69
911.36	1088.58
911.66	1093.50
911.97	1082.50
912.27	1085.07
912.58	1070.09
912.88	1061.90
913.19	1051.84
913.49	1054.18
913.80	1053.94
914.10	1060.50
914.41	1060.50
914.71	1058.86
915.01	1055.58
915.32	1054.18
915.62	1055.82
915.93	1067.28
916.23	1071.03
916.54	1077.11
916.84	1076.41
917.15	1084.60
917.45	1075.24
917.75	1073.84
918.06	1073.60
918.36	1075.94
918.67	1072.43
918.97	1078.28
919.27	1085.31
919.58	1080.39
919.88	1082.03
920.18	1076.88
920.49	1078.28
920.79	1081.56
921.10	1084.84
921.40	1085.31
921.70	1085.07
922.01	1078.28
922.31	1064.71
922.61	1066.11
922.92	1062.84
923.22	1067.75
923.52	1058.62
923.82	1070.33
924.13	1070.56
924.43	1076.65
924.73	1076.65
925.04	1082.50
925.34	1084.84
925.64	1083.90
925.94	1080.16
926.25	1085.77
926.55	1083.20
926.85	1079.22
927.15	1086.01
927.46	1089.75
927.76	1080.86
928.06	1088.58
928.36	1089.75
928.67	1085.31
928.97	1087.41
929.27	1093.26
929.57	1097.48
929.87	1102.86
930.18	1106.61
930.48	1094.90
930.78	1089.52
931.08	1077.82
931.38	1073.14
931.69	1062.84
931.99	1062.60
932.29	1062.14
932.59	1069.86
932.89	1076.88
933.19	1073.37
933.49	1084.37
933.80	1092.33
934.10	1094.90
934.40	1088.12
934.70	1094.67
935.00	1106.14
935.30	1093.03
935.60	1098.88
935.90	1102.86
936.20	1101.69
936.50	1080.63
936.81	1085.07
937.11	1072.67
937.41	1063.54
937.71	1067.05
938.01	1068.69
938.31	1068.45
938.61	1073.84
938.91	1080.86
939.21	1078.75
939.51	1085.31
939.81	1089.75
940.11	1089.05
940.41	1083.67
940.71	1078.52
941.01	1077.58
941.31	1073.60
941.61	1074.31
941.91	1071.03
942.21	1073.84
942.51	1070.56
942.81	1078.75
943.11	1081.33
943.41	1083.20
943.71	1089.99
944.01	1100.29
944.31	1090.69
944.61	1086.71
944.90	1091.86
945.20	1082.50
945.50	1074.07
945.80	1078.99
946.10	1073.37
946.40	1067.75
946.70	1075.71
947.00	1070.33
947.30	1068.92
947.60	1065.18
947.89	1069.86
948.19	1060.03
948.49	1063.31
948.79	1072.90
949.09	1079.92
949.39	1081.09
949.69	1094.20
949.98	1098.65
950.28	1091.63
950.58	1089.99
950.88	1086.48
951.18	1083.43
951.48	1076.41
951.77	1071.50
952.07	1075.24
952.37	1077.58
952.67	1060.50
952.97	1065.65
953.26	1073.14
953.56	1067.99
953.86	1056.99
954.16	1070.80
954.45	1063.77
954.75	1059.09
955.05	1065.88
955.35	1084.37
955.64	1077.58
955.94	1087.18
956.24	1087.18
956.54	1083.20
956.83	1069.86
957.13	1080.16
957.43	1072.43
957.72	1069.86
958.02	1070.80
958.32	1076.65
958.61	1067.75
958.91	1074.31
959.21	1081.80
959.50	1074.07
959.80	1062.14
960.10	1064.94
960.39	1063.54
960.69	1060.03
960.99	1077.35
961.28	1087.88
961.58	1085.54
961.87	1091.39
962.17	1094.67
962.47	1093.73
962.76	1102.86
963.06	1100.52
963.36	1093.26
963.65	1099.58
963.95	1099.35
964.24	1090.46
964.54	1093.50
964.83	1099.58
965.13	1094.43
965.42	1089.05
965.72	1091.63
966.02	1100.05
966.31	1097.24
966.61	1091.39
966.90	1088.58
967.20	1087.18
967.49	1075.48
967.79	1075.71
968.08	1067.99
968.38	1064.24
968.67	1054.65
968.97	1046.22
969.26	1040.60
969.56	1047.86
969.85	1053.94
970.15	1061.20
970.44	1082.03
970.74	1084.14
971.03	1083.90
971.32	1080.63
971.62	1083.20
971.91	1068.22
972.21	1071.73
972.50	1077.11
972.80	1079.46
973.09	1082.03
973.38	1089.52
973.68	1093.03
973.97	1083.90
974.27	1094.67
974.56	1103.56
974.85	1103.80
975.15	1105.90
975.44	1113.63
975.73	1102.16
976.03	1084.37
976.32	1087.41
976.61	1082.73
976.91	1076.18
977.20	1074.07
977.49	1076.41
977.79	1072.43
978.08	1069.62
978.37	1076.41
978.67	1077.11
978.96	1080.39
979.25	1086.01
979.55	1077.82
979.84	1074.07
980.13	1074.54
980.42	1071.03
980.72	1073.14
981.01	1074.54
981.30	1073.60
981.59	1074.31
981.89	1086.24
982.18	1082.03
982.47	1089.29
982.76	1081.09
983.06	1085.07
983.35	1085.77
983.64	1088.58
983.93	1088.82
984.22	1097.24
984.52	1091.86
984.81	1078.05
985.10	1075.24
985.39	1075.94
985.68	1079.69
985.97	1079.92
986.27	1089.75
986.56	1097.01
986.85	1092.33
987.14	1095.37
987.43	1100.99
987.72	1095.84
988.01	1084.37
988.31	1084.37
988.60	1074.77
988.89	1064.48
989.18	1060.73
989.47	1058.62
989.76	1052.30
990.05	1051.60
990.34	1052.54
990.63	1062.84
990.92	1066.11
991.21	1076.65
991.51	1070.56
991.80	1073.37
992.09	1061.20
992.38	1067.28
992.67	1070.56
992.96	1074.07
993.25	1076.18
993.54	1079.92
993.83	1072.20
994.12	1058.16
994.41	1070.09
994.70	1062.84
994.99	1065.18
995.28	1072.20
995.57	1067.28
995.86	1056.05
996.15	1068.45
996.44	1071.26
996.73	1063.77
997.02	1085.77
997.31	1085.31
997.59	1081.33
997.88	1079.22
998.17	1078.05
998.46	1076.65
998.75	1085.54
999.04	1089.05
999.33	1090.92
999.62	1103.09
999.91	1102.63
1000.20	1104.73
1000.49	1097.24
1000.77	1093.50
1001.06	1085.31
1001.35	1079.22
1001.64	1079.69
1001.93	1082.73
1002.22	1087.41
1002.51	1097.48
1002.79	1096.78
1003.08	1097.48
1003.37	1099.58
1003.66	1091.63
1003.95	1077.82
1004.23	1081.33
1004.52	1084.14
1004.81	1082.50
1005.10	1084.14
1005.39	1086.48
1005.67	1089.99
1005.96	1086.48
1006.25	1080.63
1006.54	1080.63
1006.83	1070.09
1007.11	1065.41
1007.40	1056.28
1007.69	1061.43
1007.97	1067.99
1008.26	1086.71
1008.55	1086.71
1008.84	1099.82
1009.12	1100.29
1009.41	1086.71
1009.70	1093.73
1009.98	1093.73
1010.27	1078.05
1010.56	1074.77
1010.85	1089.52
1011.13	1079.46
1011.42	1086.01
1011.71	1090.22
1011.99	1097.24
1012.28	1094.90
1012.56	1097.01
1012.85	1085.31
1013.14	1086.01
1013.42	1074.77
1013.71	1078.99
1014.00	1075.24
1014.28	1083.90
1014.57	1090.69
1014.85	1101.22
1015.14	1091.86
1015.43	1091.39
1015.71	1090.69
1016.00	1087.65
1016.28	1079.46
1016.57	1077.35
1016.85	1083.67
1017.14	1074.31
1017.43	1078.28
1017.71	1086.48
1018.00	1084.60
1018.28	1079.22
1018.57	1087.18
1018.85	1078.99
1019.14	1074.77
1019.42	1084.14
1019.71	1086.01
1019.99	1083.43
1020.28	1086.01
1020.56	1085.54
1020.85	1078.52
1021.13	1073.37
1021.42	1083.90
1021.70	1078.99
1021.99	1072.67
1022.27	1077.82
1022.55	1043.88
1022.84	1091.86
>>>>>End Processed Spectral Data<<<<<
