SpectraSuite Data File
++++++++++++++++++++++++++++++++++++
Date: Mon Aug 26 10:25:55 PDT 2019
User: corrico
Dark Spectrum Present: No
Reference Spectrum Present: No
Number of Sampled Component Spectra: 1
Spectrometers: USB2+H06089
Integration Time (usec): 10000 (USB2+H06089)
Spectra Averaged: 2 (USB2+H06089)
Boxcar Smoothing: 2 (USB2+H06089)
Correct for Electrical Dark: No (USB2+H06089)
Strobe/Lamp Enabled: No (USB2+H06089)
Correct for Detector Non-linearity: No (USB2+H06089)
Correct for Stray Light: No (USB2+H06089)
Number of Pixels in Processed Spectrum: 2048
>>>>>Begin Processed Spectral Data<<<<<
339.70	1009.94
340.07	1009.94
340.45	983.96
340.82	963.60
341.19	945.81
341.57	923.81
341.94	918.43
342.31	908.36
342.69	907.19
343.06	895.02
343.43	890.34
343.81	885.42
344.18	895.02
344.55	896.19
344.93	903.21
345.30	914.68
345.67	914.45
346.04	915.38
346.42	922.17
346.79	934.58
347.16	945.11
347.54	958.92
347.91	966.41
348.28	976.94
348.65	991.92
349.03	1001.75
349.40	1010.88
349.77	1027.96
350.14	1031.71
350.52	1035.22
350.89	1043.41
351.26	1058.62
351.63	1056.28
352.01	1071.03
352.38	1071.50
352.75	1064.48
353.12	1057.69
353.50	1062.60
353.87	1063.54
354.24	1070.09
354.61	1076.41
354.98	1091.39
355.36	1095.37
355.73	1100.99
356.10	1095.84
356.47	1095.14
356.84	1084.14
357.22	1078.99
357.59	1072.67
357.96	1077.11
358.33	1069.62
358.70	1067.75
359.08	1066.11
359.45	1067.75
359.82	1067.99
360.19	1078.28
360.56	1072.20
360.94	1071.03
361.31	1066.11
361.68	1064.71
362.05	1056.52
362.42	1057.92
362.79	1062.84
363.16	1062.14
363.54	1050.67
363.91	1056.75
364.28	1062.60
364.65	1071.50
365.02	1082.50
365.39	1093.73
365.76	1097.48
366.14	1094.90
366.51	1080.16
366.88	1068.22
367.25	1063.07
367.62	1052.07
367.99	1053.48
368.36	1054.65
368.73	1050.67
369.10	1048.09
369.48	1055.58
369.85	1057.45
370.22	1062.84
370.59	1065.41
370.96	1073.84
371.33	1071.73
371.70	1066.82
372.07	1059.79
372.44	1062.14
372.81	1059.56
373.18	1060.96
373.55	1065.41
373.93	1070.33
374.30	1061.90
374.67	1057.92
375.04	1056.99
375.41	1052.07
375.78	1048.79
376.15	1060.26
376.52	1071.26
376.89	1069.39
377.26	1079.46
377.63	1080.86
378.00	1087.88
378.37	1084.14
378.74	1098.41
379.11	1093.26
379.48	1089.52
379.85	1079.46
380.22	1074.07
380.59	1063.31
380.96	1064.94
381.33	1065.88
381.70	1058.39
382.07	1056.52
382.44	1052.07
382.81	1043.88
383.18	1048.56
383.55	1054.88
383.92	1044.35
384.29	1052.54
384.66	1059.09
385.03	1053.94
385.40	1060.26
385.77	1078.99
386.14	1068.92
386.51	1076.65
386.88	1082.97
387.25	1081.80
387.62	1081.09
387.99	1091.39
388.36	1078.05
388.73	1071.03
389.10	1071.97
389.46	1072.67
389.83	1073.60
390.20	1080.86
390.57	1086.48
390.94	1083.90
391.31	1068.22
391.68	1061.43
392.05	1067.99
392.42	1072.20
392.79	1064.48
393.16	1068.22
393.53	1066.58
393.89	1049.03
394.26	1047.62
394.63	1051.13
395.00	1056.05
395.37	1061.67
395.74	1061.43
396.11	1057.22
396.48	1061.20
396.84	1072.67
397.21	1068.92
397.58	1079.22
397.95	1080.39
398.32	1084.37
398.69	1078.75
399.06	1078.99
399.42	1078.05
399.79	1078.52
400.16	1075.71
400.53	1072.90
400.90	1074.07
401.27	1075.24
401.64	1078.52
402.00	1086.48
402.37	1088.35
402.74	1087.41
403.11	1087.65
403.48	1094.67
403.84	1090.92
404.21	1093.97
404.58	1089.99
404.95	1097.71
405.32	1092.80
405.68	1085.07
406.05	1087.88
406.42	1084.84
406.79	1066.58
407.16	1071.97
407.52	1078.75
407.89	1069.62
408.26	1078.28
408.63	1087.88
408.99	1077.35
409.36	1078.52
409.73	1079.46
410.10	1069.86
410.47	1074.07
410.83	1075.24
411.20	1074.31
411.57	1084.84
411.94	1094.43
412.30	1084.60
412.67	1084.37
413.04	1080.86
413.40	1071.03
413.77	1066.11
414.14	1072.20
414.51	1072.20
414.87	1063.31
415.24	1061.90
415.61	1066.11
415.97	1063.77
416.34	1067.05
416.71	1073.84
417.08	1079.92
417.44	1072.67
417.81	1077.35
418.18	1080.63
418.54	1083.90
418.91	1076.88
419.28	1082.03
419.64	1085.54
420.01	1083.43
420.38	1078.99
420.74	1078.28
421.11	1080.16
421.48	1071.26
421.84	1071.97
422.21	1073.84
422.58	1064.71
422.94	1060.96
423.31	1059.56
423.68	1057.22
424.04	1059.33
424.41	1073.84
424.77	1079.69
425.14	1080.16
425.51	1080.39
425.87	1082.97
426.24	1080.39
426.61	1076.18
426.97	1076.88
427.34	1072.43
427.70	1068.69
428.07	1076.18
428.44	1078.05
428.80	1076.41
429.17	1086.01
429.53	1076.41
429.90	1075.01
430.27	1073.14
430.63	1076.41
431.00	1058.39
431.36	1071.97
431.73	1071.50
432.09	1064.01
432.46	1072.90
432.83	1082.26
433.19	1083.20
433.56	1080.63
433.92	1093.97
434.29	1087.18
434.65	1100.29
435.02	1094.67
435.38	1094.67
435.75	1091.16
436.11	1088.12
436.48	1075.01
436.84	1077.58
437.21	1079.22
437.57	1073.37
437.94	1072.43
438.30	1069.86
438.67	1064.24
439.03	1076.41
439.40	1077.58
439.76	1086.71
440.13	1095.84
440.49	1103.56
440.86	1089.75
441.22	1091.16
441.59	1086.01
441.95	1076.88
442.32	1073.60
442.68	1082.50
443.05	1098.41
443.41	1098.88
443.78	1101.46
444.14	1096.78
444.51	1085.54
444.87	1068.22
445.24	1060.73
445.60	1061.90
445.96	1069.39
446.33	1069.16
446.69	1078.52
447.06	1081.80
447.42	1080.39
447.79	1075.48
448.15	1073.60
448.51	1075.48
448.88	1078.75
449.24	1070.09
449.61	1072.20
449.97	1074.07
450.33	1074.07
450.70	1069.86
451.06	1082.50
451.43	1095.14
451.79	1104.03
452.15	1096.54
452.52	1098.41
452.88	1093.50
453.24	1080.39
453.61	1066.82
453.97	1064.94
454.34	1064.71
454.70	1062.84
455.06	1063.07
455.43	1064.94
455.79	1075.71
456.15	1068.92
456.52	1080.16
456.88	1075.94
457.24	1076.18
457.61	1067.99
457.97	1083.67
458.33	1075.94
458.70	1086.01
459.06	1086.01
459.42	1084.84
459.79	1080.39
460.15	1085.54
460.51	1082.26
460.88	1090.46
461.24	1093.50
461.60	1100.29
461.96	1092.33
462.33	1082.26
462.69	1083.67
463.05	1082.50
463.42	1076.65
463.78	1083.90
464.14	1093.26
464.50	1085.54
464.87	1087.41
465.23	1083.67
465.59	1086.24
465.95	1083.43
466.32	1082.97
466.68	1077.58
467.04	1073.60
467.40	1056.52
467.77	1058.62
468.13	1061.67
468.49	1069.62
468.85	1081.56
469.22	1100.05
469.58	1086.24
469.94	1087.18
470.30	1072.43
470.66	1054.65
471.03	1047.16
471.39	1055.35
471.75	1058.39
472.11	1072.67
472.47	1084.14
472.84	1080.86
473.20	1092.33
473.56	1102.16
473.92	1107.07
474.28	1101.22
474.65	1094.67
475.01	1081.56
475.37	1063.31
475.73	1058.16
476.09	1062.14
476.45	1082.73
476.81	1087.65
477.18	1094.43
477.54	1096.78
477.90	1089.05
478.26	1078.52
478.62	1079.69
478.98	1076.18
479.34	1071.26
479.71	1077.82
480.07	1082.03
480.43	1084.37
480.79	1088.35
481.15	1084.37
481.51	1091.86
481.87	1078.28
482.23	1075.94
482.59	1073.60
482.96	1072.67
483.32	1077.11
483.68	1092.33
484.04	1092.33
484.40	1086.48
484.76	1083.20
485.12	1073.14
485.48	1060.96
485.84	1056.75
486.20	1060.26
486.56	1072.67
486.92	1068.45
487.28	1079.46
487.64	1084.60
488.00	1088.12
488.37	1090.46
488.73	1094.90
489.09	1092.09
489.45	1089.05
489.81	1080.86
490.17	1068.92
490.53	1070.80
490.89	1064.94
491.25	1064.94
491.61	1071.97
491.97	1077.11
492.33	1072.67
492.69	1079.92
493.05	1078.75
493.41	1087.65
493.77	1092.56
494.13	1090.69
494.49	1091.16
494.85	1098.41
495.21	1088.12
495.57	1093.26
495.93	1096.54
496.29	1089.05
496.64	1077.58
497.00	1075.01
497.36	1069.16
497.72	1074.54
498.08	1086.71
498.44	1093.26
498.80	1098.65
499.16	1090.92
499.52	1082.03
499.88	1062.14
500.24	1061.20
500.60	1054.18
500.96	1060.73
501.32	1069.62
501.68	1079.92
502.03	1081.56
502.39	1094.90
502.75	1094.43
503.11	1094.67
503.47	1091.16
503.83	1090.69
504.19	1087.88
504.55	1090.46
504.91	1089.52
505.26	1095.14
505.62	1095.60
505.98	1081.09
506.34	1072.90
506.70	1065.65
507.06	1053.48
507.42	1057.45
507.78	1074.77
508.13	1082.50
508.49	1083.90
508.85	1092.80
509.21	1091.16
509.57	1093.50
509.93	1091.63
510.28	1096.31
510.64	1095.60
511.00	1090.22
511.36	1083.43
511.72	1077.35
512.07	1076.88
512.43	1076.88
512.79	1069.86
513.15	1076.41
513.51	1074.54
513.86	1074.31
514.22	1081.09
514.58	1086.01
514.94	1076.88
515.30	1085.54
515.65	1086.71
516.01	1076.88
516.37	1073.60
516.73	1070.33
517.08	1064.01
517.44	1064.24
517.80	1070.09
518.16	1089.99
518.51	1092.09
518.87	1088.82
519.23	1083.90
519.59	1079.46
519.94	1060.26
520.30	1061.67
520.66	1068.45
521.01	1067.28
521.37	1067.05
521.73	1068.22
522.09	1076.18
522.44	1078.99
522.80	1084.84
523.16	1093.97
523.51	1104.26
523.87	1098.65
524.23	1091.63
524.58	1093.03
524.94	1085.77
525.30	1082.97
525.65	1073.37
526.01	1078.75
526.37	1075.01
526.72	1086.94
527.08	1081.09
527.44	1084.37
527.79	1082.97
528.15	1082.97
528.51	1085.31
528.86	1098.65
529.22	1097.71
529.58	1101.92
529.93	1110.82
530.29	1097.48
530.65	1096.78
531.00	1108.71
531.36	1101.92
531.71	1099.12
532.07	1106.14
532.43	1099.35
532.78	1092.56
533.14	1097.24
533.49	1094.90
533.85	1093.26
534.21	1092.33
534.56	1099.12
534.92	1097.95
535.27	1099.12
535.63	1103.56
535.98	1108.71
536.34	1102.39
536.69	1095.84
537.05	1095.37
537.41	1087.65
537.76	1089.99
538.12	1082.73
538.47	1086.24
538.83	1079.69
539.18	1074.54
539.54	1073.14
539.89	1078.28
540.25	1078.99
540.60	1079.69
540.96	1085.77
541.31	1077.11
541.67	1077.58
542.02	1076.88
542.38	1088.82
542.73	1093.03
543.09	1091.63
543.44	1090.69
543.80	1104.73
544.15	1095.37
544.51	1091.86
544.86	1097.71
545.22	1102.86
545.57	1092.80
545.93	1091.39
546.28	1096.78
546.64	1093.73
546.99	1093.50
547.35	1099.82
547.70	1100.05
548.05	1093.73
548.41	1099.82
548.76	1091.86
549.12	1080.86
549.47	1085.07
549.83	1089.05
550.18	1085.77
550.53	1097.71
550.89	1104.97
551.24	1098.18
551.60	1097.01
551.95	1087.18
552.30	1077.11
552.66	1070.33
553.01	1071.50
553.37	1059.33
553.72	1078.75
554.07	1083.43
554.43	1085.31
554.78	1084.14
555.13	1095.14
555.49	1081.80
555.84	1079.92
556.19	1079.69
556.55	1089.29
556.90	1088.35
557.26	1089.99
557.61	1087.65
557.96	1084.60
558.32	1085.31
558.67	1079.69
559.02	1084.37
559.37	1087.41
559.73	1090.22
560.08	1086.94
560.43	1089.99
560.79	1085.54
561.14	1093.73
561.49	1096.31
561.85	1090.92
562.20	1087.18
562.55	1087.41
562.90	1072.90
563.26	1078.75
563.61	1081.80
563.96	1082.26
564.32	1085.31
564.67	1089.52
565.02	1090.92
565.37	1085.54
565.73	1091.63
566.08	1091.86
566.43	1096.54
566.78	1081.80
567.14	1089.75
567.49	1090.22
567.84	1088.58
568.19	1078.99
568.54	1091.16
568.90	1085.31
569.25	1081.56
569.60	1084.84
569.95	1093.50
570.31	1082.26
570.66	1078.52
571.01	1075.94
571.36	1071.50
571.71	1069.39
572.06	1077.82
572.42	1088.12
572.77	1099.35
573.12	1103.80
573.47	1099.35
573.82	1100.99
574.18	1088.35
574.53	1077.35
574.88	1074.31
575.23	1083.67
575.58	1081.33
575.93	1082.03
576.28	1082.50
576.64	1075.48
576.99	1059.56
577.34	1060.73
577.69	1066.35
578.04	1069.62
578.39	1082.03
578.74	1096.54
579.09	1100.99
579.44	1103.80
579.80	1104.26
580.15	1095.60
580.50	1097.24
580.85	1087.65
581.20	1098.41
581.55	1102.16
581.90	1100.29
582.25	1099.82
582.60	1104.26
582.95	1092.56
583.30	1091.63
583.65	1093.73
584.00	1094.20
584.35	1088.82
584.71	1093.73
585.06	1083.90
585.41	1082.03
585.76	1069.39
586.11	1078.05
586.46	1076.88
586.81	1079.22
587.16	1081.09
587.51	1089.99
587.86	1084.84
588.21	1076.65
588.56	1080.63
588.91	1079.22
589.26	1081.33
589.61	1083.20
589.96	1091.16
590.31	1096.31
590.66	1102.63
591.01	1104.73
591.36	1103.80
591.71	1096.54
592.06	1097.71
592.41	1092.33
592.76	1082.73
593.10	1080.63
593.45	1087.88
593.80	1083.43
594.15	1082.97
594.50	1078.52
594.85	1077.82
595.20	1072.20
595.55	1082.97
595.90	1086.01
596.25	1091.86
596.60	1085.31
596.95	1086.01
597.30	1077.11
597.64	1132.12
597.99	1138.20
598.34	1141.25
598.69	1143.35
599.04	1150.37
599.39	1095.84
599.74	1093.03
600.09	1090.46
600.44	1086.71
600.78	1079.92
601.13	1073.14
601.48	1065.65
601.83	1065.18
602.18	1063.31
602.53	1059.33
602.88	1071.97
603.22	1075.48
603.57	1083.90
603.92	1090.92
604.27	1088.58
604.62	1083.43
604.97	1080.39
605.31	1080.39
605.66	1076.18
606.01	1083.20
606.36	1076.18
606.71	1075.01
607.05	1076.18
607.40	1079.46
607.75	1073.14
608.10	1086.01
608.44	1097.48
608.79	1092.56
609.14	1103.09
609.49	1100.99
609.84	1095.60
610.18	1094.90
610.53	1097.95
610.88	1091.63
611.23	1107.31
611.57	1106.84
611.92	1108.48
612.27	1110.82
612.62	1111.29
612.96	1104.03
613.31	1103.09
613.66	1099.12
614.00	1099.82
614.35	1099.12
614.70	1097.95
615.05	1097.95
615.39	1088.58
615.74	1085.77
616.09	1075.48
616.43	1074.54
616.78	1069.16
617.13	1075.71
617.47	1071.03
617.82	1070.09
618.17	1068.45
618.51	1075.24
618.86	1073.84
619.21	1071.26
619.55	1083.67
619.90	1087.65
620.25	1083.20
620.59	1090.22
620.94	1097.48
621.29	1092.09
621.63	1085.77
621.98	1094.20
622.32	1087.41
622.67	1082.03
623.02	1080.86
623.36	1089.52
623.71	1078.52
624.05	1078.05
624.40	1076.41
624.75	1072.43
625.09	1072.90
625.44	1088.58
625.78	1094.67
626.13	1103.33
626.48	1110.12
626.82	1100.29
627.17	1089.99
627.51	1091.39
627.86	1096.31
628.20	1103.80
628.55	1109.18
628.89	1104.50
629.24	1099.35
629.58	1086.24
629.93	1080.86
630.28	1089.29
630.62	1085.07
630.97	1082.73
631.31	1092.09
631.66	1085.07
632.00	1072.43
632.35	1083.20
632.69	1086.94
633.04	1078.75
633.38	1082.73
633.73	1079.69
634.07	1084.84
634.42	1089.29
634.76	1094.90
635.11	1088.58
635.45	1088.82
635.79	1075.48
636.14	1066.35
636.48	1064.94
636.83	1066.11
637.17	1074.31
637.52	1079.69
637.86	1080.63
638.21	1077.58
638.55	1077.35
638.89	1069.86
639.24	1074.07
639.58	1073.60
639.93	1075.94
640.27	1071.97
640.61	1080.86
640.96	1076.18
641.30	1069.16
641.65	1066.58
641.99	1070.33
642.33	1068.22
642.68	1070.33
643.02	1078.52
643.37	1082.73
643.71	1090.22
644.05	1084.14
644.40	1083.43
644.74	1086.94
645.08	1087.18
645.43	1076.41
645.77	1074.07
646.11	1065.88
646.46	1054.65
646.80	1052.30
647.14	1054.41
647.49	1055.58
647.83	1064.71
648.17	1076.88
648.52	1067.99
648.86	1067.99
649.20	1073.14
649.55	1068.22
649.89	1067.75
650.23	1076.41
650.57	1078.52
650.92	1074.77
651.26	1078.99
651.60	1076.65
651.95	1072.43
652.29	1074.77
652.63	1084.37
652.97	1074.77
653.32	1074.54
653.66	1078.28
654.00	1080.39
654.34	1072.43
654.69	1087.88
655.03	1084.60
655.37	1083.67
655.71	1076.18
656.05	1075.01
656.40	1070.33
656.74	1078.75
657.08	1090.69
657.42	1094.67
657.76	1089.29
658.11	1084.84
658.45	1078.99
658.79	1069.16
659.13	1061.67
659.47	1068.22
659.82	1078.05
660.16	1079.46
660.50	1079.69
660.84	1084.14
661.18	1079.22
661.52	1085.07
661.87	1085.77
662.21	1087.65
662.55	1094.43
662.89	1102.63
663.23	1090.69
663.57	1093.73
663.91	1087.18
664.25	1084.60
664.60	1081.80
664.94	1077.82
665.28	1078.52
665.62	1087.65
665.96	1078.99
666.30	1080.39
666.64	1081.56
666.98	1082.97
667.32	1083.43
667.66	1085.54
668.01	1081.80
668.35	1078.75
668.69	1071.03
669.03	1079.22
669.37	1085.54
669.71	1087.88
670.05	1088.82
670.39	1091.86
670.73	1083.43
671.07	1079.92
671.41	1083.90
671.75	1096.78
672.09	1097.48
672.43	1093.73
672.77	1102.63
673.11	1103.09
673.45	1092.33
673.79	1091.16
674.13	1087.88
674.47	1072.20
674.81	1067.28
675.15	1068.22
675.49	1052.30
675.83	1052.07
676.17	1063.07
676.51	1064.71
676.85	1061.20
677.19	1072.90
677.53	1069.62
677.87	1066.11
678.21	1063.54
678.55	1062.14
678.89	1060.50
679.23	1062.60
679.57	1060.26
679.90	1067.52
680.24	1073.14
680.58	1067.75
680.92	1074.07
681.26	1080.39
681.60	1071.26
681.94	1072.90
682.28	1088.82
682.62	1086.71
682.96	1086.24
683.29	1093.97
683.63	1093.97
683.97	1089.75
684.31	1092.56
684.65	1093.03
684.99	1097.24
685.33	1100.75
685.67	1103.33
686.00	1093.26
686.34	1097.71
686.68	1095.60
687.02	1085.77
687.36	1080.86
687.70	1095.14
688.03	1085.07
688.37	1073.60
688.71	1074.54
689.05	1078.52
689.39	1080.39
689.72	1075.71
690.06	1073.60
690.40	1087.18
690.74	1084.84
691.08	1077.11
691.41	1091.63
691.75	1107.31
692.09	1099.35
692.43	1104.73
692.76	1111.29
693.10	1106.37
693.44	1100.29
693.78	1102.39
694.11	1099.82
694.45	1098.88
694.79	1098.41
695.13	1097.01
695.46	1102.16
695.80	1101.92
696.14	1095.60
696.48	1092.33
696.81	1091.86
697.15	1088.12
697.49	1086.48
697.82	1086.01
698.16	1094.67
698.50	1089.05
698.83	1084.60
699.17	1088.35
699.51	1092.09
699.84	1083.90
700.18	1088.58
700.52	1078.99
700.85	1068.92
701.19	1056.52
701.53	1058.86
701.86	1059.56
702.20	1064.48
702.54	1071.26
702.87	1082.97
703.21	1089.05
703.55	1076.41
703.88	1069.62
704.22	1070.33
704.55	1070.09
704.89	1056.28
705.23	1069.39
705.56	1070.80
705.90	1067.52
706.23	1060.50
706.57	1055.58
706.91	1047.62
707.24	1055.82
707.58	1042.24
707.91	1052.54
708.25	1067.75
708.58	1079.46
708.92	1078.75
709.26	1097.71
709.59	1091.86
709.93	1081.80
710.26	1079.92
710.60	1080.86
710.93	1076.41
711.27	1067.99
711.60	1075.48
711.94	1084.60
712.27	1083.67
712.61	1078.52
712.94	1081.80
713.28	1078.28
713.61	1066.82
713.95	1063.31
714.28	1057.22
714.62	1059.56
714.95	1060.26
715.29	1063.77
715.62	1073.37
715.96	1087.41
716.29	1099.35
716.63	1103.80
716.96	1100.29
717.29	1101.22
717.63	1096.78
717.96	1090.22
718.30	1092.09
718.63	1087.88
718.97	1082.97
719.30	1084.84
719.63	1092.33
719.97	1086.71
720.30	1086.24
720.64	1092.80
720.97	1091.16
721.30	1072.43
721.64	1069.39
721.97	1070.33
722.31	1065.41
722.64	1067.05
722.97	1083.43
723.31	1092.56
723.64	1097.95
723.97	1086.24
724.31	1085.31
724.64	1075.24
724.98	1073.14
725.31	1065.65
725.64	1072.90
725.98	1066.82
726.31	1067.99
726.64	1061.67
726.97	1067.99
727.31	1069.16
727.64	1069.86
727.97	1069.39
728.31	1078.52
728.64	1072.90
728.97	1070.80
729.31	1083.67
729.64	1082.26
729.97	1080.86
730.30	1087.41
730.64	1088.82
730.97	1069.86
731.30	1076.41
731.63	1078.52
731.97	1081.80
732.30	1084.14
732.63	1099.35
732.96	1090.46
733.30	1082.03
733.63	1083.90
733.96	1081.80
734.29	1072.20
734.63	1072.43
734.96	1082.50
735.29	1079.69
735.62	1080.86
735.95	1082.73
736.29	1084.37
736.62	1080.86
736.95	1079.92
737.28	1076.88
737.61	1086.01
737.94	1085.31
738.28	1075.94
738.61	1077.82
738.94	1079.46
739.27	1068.45
739.60	1072.90
739.93	1081.80
740.27	1073.37
740.60	1072.90
740.93	1082.26
741.26	1087.88
741.59	1080.39
741.92	1083.20
742.25	1089.05
742.58	1094.43
742.91	1083.43
743.25	1088.12
743.58	1095.84
743.91	1097.01
744.24	1084.60
744.57	1094.67
744.90	1092.80
745.23	1089.05
745.56	1088.12
745.89	1091.86
746.22	1089.29
746.55	1093.26
746.88	1089.52
747.21	1084.14
747.54	1091.39
747.87	1082.97
748.20	1073.37
748.53	1072.67
748.87	1065.88
749.20	1046.69
749.53	1055.35
749.86	1066.58
750.19	1073.37
750.52	1081.09
750.85	1086.94
751.18	1077.82
751.51	1073.14
751.84	1071.03
752.16	1069.16
752.49	1073.84
752.82	1084.14
753.15	1083.67
753.48	1080.63
753.81	1078.99
754.14	1084.60
754.47	1081.33
754.80	1071.97
755.13	1074.31
755.46	1081.80
755.79	1082.26
756.12	1079.69
756.45	1087.65
756.78	1084.84
757.11	1077.58
757.43	1075.01
757.76	1081.09
758.09	1085.07
758.42	1082.03
758.75	1079.46
759.08	1068.22
759.41	1069.62
759.74	1075.01
760.07	1072.20
760.39	1078.99
760.72	1090.92
761.05	1082.50
761.38	1068.45
761.71	1064.48
762.04	1064.01
762.36	1062.14
762.69	1064.94
763.02	1066.11
763.35	1077.35
763.68	1072.67
764.01	1071.73
764.33	1070.09
764.66	1080.63
764.99	1092.09
765.32	1101.22
765.65	1106.61
765.97	1105.67
766.30	1100.52
766.63	1090.46
766.96	1084.84
767.28	1079.46
767.61	1078.28
767.94	1078.28
768.27	1077.11
768.59	1082.50
768.92	1072.67
769.25	1071.73
769.58	1075.94
769.90	1076.41
770.23	1067.75
770.56	1068.92
770.89	1075.94
771.21	1066.82
771.54	1068.22
771.87	1068.92
772.19	1064.24
772.52	1057.22
772.85	1068.92
773.17	1060.73
773.50	1057.69
773.83	1067.75
774.15	1074.54
774.48	1070.09
774.81	1074.54
775.13	1082.03
775.46	1085.77
775.79	1090.22
776.11	1088.82
776.44	1084.14
776.77	1081.09
777.09	1074.77
777.42	1064.01
777.74	1066.82
778.07	1066.58
778.40	1067.28
778.72	1074.31
779.05	1081.80
779.37	1074.07
779.70	1083.20
780.03	1070.09
780.35	1059.09
780.68	1056.99
781.00	1060.73
781.33	1044.58
781.65	1057.45
781.98	1067.99
782.31	1066.11
782.63	1068.22
782.96	1081.33
783.28	1078.05
783.61	1068.69
783.93	1061.43
784.26	1065.41
784.58	1061.43
784.91	1066.82
785.23	1073.37
785.56	1074.31
785.88	1059.79
786.21	1064.94
786.53	1064.94
786.86	1069.86
787.18	1079.69
787.51	1082.97
787.83	1078.75
788.16	1081.33
788.48	1077.11
788.81	1071.03
789.13	1082.26
789.46	1085.31
789.78	1079.69
790.10	1077.82
790.43	1074.77
790.75	1069.16
791.08	1070.09
791.40	1068.45
791.73	1073.37
792.05	1070.80
792.37	1077.35
792.70	1078.28
793.02	1078.99
793.35	1078.05
793.67	1083.90
793.99	1084.84
794.32	1077.82
794.64	1079.46
794.96	1078.52
795.29	1067.75
795.61	1064.71
795.93	1058.86
796.26	1055.82
796.58	1057.92
796.91	1075.01
797.23	1067.05
797.55	1085.77
797.87	1089.29
798.20	1088.58
798.52	1087.18
798.84	1088.82
799.17	1085.07
799.49	1081.56
799.81	1067.75
800.14	1064.71
800.46	1073.14
800.78	1064.48
801.10	1065.41
801.43	1086.24
801.75	1078.05
802.07	1078.75
802.40	1087.18
802.72	1086.94
803.04	1070.09
803.36	1072.43
803.69	1066.11
804.01	1055.82
804.33	1051.13
804.65	1061.90
804.97	1067.75
805.30	1065.65
805.62	1071.97
805.94	1089.05
806.26	1091.63
806.58	1090.92
806.91	1093.50
807.23	1099.82
807.55	1083.90
807.87	1074.77
808.19	1077.82
808.52	1081.33
808.84	1076.41
809.16	1090.46
809.48	1092.33
809.80	1087.41
810.12	1093.50
810.44	1095.14
810.77	1090.69
811.09	1092.56
811.41	1098.88
811.73	1099.12
812.05	1089.75
812.37	1081.33
812.69	1084.37
813.01	1076.88
813.33	1059.09
813.66	1064.24
813.98	1065.18
814.30	1062.14
814.62	1067.75
814.94	1081.09
815.26	1087.18
815.58	1089.05
815.90	1090.46
816.22	1090.46
816.54	1089.29
816.86	1088.12
817.18	1096.78
817.50	1104.97
817.82	1099.12
818.14	1101.22
818.46	1097.24
818.78	1097.01
819.10	1088.35
819.42	1093.97
819.74	1096.31
820.06	1088.58
820.38	1081.80
820.70	1079.92
821.02	1076.41
821.34	1068.22
821.66	1070.09
821.98	1071.26
822.30	1073.60
822.62	1076.18
822.94	1069.39
823.26	1069.86
823.58	1065.18
823.90	1061.43
824.22	1064.24
824.54	1069.62
824.86	1064.01
825.18	1077.11
825.50	1080.63
825.81	1078.05
826.13	1073.60
826.45	1076.65
826.77	1064.94
827.09	1067.52
827.41	1072.20
827.73	1070.80
828.05	1075.01
828.36	1080.16
828.68	1075.01
829.00	1064.24
829.32	1075.48
829.64	1077.82
829.96	1071.26
830.28	1075.01
830.59	1081.33
830.91	1067.75
831.23	1066.35
831.55	1066.82
831.87	1058.86
832.19	1060.73
832.50	1072.20
832.82	1078.99
833.14	1079.46
833.46	1082.26
833.78	1076.41
834.09	1078.05
834.41	1074.07
834.73	1078.99
835.05	1077.35
835.36	1080.16
835.68	1080.86
836.00	1072.90
836.32	1073.14
836.63	1078.75
836.95	1089.99
837.27	1082.26
837.59	1089.75
837.90	1093.26
838.22	1090.22
838.54	1081.80
838.85	1091.39
839.17	1088.82
839.49	1073.84
839.80	1074.31
840.12	1071.97
840.44	1055.11
840.76	1056.75
841.07	1065.65
841.39	1063.07
841.71	1062.60
842.02	1070.56
842.34	1078.05
842.65	1077.82
842.97	1075.71
843.29	1078.52
843.60	1073.37
843.92	1069.86
844.24	1070.56
844.55	1074.31
844.87	1071.03
845.18	1072.90
845.50	1058.86
845.82	1057.45
846.13	1058.86
846.45	1065.18
846.76	1065.65
847.08	1074.07
847.40	1080.39
847.71	1083.90
848.03	1078.99
848.34	1082.26
848.66	1089.52
848.97	1088.82
849.29	1091.16
849.60	1079.69
849.92	1073.60
850.24	1072.90
850.55	1069.62
850.87	1071.50
851.18	1084.37
851.50	1091.39
851.81	1086.24
852.13	1084.84
852.44	1079.46
852.76	1074.54
853.07	1072.67
853.39	1069.86
853.70	1064.24
854.01	1060.96
854.33	1058.16
854.64	1063.07
854.96	1069.39
855.27	1073.84
855.59	1070.80
855.90	1071.26
856.22	1066.11
856.53	1055.58
856.84	1062.14
857.16	1068.69
857.47	1075.24
857.79	1074.07
858.10	1075.24
858.41	1059.56
858.73	1061.43
859.04	1065.41
859.36	1069.86
859.67	1074.54
859.98	1091.39
860.30	1086.48
860.61	1074.31
860.92	1074.54
861.24	1077.58
861.55	1074.07
861.87	1075.71
862.18	1090.22
862.49	1087.41
862.81	1094.43
863.12	1095.60
863.43	1090.92
863.74	1078.05
864.06	1081.80
864.37	1078.05
864.68	1071.50
865.00	1067.75
865.31	1070.09
865.62	1059.09
865.94	1057.45
866.25	1057.45
866.56	1068.22
866.87	1079.92
867.19	1081.33
867.50	1077.82
867.81	1077.58
868.12	1080.39
868.44	1069.39
868.75	1073.60
869.06	1061.67
869.37	1061.67
869.68	1058.16
870.00	1062.84
870.31	1063.31
870.62	1076.18
870.93	1075.71
871.24	1068.69
871.56	1069.16
871.87	1084.84
872.18	1089.52
872.49	1099.82
872.80	1104.03
873.12	1102.63
873.43	1086.71
873.74	1088.12
874.05	1082.97
874.36	1087.65
874.67	1087.41
874.98	1092.56
875.29	1099.12
875.61	1105.44
875.92	1097.48
876.23	1110.58
876.54	1106.61
876.85	1095.14
877.16	1092.56
877.47	1096.07
877.78	1084.84
878.09	1087.18
878.40	1083.67
878.72	1081.33
879.03	1087.18
879.34	1080.86
879.65	1085.07
879.96	1101.69
880.27	1098.88
880.58	1093.97
880.89	1097.24
881.20	1105.20
881.51	1103.09
881.82	1104.73
882.13	1103.56
882.44	1105.90
882.75	1095.60
883.06	1083.20
883.37	1079.22
883.68	1085.77
883.99	1087.88
884.30	1090.92
884.61	1092.09
884.92	1092.56
885.23	1084.60
885.54	1085.77
885.85	1081.33
886.16	1077.58
886.47	1085.31
886.78	1085.54
887.08	1079.22
887.39	1079.46
887.70	1080.86
888.01	1081.09
888.32	1074.77
888.63	1079.22
888.94	1077.35
889.25	1075.48
889.56	1070.56
889.87	1081.80
890.17	1080.39
890.48	1070.80
890.79	1075.01
891.10	1075.71
891.41	1080.39
891.72	1078.99
892.03	1093.97
892.34	1091.86
892.64	1092.80
892.95	1082.73
893.26	1083.90
893.57	1088.35
893.88	1090.46
894.18	1093.26
894.49	1095.14
894.80	1087.18
895.11	1078.28
895.42	1084.14
895.72	1078.99
896.03	1081.33
896.34	1085.54
896.65	1084.14
896.96	1085.07
897.26	1089.29
897.57	1090.46
897.88	1084.84
898.19	1088.58
898.49	1085.07
898.80	1083.20
899.11	1083.67
899.41	1080.63
899.72	1076.41
900.03	1077.82
900.34	1080.86
900.64	1070.09
900.95	1082.03
901.26	1079.92
901.56	1074.54
901.87	1067.28
902.18	1071.97
902.48	1067.05
902.79	1065.18
903.10	1056.99
903.40	1060.26
903.71	1064.01
904.02	1063.54
904.32	1067.52
904.63	1080.86
904.94	1081.09
905.24	1084.14
905.55	1086.94
905.85	1090.22
906.16	1085.31
906.47	1090.22
906.77	1092.33
907.08	1103.80
907.38	1101.92
907.69	1106.61
908.00	1100.75
908.30	1094.20
908.61	1082.50
908.91	1083.90
909.22	1072.43
909.52	1079.69
909.83	1081.09
910.14	1088.35
910.44	1085.54
910.75	1090.92
911.05	1083.20
911.36	1085.31
911.66	1086.48
911.97	1091.39
912.27	1089.99
912.58	1097.95
912.88	1090.69
913.19	1079.69
913.49	1078.99
913.80	1078.05
914.10	1065.18
914.41	1061.90
914.71	1061.43
915.01	1058.62
915.32	1071.26
915.62	1074.54
915.93	1078.05
916.23	1081.09
916.54	1075.24
916.84	1070.56
917.15	1074.77
917.45	1080.16
917.75	1081.33
918.06	1082.03
918.36	1073.60
918.67	1069.39
918.97	1058.39
919.27	1061.20
919.58	1063.31
919.88	1072.43
920.18	1074.07
920.49	1077.58
920.79	1068.45
921.10	1063.31
921.40	1056.52
921.70	1055.11
922.01	1066.82
922.31	1073.14
922.61	1077.35
922.92	1068.22
923.22	1064.24
923.52	1060.26
923.82	1062.60
924.13	1073.84
924.43	1083.67
924.73	1091.86
925.04	1095.84
925.34	1096.31
925.64	1088.58
925.94	1094.20
926.25	1088.35
926.55	1081.33
926.85	1073.60
927.15	1071.97
927.46	1071.97
927.76	1076.41
928.06	1074.31
928.36	1076.88
928.67	1075.01
928.97	1066.35
929.27	1059.56
929.57	1051.13
929.87	1049.03
930.18	1054.65
930.48	1065.18
930.78	1076.88
931.08	1089.75
931.38	1094.67
931.69	1088.35
931.99	1085.31
932.29	1081.56
932.59	1073.14
932.89	1070.33
933.19	1070.80
933.49	1074.31
933.80	1071.26
934.10	1079.22
934.40	1079.22
934.70	1084.14
935.00	1070.56
935.30	1065.65
935.60	1060.50
935.90	1053.71
936.20	1054.88
936.50	1056.75
936.81	1060.50
937.11	1058.16
937.41	1067.52
937.71	1062.14
938.01	1071.50
938.31	1070.33
938.61	1080.16
938.91	1082.03
939.21	1092.33
939.51	1088.58
939.81	1092.80
940.11	1087.18
940.41	1086.94
940.71	1078.05
941.01	1083.90
941.31	1074.54
941.61	1085.31
941.91	1078.28
942.21	1074.77
942.51	1078.28
942.81	1088.35
943.11	1085.77
943.41	1083.90
943.71	1088.82
944.01	1075.01
944.31	1071.73
944.61	1067.28
944.90	1079.22
945.20	1081.09
945.50	1086.01
945.80	1081.80
946.10	1078.28
946.40	1078.99
946.70	1077.35
947.00	1070.33
947.30	1075.94
947.60	1081.56
947.89	1071.97
948.19	1078.05
948.49	1082.26
948.79	1084.37
949.09	1075.24
949.39	1082.97
949.69	1084.14
949.98	1082.26
950.28	1079.92
950.58	1085.31
950.88	1083.43
951.18	1075.71
951.48	1090.46
951.77	1097.48
952.07	1102.16
952.37	1100.29
952.67	1104.73
952.97	1087.88
953.26	1078.52
953.56	1079.92
953.86	1075.94
954.16	1074.07
954.45	1084.60
954.75	1095.84
955.05	1103.80
955.35	1113.63
955.64	1111.52
955.94	1105.90
956.24	1090.92
956.54	1075.94
956.83	1071.73
957.13	1070.56
957.43	1068.69
957.72	1080.16
958.02	1081.09
958.32	1074.07
958.61	1086.01
958.91	1093.26
959.21	1091.39
959.50	1096.31
959.80	1098.18
960.10	1081.33
960.39	1080.39
960.69	1082.50
960.99	1080.63
961.28	1080.16
961.58	1079.69
961.87	1065.41
962.17	1070.56
962.47	1071.03
962.76	1080.63
963.06	1082.03
963.36	1087.65
963.65	1077.11
963.95	1067.99
964.24	1068.69
964.54	1080.16
964.83	1086.01
965.13	1086.71
965.42	1094.67
965.72	1082.03
966.02	1079.46
966.31	1082.26
966.61	1084.60
966.90	1082.26
967.20	1091.63
967.49	1089.75
967.79	1081.09
968.08	1082.03
968.38	1074.31
968.67	1078.75
968.97	1069.86
969.26	1074.54
969.56	1068.92
969.85	1071.97
970.15	1068.45
970.44	1075.71
970.74	1076.65
971.03	1080.16
971.32	1087.41
971.62	1093.03
971.91	1090.69
972.21	1093.97
972.50	1086.48
972.80	1074.54
973.09	1067.52
973.38	1069.16
973.68	1065.65
973.97	1073.14
974.27	1078.99
974.56	1073.37
974.85	1080.39
975.15	1081.80
975.44	1073.14
975.73	1079.69
976.03	1082.03
976.32	1075.71
976.61	1073.60
976.91	1082.26
977.20	1086.48
977.49	1090.69
977.79	1098.18
978.08	1098.41
978.37	1104.50
978.67	1097.48
978.96	1088.58
979.25	1081.09
979.55	1082.97
979.84	1071.73
980.13	1074.54
980.42	1080.86
980.72	1089.05
981.01	1086.48
981.30	1080.63
981.59	1077.58
981.89	1075.24
982.18	1071.50
982.47	1071.97
982.76	1084.60
983.06	1087.88
983.35	1084.37
983.64	1078.99
983.93	1082.97
984.22	1075.01
984.52	1069.62
984.81	1070.09
985.10	1075.71
985.39	1079.22
985.68	1081.80
985.97	1087.18
986.27	1088.82
986.56	1082.73
986.85	1069.86
987.14	1079.22
987.43	1070.33
987.72	1071.73
988.01	1074.31
988.31	1080.16
988.60	1069.16
988.89	1075.71
989.18	1077.82
989.47	1080.63
989.76	1083.67
990.05	1091.86
990.34	1084.14
990.63	1085.07
990.92	1082.26
991.21	1075.48
991.51	1070.56
991.80	1069.86
992.09	1075.01
992.38	1075.48
992.67	1076.41
992.96	1073.60
993.25	1081.80
993.54	1080.16
993.83	1076.65
994.12	1077.35
994.41	1075.48
994.70	1068.22
994.99	1063.77
995.28	1065.88
995.57	1064.48
995.86	1067.05
996.15	1075.94
996.44	1088.12
996.73	1088.58
997.02	1094.67
997.31	1105.44
997.59	1099.82
997.88	1077.58
998.17	1080.16
998.46	1077.11
998.75	1073.60
999.04	1073.60
999.33	1086.71
999.62	1084.37
999.91	1080.16
1000.20	1071.26
1000.49	1079.92
1000.77	1076.41
1001.06	1081.80
1001.35	1086.94
1001.64	1101.92
1001.93	1103.80
1002.22	1117.61
1002.51	1122.75
1002.79	1130.48
1003.08	1113.86
1003.37	1110.35
1003.66	1089.75
1003.95	1072.43
1004.23	1071.73
1004.52	1083.67
1004.81	1082.03
1005.10	1090.69
1005.39	1098.18
1005.67	1081.09
1005.96	1082.73
1006.25	1079.46
1006.54	1083.90
1006.83	1091.16
1007.11	1097.01
1007.40	1089.29
1007.69	1086.01
1007.97	1075.48
1008.26	1063.07
1008.55	1073.37
1008.84	1072.43
1009.12	1077.35
1009.41	1082.97
1009.70	1078.52
1009.98	1078.28
1010.27	1082.73
1010.56	1084.14
1010.85	1078.28
1011.13	1080.63
1011.42	1077.11
1011.71	1081.56
1011.99	1084.37
1012.28	1089.99
1012.56	1092.80
1012.85	1088.35
1013.14	1081.33
1013.42	1080.86
1013.71	1084.84
1014.00	1084.14
1014.28	1078.52
1014.57	1080.39
1014.85	1081.80
1015.14	1084.84
1015.43	1086.01
1015.71	1093.26
1016.00	1082.50
1016.28	1075.48
1016.57	1069.16
1016.85	1079.22
1017.14	1084.84
1017.43	1085.07
1017.71	1089.05
1018.00	1077.11
1018.28	1069.16
1018.57	1067.05
1018.85	1071.97
1019.14	1068.45
1019.42	1080.63
1019.71	1088.35
1019.99	1082.26
1020.28	1085.31
1020.56	1090.69
1020.85	1086.71
1021.13	1088.35
1021.42	1090.69
1021.70	1094.20
1021.99	1090.22
1022.27	1083.43
1022.55	1075.48
1022.84	1035.69
>>>>>End Processed Spectral Data<<<<<
