SpectraSuite Data File
++++++++++++++++++++++++++++++++++++
Date: Mon Aug 26 10:25:56 PDT 2019
User: corrico
Dark Spectrum Present: No
Reference Spectrum Present: No
Number of Sampled Component Spectra: 1
Spectrometers: USB2+H06089
Integration Time (usec): 10000 (USB2+H06089)
Spectra Averaged: 2 (USB2+H06089)
Boxcar Smoothing: 2 (USB2+H06089)
Correct for Electrical Dark: No (USB2+H06089)
Strobe/Lamp Enabled: No (USB2+H06089)
Correct for Detector Non-linearity: No (USB2+H06089)
Correct for Stray Light: No (USB2+H06089)
Number of Pixels in Processed Spectrum: 2048
>>>>>Begin Processed Spectral Data<<<<<
339.70	997.07
340.07	997.07
340.45	981.15
340.82	960.09
341.19	935.98
341.57	908.13
341.94	890.34
342.31	880.51
342.69	881.21
343.06	891.51
343.43	895.96
343.81	907.66
344.18	916.55
344.55	919.60
344.93	913.51
345.30	927.55
345.67	927.32
346.04	926.62
346.42	938.32
346.79	949.32
347.16	956.11
347.54	963.60
347.91	975.07
348.28	975.54
348.65	987.47
349.03	994.03
349.40	1010.18
349.77	1016.26
350.14	1029.84
350.52	1035.92
350.89	1052.07
351.26	1046.92
351.63	1045.75
352.01	1050.43
352.38	1058.39
352.75	1053.48
353.12	1065.88
353.50	1078.52
353.87	1073.60
354.24	1071.03
354.61	1075.24
354.98	1067.28
355.36	1062.37
355.73	1073.14
356.10	1064.24
356.47	1059.09
356.84	1059.56
357.22	1063.31
357.59	1060.50
357.96	1063.07
358.33	1064.24
358.70	1063.54
359.08	1056.28
359.45	1053.01
359.82	1065.88
360.19	1062.84
360.56	1063.77
360.94	1070.80
361.31	1071.26
361.68	1059.79
362.05	1062.37
362.42	1071.50
362.79	1071.73
363.16	1075.24
363.54	1076.65
363.91	1081.56
364.28	1081.33
364.65	1078.52
365.02	1072.20
365.39	1075.48
365.76	1076.65
366.14	1072.90
366.51	1067.28
366.88	1077.11
367.25	1078.05
367.62	1078.28
367.99	1081.80
368.36	1088.35
368.73	1092.09
369.10	1099.12
369.48	1087.88
369.85	1093.50
370.22	1092.09
370.59	1081.56
370.96	1068.22
371.33	1073.14
371.70	1053.01
372.07	1060.26
372.44	1062.14
372.81	1067.28
373.18	1062.60
373.55	1066.58
373.93	1063.77
374.30	1074.77
374.67	1065.65
375.04	1064.71
375.41	1079.22
375.78	1074.07
376.15	1053.71
376.52	1070.33
376.89	1074.31
377.26	1071.97
377.63	1071.03
378.00	1086.71
378.37	1089.52
378.74	1097.95
379.11	1089.99
379.48	1100.29
379.85	1089.99
380.22	1072.90
380.59	1063.77
380.96	1061.67
381.33	1043.41
381.70	1032.18
382.07	1036.86
382.44	1049.96
382.81	1052.77
383.18	1059.09
383.55	1078.05
383.92	1084.37
384.29	1082.26
384.66	1079.69
385.03	1089.05
385.40	1086.01
385.77	1083.90
386.14	1074.07
386.51	1067.99
386.88	1053.71
387.25	1053.01
387.62	1052.30
387.99	1054.41
388.36	1067.05
388.73	1084.84
389.10	1076.88
389.46	1072.90
389.83	1068.45
390.20	1070.09
390.57	1061.43
390.94	1070.33
391.31	1067.05
391.68	1071.03
392.05	1069.86
392.42	1077.82
392.79	1080.39
393.16	1088.82
393.53	1078.75
393.89	1075.71
394.26	1071.03
394.63	1061.90
395.00	1069.62
395.37	1078.05
395.74	1068.92
396.11	1069.39
396.48	1071.26
396.84	1058.16
397.21	1058.16
397.58	1074.07
397.95	1070.80
398.32	1077.82
398.69	1085.54
399.06	1090.92
399.42	1079.22
399.79	1077.35
400.16	1075.48
400.53	1063.54
400.90	1060.73
401.27	1070.80
401.64	1070.09
402.00	1071.26
402.37	1075.01
402.74	1075.01
403.11	1068.22
403.48	1076.41
403.84	1068.92
404.21	1070.33
404.58	1073.14
404.95	1069.16
405.32	1058.16
405.68	1062.37
406.05	1066.58
406.42	1060.96
406.79	1062.37
407.16	1060.73
407.52	1064.01
407.89	1062.14
408.26	1063.77
408.63	1064.71
408.99	1070.09
409.36	1074.54
409.73	1068.92
410.10	1076.18
410.47	1074.07
410.83	1079.69
411.20	1067.52
411.57	1079.22
411.94	1063.31
412.30	1056.99
412.67	1060.50
413.04	1065.88
413.40	1059.09
413.77	1075.24
414.14	1085.77
414.51	1072.43
414.87	1074.77
415.24	1074.54
415.61	1070.33
415.97	1060.03
416.34	1065.88
416.71	1057.69
417.08	1060.96
417.44	1064.48
417.81	1068.45
418.18	1065.18
418.54	1065.41
418.91	1063.07
419.28	1062.60
419.64	1065.18
420.01	1065.65
420.38	1075.24
420.74	1085.31
421.11	1089.52
421.48	1103.09
421.84	1112.46
422.21	1112.22
422.58	1106.37
422.94	1101.92
423.31	1086.01
423.68	1083.20
424.04	1082.50
424.41	1080.86
424.77	1077.11
425.14	1090.22
425.51	1083.20
425.87	1078.52
426.24	1073.60
426.61	1068.22
426.97	1066.11
427.34	1076.41
427.70	1065.41
428.07	1066.35
428.44	1070.09
428.80	1069.86
429.17	1063.77
429.53	1073.60
429.90	1074.77
430.27	1069.62
430.63	1072.67
431.00	1075.71
431.36	1082.97
431.73	1086.48
432.09	1090.46
432.46	1081.09
432.83	1091.86
433.19	1089.75
433.56	1093.03
433.92	1103.09
434.29	1109.65
434.65	1102.63
435.02	1102.63
435.38	1095.14
435.75	1084.37
436.11	1086.01
436.48	1073.14
436.84	1074.77
437.21	1076.65
437.57	1073.60
437.94	1071.26
438.30	1076.65
438.67	1068.22
439.03	1074.54
439.40	1084.37
439.76	1072.20
440.13	1080.63
440.49	1094.20
440.86	1090.22
441.22	1078.99
441.59	1089.29
441.95	1082.03
442.32	1080.86
442.68	1081.80
443.05	1094.67
443.41	1093.03
443.78	1095.14
444.14	1085.07
444.51	1076.65
444.87	1077.35
445.24	1082.97
445.60	1075.01
445.96	1076.65
446.33	1088.82
446.69	1085.77
447.06	1076.65
447.42	1083.20
447.79	1084.37
448.15	1069.86
448.51	1070.33
448.88	1070.09
449.24	1070.56
449.61	1075.94
449.97	1085.77
450.33	1078.28
450.70	1090.69
451.06	1089.99
451.43	1087.18
451.79	1096.07
452.15	1093.97
452.52	1079.22
452.88	1076.88
453.24	1068.92
453.61	1064.71
453.97	1068.92
454.34	1074.54
454.70	1071.50
455.06	1083.20
455.43	1074.31
455.79	1074.77
456.15	1084.37
456.52	1087.41
456.88	1083.67
457.24	1089.99
457.61	1090.92
457.97	1088.12
458.33	1102.86
458.70	1097.95
459.06	1087.41
459.42	1088.82
459.79	1081.80
460.15	1069.39
460.51	1071.03
460.88	1077.11
461.24	1076.41
461.60	1076.65
461.96	1076.18
462.33	1082.97
462.69	1084.37
463.05	1083.43
463.42	1086.94
463.78	1088.82
464.14	1079.69
464.50	1090.22
464.87	1088.12
465.23	1084.60
465.59	1080.39
465.95	1082.97
466.32	1075.71
466.68	1082.97
467.04	1085.54
467.40	1086.94
467.77	1089.99
468.13	1084.60
468.49	1079.69
468.85	1076.41
469.22	1072.90
469.58	1080.63
469.94	1076.65
470.30	1075.94
470.66	1064.01
471.03	1069.62
471.39	1059.33
471.75	1062.84
472.11	1055.11
472.47	1063.77
472.84	1070.56
473.20	1057.45
473.56	1065.88
473.92	1076.65
474.28	1076.18
474.65	1070.80
475.01	1080.16
475.37	1076.88
475.73	1082.50
476.09	1092.56
476.45	1089.29
476.81	1092.33
477.18	1090.22
477.54	1082.97
477.90	1079.92
478.26	1079.92
478.62	1077.35
478.98	1076.18
479.34	1088.58
479.71	1090.69
480.07	1087.88
480.43	1097.24
480.79	1104.97
481.15	1088.12
481.51	1087.88
481.87	1092.80
482.23	1089.75
482.59	1082.50
482.96	1088.58
483.32	1087.18
483.68	1084.84
484.04	1085.77
484.40	1087.41
484.76	1075.48
485.12	1076.41
485.48	1075.71
485.84	1070.09
486.20	1073.37
486.56	1074.31
486.92	1075.94
487.28	1082.26
487.64	1089.05
488.00	1087.65
488.37	1097.95
488.73	1093.03
489.09	1094.90
489.45	1091.16
489.81	1086.94
490.17	1082.73
490.53	1075.94
490.89	1065.41
491.25	1064.71
491.61	1067.28
491.97	1065.18
492.33	1064.94
492.69	1071.26
493.05	1069.16
493.41	1071.73
493.77	1085.07
494.13	1091.39
494.49	1095.84
494.85	1089.99
495.21	1081.56
495.57	1068.22
495.93	1067.05
496.29	1066.11
496.64	1076.65
497.00	1090.69
497.36	1093.73
497.72	1093.03
498.08	1084.14
498.44	1078.75
498.80	1067.75
499.16	1062.60
499.52	1070.33
499.88	1072.67
500.24	1073.84
500.60	1069.86
500.96	1076.18
501.32	1068.92
501.68	1061.90
502.03	1059.79
502.39	1062.14
502.75	1066.35
503.11	1076.65
503.47	1083.67
503.83	1082.50
504.19	1084.84
504.55	1090.22
504.91	1079.22
505.26	1089.05
505.62	1093.73
505.98	1097.71
506.34	1087.18
506.70	1090.46
507.06	1077.35
507.42	1083.67
507.78	1077.58
508.13	1082.03
508.49	1086.01
508.85	1090.92
509.21	1083.90
509.57	1096.78
509.93	1091.16
510.28	1089.05
510.64	1084.84
511.00	1087.65
511.36	1080.63
511.72	1079.22
512.07	1083.43
512.43	1094.67
512.79	1092.56
513.15	1085.31
513.51	1092.33
513.86	1090.22
514.22	1079.46
514.58	1079.46
514.94	1090.22
515.30	1090.92
515.65	1083.90
516.01	1089.99
516.37	1090.92
516.73	1085.77
517.08	1086.01
517.44	1093.97
517.80	1099.82
518.16	1110.58
518.51	1104.26
518.87	1100.05
519.23	1097.01
519.59	1090.22
519.94	1083.43
520.30	1087.88
520.66	1100.99
521.01	1104.73
521.37	1109.41
521.73	1102.16
522.09	1114.10
522.44	1108.71
522.80	1104.97
523.16	1092.80
523.51	1088.82
523.87	1069.16
524.23	1069.39
524.58	1068.69
524.94	1081.33
525.30	1088.35
525.65	1096.31
526.01	1079.69
526.37	1074.31
526.72	1068.69
527.08	1066.82
527.44	1074.54
527.79	1089.05
528.15	1086.71
528.51	1080.39
528.86	1073.37
529.22	1059.56
529.58	1055.11
529.93	1062.37
530.29	1063.07
530.65	1071.03
531.00	1087.41
531.36	1093.97
531.71	1097.48
532.07	1105.44
532.43	1108.01
532.78	1097.01
533.14	1098.41
533.49	1093.50
533.85	1094.90
534.21	1094.90
534.56	1100.29
534.92	1100.75
535.27	1098.18
535.63	1093.03
535.98	1087.88
536.34	1082.03
536.69	1076.41
537.05	1081.09
537.41	1078.99
537.76	1081.33
538.12	1081.33
538.47	1082.26
538.83	1085.31
539.18	1092.09
539.54	1096.31
539.89	1094.67
540.25	1084.14
540.60	1082.03
540.96	1075.94
541.31	1080.39
541.67	1086.24
542.02	1087.41
542.38	1080.63
542.73	1074.07
543.09	1073.37
543.44	1064.94
543.80	1068.69
544.15	1074.54
544.51	1084.37
544.86	1074.54
545.22	1083.43
545.57	1088.82
545.93	1089.05
546.28	1090.46
546.64	1101.92
546.99	1089.75
547.35	1089.05
547.70	1089.05
548.05	1077.11
548.41	1071.26
548.76	1079.22
549.12	1086.01
549.47	1089.05
549.83	1098.88
550.18	1100.52
550.53	1101.69
550.89	1093.50
551.24	1090.22
551.60	1093.73
551.95	1097.48
552.30	1098.41
552.66	1103.56
553.01	1109.41
553.37	1103.80
553.72	1092.09
554.07	1090.69
554.43	1089.29
554.78	1086.71
555.13	1089.05
555.49	1091.39
555.84	1088.58
556.19	1088.35
556.55	1080.16
556.90	1084.60
557.26	1087.41
557.61	1085.54
557.96	1083.67
558.32	1086.01
558.67	1092.09
559.02	1092.33
559.37	1092.09
559.73	1086.48
560.08	1097.24
560.43	1095.37
560.79	1085.77
561.14	1093.73
561.49	1094.90
561.85	1098.41
562.20	1086.01
562.55	1093.50
562.90	1091.86
563.26	1089.29
563.61	1076.18
563.96	1082.97
564.32	1082.26
564.67	1083.43
565.02	1084.84
565.37	1083.67
565.73	1096.78
566.08	1098.88
566.43	1095.60
566.78	1092.80
567.14	1094.90
567.49	1083.43
567.84	1084.14
568.19	1080.63
568.54	1086.94
568.90	1099.12
569.25	1084.37
569.60	1079.22
569.95	1091.39
570.31	1089.75
570.66	1074.07
571.01	1087.88
571.36	1093.73
571.71	1085.54
572.06	1085.07
572.42	1084.14
572.77	1072.90
573.12	1065.65
573.47	1066.58
573.82	1061.43
574.18	1063.77
574.53	1072.20
574.88	1070.56
575.23	1071.03
575.58	1081.56
575.93	1088.12
576.28	1092.56
576.64	1099.82
576.99	1105.44
577.34	1100.75
577.69	1093.97
578.04	1089.05
578.39	1089.99
578.74	1078.52
579.09	1086.01
579.44	1090.22
579.80	1096.78
580.15	1095.84
580.50	1102.16
580.85	1090.46
581.20	1084.60
581.55	1073.60
581.90	1071.50
582.25	1065.88
582.60	1064.01
582.95	1076.65
583.30	1081.09
583.65	1089.29
584.00	1091.39
584.35	1104.50
584.71	1091.86
585.06	1082.50
585.41	1079.22
585.76	1089.75
586.11	1088.58
586.46	1095.84
586.81	1096.54
587.16	1093.26
587.51	1089.05
587.86	1082.50
588.21	1081.56
588.56	1086.48
588.91	1086.01
589.26	1077.11
589.61	1084.14
589.96	1083.67
590.31	1084.14
590.66	1073.60
591.01	1084.60
591.36	1080.86
591.71	1082.03
592.06	1089.05
592.41	1106.61
592.76	1098.65
593.10	1099.35
593.45	1094.43
593.80	1090.22
594.15	1080.39
594.50	1080.39
594.85	1077.82
595.20	1079.22
595.55	1079.92
595.90	1090.92
596.25	1096.07
596.60	1086.71
596.95	1080.86
597.30	1083.20
597.64	1130.01
597.99	1122.05
598.34	1134.46
598.69	1141.71
599.04	1145.69
599.39	1096.78
599.74	1102.16
600.09	1103.56
600.44	1114.10
600.78	1104.97
601.13	1094.90
601.48	1090.92
601.83	1089.05
602.18	1082.03
602.53	1079.46
602.88	1084.60
603.22	1085.07
603.57	1079.46
603.92	1082.97
604.27	1086.71
604.62	1082.97
604.97	1084.60
605.31	1079.46
605.66	1069.16
606.01	1069.62
606.36	1068.69
606.71	1063.07
607.05	1080.39
607.40	1085.07
607.75	1082.97
608.10	1080.86
608.44	1089.29
608.79	1081.56
609.14	1080.16
609.49	1086.24
609.84	1086.48
610.18	1085.31
610.53	1090.92
610.88	1089.99
611.23	1092.56
611.57	1104.97
611.92	1105.90
612.27	1101.46
612.62	1104.03
612.96	1102.39
613.31	1087.41
613.66	1079.92
614.00	1075.01
614.35	1075.24
614.70	1067.05
615.05	1074.54
615.39	1072.20
615.74	1072.43
616.09	1061.90
616.43	1071.73
616.78	1067.05
617.13	1071.03
617.47	1074.07
617.82	1085.07
618.17	1078.52
618.51	1077.58
618.86	1082.26
619.21	1083.43
619.55	1076.65
619.90	1081.80
620.25	1082.73
620.59	1079.22
620.94	1077.35
621.29	1086.71
621.63	1079.69
621.98	1084.60
622.32	1089.99
622.67	1089.52
623.02	1087.65
623.36	1097.48
623.71	1097.95
624.05	1094.20
624.40	1088.58
624.75	1087.65
625.09	1075.24
625.44	1072.67
625.78	1071.03
626.13	1081.80
626.48	1079.69
626.82	1081.56
627.17	1080.16
627.51	1082.03
627.86	1087.88
628.20	1089.52
628.55	1100.99
628.89	1113.39
629.24	1113.39
629.58	1091.39
629.93	1087.88
630.28	1072.20
630.62	1061.67
630.97	1056.05
631.31	1067.75
631.66	1064.94
632.00	1073.84
632.35	1074.54
632.69	1081.09
633.04	1082.03
633.38	1086.71
633.73	1078.05
634.07	1086.01
634.42	1093.73
634.76	1084.14
635.11	1089.75
635.45	1091.39
635.79	1081.09
636.14	1071.97
636.48	1071.26
636.83	1057.92
637.17	1062.37
637.52	1060.96
637.86	1067.52
638.21	1074.77
638.55	1074.07
638.89	1067.99
639.24	1071.73
639.58	1074.77
639.93	1066.82
640.27	1076.18
640.61	1076.65
640.96	1080.63
641.30	1068.22
641.65	1065.88
641.99	1052.07
642.33	1065.88
642.68	1069.16
643.02	1081.33
643.37	1086.94
643.71	1100.05
644.05	1090.22
644.40	1090.92
644.74	1075.01
645.08	1081.33
645.43	1084.14
645.77	1082.73
646.11	1078.52
646.46	1085.54
646.80	1085.54
647.14	1085.31
647.49	1088.12
647.83	1087.41
648.17	1091.63
648.52	1093.73
648.86	1084.60
649.20	1080.63
649.55	1080.63
649.89	1080.63
650.23	1085.54
650.57	1095.14
650.92	1098.88
651.26	1094.20
651.60	1090.22
651.95	1095.60
652.29	1091.39
652.63	1096.78
652.97	1102.63
653.32	1104.97
653.66	1093.97
654.00	1087.41
654.34	1076.41
654.69	1065.88
655.03	1069.86
655.37	1060.50
655.71	1071.50
656.05	1077.11
656.40	1089.99
656.74	1085.54
657.08	1097.95
657.42	1099.58
657.76	1106.37
658.11	1089.05
658.45	1079.69
658.79	1076.65
659.13	1079.46
659.47	1079.69
659.82	1086.71
660.16	1091.63
660.50	1087.88
660.84	1084.14
661.18	1075.01
661.52	1080.86
661.87	1086.48
662.21	1081.80
662.55	1068.92
662.89	1071.03
663.23	1067.05
663.57	1064.94
663.91	1071.97
664.25	1082.03
664.60	1083.43
664.94	1081.56
665.28	1086.94
665.62	1086.48
665.96	1079.92
666.30	1077.58
666.64	1088.82
666.98	1079.92
667.32	1082.73
667.66	1095.84
668.01	1091.63
668.35	1080.63
668.69	1085.54
669.03	1088.58
669.37	1081.80
669.71	1089.52
670.05	1089.99
670.39	1091.86
670.73	1082.03
671.07	1081.80
671.41	1080.63
671.75	1080.39
672.09	1085.54
672.43	1086.71
672.77	1076.65
673.11	1072.20
673.45	1075.71
673.79	1069.39
674.13	1079.92
674.47	1094.90
674.81	1096.31
675.15	1090.46
675.49	1092.09
675.83	1091.63
676.17	1084.60
676.51	1086.48
676.85	1102.39
677.19	1101.92
677.53	1101.92
677.87	1109.18
678.21	1119.95
678.55	1115.50
678.89	1116.67
679.23	1112.92
679.57	1105.67
679.90	1098.41
680.24	1097.95
680.58	1102.63
680.92	1109.65
681.26	1114.56
681.60	1100.99
681.94	1097.24
682.28	1083.67
682.62	1072.20
682.96	1067.52
683.29	1073.37
683.63	1078.05
683.97	1078.52
684.31	1074.07
684.65	1079.46
684.99	1080.86
685.33	1067.99
685.67	1065.65
686.00	1070.56
686.34	1062.14
686.68	1061.43
687.02	1067.28
687.36	1066.35
687.70	1066.58
688.03	1064.24
688.37	1065.18
688.71	1061.90
689.05	1071.26
689.39	1071.50
689.72	1068.45
690.06	1070.56
690.40	1078.75
690.74	1065.18
691.08	1073.14
691.41	1079.22
691.75	1086.48
692.09	1075.24
692.43	1082.03
692.76	1076.41
693.10	1084.14
693.44	1079.92
693.78	1080.86
694.11	1081.09
694.45	1073.37
694.79	1060.50
695.13	1059.56
695.46	1068.69
695.80	1071.97
696.14	1082.03
696.48	1090.22
696.81	1090.46
697.15	1097.24
697.49	1092.09
697.82	1089.75
698.16	1090.46
698.50	1093.26
698.83	1078.05
699.17	1091.39
699.51	1086.71
699.84	1077.58
700.18	1078.52
700.52	1092.56
700.85	1073.84
701.19	1069.16
701.53	1079.22
701.86	1068.92
702.20	1059.79
702.54	1068.69
702.87	1071.73
703.21	1072.20
703.55	1080.39
703.88	1077.35
704.22	1076.41
704.55	1082.50
704.89	1082.50
705.23	1079.92
705.56	1087.88
705.90	1089.75
706.23	1085.07
706.57	1078.05
706.91	1073.14
707.24	1060.96
707.58	1059.09
707.91	1061.43
708.25	1056.28
708.58	1064.24
708.92	1066.58
709.26	1069.86
709.59	1071.97
709.93	1080.39
710.26	1076.41
710.60	1078.75
710.93	1082.50
711.27	1080.16
711.60	1076.88
711.94	1076.65
712.27	1080.86
712.61	1080.16
712.94	1070.56
713.28	1071.03
713.61	1077.58
713.95	1077.11
714.28	1075.48
714.62	1094.43
714.95	1093.97
715.29	1081.80
715.62	1085.77
715.96	1084.60
716.29	1071.97
716.63	1083.67
716.96	1089.29
717.29	1106.37
717.63	1105.44
717.96	1101.46
718.30	1090.92
718.63	1090.46
718.97	1084.14
719.30	1084.14
719.63	1086.24
719.97	1086.94
720.30	1085.54
720.64	1075.24
720.97	1075.71
721.30	1074.54
721.64	1079.69
721.97	1075.48
722.31	1069.86
722.64	1064.94
722.97	1070.56
723.31	1067.52
723.64	1084.37
723.97	1083.67
724.31	1090.92
724.64	1093.50
724.98	1089.52
725.31	1082.50
725.64	1084.14
725.98	1082.97
726.31	1077.11
726.64	1077.11
726.97	1079.46
727.31	1086.01
727.64	1082.03
727.97	1081.56
728.31	1089.75
728.64	1082.50
728.97	1075.01
729.31	1078.05
729.64	1078.28
729.97	1073.84
730.30	1077.35
730.64	1083.90
730.97	1078.99
731.30	1076.88
731.63	1074.77
731.97	1073.84
732.30	1067.52
732.63	1067.28
732.96	1069.86
733.30	1067.99
733.63	1064.01
733.96	1062.14
734.29	1068.45
734.63	1081.56
734.96	1084.84
735.29	1086.94
735.62	1089.29
735.95	1088.82
736.29	1077.35
736.62	1080.63
736.95	1085.54
737.28	1087.88
737.61	1085.77
737.94	1093.73
738.28	1089.99
738.61	1079.69
738.94	1078.75
739.27	1076.65
739.60	1071.97
739.93	1071.50
740.27	1078.28
740.60	1076.18
740.93	1077.35
741.26	1076.41
741.59	1084.14
741.92	1085.31
742.25	1095.60
742.58	1101.69
742.91	1097.95
743.25	1089.52
743.58	1080.39
743.91	1072.20
744.24	1053.94
744.57	1050.20
744.90	1056.05
745.23	1065.65
745.56	1066.82
745.89	1072.90
746.22	1082.50
746.55	1076.41
746.88	1067.28
747.21	1064.24
747.54	1070.33
747.87	1055.35
748.20	1060.73
748.53	1067.99
748.87	1072.43
749.20	1070.56
749.53	1075.48
749.86	1069.16
750.19	1075.48
750.52	1066.11
750.85	1070.56
751.18	1082.73
751.51	1086.94
751.84	1083.20
752.16	1095.84
752.49	1100.99
752.82	1093.50
753.15	1106.14
753.48	1102.63
753.81	1098.41
754.14	1089.75
754.47	1097.71
754.80	1078.52
755.13	1074.77
755.46	1068.22
755.79	1078.75
756.12	1069.62
756.45	1078.99
756.78	1069.39
757.11	1068.69
757.43	1061.43
757.76	1065.65
758.09	1060.26
758.42	1080.16
758.75	1084.37
759.08	1086.94
759.41	1098.41
759.74	1098.65
760.07	1093.73
760.39	1093.50
760.72	1098.41
761.05	1082.03
761.38	1084.37
761.71	1081.80
762.04	1089.99
762.36	1079.46
762.69	1085.07
763.02	1088.12
763.35	1089.99
763.68	1078.52
764.01	1075.71
764.33	1065.18
764.66	1061.67
764.99	1060.73
765.32	1057.45
765.65	1068.45
765.97	1076.18
766.30	1077.82
766.63	1081.33
766.96	1084.60
767.28	1075.71
767.61	1078.75
767.94	1068.22
768.27	1065.88
768.59	1062.37
768.92	1064.48
769.25	1063.77
769.58	1069.16
769.90	1073.84
770.23	1076.88
770.56	1074.77
770.89	1074.54
771.21	1078.75
771.54	1080.86
771.87	1092.80
772.19	1100.29
772.52	1099.12
772.85	1097.48
773.17	1091.39
773.50	1085.54
773.83	1078.28
774.15	1077.35
774.48	1085.07
774.81	1083.67
775.13	1075.48
775.46	1084.60
775.79	1086.71
776.11	1085.77
776.44	1081.80
776.77	1082.97
777.09	1080.39
777.42	1087.18
777.74	1081.56
778.07	1089.99
778.40	1093.26
778.72	1094.20
779.05	1083.67
779.37	1077.58
779.70	1077.58
780.03	1078.52
780.35	1071.73
780.68	1067.52
781.00	1072.43
781.33	1066.82
781.65	1067.99
781.98	1066.11
782.31	1068.92
782.63	1062.84
782.96	1061.43
783.28	1053.94
783.61	1054.41
783.93	1062.84
784.26	1063.07
784.58	1060.96
784.91	1071.50
785.23	1075.01
785.56	1070.09
785.88	1065.18
786.21	1067.28
786.53	1055.35
786.86	1052.54
787.18	1048.56
787.51	1059.56
787.83	1064.01
788.16	1077.58
788.48	1081.80
788.81	1083.20
789.13	1082.26
789.46	1076.41
789.78	1070.33
790.10	1070.33
790.43	1067.28
790.75	1067.99
791.08	1072.67
791.40	1086.24
791.73	1093.26
792.05	1092.09
792.37	1098.41
792.70	1089.52
793.02	1063.07
793.35	1049.73
793.67	1053.94
793.99	1048.56
794.32	1067.75
794.64	1079.69
794.96	1084.14
795.29	1084.37
795.61	1085.54
795.93	1071.03
796.26	1072.67
796.58	1069.86
796.91	1074.77
797.23	1067.75
797.55	1069.39
797.87	1074.77
798.20	1084.60
798.52	1079.92
798.84	1081.33
799.17	1085.54
799.49	1074.31
799.81	1073.84
800.14	1083.90
800.46	1094.43
800.78	1096.54
801.10	1111.29
801.43	1111.75
801.75	1097.24
802.07	1091.39
802.40	1087.65
802.72	1084.14
803.04	1084.37
803.36	1089.75
803.69	1094.43
804.01	1102.86
804.33	1093.50
804.65	1094.67
804.97	1097.71
805.30	1097.71
805.62	1100.05
805.94	1111.75
806.26	1102.63
806.58	1108.01
806.91	1107.54
807.23	1092.80
807.55	1089.29
807.87	1087.18
808.19	1082.03
808.52	1087.88
808.84	1094.90
809.16	1094.90
809.48	1096.78
809.80	1102.86
810.12	1088.35
810.44	1086.48
810.77	1084.37
811.09	1087.18
811.41	1073.60
811.73	1076.88
812.05	1075.24
812.37	1075.48
812.69	1062.37
813.01	1065.41
813.33	1066.58
813.66	1062.60
813.98	1056.52
814.30	1064.48
814.62	1064.01
814.94	1065.65
815.26	1067.05
815.58	1071.03
815.90	1072.43
816.22	1082.50
816.54	1084.14
816.86	1084.84
817.18	1086.71
817.50	1097.24
817.82	1089.29
818.14	1093.50
818.46	1094.20
818.78	1091.39
819.10	1087.65
819.42	1087.18
819.74	1077.11
820.06	1075.94
820.38	1070.33
820.70	1072.90
821.02	1077.35
821.34	1078.05
821.66	1085.07
821.98	1091.16
822.30	1086.71
822.62	1083.20
822.94	1092.80
823.26	1085.54
823.58	1094.67
823.90	1091.16
824.22	1089.29
824.54	1074.31
824.86	1071.50
825.18	1069.16
825.50	1077.11
825.81	1074.54
826.13	1075.48
826.45	1082.50
826.77	1066.35
827.09	1053.71
827.41	1055.82
827.73	1062.37
828.05	1064.94
828.36	1073.14
828.68	1084.84
829.00	1083.20
829.32	1080.39
829.64	1074.07
829.96	1074.54
830.28	1070.56
830.59	1071.50
830.91	1071.73
831.23	1070.33
831.55	1057.92
831.87	1054.88
832.19	1063.31
832.50	1063.07
832.82	1067.05
833.14	1078.28
833.46	1071.97
833.78	1065.65
834.09	1060.73
834.41	1065.65
834.73	1070.56
835.05	1079.92
835.36	1085.07
835.68	1091.39
836.00	1086.24
836.32	1074.07
836.63	1076.88
836.95	1074.77
837.27	1076.88
837.59	1073.84
837.90	1092.33
838.22	1088.82
838.54	1088.82
838.85	1089.29
839.17	1088.35
839.49	1081.09
839.80	1086.24
840.12	1087.41
840.44	1083.43
840.76	1091.16
841.07	1099.35
841.39	1096.07
841.71	1100.75
842.02	1104.50
842.34	1100.29
842.65	1088.35
842.97	1078.75
843.29	1070.33
843.60	1067.52
843.92	1067.28
844.24	1074.07
844.55	1077.58
844.87	1075.71
845.18	1078.75
845.50	1078.28
845.82	1067.52
846.13	1068.45
846.45	1073.37
846.76	1074.54
847.08	1072.43
847.40	1082.50
847.71	1088.35
848.03	1091.39
848.34	1087.88
848.66	1098.18
848.97	1093.03
849.29	1085.31
849.60	1087.88
849.92	1092.33
850.24	1080.39
850.55	1079.46
850.87	1088.82
851.18	1087.88
851.50	1085.54
851.81	1091.86
852.13	1095.37
852.44	1093.03
852.76	1094.20
853.07	1089.52
853.39	1082.26
853.70	1081.09
854.01	1069.39
854.33	1051.60
854.64	1049.03
854.96	1048.33
855.27	1044.11
855.59	1053.94
855.90	1060.73
856.22	1067.99
856.53	1072.20
856.84	1073.60
857.16	1080.63
857.47	1083.67
857.79	1076.88
858.10	1076.88
858.41	1085.07
858.73	1084.14
859.04	1084.37
859.36	1084.37
859.67	1086.94
859.98	1080.63
860.30	1072.67
860.61	1068.92
860.92	1072.90
861.24	1073.84
861.55	1064.01
861.87	1060.03
862.18	1061.20
862.49	1066.82
862.81	1070.80
863.12	1085.07
863.43	1088.35
863.74	1092.56
864.06	1092.33
864.37	1086.24
864.68	1084.37
865.00	1091.63
865.31	1091.86
865.62	1093.03
865.94	1091.39
866.25	1095.37
866.56	1076.18
866.87	1083.90
867.19	1084.14
867.50	1088.82
867.81	1078.75
868.12	1103.33
868.44	1098.18
868.75	1088.58
869.06	1088.82
869.37	1088.82
869.68	1079.22
870.00	1080.63
870.31	1092.33
870.62	1095.14
870.93	1107.54
871.24	1099.35
871.56	1092.33
871.87	1079.69
872.18	1083.90
872.49	1064.94
872.80	1068.92
873.12	1073.84
873.43	1073.14
873.74	1051.60
874.05	1064.71
874.36	1065.41
874.67	1071.73
874.98	1075.71
875.29	1090.92
875.61	1095.14
875.92	1107.07
876.23	1100.75
876.54	1110.35
876.85	1109.18
877.16	1098.41
877.47	1093.26
877.78	1086.71
878.09	1085.31
878.40	1083.90
878.72	1085.77
879.03	1085.31
879.34	1081.56
879.65	1078.28
879.96	1080.63
880.27	1089.29
880.58	1083.20
880.89	1095.14
881.20	1089.05
881.51	1092.33
881.82	1080.16
882.13	1082.26
882.44	1092.33
882.75	1095.60
883.06	1092.80
883.37	1099.35
883.68	1100.05
883.99	1086.48
884.30	1090.92
884.61	1078.28
884.92	1078.28
885.23	1075.48
885.54	1075.01
885.85	1072.20
886.16	1078.75
886.47	1085.31
886.78	1083.90
887.08	1078.52
887.39	1074.77
887.70	1081.09
888.01	1072.90
888.32	1074.54
888.63	1077.35
888.94	1078.75
889.25	1066.11
889.56	1073.60
889.87	1073.84
890.17	1078.05
890.48	1077.35
890.79	1090.92
891.10	1088.12
891.41	1091.39
891.72	1093.03
892.03	1099.35
892.34	1108.71
892.64	1100.29
892.95	1103.56
893.26	1100.29
893.57	1103.33
893.88	1091.16
894.18	1100.05
894.49	1093.73
894.80	1100.52
895.11	1082.97
895.42	1078.05
895.72	1065.88
896.03	1067.99
896.34	1056.05
896.65	1069.62
896.96	1073.60
897.26	1081.09
897.57	1075.24
897.88	1076.18
898.19	1075.71
898.49	1066.35
898.80	1064.01
899.11	1065.65
899.41	1069.16
899.72	1069.62
900.03	1073.60
900.34	1071.50
900.64	1074.77
900.95	1070.33
901.26	1069.16
901.56	1068.69
901.87	1069.62
902.18	1073.60
902.48	1078.52
902.79	1078.99
903.10	1082.26
903.40	1084.60
903.71	1082.03
904.02	1080.86
904.32	1071.73
904.63	1072.67
904.94	1072.20
905.24	1065.88
905.55	1068.92
905.85	1075.71
906.16	1077.35
906.47	1076.65
906.77	1080.86
907.08	1071.50
907.38	1070.09
907.69	1064.48
908.00	1069.39
908.30	1075.48
908.61	1086.71
908.91	1093.97
909.22	1102.86
909.52	1104.73
909.83	1093.26
910.14	1077.58
910.44	1065.65
910.75	1067.05
911.05	1066.35
911.36	1070.09
911.66	1087.88
911.97	1089.75
912.27	1085.54
912.58	1082.03
912.88	1080.39
913.19	1071.03
913.49	1067.99
913.80	1066.82
914.10	1069.62
914.41	1074.31
914.71	1078.05
915.01	1082.73
915.32	1078.52
915.62	1082.26
915.93	1079.46
916.23	1078.05
916.54	1078.28
916.84	1073.60
917.15	1067.75
917.45	1072.20
917.75	1070.56
918.06	1072.43
918.36	1086.71
918.67	1081.80
918.97	1074.07
919.27	1075.71
919.58	1063.31
919.88	1060.73
920.18	1068.45
920.49	1070.33
920.79	1068.92
921.10	1083.90
921.40	1077.82
921.70	1071.03
922.01	1072.67
922.31	1069.16
922.61	1056.75
922.92	1056.28
923.22	1054.88
923.52	1054.65
923.82	1065.41
924.13	1079.46
924.43	1084.60
924.73	1087.65
925.04	1087.18
925.34	1087.18
925.64	1091.16
925.94	1087.88
926.25	1089.29
926.55	1099.35
926.85	1093.73
927.15	1083.20
927.46	1087.41
927.76	1082.73
928.06	1071.26
928.36	1078.99
928.67	1073.14
928.97	1061.67
929.27	1059.33
929.57	1069.39
929.87	1059.79
930.18	1064.71
930.48	1068.92
930.78	1081.09
931.08	1080.63
931.38	1074.07
931.69	1071.50
931.99	1076.88
932.29	1075.71
932.59	1068.22
932.89	1078.05
933.19	1081.09
933.49	1074.77
933.80	1078.05
934.10	1086.24
934.40	1082.97
934.70	1082.26
935.00	1089.05
935.30	1088.12
935.60	1072.67
935.90	1069.86
936.20	1072.20
936.50	1070.56
936.81	1061.67
937.11	1073.14
937.41	1078.75
937.71	1079.92
938.01	1077.58
938.31	1084.84
938.61	1089.05
938.91	1094.20
939.21	1082.26
939.51	1083.20
939.81	1081.56
940.11	1073.14
940.41	1073.84
940.71	1084.60
941.01	1094.90
941.31	1092.09
941.61	1098.88
941.91	1091.39
942.21	1089.52
942.51	1075.94
942.81	1073.37
943.11	1069.62
943.41	1065.65
943.71	1063.77
944.01	1062.84
944.31	1064.48
944.61	1064.24
944.90	1067.75
945.20	1071.03
945.50	1080.16
945.80	1082.26
946.10	1079.92
946.40	1084.14
946.70	1091.16
947.00	1093.26
947.30	1091.86
947.60	1087.65
947.89	1086.01
948.19	1074.77
948.49	1076.65
948.79	1070.33
949.09	1075.48
949.39	1074.77
949.69	1074.54
949.98	1065.41
950.28	1072.90
950.58	1080.86
950.88	1084.84
951.18	1086.01
951.48	1085.54
951.77	1081.80
952.07	1070.80
952.37	1072.90
952.67	1075.24
952.97	1080.16
953.26	1085.31
953.56	1088.82
953.86	1081.56
954.16	1083.90
954.45	1080.39
954.75	1082.50
955.05	1082.50
955.35	1080.86
955.64	1077.35
955.94	1067.75
956.24	1061.43
956.54	1054.18
956.83	1051.84
957.13	1049.03
957.43	1059.09
957.72	1056.75
958.02	1060.26
958.32	1060.96
958.61	1068.69
958.91	1077.82
959.21	1082.50
959.50	1084.60
959.80	1090.69
960.10	1083.43
960.39	1070.33
960.69	1074.77
960.99	1075.24
961.28	1067.52
961.58	1075.71
961.87	1076.88
962.17	1079.22
962.47	1075.71
962.76	1074.77
963.06	1069.86
963.36	1072.67
963.65	1071.50
963.95	1075.01
964.24	1086.48
964.54	1085.31
964.83	1090.46
965.13	1083.90
965.42	1091.16
965.72	1086.24
966.02	1095.14
966.31	1091.16
966.61	1089.05
966.90	1087.18
967.20	1093.50
967.49	1092.09
967.79	1095.37
968.08	1097.71
968.38	1095.37
968.67	1089.52
968.97	1083.20
969.26	1076.18
969.56	1069.86
969.85	1074.54
970.15	1067.28
970.44	1068.69
970.74	1066.35
971.03	1082.73
971.32	1070.33
971.62	1078.05
971.91	1078.75
972.21	1081.80
972.50	1068.69
972.80	1067.28
973.09	1068.22
973.38	1072.90
973.68	1078.28
973.97	1080.63
974.27	1084.37
974.56	1083.20
974.85	1071.03
975.15	1056.28
975.44	1051.60
975.73	1060.03
976.03	1060.26
976.32	1067.99
976.61	1084.84
976.91	1095.14
977.20	1083.20
977.49	1083.20
977.79	1092.09
978.08	1096.78
978.37	1089.29
978.67	1095.14
978.96	1087.88
979.25	1085.31
979.55	1075.71
979.84	1075.01
980.13	1075.71
980.42	1083.43
980.72	1087.18
981.01	1093.26
981.30	1092.33
981.59	1093.73
981.89	1084.84
982.18	1073.14
982.47	1067.28
982.76	1074.07
983.06	1074.54
983.35	1079.92
983.64	1089.29
983.93	1092.09
984.22	1089.75
984.52	1089.05
984.81	1093.03
985.10	1086.01
985.39	1079.92
985.68	1081.56
985.97	1086.48
986.27	1085.07
986.56	1083.90
986.85	1089.05
987.14	1096.54
987.43	1094.90
987.72	1090.46
988.01	1089.99
988.31	1079.92
988.60	1071.26
988.89	1066.35
989.18	1069.16
989.47	1072.20
989.76	1093.50
990.05	1092.33
990.34	1091.16
990.63	1102.16
990.92	1090.69
991.21	1074.54
991.51	1076.18
991.80	1078.28
992.09	1060.03
992.38	1067.05
992.67	1075.24
992.96	1073.37
993.25	1065.18
993.54	1067.75
993.83	1073.14
994.12	1069.16
994.41	1078.75
994.70	1087.65
994.99	1085.07
995.28	1080.16
995.57	1078.99
995.86	1075.01
996.15	1066.58
996.44	1070.56
996.73	1069.62
997.02	1074.77
997.31	1071.03
997.59	1080.39
997.88	1085.54
998.17	1089.05
998.46	1086.24
998.75	1085.31
999.04	1090.92
999.33	1080.86
999.62	1084.14
999.91	1083.90
1000.20	1082.03
1000.49	1073.37
1000.77	1079.22
1001.06	1080.63
1001.35	1078.75
1001.64	1078.28
1001.93	1076.88
1002.22	1078.75
1002.51	1079.22
1002.79	1083.20
1003.08	1084.37
1003.37	1084.60
1003.66	1085.31
1003.95	1076.88
1004.23	1064.71
1004.52	1069.16
1004.81	1067.99
1005.10	1064.71
1005.39	1062.60
1005.67	1083.43
1005.96	1085.77
1006.25	1093.26
1006.54	1088.35
1006.83	1096.07
1007.11	1075.01
1007.40	1064.71
1007.69	1051.84
1007.97	1068.45
1008.26	1058.16
1008.55	1066.35
1008.84	1078.28
1009.12	1086.24
1009.41	1074.31
1009.70	1085.07
1009.98	1089.29
1010.27	1084.60
1010.56	1085.54
1010.85	1092.80
1011.13	1090.92
1011.42	1085.54
1011.71	1071.50
1011.99	1075.24
1012.28	1082.97
1012.56	1079.69
1012.85	1072.90
1013.14	1088.35
1013.42	1089.05
1013.71	1074.77
1014.00	1077.82
1014.28	1082.03
1014.57	1079.92
1014.85	1081.56
1015.14	1087.65
1015.43	1082.03
1015.71	1087.65
1016.00	1081.33
1016.28	1072.43
1016.57	1066.35
1016.85	1067.05
1017.14	1071.03
1017.43	1069.62
1017.71	1071.50
1018.00	1082.97
1018.28	1089.99
1018.57	1082.03
1018.85	1089.99
1019.14	1089.29
1019.42	1080.16
1019.71	1071.26
1019.99	1074.77
1020.28	1069.62
1020.56	1075.48
1020.85	1075.01
1021.13	1084.84
1021.42	1084.37
1021.70	1081.80
1021.99	1080.86
1022.27	1083.90
1022.55	1094.20
1022.84	1084.84
>>>>>End Processed Spectral Data<<<<<
