SpectraSuite Data File
++++++++++++++++++++++++++++++++++++
Date: Mon Aug 26 10:25:59 PDT 2019
User: corrico
Dark Spectrum Present: No
Reference Spectrum Present: No
Number of Sampled Component Spectra: 1
Spectrometers: USB2+H06089
Integration Time (usec): 10000 (USB2+H06089)
Spectra Averaged: 2 (USB2+H06089)
Boxcar Smoothing: 2 (USB2+H06089)
Correct for Electrical Dark: No (USB2+H06089)
Strobe/Lamp Enabled: No (USB2+H06089)
Correct for Detector Non-linearity: No (USB2+H06089)
Correct for Stray Light: No (USB2+H06089)
Number of Pixels in Processed Spectrum: 2048
>>>>>Begin Processed Spectral Data<<<<<
339.70	1007.60
340.07	1007.60
340.45	973.43
340.82	959.39
341.19	936.45
341.57	921.47
341.94	922.87
342.31	923.58
342.69	913.28
343.06	910.94
343.43	906.02
343.81	899.47
344.18	883.55
344.55	894.79
344.93	906.26
345.30	908.60
345.67	916.55
346.04	929.66
346.42	930.36
346.79	935.04
347.16	950.26
347.54	959.15
347.91	976.71
348.28	986.30
348.65	994.26
349.03	989.81
349.40	1005.49
349.77	1009.47
350.14	1021.18
350.52	1025.39
350.89	1030.30
351.26	1029.13
351.63	1041.54
352.01	1039.90
352.38	1043.64
352.75	1055.11
353.12	1054.88
353.50	1045.28
353.87	1048.56
354.24	1051.84
354.61	1058.16
354.98	1067.99
355.36	1074.77
355.73	1077.82
356.10	1074.07
356.47	1077.35
356.84	1073.14
357.22	1078.05
357.59	1078.05
357.96	1083.43
358.33	1072.43
358.70	1084.60
359.08	1081.33
359.45	1076.18
359.82	1072.67
360.19	1081.09
360.56	1074.54
360.94	1074.07
361.31	1078.05
361.68	1071.50
362.05	1061.20
362.42	1060.03
362.79	1058.86
363.16	1063.31
363.54	1076.18
363.91	1077.11
364.28	1073.14
364.65	1069.62
365.02	1067.05
365.39	1059.79
365.76	1056.99
366.14	1058.39
366.51	1054.88
366.88	1052.07
367.25	1065.65
367.62	1076.18
367.99	1072.67
368.36	1079.46
368.73	1080.16
369.10	1066.58
369.48	1058.62
369.85	1055.82
370.22	1050.90
370.59	1049.50
370.96	1047.62
371.33	1056.52
371.70	1054.88
372.07	1059.79
372.44	1057.92
372.81	1059.33
373.18	1055.11
373.55	1061.20
373.93	1067.28
374.30	1074.77
374.67	1084.84
375.04	1075.01
375.41	1068.69
375.78	1065.88
376.15	1062.60
376.52	1052.54
376.89	1067.75
377.26	1067.99
377.63	1074.77
378.00	1077.58
378.37	1089.99
378.74	1090.46
379.11	1098.88
379.48	1081.56
379.85	1081.80
380.22	1082.26
380.59	1081.09
380.96	1077.35
381.33	1077.35
381.70	1074.77
382.07	1069.62
382.44	1071.97
382.81	1070.80
383.18	1074.54
383.55	1075.48
383.92	1074.31
384.29	1070.80
384.66	1078.99
385.03	1084.84
385.40	1084.37
385.77	1084.84
386.14	1084.60
386.51	1071.50
386.88	1076.41
387.25	1069.39
387.62	1065.18
387.99	1059.09
388.36	1060.73
388.73	1055.11
389.10	1063.07
389.46	1074.07
389.83	1082.26
390.20	1087.41
390.57	1085.31
390.94	1072.43
391.31	1066.35
391.68	1061.67
392.05	1062.14
392.42	1063.31
392.79	1070.09
393.16	1075.24
393.53	1066.82
393.89	1062.37
394.26	1068.22
394.63	1065.18
395.00	1065.41
395.37	1081.56
395.74	1077.82
396.11	1066.58
396.48	1080.86
396.84	1072.67
397.21	1062.84
397.58	1067.99
397.95	1071.73
398.32	1067.05
398.69	1073.37
399.06	1081.33
399.42	1074.54
399.79	1076.88
400.16	1080.86
400.53	1071.97
400.90	1067.52
401.27	1069.62
401.64	1071.03
402.00	1065.65
402.37	1068.45
402.74	1067.28
403.11	1080.63
403.48	1080.39
403.84	1083.43
404.21	1092.56
404.58	1100.52
404.95	1090.92
405.32	1088.12
405.68	1082.97
406.05	1075.24
406.42	1067.99
406.79	1083.67
407.16	1088.82
407.52	1086.94
407.89	1097.24
408.26	1106.61
408.63	1100.05
408.99	1095.37
409.36	1098.88
409.73	1092.33
410.10	1082.97
410.47	1078.52
410.83	1080.63
411.20	1072.90
411.57	1067.52
411.94	1059.09
412.30	1053.71
412.67	1050.67
413.04	1049.26
413.40	1047.62
413.77	1049.50
414.14	1049.73
414.51	1060.50
414.87	1063.54
415.24	1075.48
415.61	1083.20
415.97	1086.24
416.34	1081.80
416.71	1081.33
417.08	1071.50
417.44	1075.71
417.81	1079.69
418.18	1075.71
418.54	1083.20
418.91	1081.09
419.28	1081.09
419.64	1079.46
420.01	1079.92
420.38	1077.35
420.74	1078.28
421.11	1070.09
421.48	1074.07
421.84	1071.03
422.21	1078.05
422.58	1087.18
422.94	1087.65
423.31	1078.28
423.68	1081.80
424.04	1079.46
424.41	1086.24
424.77	1107.78
425.14	1105.67
425.51	1102.86
425.87	1103.33
426.24	1086.01
426.61	1067.99
426.97	1071.50
427.34	1073.37
427.70	1078.75
428.07	1076.65
428.44	1074.77
428.80	1079.22
429.17	1081.33
429.53	1071.03
429.90	1077.35
430.27	1079.69
430.63	1078.28
431.00	1069.39
431.36	1076.88
431.73	1077.35
432.09	1063.07
432.46	1064.94
432.83	1080.63
433.19	1071.26
433.56	1067.28
433.92	1072.43
434.29	1061.90
434.65	1052.07
435.02	1059.56
435.38	1063.77
435.75	1067.75
436.11	1071.26
436.48	1066.11
436.84	1063.07
437.21	1062.14
437.57	1065.65
437.94	1075.71
438.30	1082.97
438.67	1082.26
439.03	1068.22
439.40	1063.54
439.76	1050.67
440.13	1051.13
440.49	1047.86
440.86	1058.16
441.22	1066.35
441.59	1077.11
441.95	1072.67
442.32	1073.60
442.68	1081.80
443.05	1088.35
443.41	1091.39
443.78	1100.99
444.14	1101.69
444.51	1083.43
444.87	1067.75
445.24	1060.03
445.60	1049.50
445.96	1056.28
446.33	1076.65
446.69	1072.90
447.06	1075.94
447.42	1074.77
447.79	1067.75
448.15	1057.45
448.51	1063.31
448.88	1066.58
449.24	1067.05
449.61	1075.94
449.97	1077.82
450.33	1078.99
450.70	1086.71
451.06	1088.82
451.43	1085.07
451.79	1087.41
452.15	1088.12
452.52	1068.69
452.88	1067.99
453.24	1065.18
453.61	1064.48
453.97	1077.82
454.34	1082.03
454.70	1078.75
455.06	1077.11
455.43	1079.46
455.79	1072.67
456.15	1078.75
456.52	1089.52
456.88	1082.73
457.24	1078.99
457.61	1076.88
457.97	1076.88
458.33	1071.26
458.70	1082.26
459.06	1090.46
459.42	1091.86
459.79	1082.97
460.15	1078.28
460.51	1072.20
460.88	1071.97
461.24	1072.20
461.60	1074.77
461.96	1081.56
462.33	1073.60
462.69	1071.03
463.05	1072.20
463.42	1074.07
463.78	1074.54
464.14	1082.03
464.50	1078.52
464.87	1071.03
465.23	1085.54
465.59	1090.69
465.95	1089.99
466.32	1090.22
466.68	1094.67
467.04	1084.14
467.40	1072.43
467.77	1084.37
468.13	1085.31
468.49	1084.84
468.85	1085.31
469.22	1090.46
469.58	1085.77
469.94	1084.84
470.30	1088.35
470.66	1088.12
471.03	1083.20
471.39	1073.37
471.75	1062.84
472.11	1061.43
472.47	1059.56
472.84	1062.14
473.20	1065.65
473.56	1081.33
473.92	1079.69
474.28	1079.92
474.65	1086.24
475.01	1087.41
475.37	1079.46
475.73	1075.48
476.09	1075.24
476.45	1068.92
476.81	1071.73
477.18	1080.63
477.54	1075.01
477.90	1075.01
478.26	1084.14
478.62	1086.94
478.98	1076.41
479.34	1089.52
479.71	1084.37
480.07	1071.03
480.43	1066.35
480.79	1066.35
481.15	1051.84
481.51	1054.88
481.87	1058.86
482.23	1052.54
482.59	1058.16
482.96	1074.77
483.32	1080.16
483.68	1084.37
484.04	1091.16
484.40	1072.20
484.76	1071.73
485.12	1070.80
485.48	1068.92
485.84	1058.62
486.20	1074.77
486.56	1070.09
486.92	1069.39
487.28	1060.03
487.64	1067.75
488.00	1073.14
488.37	1071.50
488.73	1061.90
489.09	1074.31
489.45	1079.69
489.81	1073.14
490.17	1068.69
490.53	1078.99
490.89	1075.24
491.25	1070.80
491.61	1074.54
491.97	1080.16
492.33	1078.05
492.69	1083.67
493.05	1089.75
493.41	1082.73
493.77	1071.97
494.13	1078.99
494.49	1071.03
494.85	1066.35
495.21	1076.88
495.57	1088.12
495.93	1073.84
496.29	1075.94
496.64	1077.82
497.00	1075.01
497.36	1075.71
497.72	1078.99
498.08	1083.43
498.44	1084.14
498.80	1089.52
499.16	1090.46
499.52	1088.82
499.88	1080.63
500.24	1081.09
500.60	1076.41
500.96	1067.28
501.32	1072.90
501.68	1082.03
502.03	1081.80
502.39	1078.99
502.75	1078.28
503.11	1078.05
503.47	1076.88
503.83	1074.54
504.19	1076.41
504.55	1084.84
504.91	1093.26
505.26	1083.90
505.62	1095.84
505.98	1099.12
506.34	1108.01
506.70	1095.84
507.06	1108.71
507.42	1101.69
507.78	1100.29
508.13	1093.73
508.49	1103.09
508.85	1100.75
509.21	1100.99
509.57	1102.39
509.93	1101.69
510.28	1094.67
510.64	1086.48
511.00	1084.84
511.36	1080.39
511.72	1063.31
512.07	1072.67
512.43	1069.62
512.79	1069.86
513.15	1069.62
513.51	1084.14
513.86	1082.73
514.22	1089.05
514.58	1084.60
514.94	1083.90
515.30	1083.90
515.65	1077.82
516.01	1079.92
516.37	1084.84
516.73	1089.52
517.08	1105.90
517.44	1108.71
517.80	1102.63
518.16	1100.99
518.51	1100.05
518.87	1089.99
519.23	1090.92
519.59	1097.01
519.94	1094.20
520.30	1096.54
520.66	1082.97
521.01	1081.80
521.37	1079.69
521.73	1083.90
522.09	1080.63
522.44	1086.24
522.80	1089.75
523.16	1100.29
523.51	1105.67
523.87	1115.73
524.23	1118.54
524.58	1115.97
524.94	1116.90
525.30	1115.97
525.65	1102.16
526.01	1109.41
526.37	1101.22
526.72	1093.03
527.08	1079.22
527.44	1081.80
527.79	1080.63
528.15	1085.07
528.51	1084.14
528.86	1090.92
529.22	1097.95
529.58	1088.12
529.93	1089.05
530.29	1086.24
530.65	1074.77
531.00	1082.50
531.36	1086.71
531.71	1089.29
532.07	1097.71
532.43	1101.46
532.78	1081.56
533.14	1083.43
533.49	1090.69
533.85	1086.71
534.21	1099.12
534.56	1108.71
534.92	1106.84
535.27	1100.99
535.63	1109.18
535.98	1107.54
536.34	1118.07
536.69	1115.03
537.05	1112.69
537.41	1102.63
537.76	1106.61
538.12	1084.84
538.47	1079.46
538.83	1082.50
539.18	1080.86
539.54	1079.46
539.89	1087.65
540.25	1099.82
540.60	1096.78
540.96	1098.65
541.31	1091.86
541.67	1088.35
542.02	1077.58
542.38	1083.67
542.73	1070.33
543.09	1075.48
543.44	1078.28
543.80	1076.88
544.15	1076.41
544.51	1095.37
544.86	1093.73
545.22	1102.63
545.57	1111.05
545.93	1103.80
546.28	1101.46
546.64	1104.03
546.99	1093.73
547.35	1093.97
547.70	1093.50
548.05	1089.99
548.41	1083.90
548.76	1087.18
549.12	1096.78
549.47	1097.48
549.83	1094.67
550.18	1098.41
550.53	1100.52
550.89	1089.29
551.24	1089.52
551.60	1084.37
551.95	1080.86
552.30	1077.35
552.66	1080.39
553.01	1082.50
553.37	1093.50
553.72	1087.65
554.07	1079.22
554.43	1071.73
554.78	1070.56
555.13	1063.31
555.49	1074.77
555.84	1075.01
556.19	1071.97
556.55	1069.62
556.90	1067.99
557.26	1060.96
557.61	1069.16
557.96	1065.88
558.32	1065.18
558.67	1075.01
559.02	1084.37
559.37	1081.09
559.73	1092.80
560.08	1091.16
560.43	1091.86
560.79	1090.69
561.14	1093.50
561.49	1094.43
561.85	1090.69
562.20	1078.05
562.55	1062.14
562.90	1060.96
563.26	1064.24
563.61	1072.20
563.96	1078.75
564.32	1088.82
564.67	1086.24
565.02	1083.67
565.37	1073.14
565.73	1070.56
566.08	1070.33
566.43	1060.03
566.78	1054.88
567.14	1062.60
567.49	1064.01
567.84	1055.11
568.19	1064.71
568.54	1070.56
568.90	1074.77
569.25	1073.14
569.60	1084.14
569.95	1083.67
570.31	1072.90
570.66	1068.69
571.01	1067.52
571.36	1070.56
571.71	1076.65
572.06	1075.94
572.42	1078.52
572.77	1085.31
573.12	1078.05
573.47	1079.69
573.82	1082.73
574.18	1087.18
574.53	1075.94
574.88	1076.88
575.23	1076.88
575.58	1085.07
575.93	1081.56
576.28	1099.35
576.64	1104.03
576.99	1111.05
577.34	1108.95
577.69	1102.39
578.04	1085.31
578.39	1079.92
578.74	1065.18
579.09	1062.37
579.44	1067.05
579.80	1079.22
580.15	1074.77
580.50	1081.80
580.85	1084.37
581.20	1080.16
581.55	1075.48
581.90	1082.97
582.25	1085.77
582.60	1086.71
582.95	1090.69
583.30	1093.97
583.65	1087.88
584.00	1085.54
584.35	1084.84
584.71	1078.75
585.06	1079.69
585.41	1079.22
585.76	1071.97
586.11	1075.48
586.46	1086.24
586.81	1075.71
587.16	1086.94
587.51	1095.84
587.86	1092.33
588.21	1087.41
588.56	1103.56
588.91	1096.31
589.26	1090.46
589.61	1082.97
589.96	1089.05
590.31	1081.09
590.66	1081.80
591.01	1079.92
591.36	1087.18
591.71	1084.14
592.06	1078.52
592.41	1075.24
592.76	1079.46
593.10	1078.52
593.45	1065.88
593.80	1071.26
594.15	1076.18
594.50	1067.28
594.85	1061.20
595.20	1072.90
595.55	1071.97
595.90	1077.11
596.25	1078.05
596.60	1088.35
596.95	1096.54
597.30	1089.52
597.64	1139.14
597.99	1150.37
598.34	1154.82
598.69	1141.25
599.04	1146.86
599.39	1096.31
599.74	1097.01
600.09	1095.37
600.44	1098.88
600.78	1099.58
601.13	1090.46
601.48	1087.88
601.83	1080.63
602.18	1074.31
602.53	1078.52
602.88	1079.22
603.22	1070.09
603.57	1074.31
603.92	1085.77
604.27	1082.03
604.62	1082.26
604.97	1082.97
605.31	1071.03
605.66	1070.33
606.01	1069.16
606.36	1074.07
606.71	1083.20
607.05	1093.26
607.40	1091.86
607.75	1083.43
608.10	1087.41
608.44	1083.67
608.79	1089.05
609.14	1084.14
609.49	1097.71
609.84	1092.33
610.18	1087.88
610.53	1082.73
610.88	1089.05
611.23	1096.54
611.57	1097.01
611.92	1101.69
612.27	1098.88
612.62	1090.22
612.96	1079.92
613.31	1080.86
613.66	1082.73
614.00	1078.05
614.35	1081.09
614.70	1086.71
615.05	1088.12
615.39	1088.12
615.74	1092.80
616.09	1092.33
616.43	1089.52
616.78	1086.94
617.13	1092.09
617.47	1088.58
617.82	1095.37
618.17	1089.29
618.51	1078.28
618.86	1071.73
619.21	1076.88
619.55	1069.86
619.90	1075.71
620.25	1086.24
620.59	1078.99
620.94	1073.14
621.29	1079.92
621.63	1082.50
621.98	1083.20
622.32	1096.54
622.67	1104.26
623.02	1089.52
623.36	1078.05
623.71	1078.28
624.05	1071.50
624.40	1069.16
624.75	1083.43
625.09	1083.43
625.44	1082.03
625.78	1078.99
626.13	1074.77
626.48	1077.11
626.82	1082.50
627.17	1080.86
627.51	1071.73
627.86	1065.88
628.20	1050.20
628.55	1046.22
628.89	1044.11
629.24	1064.71
629.58	1084.14
629.93	1095.14
630.28	1100.75
630.62	1106.37
630.97	1088.12
631.31	1077.11
631.66	1069.62
632.00	1073.37
632.35	1068.22
632.69	1083.20
633.04	1090.92
633.38	1101.69
633.73	1100.75
634.07	1110.12
634.42	1097.48
634.76	1076.18
635.11	1067.28
635.45	1065.88
635.79	1059.79
636.14	1068.69
636.48	1087.18
636.83	1102.63
637.17	1100.29
637.52	1101.92
637.86	1095.37
638.21	1086.94
638.55	1071.50
638.89	1069.62
639.24	1064.94
639.58	1065.88
639.93	1071.03
640.27	1073.14
640.61	1065.65
640.96	1066.35
641.30	1064.48
641.65	1066.11
641.99	1070.80
642.33	1072.90
642.68	1074.31
643.02	1085.54
643.37	1078.52
643.71	1074.77
644.05	1075.48
644.40	1078.05
644.74	1078.75
645.08	1079.46
645.43	1075.24
645.77	1083.43
646.11	1080.39
646.46	1075.24
646.80	1074.07
647.14	1076.65
647.49	1069.86
647.83	1076.65
648.17	1078.75
648.52	1083.20
648.86	1078.05
649.20	1085.54
649.55	1073.60
649.89	1070.80
650.23	1072.43
650.57	1079.22
650.92	1075.24
651.26	1083.43
651.60	1083.43
651.95	1081.80
652.29	1079.22
652.63	1079.46
652.97	1074.54
653.32	1086.24
653.66	1091.63
654.00	1084.37
654.34	1080.63
654.69	1084.60
655.03	1070.80
655.37	1065.18
655.71	1081.56
656.05	1079.46
656.40	1076.65
656.74	1073.14
657.08	1089.75
657.42	1085.07
657.76	1099.12
658.11	1097.48
658.45	1103.80
658.79	1076.18
659.13	1070.09
659.47	1070.09
659.82	1068.22
660.16	1078.05
660.50	1094.90
660.84	1096.54
661.18	1091.63
661.52	1095.60
661.87	1089.05
662.21	1083.90
662.55	1077.11
662.89	1073.60
663.23	1074.77
663.57	1069.16
663.91	1070.09
664.25	1083.43
664.60	1084.60
664.94	1090.92
665.28	1096.07
665.62	1089.05
665.96	1090.69
666.30	1097.24
666.64	1085.07
666.98	1076.88
667.32	1082.03
667.66	1077.35
668.01	1065.88
668.35	1067.52
668.69	1077.35
669.03	1074.07
669.37	1066.11
669.71	1064.24
670.05	1072.67
670.39	1074.77
670.73	1074.77
671.07	1080.16
671.41	1089.29
671.75	1076.41
672.09	1073.14
672.43	1074.54
672.77	1080.63
673.11	1078.05
673.45	1081.80
673.79	1073.60
674.13	1078.05
674.47	1077.58
674.81	1084.84
675.15	1084.84
675.49	1085.54
675.83	1083.43
676.17	1077.11
676.51	1069.86
676.85	1077.11
677.19	1077.35
677.53	1077.35
677.87	1078.75
678.21	1079.22
678.55	1074.54
678.89	1064.24
679.23	1059.79
679.57	1057.69
679.90	1055.11
680.24	1057.22
680.58	1072.43
680.92	1079.46
681.26	1083.43
681.60	1086.24
681.94	1091.39
682.28	1084.14
682.62	1079.69
682.96	1083.20
683.29	1081.80
683.63	1086.94
683.97	1092.33
684.31	1097.24
684.65	1086.94
684.99	1089.52
685.33	1082.97
685.67	1091.39
686.00	1085.07
686.34	1087.65
686.68	1079.46
687.02	1079.22
687.36	1068.69
687.70	1069.16
688.03	1073.60
688.37	1069.16
688.71	1063.77
689.05	1067.28
689.39	1068.69
689.72	1066.11
690.06	1085.07
690.40	1089.52
690.74	1087.18
691.08	1085.07
691.41	1090.92
691.75	1087.88
692.09	1080.86
692.43	1086.01
692.76	1088.58
693.10	1088.58
693.44	1085.07
693.78	1093.97
694.11	1092.33
694.45	1096.07
694.79	1093.03
695.13	1092.33
695.46	1084.14
695.80	1079.22
696.14	1068.22
696.48	1066.11
696.81	1067.52
697.15	1073.37
697.49	1077.82
697.82	1089.05
698.16	1084.37
698.50	1082.50
698.83	1088.35
699.17	1087.88
699.51	1083.90
699.84	1091.86
700.18	1095.60
700.52	1090.22
700.85	1094.43
701.19	1093.50
701.53	1086.01
701.86	1080.39
702.20	1076.41
702.54	1075.94
702.87	1077.35
703.21	1082.03
703.55	1083.90
703.88	1088.58
704.22	1078.75
704.55	1078.05
704.89	1085.54
705.23	1092.80
705.56	1092.09
705.90	1097.71
706.23	1092.56
706.57	1086.71
706.91	1086.71
707.24	1086.24
707.58	1086.71
707.91	1091.63
708.25	1083.67
708.58	1073.84
708.92	1071.73
709.26	1068.22
709.59	1065.65
709.93	1070.56
710.26	1069.39
710.60	1067.52
710.93	1070.33
711.27	1076.88
711.60	1079.69
711.94	1082.26
712.27	1088.12
712.61	1094.67
712.94	1098.88
713.28	1093.50
713.61	1102.16
713.95	1094.67
714.28	1075.94
714.62	1075.01
714.95	1080.16
715.29	1078.28
715.62	1072.67
715.96	1088.35
716.29	1086.94
716.63	1092.80
716.96	1088.12
717.29	1094.43
717.63	1097.48
717.96	1095.37
718.30	1087.18
718.63	1091.39
718.97	1093.50
719.30	1083.67
719.63	1080.16
719.97	1082.73
720.30	1082.50
720.64	1083.67
720.97	1090.46
721.30	1090.69
721.64	1082.26
721.97	1082.50
722.31	1081.80
722.64	1075.01
722.97	1071.97
723.31	1082.03
723.64	1077.11
723.97	1068.69
724.31	1073.37
724.64	1072.43
724.98	1074.54
725.31	1076.18
725.64	1082.03
725.98	1085.77
726.31	1087.41
726.64	1088.12
726.97	1095.60
727.31	1099.58
727.64	1092.56
727.97	1087.41
728.31	1089.29
728.64	1077.11
728.97	1082.03
729.31	1081.33
729.64	1091.63
729.97	1080.63
730.30	1079.22
730.64	1076.88
730.97	1083.67
731.30	1081.33
731.63	1088.82
731.97	1085.31
732.30	1086.71
732.63	1087.18
732.96	1089.75
733.30	1076.41
733.63	1075.94
733.96	1070.33
734.29	1062.14
734.63	1063.31
734.96	1074.54
735.29	1073.60
735.62	1074.07
735.95	1078.52
736.29	1076.88
736.62	1078.52
736.95	1089.52
737.28	1091.16
737.61	1088.82
737.94	1092.09
738.28	1079.22
738.61	1078.05
738.94	1077.82
739.27	1072.67
739.60	1074.07
739.93	1087.88
740.27	1089.75
740.60	1094.67
740.93	1104.97
741.26	1097.48
741.59	1102.16
741.92	1103.33
742.25	1101.22
742.58	1094.90
742.91	1082.03
743.25	1075.01
743.58	1065.41
743.91	1060.96
744.24	1059.79
744.57	1072.20
744.90	1068.22
745.23	1076.18
745.56	1080.39
745.89	1080.63
746.22	1075.01
746.55	1080.63
746.88	1075.94
747.21	1068.92
747.54	1074.07
747.87	1077.58
748.20	1074.31
748.53	1080.86
748.87	1077.35
749.20	1075.01
749.53	1078.28
749.86	1072.67
750.19	1068.69
750.52	1076.18
750.85	1070.56
751.18	1070.56
751.51	1074.31
751.84	1079.46
752.16	1082.73
752.49	1087.65
752.82	1084.84
753.15	1090.69
753.48	1089.29
753.81	1082.50
754.14	1085.31
754.47	1094.20
754.80	1095.84
755.13	1082.73
755.46	1076.18
755.79	1074.77
756.12	1067.05
756.45	1062.14
756.78	1067.05
757.11	1081.56
757.43	1084.60
757.76	1087.88
758.09	1078.05
758.42	1083.43
758.75	1077.35
759.08	1070.56
759.41	1079.69
759.74	1086.94
760.07	1084.60
760.39	1082.03
760.72	1078.28
761.05	1066.82
761.38	1063.54
761.71	1058.39
762.04	1062.60
762.36	1069.16
762.69	1073.14
763.02	1078.28
763.35	1086.48
763.68	1092.80
764.01	1084.14
764.33	1078.75
764.66	1071.03
764.99	1069.39
765.32	1052.54
765.65	1059.09
765.97	1059.33
766.30	1067.28
766.63	1064.01
766.96	1072.67
767.28	1072.20
767.61	1079.92
767.94	1081.09
768.27	1079.46
768.59	1078.99
768.92	1086.94
769.25	1075.24
769.58	1074.07
769.90	1074.54
770.23	1065.65
770.56	1048.33
770.89	1046.69
771.21	1045.99
771.54	1044.58
771.87	1054.88
772.19	1067.52
772.52	1082.97
772.85	1090.22
773.17	1097.71
773.50	1104.26
773.83	1101.69
774.15	1083.90
774.48	1083.43
774.81	1081.80
775.13	1077.35
775.46	1088.58
775.79	1098.18
776.11	1092.56
776.44	1086.94
776.77	1084.14
777.09	1072.90
777.42	1066.82
777.74	1063.77
778.07	1065.65
778.40	1064.71
778.72	1067.75
779.05	1074.07
779.37	1074.07
779.70	1077.82
780.03	1082.26
780.35	1080.63
780.68	1077.35
781.00	1082.03
781.33	1082.73
781.65	1085.07
781.98	1093.03
782.31	1103.33
782.63	1094.90
782.96	1091.86
783.28	1087.88
783.61	1090.22
783.93	1075.01
784.26	1089.52
784.58	1090.69
784.91	1093.97
785.23	1081.56
785.56	1083.67
785.88	1068.45
786.21	1066.58
786.53	1054.65
786.86	1049.26
787.18	1058.62
787.51	1059.09
787.83	1058.39
788.16	1074.31
788.48	1082.26
788.81	1089.52
789.13	1095.14
789.46	1106.84
789.78	1091.16
790.10	1095.84
790.43	1096.78
790.75	1104.50
791.08	1104.50
791.40	1124.16
791.73	1130.24
792.05	1117.84
792.37	1115.50
792.70	1094.20
793.02	1078.99
793.35	1060.73
793.67	1065.65
793.99	1057.22
794.32	1067.75
794.64	1071.03
794.96	1079.92
795.29	1072.67
795.61	1078.52
795.93	1080.63
796.26	1088.12
796.58	1085.54
796.91	1088.12
797.23	1088.12
797.55	1087.41
797.87	1084.60
798.20	1091.86
798.52	1096.54
798.84	1104.03
799.17	1111.29
799.49	1109.88
799.81	1103.33
800.14	1103.09
800.46	1089.52
800.78	1091.16
801.10	1098.18
801.43	1097.01
801.75	1089.05
802.07	1092.56
802.40	1079.46
802.72	1063.07
803.04	1062.37
803.36	1073.84
803.69	1078.52
804.01	1078.52
804.33	1080.39
804.65	1083.43
804.97	1074.07
805.30	1070.33
805.62	1072.43
805.94	1084.60
806.26	1089.29
806.58	1089.05
806.91	1084.37
807.23	1086.48
807.55	1085.54
807.87	1081.09
808.19	1081.33
808.52	1086.48
808.84	1087.41
809.16	1081.56
809.48	1079.22
809.80	1073.60
810.12	1074.31
810.44	1067.52
810.77	1076.65
811.09	1075.94
811.41	1085.77
811.73	1089.99
812.05	1100.75
812.37	1096.54
812.69	1098.41
813.01	1096.54
813.33	1098.65
813.66	1094.43
813.98	1089.29
814.30	1093.03
814.62	1103.09
814.94	1097.71
815.26	1103.09
815.58	1101.22
815.90	1100.05
816.22	1090.92
816.54	1091.86
816.86	1082.26
817.18	1087.18
817.50	1094.20
817.82	1086.48
818.14	1086.01
818.46	1096.78
818.78	1096.78
819.10	1083.43
819.42	1093.73
819.74	1087.65
820.06	1081.56
820.38	1073.37
820.70	1074.31
821.02	1072.20
821.34	1075.71
821.66	1078.52
821.98	1083.20
822.30	1087.18
822.62	1084.60
822.94	1086.01
823.26	1078.52
823.58	1068.22
823.90	1072.90
824.22	1071.97
824.54	1070.33
824.86	1065.41
825.18	1064.24
825.50	1060.96
825.81	1057.92
826.13	1054.65
826.45	1059.79
826.77	1078.99
827.09	1086.24
827.41	1086.94
827.73	1089.75
828.05	1099.82
828.36	1085.77
828.68	1072.43
829.00	1066.58
829.32	1071.97
829.64	1067.05
829.96	1062.37
830.28	1064.24
830.59	1058.62
830.91	1060.03
831.23	1056.05
831.55	1063.07
831.87	1068.69
832.19	1097.01
832.50	1098.88
832.82	1101.69
833.14	1113.63
833.46	1104.26
833.78	1089.05
834.09	1089.99
834.41	1093.26
834.73	1085.07
835.05	1097.95
835.36	1098.88
835.68	1088.12
836.00	1092.56
836.32	1096.31
836.63	1093.97
836.95	1097.71
837.27	1104.26
837.59	1099.35
837.90	1101.69
838.22	1105.20
838.54	1099.58
838.85	1100.52
839.17	1096.54
839.49	1102.86
839.80	1089.05
840.12	1091.39
840.44	1086.71
840.76	1083.90
841.07	1073.37
841.39	1088.58
841.71	1087.41
842.02	1085.54
842.34	1086.94
842.65	1082.97
842.97	1074.07
843.29	1075.71
843.60	1072.90
843.92	1071.73
844.24	1067.75
844.55	1066.35
844.87	1067.52
845.18	1068.45
845.50	1074.77
845.82	1084.60
846.13	1085.77
846.45	1079.69
846.76	1087.88
847.08	1078.52
847.40	1075.01
847.71	1078.05
848.03	1084.37
848.34	1082.73
848.66	1088.58
848.97	1090.69
849.29	1087.65
849.60	1080.63
849.92	1083.90
850.24	1092.80
850.55	1093.97
850.87	1095.60
851.18	1103.80
851.50	1102.63
851.81	1092.80
852.13	1082.73
852.44	1085.31
852.76	1085.77
853.07	1079.69
853.39	1075.01
853.70	1085.07
854.01	1076.88
854.33	1075.24
854.64	1076.41
854.96	1081.80
855.27	1080.86
855.59	1081.09
855.90	1087.41
856.22	1089.05
856.53	1084.84
856.84	1083.43
857.16	1090.92
857.47	1078.28
857.79	1074.31
858.10	1086.24
858.41	1084.14
858.73	1069.16
859.04	1078.05
859.36	1079.46
859.67	1067.99
859.98	1068.22
860.30	1072.20
860.61	1064.01
860.92	1075.71
861.24	1078.99
861.55	1084.14
861.87	1088.58
862.18	1090.46
862.49	1082.26
862.81	1083.90
863.12	1079.46
863.43	1084.84
863.74	1092.80
864.06	1090.46
864.37	1080.63
864.68	1086.24
865.00	1075.71
865.31	1073.60
865.62	1071.97
865.94	1082.03
866.25	1075.71
866.56	1077.58
866.87	1077.11
867.19	1068.69
867.50	1060.73
867.81	1064.01
868.12	1072.67
868.44	1078.05
868.75	1095.37
869.06	1105.44
869.37	1099.12
869.68	1093.73
870.00	1089.99
870.31	1081.33
870.62	1074.54
870.93	1069.62
871.24	1064.01
871.56	1059.09
871.87	1054.88
872.18	1054.41
872.49	1061.20
872.80	1074.07
873.12	1069.62
873.43	1084.60
873.74	1092.56
874.05	1101.46
874.36	1094.20
874.67	1107.31
874.98	1094.20
875.29	1083.43
875.61	1073.60
875.92	1084.60
876.23	1071.03
876.54	1074.31
876.85	1084.37
877.16	1095.37
877.47	1081.33
877.78	1087.18
878.09	1081.09
878.40	1075.94
878.72	1071.26
879.03	1076.88
879.34	1080.16
879.65	1077.35
879.96	1078.75
880.27	1075.01
880.58	1071.03
880.89	1073.14
881.20	1075.94
881.51	1070.09
881.82	1065.65
882.13	1072.20
882.44	1066.82
882.75	1063.07
883.06	1071.97
883.37	1070.33
883.68	1062.84
883.99	1060.96
884.30	1060.96
884.61	1051.60
884.92	1051.84
885.23	1057.69
885.54	1051.84
885.85	1068.22
886.16	1078.05
886.47	1078.75
886.78	1073.84
887.08	1075.48
887.39	1062.37
887.70	1058.16
888.01	1069.39
888.32	1071.97
888.63	1077.82
888.94	1076.41
889.25	1083.20
889.56	1070.56
889.87	1068.22
890.17	1074.07
890.48	1083.20
890.79	1081.09
891.10	1087.18
891.41	1081.33
891.72	1067.99
892.03	1061.20
892.34	1056.05
892.64	1064.71
892.95	1077.58
893.26	1089.99
893.57	1095.37
893.88	1089.99
894.18	1079.69
894.49	1087.65
894.80	1080.16
895.11	1080.63
895.42	1094.67
895.72	1105.20
896.03	1094.20
896.34	1092.56
896.65	1088.35
896.96	1086.48
897.26	1078.99
897.57	1074.77
897.88	1088.12
898.19	1089.29
898.49	1093.03
898.80	1090.22
899.11	1101.22
899.41	1089.29
899.72	1084.84
900.03	1076.65
900.34	1071.97
900.64	1055.82
900.95	1063.77
901.26	1068.69
901.56	1069.62
901.87	1075.71
902.18	1079.46
902.48	1078.05
902.79	1077.58
903.10	1059.33
903.40	1064.01
903.71	1077.35
904.02	1084.60
904.32	1087.41
904.63	1111.99
904.94	1105.44
905.24	1085.77
905.55	1075.48
905.85	1076.88
906.16	1073.14
906.47	1078.99
906.77	1098.41
907.08	1098.65
907.38	1099.58
907.69	1092.09
908.00	1089.29
908.30	1084.14
908.61	1084.14
908.91	1078.99
909.22	1079.92
909.52	1078.99
909.83	1072.67
910.14	1067.75
910.44	1063.54
910.75	1064.01
911.05	1070.09
911.36	1072.90
911.66	1080.16
911.97	1086.48
912.27	1095.14
912.58	1084.60
912.88	1091.63
913.19	1088.35
913.49	1085.31
913.80	1076.41
914.10	1082.97
914.41	1077.11
914.71	1071.26
915.01	1077.82
915.32	1085.54
915.62	1078.28
915.93	1070.80
916.23	1077.35
916.54	1081.80
916.84	1078.52
917.15	1079.69
917.45	1086.48
917.75	1097.24
918.06	1090.46
918.36	1076.65
918.67	1076.65
918.97	1070.33
919.27	1063.31
919.58	1071.03
919.88	1076.88
920.18	1078.28
920.49	1091.39
920.79	1080.63
921.10	1072.20
921.40	1070.33
921.70	1075.94
922.01	1071.97
922.31	1085.54
922.61	1085.54
922.92	1095.37
923.22	1088.12
923.52	1095.14
923.82	1088.35
924.13	1090.92
924.43	1092.80
924.73	1098.65
925.04	1087.41
925.34	1091.86
925.64	1085.31
925.94	1090.69
926.25	1088.12
926.55	1105.44
926.85	1098.65
927.15	1103.33
927.46	1097.24
927.76	1102.39
928.06	1088.12
928.36	1094.90
928.67	1091.63
928.97	1089.05
929.27	1079.92
929.57	1083.67
929.87	1076.65
930.18	1079.92
930.48	1082.03
930.78	1087.18
931.08	1083.20
931.38	1084.37
931.69	1086.24
931.99	1086.01
932.29	1089.99
932.59	1096.78
932.89	1098.41
933.19	1096.54
933.49	1094.43
933.80	1097.24
934.10	1085.77
934.40	1084.60
934.70	1087.18
935.00	1086.71
935.30	1088.35
935.60	1093.97
935.90	1086.48
936.20	1089.05
936.50	1082.73
936.81	1073.37
937.11	1071.97
937.41	1081.56
937.71	1078.75
938.01	1090.22
938.31	1091.86
938.61	1097.48
938.91	1093.50
939.21	1082.73
939.51	1080.86
939.81	1079.69
940.11	1066.82
940.41	1068.92
940.71	1071.97
941.01	1063.07
941.31	1063.54
941.61	1075.94
941.91	1071.73
942.21	1088.12
942.51	1097.95
942.81	1096.07
943.11	1085.77
943.41	1084.60
943.71	1080.86
944.01	1075.94
944.31	1077.35
944.61	1081.09
944.90	1095.14
945.20	1091.39
945.50	1085.77
945.80	1086.94
946.10	1082.03
946.40	1079.69
946.70	1070.80
947.00	1075.94
947.30	1077.35
947.60	1090.22
947.89	1085.31
948.19	1080.16
948.49	1075.71
948.79	1076.65
949.09	1066.11
949.39	1057.22
949.69	1053.94
949.98	1059.56
950.28	1060.03
950.58	1072.20
950.88	1084.14
951.18	1090.22
951.48	1086.01
951.77	1081.80
952.07	1067.75
952.37	1066.82
952.67	1075.71
952.97	1090.22
953.26	1096.31
953.56	1099.35
953.86	1101.22
954.16	1095.84
954.45	1089.75
954.75	1089.05
955.05	1094.90
955.35	1088.82
955.64	1095.14
955.94	1075.48
956.24	1068.22
956.54	1071.03
956.83	1073.37
957.13	1073.84
957.43	1091.86
957.72	1095.37
958.02	1097.95
958.32	1098.18
958.61	1095.14
958.91	1097.95
959.21	1082.26
959.50	1075.01
959.80	1078.28
960.10	1070.80
960.39	1070.56
960.69	1076.65
960.99	1074.31
961.28	1073.60
961.58	1077.82
961.87	1068.45
962.17	1077.11
962.47	1070.09
962.76	1069.39
963.06	1063.07
963.36	1069.39
963.65	1066.58
963.95	1070.33
964.24	1073.14
964.54	1089.52
964.83	1090.92
965.13	1086.94
965.42	1098.18
965.72	1092.80
966.02	1081.80
966.31	1081.33
966.61	1087.65
966.90	1083.67
967.20	1089.52
967.49	1088.12
967.79	1092.33
968.08	1096.78
968.38	1100.05
968.67	1094.20
968.97	1102.63
969.26	1092.80
969.56	1092.09
969.85	1088.12
970.15	1086.94
970.44	1077.58
970.74	1084.14
971.03	1080.16
971.32	1079.46
971.62	1074.77
971.91	1086.24
972.21	1093.03
972.50	1092.80
972.80	1096.07
973.09	1106.61
973.38	1100.52
973.68	1091.86
973.97	1089.75
974.27	1086.48
974.56	1082.26
974.85	1082.03
975.15	1079.69
975.44	1086.71
975.73	1076.65
976.03	1068.92
976.32	1067.28
976.61	1064.24
976.91	1069.16
977.20	1078.52
977.49	1077.11
977.79	1080.39
978.08	1081.33
978.37	1075.24
978.67	1076.88
978.96	1089.29
979.25	1090.92
979.55	1093.73
979.84	1087.88
980.13	1081.80
980.42	1080.39
980.72	1077.82
981.01	1079.69
981.30	1083.90
981.59	1085.77
981.89	1092.80
982.18	1098.88
982.47	1095.60
982.76	1098.65
983.06	1100.29
983.35	1085.31
983.64	1078.05
983.93	1077.35
984.22	1081.09
984.52	1085.31
984.81	1092.09
985.10	1090.69
985.39	1090.92
985.68	1083.67
985.97	1081.33
986.27	1078.05
986.56	1076.65
986.85	1074.31
987.14	1079.69
987.43	1077.82
987.72	1075.01
988.01	1075.48
988.31	1080.63
988.60	1068.22
988.89	1072.20
989.18	1087.18
989.47	1084.84
989.76	1079.69
990.05	1085.77
990.34	1083.67
990.63	1063.54
990.92	1074.31
991.21	1075.24
991.51	1076.18
991.80	1077.58
992.09	1084.84
992.38	1070.09
992.67	1073.14
992.96	1075.24
993.25	1077.58
993.54	1078.99
993.83	1089.29
994.12	1089.29
994.41	1093.97
994.70	1095.37
994.99	1102.16
995.28	1100.99
995.57	1107.78
995.86	1104.97
996.15	1105.67
996.44	1095.60
996.73	1100.29
997.02	1103.80
997.31	1101.22
997.59	1097.71
997.88	1102.63
998.17	1093.73
998.46	1081.80
998.75	1086.71
999.04	1080.39
999.33	1069.86
999.62	1073.14
999.91	1074.54
1000.20	1072.90
1000.49	1072.43
1000.77	1084.84
1001.06	1088.82
1001.35	1091.86
1001.64	1085.07
1001.93	1093.26
1002.22	1091.39
1002.51	1090.46
1002.79	1084.37
1003.08	1083.43
1003.37	1078.52
1003.66	1071.50
1003.95	1062.84
1004.23	1064.24
1004.52	1064.71
1004.81	1056.99
1005.10	1066.58
1005.39	1069.16
1005.67	1066.58
1005.96	1069.16
1006.25	1079.69
1006.54	1085.77
1006.83	1093.03
1007.11	1083.67
1007.40	1080.86
1007.69	1062.84
1007.97	1058.39
1008.26	1046.45
1008.55	1062.60
1008.84	1067.28
1009.12	1082.26
1009.41	1082.73
1009.70	1091.16
1009.98	1085.07
1010.27	1084.84
1010.56	1087.41
1010.85	1076.18
1011.13	1078.05
1011.42	1080.16
1011.71	1072.90
1011.99	1070.33
1012.28	1068.45
1012.56	1059.56
1012.85	1060.26
1013.14	1065.18
1013.42	1060.50
1013.71	1067.05
1014.00	1075.24
1014.28	1076.41
1014.57	1081.33
1014.85	1078.52
1015.14	1083.43
1015.43	1079.69
1015.71	1074.07
1016.00	1064.48
1016.28	1052.07
1016.57	1047.39
1016.85	1051.60
1017.14	1064.01
1017.43	1061.20
1017.71	1076.18
1018.00	1072.67
1018.28	1081.56
1018.57	1062.14
1018.85	1069.39
1019.14	1083.90
1019.42	1089.05
1019.71	1075.24
1019.99	1087.18
1020.28	1077.11
1020.56	1062.14
1020.85	1067.75
1021.13	1067.75
1021.42	1064.94
1021.70	1081.80
1021.99	1091.39
1022.27	1078.05
1022.55	1107.07
1022.84	1046.22
>>>>>End Processed Spectral Data<<<<<
