SpectraSuite Data File
++++++++++++++++++++++++++++++++++++
Date: Mon Aug 26 10:26:07 PDT 2019
User: corrico
Dark Spectrum Present: No
Reference Spectrum Present: No
Number of Sampled Component Spectra: 1
Spectrometers: USB2+H06089
Integration Time (usec): 10000 (USB2+H06089)
Spectra Averaged: 20 (USB2+H06089)
Boxcar Smoothing: 2 (USB2+H06089)
Correct for Electrical Dark: No (USB2+H06089)
Strobe/Lamp Enabled: No (USB2+H06089)
Correct for Detector Non-linearity: No (USB2+H06089)
Correct for Stray Light: No (USB2+H06089)
Number of Pixels in Processed Spectrum: 2048
>>>>>Begin Processed Spectral Data<<<<<
339.70	1024.92
340.07	1024.92
340.45	993.42
340.82	969.59
341.19	945.48
341.57	922.69
341.94	910.89
342.31	902.65
342.69	901.01
343.06	902.42
343.43	902.46
343.81	902.98
344.18	907.78
344.55	913.60
344.93	918.38
345.30	921.84
345.67	928.65
346.04	934.13
346.42	941.76
346.79	946.79
347.16	955.87
347.54	965.94
347.91	978.55
348.28	985.39
348.65	997.16
349.03	1004.91
349.40	1011.06
349.77	1014.11
350.14	1021.20
350.52	1024.03
350.89	1030.94
351.26	1039.81
351.63	1048.05
352.01	1053.71
352.38	1059.05
352.75	1065.41
353.12	1068.24
353.50	1068.20
353.87	1069.95
354.24	1072.64
354.61	1074.00
354.98	1076.41
355.36	1080.70
355.73	1085.00
356.10	1087.72
356.47	1087.30
356.84	1087.46
357.22	1086.50
357.59	1083.04
357.96	1081.58
358.33	1081.07
358.70	1077.75
359.08	1078.40
359.45	1079.74
359.82	1077.75
360.19	1075.55
360.56	1074.96
360.94	1074.35
361.31	1073.21
361.68	1072.88
362.05	1073.23
362.42	1073.02
362.79	1070.42
363.16	1069.27
363.54	1069.67
363.91	1068.88
364.28	1069.20
364.65	1067.89
365.02	1067.75
365.39	1068.92
365.76	1067.87
366.14	1069.30
366.51	1071.47
366.88	1072.88
367.25	1069.95
367.62	1070.19
367.99	1066.35
368.36	1066.58
368.73	1065.11
369.10	1068.20
369.48	1068.48
369.85	1071.36
370.22	1073.91
370.59	1073.79
370.96	1074.12
371.33	1072.92
371.70	1073.79
372.07	1067.00
372.44	1066.98
372.81	1065.90
373.18	1068.41
373.55	1064.15
373.93	1067.68
374.30	1066.65
374.67	1066.09
375.04	1066.02
375.41	1067.38
375.78	1068.20
376.15	1069.04
376.52	1069.32
376.89	1069.30
377.26	1071.19
377.63	1070.02
378.00	1071.94
378.37	1072.69
378.74	1074.77
379.11	1074.66
379.48	1074.73
379.85	1074.21
380.22	1071.64
380.59	1067.92
380.96	1068.71
381.33	1069.53
381.70	1070.58
382.07	1069.06
382.44	1069.88
382.81	1068.90
383.18	1068.27
383.55	1068.10
383.92	1072.83
384.29	1072.13
384.66	1073.95
385.03	1078.33
385.40	1078.26
385.77	1077.09
386.14	1079.90
386.51	1079.85
386.88	1076.76
387.25	1074.07
387.62	1075.31
387.99	1074.80
388.36	1073.79
388.73	1075.48
389.10	1078.45
389.46	1078.57
389.83	1079.55
390.20	1079.15
390.57	1076.86
390.94	1076.13
391.31	1074.14
391.68	1074.24
392.05	1075.05
392.42	1075.36
392.79	1074.33
393.16	1073.25
393.53	1073.42
393.89	1074.40
394.26	1072.13
394.63	1071.24
395.00	1074.14
395.37	1072.95
395.74	1071.50
396.11	1073.44
396.48	1075.92
396.84	1074.96
397.21	1075.17
397.58	1077.00
397.95	1077.02
398.32	1075.94
398.69	1074.91
399.06	1075.22
399.42	1074.96
399.79	1072.46
400.16	1074.94
400.53	1076.62
400.90	1075.55
401.27	1076.23
401.64	1074.61
402.00	1072.85
402.37	1072.46
402.74	1070.02
403.11	1065.74
403.48	1068.01
403.84	1068.15
404.21	1069.93
404.58	1075.69
404.95	1078.19
405.32	1083.34
405.68	1083.95
406.05	1082.54
406.42	1081.23
406.79	1080.27
407.16	1078.92
407.52	1079.46
407.89	1081.68
408.26	1081.07
408.63	1082.19
408.99	1079.13
409.36	1079.55
409.73	1078.38
410.10	1077.77
410.47	1078.05
410.83	1082.76
411.20	1081.73
411.57	1080.27
411.94	1081.58
412.30	1082.73
412.67	1080.34
413.04	1081.21
413.40	1082.80
413.77	1080.58
414.14	1080.53
414.51	1080.53
414.87	1078.03
415.24	1073.56
415.61	1075.94
415.97	1074.82
416.34	1071.31
416.71	1074.14
417.08	1077.61
417.44	1077.70
417.81	1078.21
418.18	1082.05
418.54	1079.24
418.91	1076.58
419.28	1074.52
419.64	1074.96
420.01	1075.43
420.38	1078.50
420.74	1079.08
421.11	1081.14
421.48	1078.07
421.84	1078.59
422.21	1077.54
422.58	1077.51
422.94	1076.30
423.31	1076.79
423.68	1075.13
424.04	1075.76
424.41	1079.34
424.77	1081.54
425.14	1083.36
425.51	1084.63
425.87	1081.44
426.24	1078.99
426.61	1079.57
426.97	1080.06
427.34	1075.59
427.70	1076.79
428.07	1076.76
428.44	1075.90
428.80	1073.81
429.17	1076.97
429.53	1075.94
429.90	1077.84
430.27	1077.30
430.63	1078.05
431.00	1079.31
431.36	1077.82
431.73	1076.69
432.09	1071.64
432.46	1074.59
432.83	1074.17
433.19	1075.34
433.56	1074.00
433.92	1079.41
434.29	1078.26
434.65	1077.14
435.02	1078.40
435.38	1080.63
435.75	1082.01
436.11	1080.48
436.48	1082.64
436.84	1084.39
437.21	1085.14
437.57	1081.30
437.94	1083.13
438.30	1083.67
438.67	1083.93
439.03	1079.36
439.40	1079.48
439.76	1077.30
440.13	1075.64
440.49	1073.42
440.86	1074.68
441.22	1073.63
441.59	1076.48
441.95	1078.71
442.32	1081.44
442.68	1082.73
443.05	1084.98
443.41	1085.24
443.78	1085.03
444.14	1079.71
444.51	1081.70
444.87	1082.17
445.24	1081.00
445.60	1079.55
445.96	1081.54
446.33	1083.43
446.69	1084.35
447.06	1083.67
447.42	1083.15
447.79	1083.29
448.15	1080.39
448.51	1080.13
448.88	1080.11
449.24	1081.44
449.61	1083.41
449.97	1082.78
450.33	1082.01
450.70	1083.04
451.06	1080.86
451.43	1080.79
451.79	1083.04
452.15	1084.44
452.52	1082.99
452.88	1084.32
453.24	1081.49
453.61	1081.84
453.97	1078.85
454.34	1081.77
454.70	1081.51
455.06	1085.49
455.43	1082.83
455.79	1082.50
456.15	1081.77
456.52	1082.76
456.88	1081.73
457.24	1082.71
457.61	1082.69
457.97	1080.13
458.33	1077.56
458.70	1078.17
459.06	1079.22
459.42	1082.54
459.79	1083.90
460.15	1082.36
460.51	1082.47
460.88	1081.84
461.24	1077.61
461.60	1077.72
461.96	1082.78
462.33	1084.93
462.69	1085.47
463.05	1085.31
463.42	1085.26
463.78	1081.42
464.14	1078.47
464.50	1077.07
464.87	1079.48
465.23	1077.72
465.59	1080.18
465.95	1079.01
466.32	1080.93
466.68	1079.99
467.04	1078.59
467.40	1076.46
467.77	1076.01
468.13	1077.98
468.49	1079.83
468.85	1085.45
469.22	1088.42
469.58	1091.67
469.94	1088.26
470.30	1088.23
470.66	1085.28
471.03	1084.00
471.39	1083.11
471.75	1081.87
472.11	1081.58
472.47	1080.27
472.84	1081.14
473.20	1080.27
473.56	1084.16
473.92	1084.81
474.28	1085.10
474.65	1082.99
475.01	1083.43
475.37	1082.38
475.73	1081.26
476.09	1082.85
476.45	1085.94
476.81	1085.49
477.18	1083.74
477.54	1084.37
477.90	1078.82
478.26	1077.37
478.62	1077.18
478.98	1075.76
479.34	1076.39
479.71	1081.30
480.07	1079.50
480.43	1079.67
480.79	1082.05
481.15	1081.30
481.51	1081.02
481.87	1083.48
482.23	1083.79
482.59	1082.08
482.96	1082.12
483.32	1083.81
483.68	1084.35
484.04	1085.00
484.40	1084.79
484.76	1084.98
485.12	1082.61
485.48	1079.64
485.84	1079.17
486.20	1076.34
486.56	1078.61
486.92	1083.22
487.28	1084.79
487.64	1085.96
488.00	1089.26
488.37	1088.16
488.73	1085.33
489.09	1087.32
489.45	1084.30
489.81	1085.49
490.17	1085.70
490.53	1081.98
490.89	1081.66
491.25	1083.46
491.61	1083.88
491.97	1081.49
492.33	1085.59
492.69	1083.64
493.05	1085.61
493.41	1088.56
493.77	1090.74
494.13	1089.10
494.49	1091.16
494.85	1087.90
495.21	1084.25
495.57	1083.01
495.93	1085.14
496.29	1082.52
496.64	1083.50
497.00	1083.18
497.36	1082.47
497.72	1081.70
498.08	1083.32
498.44	1082.69
498.80	1084.49
499.16	1082.66
499.52	1082.12
499.88	1081.37
500.24	1081.40
500.60	1080.30
500.96	1081.21
501.32	1081.23
501.68	1080.93
502.03	1079.62
502.39	1080.88
502.75	1082.57
503.11	1083.69
503.47	1083.67
503.83	1085.49
504.19	1083.86
504.55	1083.79
504.91	1081.82
505.26	1082.94
505.62	1081.51
505.98	1081.96
506.34	1082.83
506.70	1082.94
507.06	1081.16
507.42	1083.64
507.78	1083.08
508.13	1080.74
508.49	1082.22
508.85	1083.46
509.21	1082.19
509.57	1082.24
509.93	1083.13
510.28	1083.36
510.64	1084.07
511.00	1084.93
511.36	1085.07
511.72	1084.74
512.07	1083.20
512.43	1083.13
512.79	1082.12
513.15	1081.51
513.51	1082.50
513.86	1086.36
514.22	1086.50
514.58	1091.37
514.94	1092.42
515.30	1094.50
515.65	1092.42
516.01	1090.27
516.37	1087.53
516.73	1087.65
517.08	1085.52
517.44	1086.66
517.80	1088.02
518.16	1087.72
518.51	1087.58
518.87	1084.44
519.23	1083.76
519.59	1085.05
519.94	1085.56
520.30	1086.48
520.66	1088.19
521.01	1084.77
521.37	1085.24
521.73	1084.18
522.09	1084.49
522.44	1087.16
522.80	1088.14
523.16	1084.67
523.51	1083.34
523.87	1078.00
524.23	1078.73
524.58	1083.15
524.94	1084.32
525.30	1085.49
525.65	1088.02
526.01	1088.12
526.37	1086.36
526.72	1088.91
527.08	1091.72
527.44	1094.39
527.79	1092.89
528.15	1088.68
528.51	1087.60
528.86	1085.70
529.22	1086.94
529.58	1088.49
529.93	1090.76
530.29	1091.06
530.65	1089.22
531.00	1088.35
531.36	1087.69
531.71	1087.44
532.07	1087.23
532.43	1087.16
532.78	1086.69
533.14	1082.78
533.49	1084.65
533.85	1085.52
534.21	1084.35
534.56	1081.00
534.92	1084.79
535.27	1083.34
535.63	1083.36
535.98	1083.79
536.34	1088.58
536.69	1087.20
537.05	1086.01
537.41	1081.61
537.76	1082.87
538.12	1079.01
538.47	1078.71
538.83	1080.79
539.18	1085.10
539.54	1089.31
539.89	1091.65
540.25	1092.91
540.60	1093.66
540.96	1094.15
541.31	1093.12
541.67	1094.25
542.02	1093.12
542.38	1094.32
542.73	1094.69
543.09	1094.69
543.44	1094.97
543.80	1097.90
544.15	1096.12
544.51	1094.74
544.86	1096.92
545.22	1096.89
545.57	1098.06
545.93	1103.84
546.28	1104.52
546.64	1104.19
546.99	1103.80
547.35	1103.40
547.70	1097.36
548.05	1096.70
548.41	1089.73
548.76	1089.89
549.12	1088.98
549.47	1091.37
549.83	1091.72
550.18	1096.21
550.53	1095.96
550.89	1096.89
551.24	1092.91
551.60	1092.47
551.95	1092.14
552.30	1088.51
552.66	1087.62
553.01	1087.72
553.37	1086.66
553.72	1082.57
554.07	1083.71
554.43	1081.75
554.78	1082.26
555.13	1078.61
555.49	1079.97
555.84	1078.96
556.19	1080.60
556.55	1082.31
556.90	1085.52
557.26	1084.93
557.61	1086.48
557.96	1084.42
558.32	1084.21
558.67	1086.92
559.02	1088.35
559.37	1088.63
559.73	1088.19
560.08	1085.05
560.43	1080.16
560.79	1079.48
561.14	1078.21
561.49	1077.84
561.85	1079.17
562.20	1077.77
562.55	1075.85
562.90	1076.72
563.26	1078.68
563.61	1076.15
563.96	1080.58
564.32	1080.25
564.67	1083.64
565.02	1081.35
565.37	1085.42
565.73	1084.81
566.08	1086.57
566.43	1084.11
566.78	1084.42
567.14	1081.44
567.49	1082.45
567.84	1083.95
568.19	1084.28
568.54	1083.74
568.90	1086.03
569.25	1081.47
569.60	1081.63
569.95	1077.96
570.31	1078.24
570.66	1077.77
571.01	1081.89
571.36	1082.15
571.71	1084.16
572.06	1085.24
572.42	1083.50
572.77	1081.82
573.12	1077.61
573.47	1078.68
573.82	1076.08
574.18	1077.42
574.53	1079.06
574.88	1080.67
575.23	1078.61
575.58	1080.09
575.93	1079.27
576.28	1079.97
576.64	1082.05
576.99	1086.24
577.34	1087.44
577.69	1088.96
578.04	1088.28
578.39	1089.54
578.74	1085.26
579.09	1083.71
579.44	1085.35
579.80	1087.72
580.15	1083.86
580.50	1087.81
580.85	1087.41
581.20	1085.73
581.55	1082.24
581.90	1084.37
582.25	1079.99
582.60	1082.43
582.95	1083.15
583.30	1082.19
583.65	1079.81
584.00	1077.37
584.35	1077.89
584.71	1076.44
585.06	1079.57
585.41	1082.24
585.76	1088.82
586.11	1085.70
586.46	1085.70
586.81	1083.67
587.16	1081.12
587.51	1077.49
587.86	1078.17
588.21	1077.89
588.56	1078.31
588.91	1082.45
589.26	1084.00
589.61	1085.03
589.96	1083.62
590.31	1086.03
590.66	1083.74
591.01	1083.57
591.36	1083.76
591.71	1085.47
592.06	1084.46
592.41	1084.51
592.76	1085.75
593.10	1083.27
593.45	1086.08
593.80	1085.52
594.15	1089.78
594.50	1091.72
594.85	1094.32
595.20	1088.63
595.55	1088.16
595.90	1082.17
596.25	1078.14
596.60	1077.47
596.95	1082.99
597.30	1082.66
597.64	1138.06
597.99	1144.29
598.34	1145.60
598.69	1144.17
599.04	1147.96
599.39	1093.43
599.74	1087.83
600.09	1087.65
600.44	1086.97
600.78	1082.52
601.13	1084.04
601.48	1085.75
601.83	1086.31
602.18	1087.83
602.53	1088.86
602.88	1089.61
603.22	1087.83
603.57	1086.48
603.92	1085.66
604.27	1085.75
604.62	1087.13
604.97	1087.41
605.31	1085.35
605.66	1084.86
606.01	1084.42
606.36	1081.77
606.71	1082.17
607.05	1084.74
607.40	1082.69
607.75	1083.06
608.10	1082.76
608.44	1083.76
608.79	1084.63
609.14	1088.30
609.49	1091.23
609.84	1095.60
610.18	1100.19
610.53	1103.31
610.88	1108.99
611.23	1110.94
611.57	1111.94
611.92	1109.55
612.27	1108.78
612.62	1102.42
612.96	1101.32
613.31	1098.16
613.66	1095.02
614.00	1091.95
614.35	1090.97
614.70	1088.98
615.05	1089.22
615.39	1086.06
615.74	1085.89
616.09	1086.52
616.43	1086.13
616.78	1084.89
617.13	1087.86
617.47	1088.21
617.82	1087.39
618.17	1085.05
618.51	1087.81
618.86	1089.40
619.21	1087.76
619.55	1088.23
619.90	1090.48
620.25	1086.50
620.59	1083.25
620.94	1084.84
621.29	1082.85
621.63	1080.27
621.98	1081.07
622.32	1084.81
622.67	1084.63
623.02	1086.66
623.36	1085.17
623.71	1082.38
624.05	1079.71
624.40	1079.74
624.75	1077.68
625.09	1080.13
625.44	1079.67
625.78	1081.75
626.13	1082.29
626.48	1084.02
626.82	1087.16
627.17	1087.62
627.51	1086.27
627.86	1086.10
628.20	1086.17
628.55	1082.69
628.89	1088.75
629.24	1092.33
629.58	1091.30
629.93	1094.01
630.28	1095.75
630.62	1095.28
630.97	1090.22
631.31	1090.10
631.66	1087.23
632.00	1088.65
632.35	1086.13
632.69	1085.10
633.04	1084.91
633.38	1083.88
633.73	1079.38
634.07	1080.34
634.42	1080.65
634.76	1078.54
635.11	1080.81
635.45	1081.35
635.79	1076.62
636.14	1079.08
636.48	1086.22
636.83	1086.43
637.17	1086.31
637.52	1088.82
637.86	1089.66
638.21	1085.31
638.55	1081.68
638.89	1084.53
639.24	1083.60
639.58	1080.93
639.93	1080.16
640.27	1084.07
640.61	1081.91
640.96	1083.62
641.30	1087.79
641.65	1088.49
641.99	1087.32
642.33	1084.32
642.68	1085.12
643.02	1081.70
643.37	1082.33
643.71	1082.64
644.05	1087.04
644.40	1086.55
644.74	1086.03
645.08	1086.03
645.43	1085.61
645.77	1084.44
646.11	1084.39
646.46	1085.96
646.80	1084.60
647.14	1084.72
647.49	1083.71
647.83	1083.57
648.17	1083.60
648.52	1083.76
648.86	1081.47
649.20	1084.53
649.55	1086.41
649.89	1085.12
650.23	1086.36
650.57	1088.30
650.92	1084.25
651.26	1080.58
651.60	1081.56
651.95	1079.97
652.29	1081.44
652.63	1082.92
652.97	1088.44
653.32	1087.97
653.66	1089.26
654.00	1084.32
654.34	1084.98
654.69	1082.29
655.03	1084.37
655.37	1085.47
655.71	1091.74
656.05	1092.47
656.40	1091.27
656.74	1085.28
657.08	1079.55
657.42	1077.65
657.76	1074.70
658.11	1075.80
658.45	1080.81
658.79	1083.69
659.13	1084.00
659.47	1087.55
659.82	1085.66
660.16	1085.82
660.50	1087.53
660.84	1084.39
661.18	1084.60
661.52	1085.56
661.87	1085.00
662.21	1084.11
662.55	1087.72
662.89	1087.55
663.23	1088.47
663.57	1088.28
663.91	1087.46
664.25	1088.77
664.60	1086.50
664.94	1085.80
665.28	1085.75
665.62	1088.44
665.96	1085.35
666.30	1086.24
666.64	1084.56
666.98	1084.77
667.32	1082.64
667.66	1080.60
668.01	1080.72
668.35	1080.91
668.69	1081.70
669.03	1081.35
669.37	1083.74
669.71	1084.35
670.05	1083.86
670.39	1081.63
670.73	1081.77
671.07	1081.91
671.41	1081.51
671.75	1082.80
672.09	1085.00
672.43	1087.53
672.77	1084.65
673.11	1085.38
673.45	1084.72
673.79	1080.46
674.13	1077.00
674.47	1078.75
674.81	1077.09
675.15	1075.48
675.49	1075.59
675.83	1077.96
676.17	1078.64
676.51	1077.40
676.85	1078.78
677.19	1081.00
677.53	1080.44
677.87	1078.45
678.21	1079.48
678.55	1082.61
678.89	1084.67
679.23	1084.42
679.57	1086.87
679.90	1087.62
680.24	1086.01
680.58	1083.41
680.92	1082.71
681.26	1081.77
681.60	1080.37
681.94	1079.85
682.28	1078.26
682.62	1078.92
682.96	1080.77
683.29	1080.70
683.63	1081.51
683.97	1083.53
684.31	1083.53
684.65	1082.83
684.99	1083.55
685.33	1084.18
685.67	1084.63
686.00	1084.63
686.34	1083.15
686.68	1085.31
687.02	1082.85
687.36	1082.69
687.70	1082.24
688.03	1082.38
688.37	1080.51
688.71	1080.86
689.05	1080.79
689.39	1080.51
689.72	1079.81
690.06	1079.03
690.40	1079.38
690.74	1080.25
691.08	1080.70
691.41	1083.53
691.75	1084.89
692.09	1082.78
692.43	1083.74
692.76	1082.66
693.10	1082.17
693.44	1082.52
693.78	1083.29
694.11	1081.51
694.45	1083.95
694.79	1082.31
695.13	1082.03
695.46	1082.12
695.80	1082.80
696.14	1081.94
696.48	1084.93
696.81	1084.60
697.15	1086.01
697.49	1084.93
697.82	1085.75
698.16	1082.97
698.50	1080.53
698.83	1080.86
699.17	1080.53
699.51	1080.84
699.84	1080.30
700.18	1081.96
700.52	1081.54
700.85	1082.05
701.19	1080.74
701.53	1083.18
701.86	1082.54
702.20	1081.40
702.54	1079.20
702.87	1079.08
703.21	1076.86
703.55	1075.92
703.88	1077.21
704.22	1079.64
704.55	1078.73
704.89	1079.01
705.23	1082.64
705.56	1082.94
705.90	1083.67
706.23	1083.18
706.57	1082.90
706.91	1081.51
707.24	1077.70
707.58	1076.76
707.91	1077.40
708.25	1080.16
708.58	1080.41
708.92	1083.41
709.26	1081.40
709.59	1082.31
709.93	1082.50
710.26	1083.60
710.60	1084.93
710.93	1084.00
711.27	1085.14
711.60	1081.87
711.94	1081.98
712.27	1082.33
712.61	1086.83
712.94	1086.66
713.28	1088.35
713.61	1085.24
713.95	1084.16
714.28	1084.46
714.62	1083.20
714.95	1083.76
715.29	1085.17
715.62	1086.62
715.96	1085.45
716.29	1085.47
716.63	1083.53
716.96	1083.69
717.29	1082.10
717.63	1080.48
717.96	1080.30
718.30	1078.50
718.63	1078.94
718.97	1076.65
719.30	1073.93
719.63	1075.73
719.97	1080.46
720.30	1081.61
720.64	1081.44
720.97	1087.79
721.30	1085.38
721.64	1080.39
721.97	1079.78
722.31	1083.57
722.64	1083.57
722.97	1082.47
723.31	1082.83
723.64	1083.22
723.97	1080.56
724.31	1077.51
724.64	1078.14
724.98	1079.24
725.31	1076.76
725.64	1076.55
725.98	1075.36
726.31	1077.23
726.64	1077.79
726.97	1078.61
727.31	1078.17
727.64	1080.53
727.97	1077.51
728.31	1074.05
728.64	1073.81
728.97	1075.34
729.31	1076.51
729.64	1079.15
729.97	1084.49
730.30	1085.33
730.64	1082.59
730.97	1079.27
731.30	1078.28
731.63	1077.44
731.97	1076.67
732.30	1079.34
732.63	1080.63
732.96	1080.16
733.30	1081.00
733.63	1081.70
733.96	1081.42
734.29	1085.05
734.63	1084.72
734.96	1084.67
735.29	1083.34
735.62	1081.96
735.95	1079.31
736.29	1080.58
736.62	1081.58
736.95	1083.34
737.28	1084.32
737.61	1080.56
737.94	1079.88
738.28	1079.50
738.61	1078.92
738.94	1079.83
739.27	1082.73
739.60	1081.77
739.93	1078.82
740.27	1077.11
740.60	1079.20
740.93	1082.38
741.26	1084.09
741.59	1082.71
741.92	1084.63
742.25	1085.12
742.58	1085.33
742.91	1083.01
743.25	1085.38
743.58	1084.58
743.91	1080.37
744.24	1074.38
744.57	1075.17
744.90	1071.90
745.23	1074.63
745.56	1077.96
745.89	1079.78
746.22	1078.47
746.55	1085.00
746.88	1085.28
747.21	1082.78
747.54	1083.08
747.87	1085.24
748.20	1080.98
748.53	1078.92
748.87	1076.90
749.20	1076.97
749.53	1079.64
749.86	1080.23
750.19	1081.00
750.52	1081.51
750.85	1080.60
751.18	1080.16
751.51	1079.99
751.84	1081.68
752.16	1085.05
752.49	1084.84
752.82	1082.38
753.15	1084.30
753.48	1079.74
753.81	1076.69
754.14	1079.55
754.47	1079.31
754.80	1075.50
755.13	1073.63
755.46	1077.61
755.79	1075.71
756.12	1082.01
756.45	1084.09
756.78	1086.01
757.11	1082.43
757.43	1084.98
757.76	1079.71
758.09	1080.23
758.42	1083.22
758.75	1082.71
759.08	1082.83
759.41	1085.59
759.74	1084.96
760.07	1084.49
760.39	1088.61
760.72	1082.61
761.05	1079.92
761.38	1077.25
761.71	1076.41
762.04	1071.64
762.36	1075.08
762.69	1075.73
763.02	1077.58
763.35	1077.42
763.68	1080.56
764.01	1079.95
764.33	1080.44
764.66	1082.15
764.99	1083.34
765.32	1084.28
765.65	1086.94
765.97	1084.89
766.30	1084.35
766.63	1082.40
766.96	1082.61
767.28	1082.43
767.61	1083.25
767.94	1083.48
768.27	1084.25
768.59	1084.60
768.92	1086.34
769.25	1088.09
769.58	1087.37
769.90	1087.86
770.23	1086.55
770.56	1084.67
770.89	1083.93
771.21	1085.26
771.54	1080.32
771.87	1076.32
772.19	1073.67
772.52	1074.38
772.85	1072.08
773.17	1075.99
773.50	1079.92
773.83	1081.91
774.15	1081.66
774.48	1079.43
774.81	1078.85
775.13	1077.37
775.46	1076.18
775.79	1070.87
776.11	1077.84
776.44	1079.99
776.77	1081.05
777.09	1083.90
777.42	1090.10
777.74	1088.00
778.07	1085.70
778.40	1085.17
778.72	1082.57
779.05	1081.63
779.37	1080.88
779.70	1083.69
780.03	1087.67
780.35	1086.36
780.68	1085.21
781.00	1084.91
781.33	1085.56
781.65	1082.01
781.98	1083.43
782.31	1082.94
782.63	1083.76
782.96	1081.70
783.28	1084.67
783.61	1087.06
783.93	1090.43
784.26	1089.45
784.58	1088.30
784.91	1084.32
785.23	1080.72
785.56	1076.74
785.88	1075.50
786.21	1076.39
786.53	1076.93
786.86	1076.06
787.18	1077.49
787.51	1078.66
787.83	1077.16
788.16	1077.21
788.48	1082.01
788.81	1081.09
789.13	1083.90
789.46	1085.14
789.78	1085.33
790.10	1085.21
790.43	1088.98
790.75	1087.88
791.08	1087.86
791.40	1088.68
791.73	1089.59
792.05	1088.63
792.37	1086.83
792.70	1088.00
793.02	1089.14
793.35	1086.27
793.67	1083.43
793.99	1084.46
794.32	1083.62
794.64	1082.54
794.96	1082.03
795.29	1081.21
795.61	1078.87
795.93	1078.71
796.26	1079.64
796.58	1079.34
796.91	1082.45
797.23	1087.62
797.55	1087.30
797.87	1085.68
798.20	1085.96
798.52	1084.65
798.84	1079.67
799.17	1079.38
799.49	1077.96
799.81	1080.39
800.14	1078.54
800.46	1077.77
800.78	1075.38
801.10	1075.99
801.43	1072.92
801.75	1074.68
802.07	1075.99
802.40	1079.57
802.72	1081.02
803.04	1084.16
803.36	1084.16
803.69	1084.91
804.01	1084.84
804.33	1085.07
804.65	1081.84
804.97	1081.14
805.30	1082.66
805.62	1083.69
805.94	1085.10
806.26	1083.43
806.58	1082.87
806.91	1080.58
807.23	1080.77
807.55	1078.24
807.87	1079.97
808.19	1082.36
808.52	1083.46
808.84	1082.94
809.16	1080.95
809.48	1083.90
809.80	1082.57
810.12	1084.53
810.44	1083.20
810.77	1085.61
811.09	1083.83
811.41	1084.02
811.73	1081.54
812.05	1083.25
812.37	1084.91
812.69	1083.08
813.01	1083.86
813.33	1084.67
813.66	1085.89
813.98	1085.75
814.30	1087.65
814.62	1088.26
814.94	1090.17
815.26	1086.69
815.58	1083.04
815.90	1081.84
816.22	1079.17
816.54	1077.14
816.86	1077.23
817.18	1078.40
817.50	1077.54
817.82	1076.90
818.14	1078.59
818.46	1080.20
818.78	1080.67
819.10	1084.11
819.42	1085.49
819.74	1084.56
820.06	1086.31
820.38	1086.62
820.70	1085.10
821.02	1085.49
821.34	1086.24
821.66	1085.10
821.98	1085.21
822.30	1083.43
822.62	1085.33
822.94	1082.17
823.26	1081.33
823.58	1082.99
823.90	1085.28
824.22	1080.70
824.54	1082.45
824.86	1078.87
825.18	1079.22
825.50	1078.75
825.81	1082.64
826.13	1079.43
826.45	1084.77
826.77	1083.25
827.09	1081.44
827.41	1081.70
827.73	1081.02
828.05	1076.74
828.36	1077.21
828.68	1078.14
829.00	1075.92
829.32	1078.19
829.64	1078.24
829.96	1072.90
830.28	1074.10
830.59	1075.52
830.91	1076.83
831.23	1078.28
831.55	1084.14
831.87	1082.17
832.19	1081.56
832.50	1082.17
832.82	1084.09
833.14	1084.39
833.46	1086.06
833.78	1086.15
834.09	1084.51
834.41	1085.10
834.73	1083.64
835.05	1083.48
835.36	1085.49
835.68	1086.36
836.00	1085.03
836.32	1085.35
836.63	1084.51
836.95	1080.98
837.27	1080.91
837.59	1081.30
837.90	1078.54
838.22	1079.78
838.54	1079.67
838.85	1079.60
839.17	1078.24
839.49	1079.31
839.80	1076.83
840.12	1076.55
840.44	1076.30
840.76	1076.30
841.07	1080.84
841.39	1082.83
841.71	1083.25
842.02	1081.40
842.34	1078.21
842.65	1071.71
842.97	1070.87
843.29	1075.80
843.60	1075.97
843.92	1078.82
844.24	1082.36
844.55	1087.02
844.87	1082.38
845.18	1087.95
845.50	1091.32
845.82	1090.57
846.13	1086.76
846.45	1086.27
846.76	1083.95
847.08	1079.22
847.40	1079.64
847.71	1078.33
848.03	1080.51
848.34	1077.04
848.66	1078.89
848.97	1079.62
849.29	1078.82
849.60	1081.58
849.92	1085.63
850.24	1084.81
850.55	1085.56
850.87	1088.42
851.18	1087.09
851.50	1083.64
851.81	1086.27
852.13	1087.06
852.44	1085.75
852.76	1083.29
853.07	1086.76
853.39	1086.59
853.70	1083.04
854.01	1084.04
854.33	1083.81
854.64	1080.70
854.96	1076.95
855.27	1077.51
855.59	1078.10
855.90	1081.14
856.22	1080.44
856.53	1083.79
856.84	1085.21
857.16	1085.66
857.47	1085.10
857.79	1087.04
858.10	1086.03
858.41	1086.80
858.73	1085.82
859.04	1084.00
859.36	1082.50
859.67	1081.87
859.98	1082.45
860.30	1082.73
860.61	1081.82
860.92	1085.24
861.24	1089.43
861.55	1088.00
861.87	1087.13
862.18	1088.40
862.49	1086.15
862.81	1082.38
863.12	1082.97
863.43	1082.66
863.74	1081.68
864.06	1083.01
864.37	1080.39
864.68	1078.82
865.00	1075.41
865.31	1075.15
865.62	1074.61
865.94	1076.32
866.25	1074.66
866.56	1077.82
866.87	1078.59
867.19	1076.79
867.50	1078.92
867.81	1079.36
868.12	1080.98
868.44	1077.68
868.75	1081.61
869.06	1079.92
869.37	1077.65
869.68	1076.44
870.00	1082.38
870.31	1077.75
870.62	1078.07
870.93	1078.80
871.24	1079.22
871.56	1075.10
871.87	1076.04
872.18	1076.25
872.49	1079.31
872.80	1079.20
873.12	1082.26
873.43	1084.96
873.74	1082.99
874.05	1083.57
874.36	1083.83
874.67	1083.29
874.98	1081.87
875.29	1085.10
875.61	1082.85
875.92	1082.19
876.23	1080.18
876.54	1080.06
876.85	1079.76
877.16	1082.83
877.47	1081.61
877.78	1082.45
878.09	1082.05
878.40	1082.71
878.72	1082.01
879.03	1083.46
879.34	1084.04
879.65	1083.62
879.96	1084.46
880.27	1085.12
880.58	1085.89
880.89	1085.35
881.20	1086.97
881.51	1079.43
881.82	1080.74
882.13	1081.75
882.44	1080.86
882.75	1080.20
883.06	1083.79
883.37	1079.24
883.68	1080.41
883.99	1082.01
884.30	1083.32
884.61	1085.94
884.92	1089.85
885.23	1085.89
885.54	1084.89
885.85	1085.19
886.16	1081.77
886.47	1080.11
886.78	1080.88
887.08	1081.21
887.39	1076.79
887.70	1079.74
888.01	1079.55
888.32	1082.08
888.63	1081.80
888.94	1084.49
889.25	1084.58
889.56	1082.97
889.87	1081.37
890.17	1081.30
890.48	1084.74
890.79	1084.91
891.10	1085.70
891.41	1084.21
891.72	1084.49
892.03	1080.41
892.34	1076.01
892.64	1077.77
892.95	1082.10
893.26	1080.86
893.57	1081.37
893.88	1082.99
894.18	1080.65
894.49	1077.30
894.80	1084.91
895.11	1085.00
895.42	1086.38
895.72	1088.96
896.03	1087.69
896.34	1079.67
896.65	1079.22
896.96	1080.11
897.26	1078.57
897.57	1076.81
897.88	1078.78
898.19	1080.56
898.49	1081.70
898.80	1079.92
899.11	1081.89
899.41	1081.61
899.72	1080.98
900.03	1077.58
900.34	1079.22
900.64	1077.96
900.95	1077.93
901.26	1075.78
901.56	1078.19
901.87	1076.01
902.18	1077.25
902.48	1080.32
902.79	1080.25
903.10	1081.33
903.40	1082.08
903.71	1082.90
904.02	1080.70
904.32	1083.74
904.63	1083.74
904.94	1082.33
905.24	1082.01
905.55	1083.04
905.85	1081.21
906.16	1080.09
906.47	1082.73
906.77	1084.02
907.08	1081.80
907.38	1082.45
907.69	1082.24
908.00	1081.91
908.30	1081.07
908.61	1079.36
908.91	1078.54
909.22	1079.71
909.52	1082.01
909.83	1082.94
910.14	1085.94
910.44	1088.68
910.75	1087.65
911.05	1086.92
911.36	1087.88
911.66	1089.22
911.97	1089.33
912.27	1086.97
912.58	1087.48
912.88	1084.58
913.19	1082.69
913.49	1081.23
913.80	1083.01
914.10	1085.45
914.41	1088.21
914.71	1086.36
915.01	1082.54
915.32	1084.84
915.62	1081.47
915.93	1080.93
916.23	1082.76
916.54	1086.22
916.84	1081.91
917.15	1078.57
917.45	1076.15
917.75	1080.06
918.06	1079.90
918.36	1082.15
918.67	1086.94
918.97	1088.02
919.27	1083.27
919.58	1081.47
919.88	1080.58
920.18	1079.01
920.49	1077.16
920.79	1078.31
921.10	1080.37
921.40	1079.99
921.70	1076.97
922.01	1075.97
922.31	1075.62
922.61	1073.00
922.92	1072.34
923.22	1074.75
923.52	1076.69
923.82	1076.74
924.13	1076.27
924.43	1081.37
924.73	1081.37
925.04	1084.77
925.34	1084.37
925.64	1087.48
925.94	1082.50
926.25	1084.70
926.55	1083.83
926.85	1082.36
927.15	1081.44
927.46	1080.70
927.76	1076.69
928.06	1073.30
928.36	1073.98
928.67	1073.30
928.97	1075.87
929.27	1075.83
929.57	1079.24
929.87	1083.08
930.18	1084.04
930.48	1086.17
930.78	1088.56
931.08	1088.21
931.38	1083.88
931.69	1082.47
931.99	1078.85
932.29	1078.89
932.59	1079.27
932.89	1083.81
933.19	1083.25
933.49	1084.70
933.80	1087.55
934.10	1085.89
934.40	1080.34
934.70	1081.28
935.00	1078.50
935.30	1076.83
935.60	1077.49
935.90	1079.08
936.20	1081.87
936.50	1084.56
936.81	1086.71
937.11	1085.26
937.41	1086.15
937.71	1083.97
938.01	1082.38
938.31	1081.26
938.61	1081.80
938.91	1080.58
939.21	1081.30
939.51	1084.89
939.81	1082.26
940.11	1081.77
940.41	1081.40
940.71	1080.56
941.01	1080.46
941.31	1080.34
941.61	1087.93
941.91	1093.10
942.21	1095.11
942.51	1094.67
942.81	1098.62
943.11	1091.51
943.41	1089.66
943.71	1093.38
944.01	1093.69
944.31	1089.29
944.61	1088.61
944.90	1085.17
945.20	1075.50
945.50	1074.84
945.80	1076.37
946.10	1075.34
946.40	1078.92
946.70	1086.01
947.00	1084.67
947.30	1084.18
947.60	1086.08
947.89	1086.36
948.19	1082.61
948.49	1083.43
948.79	1084.42
949.09	1089.61
949.39	1089.47
949.69	1086.71
949.98	1086.57
950.28	1084.74
950.58	1080.63
950.88	1078.43
951.18	1081.73
951.48	1081.02
951.77	1081.68
952.07	1081.54
952.37	1086.20
952.67	1086.87
952.97	1088.35
953.26	1084.91
953.56	1083.11
953.86	1077.61
954.16	1076.60
954.45	1075.03
954.75	1079.83
955.05	1078.26
955.35	1080.30
955.64	1079.48
955.94	1083.34
956.24	1080.86
956.54	1082.31
956.83	1081.14
957.13	1082.19
957.43	1077.00
957.72	1075.38
958.02	1072.53
958.32	1070.61
958.61	1070.05
958.91	1069.32
959.21	1068.88
959.50	1074.49
959.80	1075.99
960.10	1076.67
960.39	1079.64
960.69	1082.50
960.99	1080.58
961.28	1082.69
961.58	1081.21
961.87	1081.66
962.17	1081.61
962.47	1077.75
962.76	1076.58
963.06	1076.53
963.36	1073.95
963.65	1074.80
963.95	1078.75
964.24	1077.56
964.54	1079.17
964.83	1081.51
965.13	1080.63
965.42	1079.60
965.72	1080.06
966.02	1081.30
966.31	1080.11
966.61	1082.61
966.90	1084.51
967.20	1083.48
967.49	1082.54
967.79	1084.53
968.08	1082.83
968.38	1083.11
968.67	1082.57
968.97	1080.70
969.26	1077.63
969.56	1076.25
969.85	1075.01
970.15	1077.56
970.44	1078.87
970.74	1078.38
971.03	1078.82
971.32	1080.81
971.62	1082.50
971.91	1084.89
972.21	1087.06
972.50	1086.94
972.80	1085.00
973.09	1084.11
973.38	1082.29
973.68	1081.05
973.97	1083.36
974.27	1083.76
974.56	1083.01
974.85	1083.71
975.15	1086.85
975.44	1084.77
975.73	1083.71
976.03	1083.04
976.32	1083.08
976.61	1081.51
976.91	1081.40
977.20	1082.71
977.49	1081.66
977.79	1078.85
978.08	1078.96
978.37	1080.72
978.67	1076.79
978.96	1080.11
979.25	1083.15
979.55	1080.41
979.84	1076.76
980.13	1082.94
980.42	1080.23
980.72	1077.98
981.01	1081.14
981.30	1083.06
981.59	1080.11
981.89	1082.50
982.18	1082.33
982.47	1079.76
982.76	1081.70
983.06	1085.26
983.35	1084.00
983.64	1089.82
983.93	1095.14
984.22	1098.09
984.52	1092.47
984.81	1091.02
985.10	1088.35
985.39	1082.64
985.68	1076.69
985.97	1076.67
986.27	1078.10
986.56	1073.67
986.85	1076.01
987.14	1077.72
987.43	1080.58
987.72	1080.74
988.01	1085.68
988.31	1080.74
988.60	1079.15
988.89	1077.37
989.18	1075.71
989.47	1075.24
989.76	1079.60
990.05	1082.85
990.34	1083.22
990.63	1085.07
990.92	1082.29
991.21	1084.30
991.51	1081.14
991.80	1083.06
992.09	1079.97
992.38	1079.69
992.67	1077.23
992.96	1078.87
993.25	1077.61
993.54	1081.82
993.83	1082.26
994.12	1081.47
994.41	1080.84
994.70	1081.75
994.99	1081.91
995.28	1081.70
995.57	1081.28
995.86	1083.53
996.15	1082.01
996.44	1081.56
996.73	1084.32
997.02	1087.37
997.31	1086.34
997.59	1088.65
997.88	1086.38
998.17	1083.29
998.46	1081.28
998.75	1081.89
999.04	1082.52
999.33	1083.69
999.62	1085.66
999.91	1089.43
1000.20	1089.52
1000.49	1088.54
1000.77	1086.87
1001.06	1085.87
1001.35	1086.06
1001.64	1083.15
1001.93	1081.49
1002.22	1083.04
1002.51	1082.24
1002.79	1080.16
1003.08	1080.06
1003.37	1083.25
1003.66	1083.50
1003.95	1085.03
1004.23	1082.26
1004.52	1084.37
1004.81	1081.84
1005.10	1080.60
1005.39	1080.60
1005.67	1081.66
1005.96	1082.10
1006.25	1081.77
1006.54	1086.50
1006.83	1085.28
1007.11	1085.35
1007.40	1084.09
1007.69	1085.73
1007.97	1079.46
1008.26	1080.56
1008.55	1079.78
1008.84	1082.08
1009.12	1080.13
1009.41	1082.78
1009.70	1083.62
1009.98	1085.07
1010.27	1081.75
1010.56	1082.26
1010.85	1083.71
1011.13	1083.95
1011.42	1084.96
1011.71	1082.92
1011.99	1084.44
1012.28	1081.12
1012.56	1080.77
1012.85	1080.32
1013.14	1083.11
1013.42	1078.99
1013.71	1077.61
1014.00	1075.48
1014.28	1076.41
1014.57	1077.25
1014.85	1076.55
1015.14	1078.47
1015.43	1083.41
1015.71	1084.16
1016.00	1080.04
1016.28	1083.88
1016.57	1082.03
1016.85	1076.67
1017.14	1073.79
1017.43	1079.31
1017.71	1078.26
1018.00	1080.84
1018.28	1080.27
1018.57	1078.85
1018.85	1075.62
1019.14	1077.14
1019.42	1077.07
1019.71	1080.11
1019.99	1080.63
1020.28	1083.06
1020.56	1081.33
1020.85	1082.29
1021.13	1078.45
1021.42	1078.05
1021.70	1077.93
1021.99	1076.13
1022.27	1075.69
1022.55	1068.69
1022.84	1084.02
>>>>>End Processed Spectral Data<<<<<
