SpectraSuite Data File
++++++++++++++++++++++++++++++++++++
Date: Mon Aug 26 10:26:00 PDT 2019
User: corrico
Dark Spectrum Present: No
Reference Spectrum Present: No
Number of Sampled Component Spectra: 1
Spectrometers: USB2+H06089
Integration Time (usec): 10000 (USB2+H06089)
Spectra Averaged: 2 (USB2+H06089)
Boxcar Smoothing: 2 (USB2+H06089)
Correct for Electrical Dark: No (USB2+H06089)
Strobe/Lamp Enabled: No (USB2+H06089)
Correct for Detector Non-linearity: No (USB2+H06089)
Correct for Stray Light: No (USB2+H06089)
Number of Pixels in Processed Spectrum: 2048
>>>>>Begin Processed Spectral Data<<<<<
339.70	1026.32
340.07	1026.32
340.45	983.49
340.82	959.85
341.19	939.73
341.57	917.02
341.94	902.51
342.31	902.74
342.69	896.19
343.06	895.49
343.43	890.34
343.81	895.96
344.18	898.30
344.55	907.66
344.93	904.15
345.30	912.81
345.67	910.00
346.04	923.34
346.42	928.26
346.79	942.77
347.16	945.11
347.54	955.87
347.91	957.05
348.28	973.66
348.65	981.15
349.03	1000.58
349.40	1012.05
349.77	1029.37
350.14	1031.47
350.52	1042.71
350.89	1050.43
351.26	1061.67
351.63	1055.58
352.01	1066.82
352.38	1072.67
352.75	1069.16
353.12	1068.22
353.50	1079.69
353.87	1077.58
354.24	1071.73
354.61	1079.92
354.98	1084.60
355.36	1080.39
355.73	1074.77
356.10	1080.63
356.47	1075.24
356.84	1078.28
357.22	1082.26
357.59	1089.52
357.96	1079.92
358.33	1078.05
358.70	1076.18
359.08	1067.28
359.45	1060.03
359.82	1066.82
360.19	1067.52
360.56	1066.35
360.94	1068.92
361.31	1071.97
361.68	1081.09
362.05	1088.35
362.42	1085.07
362.79	1094.90
363.16	1094.90
363.54	1077.82
363.91	1067.28
364.28	1072.90
364.65	1062.60
365.02	1058.62
365.39	1065.88
365.76	1064.94
366.14	1063.07
366.51	1064.48
366.88	1070.80
367.25	1066.82
367.62	1068.69
367.99	1069.16
368.36	1073.14
368.73	1075.94
369.10	1073.14
369.48	1080.63
369.85	1083.20
370.22	1078.75
370.59	1079.92
370.96	1073.37
371.33	1069.86
371.70	1057.92
372.07	1058.16
372.44	1052.07
372.81	1053.48
373.18	1046.45
373.55	1051.37
373.93	1050.20
374.30	1049.26
374.67	1053.94
375.04	1059.09
375.41	1052.77
375.78	1052.07
376.15	1053.94
376.52	1057.45
376.89	1054.65
377.26	1066.58
377.63	1075.71
378.00	1077.58
378.37	1073.37
378.74	1085.07
379.11	1074.77
379.48	1066.11
379.85	1058.16
380.22	1056.99
380.59	1042.94
380.96	1036.62
381.33	1043.88
381.70	1045.05
382.07	1045.75
382.44	1056.75
382.81	1082.50
383.18	1077.11
383.55	1078.28
383.92	1080.16
384.29	1073.60
384.66	1065.41
385.03	1070.56
385.40	1072.90
385.77	1076.88
386.14	1081.56
386.51	1078.28
386.88	1075.48
387.25	1071.50
387.62	1067.52
387.99	1057.22
388.36	1056.75
388.73	1071.73
389.10	1078.52
389.46	1085.07
389.83	1094.43
390.20	1097.01
390.57	1078.99
390.94	1079.22
391.31	1076.65
391.68	1067.75
392.05	1063.77
392.42	1064.24
392.79	1065.18
393.16	1065.88
393.53	1073.60
393.89	1072.67
394.26	1078.52
394.63	1074.77
395.00	1078.05
395.37	1078.52
395.74	1085.31
396.11	1081.80
396.48	1082.73
396.84	1085.77
397.21	1078.52
397.58	1073.14
397.95	1078.52
398.32	1086.71
398.69	1074.54
399.06	1082.73
399.42	1074.77
399.79	1071.97
400.16	1064.24
400.53	1070.80
400.90	1069.16
401.27	1081.56
401.64	1085.31
402.00	1083.20
402.37	1076.65
402.74	1076.18
403.11	1072.43
403.48	1073.60
403.84	1070.80
404.21	1066.35
404.58	1071.26
404.95	1081.09
405.32	1075.94
405.68	1076.41
406.05	1086.24
406.42	1082.73
406.79	1066.58
407.16	1071.97
407.52	1075.01
407.89	1071.73
408.26	1064.48
408.63	1061.67
408.99	1057.45
409.36	1054.18
409.73	1055.58
410.10	1069.62
410.47	1067.75
410.83	1061.67
411.20	1066.58
411.57	1078.75
411.94	1066.58
412.30	1086.71
412.67	1097.01
413.04	1102.16
413.40	1090.22
413.77	1104.73
414.14	1092.33
414.51	1082.50
414.87	1079.22
415.24	1078.28
415.61	1058.62
415.97	1055.82
416.34	1053.24
416.71	1046.92
417.08	1059.56
417.44	1068.69
417.81	1078.05
418.18	1083.43
418.54	1080.63
418.91	1064.01
419.28	1064.01
419.64	1059.33
420.01	1068.22
420.38	1065.41
420.74	1075.94
421.11	1074.07
421.48	1087.18
421.84	1071.97
422.21	1072.20
422.58	1068.22
422.94	1073.37
423.31	1062.37
423.68	1066.35
424.04	1070.09
424.41	1070.56
424.77	1071.26
425.14	1077.82
425.51	1082.50
425.87	1085.07
426.24	1080.63
426.61	1077.11
426.97	1067.75
427.34	1068.45
427.70	1067.52
428.07	1075.48
428.44	1082.50
428.80	1082.73
429.17	1079.69
429.53	1078.99
429.90	1073.84
430.27	1067.75
430.63	1063.54
431.00	1068.92
431.36	1066.11
431.73	1077.58
432.09	1066.82
432.46	1076.18
432.83	1070.56
433.19	1073.14
433.56	1064.01
433.92	1071.50
434.29	1062.84
434.65	1068.22
435.02	1074.77
435.38	1070.33
435.75	1072.90
436.11	1071.26
436.48	1063.54
436.84	1057.92
437.21	1071.03
437.57	1075.48
437.94	1085.54
438.30	1088.82
438.67	1092.09
439.03	1079.46
439.40	1072.43
439.76	1065.88
440.13	1063.31
440.49	1062.37
440.86	1071.03
441.22	1073.14
441.59	1076.41
441.95	1089.29
442.32	1094.90
442.68	1099.35
443.05	1100.99
443.41	1113.39
443.78	1107.31
444.14	1093.26
444.51	1088.12
444.87	1083.43
445.24	1069.86
445.60	1064.94
445.96	1072.90
446.33	1070.09
446.69	1083.67
447.06	1081.56
447.42	1085.07
447.79	1095.14
448.15	1102.63
448.51	1096.31
448.88	1094.67
449.24	1098.41
449.61	1089.29
449.97	1082.97
450.33	1079.22
450.70	1080.39
451.06	1075.71
451.43	1075.94
451.79	1071.73
452.15	1074.31
452.52	1087.65
452.88	1085.31
453.24	1086.71
453.61	1087.41
453.97	1089.75
454.34	1079.92
454.70	1074.31
455.06	1075.24
455.43	1069.16
455.79	1067.28
456.15	1061.90
456.52	1068.69
456.88	1062.37
457.24	1069.16
457.61	1068.92
457.97	1083.20
458.33	1085.31
458.70	1087.88
459.06	1088.82
459.42	1087.88
459.79	1073.60
460.15	1073.37
460.51	1075.01
460.88	1064.71
461.24	1065.65
461.60	1070.33
461.96	1060.03
462.33	1057.92
462.69	1064.94
463.05	1060.26
463.42	1062.37
463.78	1063.77
464.14	1073.37
464.50	1082.50
464.87	1084.37
465.23	1084.84
465.59	1094.90
465.95	1085.77
466.32	1083.43
466.68	1087.41
467.04	1090.22
467.40	1089.75
467.77	1084.60
468.13	1082.26
468.49	1076.88
468.85	1077.11
469.22	1071.03
469.58	1068.45
469.94	1070.33
470.30	1081.09
470.66	1083.20
471.03	1081.33
471.39	1084.60
471.75	1085.07
472.11	1075.01
472.47	1068.45
472.84	1076.65
473.20	1083.90
473.56	1088.35
473.92	1083.67
474.28	1076.88
474.65	1078.28
475.01	1072.20
475.37	1051.60
475.73	1055.11
476.09	1066.11
476.45	1060.96
476.81	1071.97
477.18	1090.46
477.54	1093.73
477.90	1093.50
478.26	1095.84
478.62	1093.26
478.98	1086.48
479.34	1075.48
479.71	1073.37
480.07	1065.18
480.43	1060.26
480.79	1066.82
481.15	1081.09
481.51	1087.65
481.87	1093.50
482.23	1087.88
482.59	1082.73
482.96	1074.54
483.32	1066.58
483.68	1064.01
484.04	1077.58
484.40	1074.31
484.76	1074.07
485.12	1066.58
485.48	1078.52
485.84	1075.71
486.20	1076.65
486.56	1082.03
486.92	1093.03
487.28	1086.24
487.64	1084.84
488.00	1097.01
488.37	1101.69
488.73	1095.37
489.09	1089.29
489.45	1083.90
489.81	1070.09
490.17	1056.05
490.53	1056.75
490.89	1056.99
491.25	1059.33
491.61	1067.75
491.97	1071.97
492.33	1075.48
492.69	1078.52
493.05	1078.52
493.41	1071.26
493.77	1077.35
494.13	1084.60
494.49	1078.99
494.85	1085.77
495.21	1087.88
495.57	1082.73
495.93	1074.07
496.29	1079.69
496.64	1081.80
497.00	1084.14
497.36	1088.35
497.72	1086.94
498.08	1091.86
498.44	1087.88
498.80	1086.01
499.16	1086.24
499.52	1087.65
499.88	1088.58
500.24	1089.52
500.60	1087.88
500.96	1085.07
501.32	1089.75
501.68	1084.37
502.03	1080.86
502.39	1079.22
502.75	1082.26
503.11	1082.26
503.47	1088.35
503.83	1084.14
504.19	1096.07
504.55	1103.80
504.91	1097.95
505.26	1094.43
505.62	1114.80
505.98	1104.26
506.34	1094.67
506.70	1102.16
507.06	1101.92
507.42	1090.92
507.78	1086.24
508.13	1093.73
508.49	1098.18
508.85	1095.60
509.21	1092.80
509.57	1096.07
509.93	1089.75
510.28	1086.01
510.64	1094.90
511.00	1089.75
511.36	1094.43
511.72	1102.16
512.07	1100.75
512.43	1098.41
512.79	1104.50
513.15	1109.65
513.51	1103.56
513.86	1100.29
514.22	1098.18
514.58	1085.77
514.94	1080.86
515.30	1075.24
515.65	1074.07
516.01	1077.82
516.37	1081.56
516.73	1090.22
517.08	1092.09
517.44	1094.90
517.80	1094.43
518.16	1105.90
518.51	1108.24
518.87	1114.80
519.23	1110.12
519.59	1102.63
519.94	1100.52
520.30	1092.56
520.66	1097.95
521.01	1109.65
521.37	1108.95
521.73	1114.10
522.09	1123.46
522.44	1108.24
522.80	1102.39
523.16	1107.07
523.51	1095.60
523.87	1086.24
524.23	1093.03
524.58	1097.48
524.94	1100.75
525.30	1114.80
525.65	1112.46
526.01	1122.29
526.37	1124.63
526.72	1118.54
527.08	1108.95
527.44	1110.12
527.79	1100.99
528.15	1096.78
528.51	1105.44
528.86	1111.52
529.22	1111.75
529.58	1109.88
529.93	1104.97
530.29	1097.95
530.65	1084.60
531.00	1086.71
531.36	1090.46
531.71	1088.82
532.07	1097.95
532.43	1100.52
532.78	1094.43
533.14	1089.05
533.49	1090.22
533.85	1089.29
534.21	1097.71
534.56	1095.37
534.92	1102.16
535.27	1105.44
535.63	1101.69
535.98	1101.46
536.34	1112.46
536.69	1111.29
537.05	1107.54
537.41	1105.67
537.76	1109.88
538.12	1108.71
538.47	1099.58
538.83	1095.60
539.18	1089.99
539.54	1081.33
539.89	1085.07
540.25	1090.46
540.60	1097.48
540.96	1109.88
541.31	1108.48
541.67	1101.92
542.02	1106.14
542.38	1092.80
542.73	1086.71
543.09	1093.26
543.44	1088.12
543.80	1089.52
544.15	1113.16
544.51	1104.50
544.86	1097.01
545.22	1104.50
545.57	1098.88
545.93	1088.82
546.28	1093.50
546.64	1095.37
546.99	1092.09
547.35	1097.01
547.70	1086.48
548.05	1085.54
548.41	1084.84
548.76	1087.18
549.12	1087.65
549.47	1103.09
549.83	1110.58
550.18	1111.29
550.53	1096.54
550.89	1095.37
551.24	1086.24
551.60	1077.11
551.95	1082.50
552.30	1087.41
552.66	1078.75
553.01	1090.92
553.37	1103.80
553.72	1097.48
554.07	1098.88
554.43	1114.80
554.78	1110.58
555.13	1106.37
555.49	1108.01
555.84	1115.27
556.19	1102.16
556.55	1094.20
556.90	1080.16
557.26	1068.92
557.61	1071.50
557.96	1067.99
558.32	1069.86
558.67	1077.11
559.02	1087.18
559.37	1081.09
559.73	1087.41
560.08	1083.20
560.43	1084.60
560.79	1088.58
561.14	1090.46
561.49	1083.90
561.85	1080.86
562.20	1080.63
562.55	1075.71
562.90	1077.82
563.26	1082.03
563.61	1086.24
563.96	1085.77
564.32	1099.12
564.67	1089.29
565.02	1092.56
565.37	1091.86
565.73	1085.77
566.08	1069.39
566.43	1083.20
566.78	1078.52
567.14	1073.60
567.49	1081.80
567.84	1078.75
568.19	1063.31
568.54	1069.16
568.90	1068.69
569.25	1064.48
569.60	1070.80
569.95	1071.73
570.31	1069.86
570.66	1074.54
571.01	1076.18
571.36	1071.97
571.71	1072.20
572.06	1061.67
572.42	1064.24
572.77	1065.18
573.12	1065.65
573.47	1073.60
573.82	1088.35
574.18	1094.20
574.53	1088.58
574.88	1099.35
575.23	1089.99
575.58	1081.09
575.93	1075.24
576.28	1079.69
576.64	1076.18
576.99	1079.22
577.34	1083.67
577.69	1084.84
578.04	1084.37
578.39	1077.11
578.74	1081.09
579.09	1081.09
579.44	1096.78
579.80	1097.71
580.15	1098.18
580.50	1101.92
580.85	1115.73
581.20	1101.92
581.55	1104.26
581.90	1110.12
582.25	1115.27
582.60	1101.22
582.95	1095.84
583.30	1084.84
583.65	1075.48
584.00	1061.20
584.35	1057.45
584.71	1047.39
585.06	1047.62
585.41	1046.22
585.76	1053.48
586.11	1057.45
586.46	1073.84
586.81	1076.88
587.16	1078.05
587.51	1064.94
587.86	1058.16
588.21	1056.52
588.56	1056.99
588.91	1065.88
589.26	1074.77
589.61	1081.09
589.96	1075.94
590.31	1075.24
590.66	1072.43
591.01	1077.58
591.36	1077.58
591.71	1071.26
592.06	1078.75
592.41	1069.62
592.76	1061.20
593.10	1054.18
593.45	1063.31
593.80	1061.67
594.15	1060.96
594.50	1075.94
594.85	1079.69
595.20	1093.26
595.55	1096.54
595.90	1098.88
596.25	1096.54
596.60	1099.58
596.95	1083.67
597.30	1082.26
597.64	1137.50
597.99	1132.59
598.34	1128.84
598.69	1123.69
599.04	1125.10
599.39	1077.35
599.74	1074.77
600.09	1071.50
600.44	1078.75
600.78	1076.18
601.13	1079.69
601.48	1078.28
601.83	1079.69
602.18	1074.54
602.53	1065.18
602.88	1059.09
603.22	1064.48
603.57	1070.33
603.92	1079.22
604.27	1083.90
604.62	1083.43
604.97	1088.35
605.31	1095.14
605.66	1098.41
606.01	1104.03
606.36	1111.29
606.71	1097.95
607.05	1079.92
607.40	1078.75
607.75	1079.92
608.10	1070.56
608.44	1072.43
608.79	1089.05
609.14	1074.07
609.49	1069.39
609.84	1065.18
610.18	1072.20
610.53	1069.16
610.88	1080.16
611.23	1078.75
611.57	1095.84
611.92	1092.56
612.27	1081.80
612.62	1080.39
612.96	1088.35
613.31	1085.54
613.66	1084.37
614.00	1094.20
614.35	1097.24
614.70	1094.90
615.05	1086.94
615.39	1090.69
615.74	1088.58
616.09	1089.05
616.43	1078.28
616.78	1088.35
617.13	1082.73
617.47	1076.41
617.82	1076.18
618.17	1087.65
618.51	1078.05
618.86	1081.80
619.21	1085.54
619.55	1075.94
619.90	1071.73
620.25	1077.35
620.59	1080.63
620.94	1086.48
621.29	1093.73
621.63	1090.69
621.98	1091.86
622.32	1093.50
622.67	1087.65
623.02	1082.50
623.36	1088.12
623.71	1079.92
624.05	1078.28
624.40	1076.18
624.75	1071.73
625.09	1072.67
625.44	1083.67
625.78	1084.60
626.13	1086.71
626.48	1099.35
626.82	1102.86
627.17	1100.75
627.51	1087.41
627.86	1097.24
628.20	1097.01
628.55	1087.88
628.89	1078.75
629.24	1086.71
629.58	1071.97
629.93	1075.71
630.28	1079.22
630.62	1078.52
630.97	1081.80
631.31	1100.99
631.66	1091.39
632.00	1094.67
632.35	1097.01
632.69	1099.12
633.04	1086.01
633.38	1078.99
633.73	1081.56
634.07	1090.22
634.42	1080.39
634.76	1081.33
635.11	1092.09
635.45	1085.07
635.79	1083.90
636.14	1085.54
636.48	1087.88
636.83	1083.90
637.17	1090.92
637.52	1093.73
637.86	1090.92
638.21	1085.77
638.55	1089.05
638.89	1078.05
639.24	1071.97
639.58	1082.50
639.93	1088.12
640.27	1089.99
640.61	1098.88
640.96	1097.24
641.30	1081.33
641.65	1065.65
641.99	1062.84
642.33	1057.69
642.68	1053.94
643.02	1062.37
643.37	1072.20
643.71	1065.88
644.05	1063.77
644.40	1069.39
644.74	1081.09
645.08	1077.58
645.43	1091.16
645.77	1097.24
646.11	1092.80
646.46	1082.50
646.80	1084.84
647.14	1079.92
647.49	1076.41
647.83	1074.31
648.17	1083.20
648.52	1088.12
648.86	1087.18
649.20	1085.31
649.55	1092.80
649.89	1093.73
650.23	1088.58
650.57	1088.82
650.92	1098.65
651.26	1094.90
651.60	1097.95
651.95	1095.14
652.29	1090.46
652.63	1086.24
652.97	1090.92
653.32	1066.82
653.66	1074.31
654.00	1078.75
654.34	1072.67
654.69	1068.22
655.03	1083.67
655.37	1089.75
655.71	1084.84
656.05	1080.39
656.40	1080.16
656.74	1076.18
657.08	1068.45
657.42	1063.31
657.76	1073.14
658.11	1071.50
658.45	1067.99
658.79	1069.16
659.13	1078.28
659.47	1085.07
659.82	1088.58
660.16	1091.63
660.50	1096.31
660.84	1092.33
661.18	1084.37
661.52	1083.20
661.87	1080.86
662.21	1083.90
662.55	1089.52
662.89	1090.46
663.23	1092.80
663.57	1094.67
663.91	1086.71
664.25	1083.20
664.60	1079.22
664.94	1081.09
665.28	1080.86
665.62	1078.99
665.96	1085.77
666.30	1088.82
666.64	1084.14
666.98	1096.54
667.32	1093.73
667.66	1088.35
668.01	1082.97
668.35	1089.52
668.69	1082.73
669.03	1087.18
669.37	1085.54
669.71	1082.73
670.05	1075.94
670.39	1076.88
670.73	1078.52
671.07	1080.86
671.41	1089.05
671.75	1083.67
672.09	1085.77
672.43	1083.90
672.77	1089.75
673.11	1082.03
673.45	1096.31
673.79	1094.67
674.13	1089.29
674.47	1080.39
674.81	1085.77
675.15	1081.80
675.49	1079.69
675.83	1083.20
676.17	1077.82
676.51	1077.35
676.85	1074.54
677.19	1070.56
677.53	1075.71
677.87	1085.54
678.21	1080.86
678.55	1080.63
678.89	1078.75
679.23	1077.58
679.57	1080.39
679.90	1077.35
680.24	1075.94
680.58	1072.90
680.92	1077.11
681.26	1071.73
681.60	1078.52
681.94	1085.07
682.28	1092.09
682.62	1083.90
682.96	1078.05
683.29	1081.56
683.63	1066.11
683.97	1058.62
684.31	1057.92
684.65	1069.39
684.99	1068.45
685.33	1079.22
685.67	1086.48
686.00	1091.86
686.34	1087.88
686.68	1083.20
687.02	1079.22
687.36	1072.43
687.70	1072.90
688.03	1075.01
688.37	1083.67
688.71	1084.84
689.05	1089.29
689.39	1079.92
689.72	1080.63
690.06	1077.82
690.40	1083.90
690.74	1087.18
691.08	1096.78
691.41	1092.80
691.75	1088.12
692.09	1086.01
692.43	1091.63
692.76	1091.63
693.10	1091.39
693.44	1098.65
693.78	1091.63
694.11	1092.56
694.45	1101.92
694.79	1100.99
695.13	1097.01
695.46	1099.12
695.80	1088.82
696.14	1075.24
696.48	1071.50
696.81	1067.75
697.15	1067.28
697.49	1073.37
697.82	1076.18
698.16	1078.28
698.50	1080.39
698.83	1082.73
699.17	1083.43
699.51	1063.31
699.84	1063.77
700.18	1067.99
700.52	1068.92
700.85	1067.52
701.19	1082.26
701.53	1081.33
701.86	1073.60
702.20	1074.31
702.54	1063.54
702.87	1069.39
703.21	1074.77
703.55	1068.69
703.88	1062.84
704.22	1073.84
704.55	1064.24
704.89	1058.86
705.23	1068.45
705.56	1075.71
705.90	1073.60
706.23	1087.88
706.57	1089.75
706.91	1095.60
707.24	1089.52
707.58	1085.07
707.91	1079.92
708.25	1071.73
708.58	1066.58
708.92	1074.07
709.26	1082.97
709.59	1078.75
709.93	1085.77
710.26	1079.46
710.60	1074.54
710.93	1066.11
711.27	1066.82
711.60	1067.75
711.94	1067.28
712.27	1065.41
712.61	1067.99
712.94	1067.75
713.28	1070.33
713.61	1090.22
713.95	1099.82
714.28	1094.90
714.62	1101.92
714.95	1103.33
715.29	1092.56
715.62	1084.84
715.96	1091.63
716.29	1087.18
716.63	1092.33
716.96	1087.88
717.29	1091.39
717.63	1089.52
717.96	1091.86
718.30	1082.73
718.63	1088.58
718.97	1087.18
719.30	1087.88
719.63	1084.60
719.97	1082.73
720.30	1084.60
720.64	1086.01
720.97	1088.82
721.30	1084.84
721.64	1079.92
721.97	1075.01
722.31	1069.62
722.64	1065.18
722.97	1067.28
723.31	1078.28
723.64	1079.46
723.97	1074.31
724.31	1071.97
724.64	1073.14
724.98	1067.52
725.31	1072.20
725.64	1073.14
725.98	1080.86
726.31	1076.41
726.64	1071.03
726.97	1066.82
727.31	1079.69
727.64	1075.71
727.97	1078.99
728.31	1094.43
728.64	1092.80
728.97	1094.43
729.31	1097.48
729.64	1104.97
729.97	1095.60
730.30	1097.48
730.64	1097.95
730.97	1088.82
731.30	1078.28
731.63	1078.75
731.97	1077.82
732.30	1072.67
732.63	1076.65
732.96	1077.11
733.30	1075.48
733.63	1063.31
733.96	1053.71
734.29	1059.09
734.63	1055.35
734.96	1064.71
735.29	1071.03
735.62	1088.35
735.95	1085.07
736.29	1095.84
736.62	1090.46
736.95	1090.69
737.28	1073.37
737.61	1069.16
737.94	1067.75
738.28	1070.56
738.61	1074.54
738.94	1085.54
739.27	1086.01
739.60	1085.31
739.93	1083.43
740.27	1090.69
740.60	1082.73
740.93	1085.54
741.26	1081.56
741.59	1078.99
741.92	1071.73
742.25	1069.16
742.58	1069.39
742.91	1069.16
743.25	1079.46
743.58	1082.50
743.91	1099.58
744.24	1100.05
744.57	1107.07
744.90	1093.73
745.23	1094.20
745.56	1081.56
745.89	1080.86
746.22	1077.11
746.55	1080.86
746.88	1069.16
747.21	1076.41
747.54	1079.69
747.87	1083.90
748.20	1078.75
748.53	1089.52
748.87	1084.84
749.20	1078.75
749.53	1080.39
749.86	1087.65
750.19	1097.24
750.52	1100.52
750.85	1115.73
751.18	1110.12
751.51	1114.56
751.84	1100.29
752.16	1101.46
752.49	1090.92
752.82	1085.31
753.15	1077.35
753.48	1076.88
753.81	1077.82
754.14	1075.01
754.47	1076.88
754.80	1087.18
755.13	1084.37
755.46	1080.86
755.79	1085.07
756.12	1086.24
756.45	1075.94
756.78	1078.99
757.11	1083.90
757.43	1081.56
757.76	1088.12
758.09	1085.77
758.42	1094.90
758.75	1093.26
759.08	1089.29
759.41	1082.03
759.74	1083.90
760.07	1080.86
760.39	1079.22
760.72	1072.43
761.05	1067.05
761.38	1069.62
761.71	1066.58
762.04	1063.54
762.36	1076.88
762.69	1091.16
763.02	1092.09
763.35	1087.88
763.68	1086.01
764.01	1087.65
764.33	1083.90
764.66	1082.50
764.99	1082.73
765.32	1082.73
765.65	1082.73
765.97	1079.46
766.30	1076.65
766.63	1071.03
766.96	1070.56
767.28	1064.48
767.61	1063.54
767.94	1065.18
768.27	1073.60
768.59	1083.90
768.92	1086.94
769.25	1091.16
769.58	1085.07
769.90	1079.69
770.23	1066.35
770.56	1071.26
770.89	1067.52
771.21	1072.20
771.54	1079.46
771.87	1085.07
772.19	1076.88
772.52	1066.35
772.85	1070.80
773.17	1068.69
773.50	1069.16
773.83	1072.67
774.15	1077.82
774.48	1075.01
774.81	1074.77
775.13	1075.48
775.46	1068.69
775.79	1072.67
776.11	1075.71
776.44	1080.39
776.77	1080.39
777.09	1088.82
777.42	1089.75
777.74	1082.50
778.07	1079.69
778.40	1078.75
778.72	1071.97
779.05	1076.41
779.37	1072.90
779.70	1068.92
780.03	1072.67
780.35	1079.22
780.68	1076.41
781.00	1082.73
781.33	1080.39
781.65	1077.82
781.98	1068.22
782.31	1065.65
782.63	1067.28
782.96	1066.11
783.28	1062.84
783.61	1071.26
783.93	1073.60
784.26	1070.33
784.58	1082.03
784.91	1078.99
785.23	1078.52
785.56	1076.18
785.88	1081.33
786.21	1082.73
786.53	1084.37
786.86	1080.63
787.18	1076.18
787.51	1075.71
787.83	1071.03
788.16	1070.33
788.48	1071.03
788.81	1076.65
789.13	1078.99
789.46	1081.09
789.78	1078.05
790.10	1069.39
790.43	1075.48
790.75	1072.20
791.08	1066.82
791.40	1069.62
791.73	1088.58
792.05	1086.94
792.37	1087.18
792.70	1093.03
793.02	1101.46
793.35	1094.43
793.67	1081.80
793.99	1078.75
794.32	1079.46
794.64	1076.65
794.96	1074.31
795.29	1088.12
795.61	1083.43
795.93	1074.54
796.26	1068.92
796.58	1071.73
796.91	1067.05
797.23	1066.35
797.55	1073.14
797.87	1074.31
798.20	1075.94
798.52	1080.63
798.84	1081.09
799.17	1069.16
799.49	1072.20
799.81	1060.50
800.14	1068.69
800.46	1082.26
800.78	1085.31
801.10	1090.22
801.43	1095.60
801.75	1082.73
802.07	1080.16
802.40	1084.60
802.72	1073.84
803.04	1077.11
803.36	1082.26
803.69	1077.82
804.01	1078.99
804.33	1087.65
804.65	1083.20
804.97	1078.05
805.30	1082.97
805.62	1076.18
805.94	1074.77
806.26	1075.94
806.58	1079.46
806.91	1076.88
807.23	1086.48
807.55	1078.52
807.87	1072.90
808.19	1069.62
808.52	1053.48
808.84	1057.22
809.16	1065.88
809.48	1082.73
809.80	1080.86
810.12	1100.05
810.44	1094.67
810.77	1102.86
811.09	1093.50
811.41	1101.22
811.73	1094.43
812.05	1098.18
812.37	1084.14
812.69	1082.97
813.01	1085.54
813.33	1085.54
813.66	1074.07
813.98	1078.99
814.30	1079.46
814.62	1074.54
814.94	1082.03
815.26	1083.90
815.58	1076.18
815.90	1088.82
816.22	1085.31
816.54	1082.73
816.86	1081.09
817.18	1093.26
817.50	1076.41
817.82	1080.63
818.14	1071.73
818.46	1073.37
818.78	1062.60
819.10	1065.88
819.42	1064.94
819.74	1068.92
820.06	1076.65
820.38	1080.39
820.70	1089.29
821.02	1077.82
821.34	1085.77
821.66	1078.99
821.98	1072.67
822.30	1063.31
822.62	1072.67
822.94	1072.20
823.26	1075.71
823.58	1082.26
823.90	1089.29
824.22	1092.33
824.54	1089.75
824.86	1095.60
825.18	1103.33
825.50	1093.97
825.81	1093.26
826.13	1096.07
826.45	1091.16
826.77	1081.56
827.09	1085.07
827.41	1089.75
827.73	1084.37
828.05	1082.03
828.36	1093.73
828.68	1091.16
829.00	1082.26
829.32	1086.48
829.64	1084.60
829.96	1076.88
830.28	1077.58
830.59	1076.65
830.91	1068.92
831.23	1071.97
831.55	1072.90
831.87	1078.99
832.19	1092.56
832.50	1093.03
832.82	1094.67
833.14	1090.69
833.46	1088.12
833.78	1071.50
834.09	1067.75
834.41	1067.99
834.73	1078.75
835.05	1082.50
835.36	1094.43
835.68	1097.24
836.00	1096.07
836.32	1088.82
836.63	1086.48
836.95	1079.46
837.27	1093.97
837.59	1101.92
837.90	1104.50
838.22	1099.12
838.54	1102.16
838.85	1096.78
839.17	1091.63
839.49	1083.20
839.80	1097.95
840.12	1103.09
840.44	1100.05
840.76	1103.33
841.07	1102.63
841.39	1082.97
841.71	1066.11
842.02	1063.54
842.34	1056.52
842.65	1060.50
842.97	1075.94
843.29	1082.03
843.60	1089.05
843.92	1086.24
844.24	1086.94
844.55	1069.86
844.87	1066.82
845.18	1050.20
845.50	1047.62
845.82	1051.84
846.13	1054.88
846.45	1049.03
846.76	1057.22
847.08	1061.67
847.40	1053.48
847.71	1062.60
848.03	1070.09
848.34	1067.52
848.66	1079.46
848.97	1094.43
849.29	1093.97
849.60	1098.65
849.92	1103.56
850.24	1098.41
850.55	1082.97
850.87	1078.99
851.18	1075.94
851.50	1079.46
851.81	1080.63
852.13	1086.24
852.44	1086.24
852.76	1095.84
853.07	1101.46
853.39	1090.92
853.70	1088.82
854.01	1084.37
854.33	1073.14
854.64	1068.69
854.96	1073.37
855.27	1071.03
855.59	1074.54
855.90	1085.54
856.22	1086.71
856.53	1086.24
856.84	1097.01
857.16	1094.43
857.47	1084.84
857.79	1078.52
858.10	1077.35
858.41	1070.09
858.73	1082.03
859.04	1082.50
859.36	1084.84
859.67	1086.01
859.98	1083.20
860.30	1078.28
860.61	1085.54
860.92	1082.73
861.24	1082.73
861.55	1084.84
861.87	1089.05
862.18	1086.71
862.49	1077.35
862.81	1074.77
863.12	1074.54
863.43	1069.16
863.74	1066.58
864.06	1079.22
864.37	1086.94
864.68	1093.26
865.00	1103.33
865.31	1097.48
865.62	1094.20
865.94	1094.90
866.25	1089.05
866.56	1077.58
866.87	1076.41
867.19	1075.24
867.50	1075.94
867.81	1078.05
868.12	1076.18
868.44	1080.86
868.75	1083.43
869.06	1076.88
869.37	1074.31
869.68	1079.92
870.00	1084.14
870.31	1084.14
870.62	1079.92
870.93	1092.33
871.24	1090.92
871.56	1093.26
871.87	1100.52
872.18	1107.31
872.49	1097.95
872.80	1094.20
873.12	1082.50
873.43	1071.50
873.74	1068.92
874.05	1064.24
874.36	1052.54
874.67	1060.73
874.98	1059.56
875.29	1058.16
875.61	1064.24
875.92	1078.75
876.23	1077.35
876.54	1075.01
876.85	1083.67
877.16	1079.92
877.47	1075.94
877.78	1084.60
878.09	1083.20
878.40	1076.88
878.72	1073.14
879.03	1077.58
879.34	1070.33
879.65	1078.75
879.96	1083.43
880.27	1093.97
880.58	1094.43
880.89	1100.75
881.20	1093.03
881.51	1088.82
881.82	1078.28
882.13	1077.58
882.44	1072.67
882.75	1079.69
883.06	1067.99
883.37	1066.11
883.68	1061.43
883.99	1063.07
884.30	1056.99
884.61	1061.67
884.92	1071.73
885.23	1078.52
885.54	1078.99
885.85	1091.39
886.16	1099.35
886.47	1088.58
886.78	1089.52
887.08	1086.94
887.39	1078.28
887.70	1075.24
888.01	1084.84
888.32	1084.84
888.63	1082.03
888.94	1073.84
889.25	1077.35
889.56	1077.58
889.87	1082.73
890.17	1081.33
890.48	1082.50
890.79	1079.22
891.10	1077.35
891.41	1068.45
891.72	1071.73
892.03	1081.33
892.34	1085.31
892.64	1082.26
892.95	1085.54
893.26	1087.88
893.57	1089.29
893.88	1086.01
894.18	1090.69
894.49	1088.35
894.80	1081.56
895.11	1080.63
895.42	1080.39
895.72	1072.20
896.03	1069.16
896.34	1077.11
896.65	1074.77
896.96	1074.77
897.26	1077.82
897.57	1081.33
897.88	1079.92
898.19	1087.65
898.49	1082.03
898.80	1089.99
899.11	1089.99
899.41	1091.86
899.72	1089.29
900.03	1092.09
900.34	1088.12
900.64	1095.60
900.95	1079.46
901.26	1076.65
901.56	1087.41
901.87	1089.05
902.18	1078.99
902.48	1093.03
902.79	1093.73
903.10	1089.99
903.40	1089.52
903.71	1093.73
904.02	1095.37
904.32	1101.69
904.63	1103.80
904.94	1100.52
905.24	1097.01
905.55	1097.95
905.85	1091.86
906.16	1086.24
906.47	1087.18
906.77	1082.50
907.08	1071.26
907.38	1069.86
907.69	1067.75
908.00	1071.26
908.30	1076.65
908.61	1086.94
908.91	1099.82
909.22	1110.12
909.52	1106.14
909.83	1101.92
910.14	1097.24
910.44	1089.05
910.75	1080.63
911.05	1093.73
911.36	1089.05
911.66	1090.92
911.97	1087.88
912.27	1085.07
912.58	1068.92
912.88	1080.16
913.19	1083.20
913.49	1078.99
913.80	1073.84
914.10	1079.46
914.41	1067.75
914.71	1069.16
915.01	1078.52
915.32	1094.67
915.62	1086.94
915.93	1091.39
916.23	1085.07
916.54	1077.82
916.84	1062.37
917.15	1067.75
917.45	1075.24
917.75	1077.82
918.06	1074.54
918.36	1086.24
918.67	1084.14
918.97	1079.46
919.27	1076.88
919.58	1079.69
919.88	1078.75
920.18	1079.22
920.49	1079.92
920.79	1077.58
921.10	1086.94
921.40	1087.18
921.70	1084.84
922.01	1087.41
922.31	1078.99
922.61	1074.54
922.92	1072.90
923.22	1079.22
923.52	1075.48
923.82	1095.37
924.13	1085.07
924.43	1079.46
924.73	1077.11
925.04	1072.20
925.34	1064.48
925.64	1073.14
925.94	1071.50
926.25	1074.07
926.55	1082.97
926.85	1087.88
927.15	1094.43
927.46	1101.69
927.76	1099.82
928.06	1092.33
928.36	1086.48
928.67	1075.24
928.97	1071.97
929.27	1059.33
929.57	1072.20
929.87	1075.24
930.18	1073.14
930.48	1073.60
930.78	1079.46
931.08	1072.90
931.38	1070.09
931.69	1071.97
931.99	1067.05
932.29	1067.75
932.59	1067.75
932.89	1071.73
933.19	1073.37
933.49	1081.33
933.80	1085.07
934.10	1081.33
934.40	1075.48
934.70	1071.73
935.00	1071.73
935.30	1081.56
935.60	1086.48
935.90	1083.43
936.20	1090.22
936.50	1080.16
936.81	1073.37
937.11	1069.16
937.41	1077.11
937.71	1082.97
938.01	1089.29
938.31	1091.39
938.61	1097.24
938.91	1094.67
939.21	1088.35
939.51	1098.65
939.81	1088.12
940.11	1086.71
940.41	1082.73
940.71	1089.99
941.01	1086.24
941.31	1092.33
941.61	1082.26
941.91	1086.94
942.21	1078.52
942.51	1068.45
942.81	1060.73
943.11	1068.92
943.41	1071.73
943.71	1075.71
944.01	1075.94
944.31	1075.01
944.61	1072.20
944.90	1075.48
945.20	1071.50
945.50	1075.71
945.80	1087.41
946.10	1091.63
946.40	1083.43
946.70	1091.16
947.00	1088.82
947.30	1091.39
947.60	1091.86
947.89	1094.43
948.19	1091.16
948.49	1094.20
948.79	1083.43
949.09	1077.11
949.39	1067.52
949.69	1060.96
949.98	1063.77
950.28	1078.28
950.58	1080.39
950.88	1097.01
951.18	1102.63
951.48	1094.20
951.77	1078.52
952.07	1078.28
952.37	1067.28
952.67	1059.79
952.97	1064.48
953.26	1067.99
953.56	1071.03
953.86	1074.54
954.16	1082.97
954.45	1086.48
954.75	1083.90
955.05	1082.26
955.35	1078.28
955.64	1074.07
955.94	1064.48
956.24	1068.69
956.54	1061.43
956.83	1064.71
957.13	1070.56
957.43	1080.39
957.72	1086.48
958.02	1086.24
958.32	1090.46
958.61	1082.50
958.91	1082.50
959.21	1078.28
959.50	1087.65
959.80	1081.09
960.10	1091.63
960.39	1081.09
960.69	1083.20
960.99	1087.18
961.28	1085.77
961.58	1072.20
961.87	1072.20
962.17	1064.24
962.47	1051.60
962.76	1055.82
963.06	1058.62
963.36	1074.07
963.65	1089.99
963.95	1104.50
964.24	1107.31
964.54	1107.07
964.83	1098.88
965.13	1091.86
965.42	1075.48
965.72	1078.99
966.02	1072.67
966.31	1079.92
966.61	1086.24
966.90	1094.90
967.20	1091.86
967.49	1097.24
967.79	1085.77
968.08	1079.22
968.38	1082.26
968.67	1081.56
968.97	1086.01
969.26	1084.84
969.56	1073.14
969.85	1071.26
970.15	1072.67
970.44	1074.54
970.74	1084.14
971.03	1090.22
971.32	1090.92
971.62	1090.22
971.91	1082.03
972.21	1076.18
972.50	1067.05
972.80	1070.09
973.09	1067.75
973.38	1062.37
973.68	1065.41
973.97	1078.05
974.27	1075.01
974.56	1070.56
974.85	1078.75
975.15	1078.05
975.44	1076.18
975.73	1075.94
976.03	1077.58
976.32	1074.54
976.61	1075.48
976.91	1079.92
977.20	1076.18
977.49	1080.63
977.79	1083.43
978.08	1076.65
978.37	1075.24
978.67	1077.58
978.96	1078.05
979.25	1086.94
979.55	1092.80
979.84	1085.07
980.13	1082.03
980.42	1075.71
980.72	1078.99
981.01	1073.60
981.30	1085.77
981.59	1088.12
981.89	1096.78
982.18	1088.82
982.47	1091.86
982.76	1080.16
983.06	1083.43
983.35	1074.31
983.64	1068.45
983.93	1067.05
984.22	1061.43
984.52	1056.75
984.81	1060.73
985.10	1064.94
985.39	1064.94
985.68	1078.28
985.97	1080.63
986.27	1080.16
986.56	1084.84
986.85	1088.35
987.14	1083.90
987.43	1085.54
987.72	1081.09
988.01	1066.58
988.31	1061.20
988.60	1052.77
988.89	1048.56
989.18	1050.90
989.47	1055.35
989.76	1055.35
990.05	1066.35
990.34	1067.52
990.63	1065.18
990.92	1072.43
991.21	1083.90
991.51	1085.77
991.80	1093.73
992.09	1092.80
992.38	1084.84
992.67	1075.01
992.96	1063.07
993.25	1052.30
993.54	1060.03
993.83	1067.52
994.12	1072.67
994.41	1080.39
994.70	1082.73
994.99	1079.22
995.28	1078.99
995.57	1075.01
995.86	1082.26
996.15	1085.07
996.44	1079.69
996.73	1072.43
997.02	1071.50
997.31	1071.97
997.59	1075.48
997.88	1080.63
998.17	1083.90
998.46	1090.46
998.75	1087.88
999.04	1091.63
999.33	1101.46
999.62	1101.22
999.91	1096.31
1000.20	1097.48
1000.49	1094.43
1000.77	1080.86
1001.06	1067.99
1001.35	1078.99
1001.64	1085.07
1001.93	1084.14
1002.22	1085.77
1002.51	1101.46
1002.79	1084.60
1003.08	1072.43
1003.37	1062.37
1003.66	1054.65
1003.95	1055.11
1004.23	1058.62
1004.52	1060.96
1004.81	1064.48
1005.10	1075.01
1005.39	1069.16
1005.67	1074.07
1005.96	1077.11
1006.25	1081.56
1006.54	1084.14
1006.83	1088.58
1007.11	1088.58
1007.40	1086.01
1007.69	1088.12
1007.97	1080.63
1008.26	1076.41
1008.55	1072.67
1008.84	1069.16
1009.12	1065.18
1009.41	1065.18
1009.70	1060.03
1009.98	1061.67
1010.27	1066.82
1010.56	1070.80
1010.85	1079.22
1011.13	1093.73
1011.42	1089.52
1011.71	1083.43
1011.99	1082.50
1012.28	1080.39
1012.56	1073.14
1012.85	1078.05
1013.14	1082.50
1013.42	1083.43
1013.71	1082.26
1014.00	1084.14
1014.28	1092.80
1014.57	1092.33
1014.85	1090.46
1015.14	1098.41
1015.43	1093.73
1015.71	1081.09
1016.00	1070.33
1016.28	1061.43
1016.57	1049.50
1016.85	1063.07
1017.14	1071.50
1017.43	1074.54
1017.71	1081.56
1018.00	1096.78
1018.28	1090.46
1018.57	1081.80
1018.85	1078.52
1019.14	1078.05
1019.42	1070.09
1019.71	1066.35
1019.99	1071.50
1020.28	1082.50
1020.56	1088.35
1020.85	1081.09
1021.13	1084.14
1021.42	1086.48
1021.70	1088.82
1021.99	1098.18
1022.27	1100.99
1022.55	1152.71
1022.84	1071.97
>>>>>End Processed Spectral Data<<<<<
