SpectraSuite Data File
++++++++++++++++++++++++++++++++++++
Date: Mon Aug 26 10:26:09 PDT 2019
User: corrico
Dark Spectrum Present: No
Reference Spectrum Present: No
Number of Sampled Component Spectra: 1
Spectrometers: USB2+H06089
Integration Time (usec): 10000 (USB2+H06089)
Spectra Averaged: 20 (USB2+H06089)
Boxcar Smoothing: 2 (USB2+H06089)
Correct for Electrical Dark: No (USB2+H06089)
Strobe/Lamp Enabled: No (USB2+H06089)
Correct for Detector Non-linearity: No (USB2+H06089)
Correct for Stray Light: No (USB2+H06089)
Number of Pixels in Processed Spectrum: 2048
>>>>>Begin Processed Spectral Data<<<<<
339.70	1033.81
340.07	1033.81
340.45	1000.53
340.82	978.32
341.19	956.23
341.57	931.46
341.94	919.03
342.31	911.40
342.69	906.70
343.06	903.84
343.43	901.11
343.81	904.94
344.18	907.31
344.55	911.50
344.93	914.07
345.30	923.20
345.67	928.68
346.04	937.71
346.42	943.49
346.79	952.04
347.16	960.81
347.54	968.98
347.91	977.06
348.28	991.76
348.65	1004.18
349.03	1010.62
349.40	1018.69
349.77	1028.29
350.14	1033.42
350.52	1034.68
350.89	1043.76
351.26	1050.62
351.63	1054.06
352.01	1059.91
352.38	1066.86
352.75	1068.55
353.12	1070.47
353.50	1074.07
353.87	1076.76
354.24	1081.49
354.61	1083.43
354.98	1089.24
355.36	1090.46
355.73	1090.17
356.10	1088.75
356.47	1091.88
356.84	1087.95
357.22	1087.55
357.59	1090.32
357.96	1094.29
358.33	1090.76
358.70	1093.03
359.08	1097.69
359.45	1095.93
359.82	1094.46
360.19	1095.91
360.56	1094.48
360.94	1088.77
361.31	1086.94
361.68	1084.74
362.05	1085.61
362.42	1085.00
362.79	1087.02
363.16	1085.47
363.54	1083.41
363.91	1081.68
364.28	1083.67
364.65	1082.57
365.02	1082.73
365.39	1084.93
365.76	1083.20
366.14	1082.01
366.51	1079.06
366.88	1079.69
367.25	1077.56
367.62	1076.23
367.99	1076.41
368.36	1078.24
368.73	1078.07
369.10	1077.77
369.48	1081.19
369.85	1078.50
370.22	1077.37
370.59	1077.96
370.96	1081.05
371.33	1082.97
371.70	1084.58
372.07	1083.60
372.44	1082.50
372.81	1079.38
373.18	1079.03
373.55	1080.11
373.93	1083.04
374.30	1082.71
374.67	1084.04
375.04	1080.58
375.41	1082.31
375.78	1082.45
376.15	1084.56
376.52	1084.42
376.89	1084.70
377.26	1083.13
377.63	1084.35
378.00	1082.57
378.37	1084.07
378.74	1086.41
379.11	1083.64
379.48	1082.01
379.85	1083.04
380.22	1083.74
380.59	1079.95
380.96	1081.61
381.33	1080.60
381.70	1075.66
382.07	1073.46
382.44	1077.33
382.81	1077.86
383.18	1080.48
383.55	1087.09
383.92	1087.34
384.29	1085.54
384.66	1088.30
385.03	1086.13
385.40	1084.53
385.77	1083.81
386.14	1085.14
386.51	1083.86
386.88	1084.77
387.25	1086.59
387.62	1085.96
387.99	1089.14
388.36	1089.64
388.73	1088.00
389.10	1082.99
389.46	1084.74
389.83	1081.80
390.20	1079.88
390.57	1084.25
390.94	1085.68
391.31	1085.75
391.68	1085.10
392.05	1087.90
392.42	1086.69
392.79	1086.36
393.16	1088.75
393.53	1090.46
393.89	1086.62
394.26	1087.09
394.63	1092.49
395.00	1092.45
395.37	1091.56
395.74	1095.32
396.11	1095.89
396.48	1096.49
396.84	1096.05
397.21	1097.27
397.58	1096.19
397.95	1093.19
398.32	1089.59
398.69	1089.24
399.06	1087.46
399.42	1088.00
399.79	1091.23
400.16	1090.22
400.53	1089.80
400.90	1090.99
401.27	1089.07
401.64	1087.02
402.00	1090.95
402.37	1093.97
402.74	1094.67
403.11	1095.60
403.48	1095.37
403.84	1092.07
404.21	1090.08
404.58	1091.25
404.95	1092.77
405.32	1094.55
405.68	1096.70
406.05	1095.91
406.42	1096.49
406.79	1098.55
407.16	1100.19
407.52	1100.71
407.89	1102.18
408.26	1100.00
408.63	1099.37
408.99	1096.73
409.36	1093.71
409.73	1097.29
410.10	1099.49
410.47	1098.65
410.83	1100.99
411.20	1106.04
411.57	1103.52
411.94	1105.41
412.30	1106.70
412.67	1106.32
413.04	1104.10
413.40	1104.76
413.77	1101.67
414.14	1099.93
414.51	1100.57
414.87	1104.41
415.24	1103.84
415.61	1103.96
415.97	1107.21
416.34	1106.25
416.71	1105.55
417.08	1105.74
417.44	1109.41
417.81	1106.70
418.18	1107.80
418.54	1107.99
418.91	1111.97
419.28	1110.63
419.64	1114.84
420.01	1114.52
420.38	1108.10
420.74	1102.67
421.11	1103.54
421.48	1104.24
421.84	1109.13
422.21	1117.63
422.58	1118.28
422.94	1120.60
423.31	1116.46
423.68	1115.71
424.04	1113.28
424.41	1115.73
424.77	1112.74
425.14	1118.57
425.51	1115.99
425.87	1117.23
426.24	1118.31
426.61	1119.69
426.97	1121.87
427.34	1122.97
427.70	1123.64
428.07	1122.12
428.44	1119.38
428.80	1114.24
429.17	1114.80
429.53	1115.97
429.90	1117.86
430.27	1120.32
430.63	1119.41
431.00	1119.55
431.36	1120.02
431.73	1118.10
432.09	1117.96
432.46	1118.64
432.83	1117.21
433.19	1114.00
433.56	1113.21
433.92	1113.44
434.29	1110.56
434.65	1107.96
435.02	1108.34
435.38	1111.10
435.75	1111.38
436.11	1113.02
436.48	1116.34
436.84	1115.62
437.21	1114.84
437.57	1115.87
437.94	1117.58
438.30	1116.67
438.67	1118.92
439.03	1120.55
439.40	1117.25
439.76	1117.07
440.13	1117.58
440.49	1115.03
440.86	1116.37
441.22	1116.30
441.59	1115.87
441.95	1116.30
442.32	1114.94
442.68	1110.84
443.05	1114.56
443.41	1114.91
443.78	1114.91
444.14	1118.00
444.51	1117.16
444.87	1118.96
445.24	1119.13
445.60	1118.17
445.96	1119.55
446.33	1121.65
446.69	1119.83
447.06	1116.81
447.42	1116.51
447.79	1114.26
448.15	1113.35
448.51	1109.93
448.88	1114.89
449.24	1114.89
449.61	1114.00
449.97	1111.59
450.33	1112.78
450.70	1109.93
451.06	1109.62
451.43	1108.78
451.79	1113.46
452.15	1115.94
452.52	1119.67
452.88	1120.98
453.24	1121.84
453.61	1120.18
453.97	1118.64
454.34	1115.17
454.70	1112.83
455.06	1113.91
455.43	1113.86
455.79	1114.38
456.15	1113.98
456.52	1118.26
456.88	1118.07
457.24	1117.79
457.61	1118.85
457.97	1121.42
458.33	1121.75
458.70	1123.29
459.06	1122.92
459.42	1122.38
459.79	1118.87
460.15	1118.38
460.51	1117.04
460.88	1116.79
461.24	1114.87
461.60	1117.21
461.96	1114.49
462.33	1117.18
462.69	1119.92
463.05	1122.38
463.42	1122.29
463.78	1126.43
464.14	1126.59
464.50	1127.48
464.87	1127.04
465.23	1131.32
465.59	1133.40
465.95	1133.85
466.32	1132.70
466.68	1135.96
467.04	1138.27
467.40	1137.01
467.77	1137.76
468.13	1141.60
468.49	1141.13
468.85	1141.81
469.22	1142.77
469.58	1147.61
469.94	1150.51
470.30	1154.73
470.66	1152.74
471.03	1154.63
471.39	1157.42
471.75	1154.45
472.11	1157.28
472.47	1162.75
472.84	1165.66
473.20	1168.96
473.56	1176.75
473.92	1176.26
474.28	1179.49
474.65	1185.39
475.01	1185.57
475.37	1184.97
475.73	1192.15
476.09	1194.52
476.45	1199.83
476.81	1205.75
477.18	1216.28
477.54	1226.30
477.90	1239.41
478.26	1245.80
478.62	1255.72
478.98	1264.22
479.34	1270.04
479.71	1277.93
480.07	1287.39
480.43	1295.04
480.79	1307.47
481.15	1318.28
481.51	1329.45
481.87	1342.65
482.23	1357.67
482.59	1372.16
482.96	1387.70
483.32	1404.58
483.68	1422.86
484.04	1443.57
484.40	1464.19
484.76	1486.73
485.12	1506.51
485.48	1529.31
485.84	1553.13
486.20	1580.77
486.56	1609.35
486.92	1642.21
487.28	1675.50
487.64	1709.32
488.00	1742.53
488.37	1780.35
488.73	1817.17
489.09	1857.73
489.45	1898.55
489.81	1943.09
490.17	1990.51
490.53	2040.88
490.89	2087.97
491.25	2140.65
491.61	2196.85
491.97	2250.05
492.33	2308.10
492.69	2375.97
493.05	2447.05
493.41	2517.90
493.77	2597.71
494.13	2681.41
494.49	2767.03
494.85	2854.21
495.21	2954.65
495.57	3052.76
495.93	3150.50
496.29	3253.63
496.64	3375.33
497.00	3484.52
497.36	3611.31
497.72	3748.44
498.08	3894.53
498.44	4042.76
498.80	4204.05
499.16	4367.51
499.52	4539.61
499.88	4713.70
500.24	4897.71
500.60	5086.22
500.96	5284.95
501.32	5491.53
501.68	5707.28
502.03	5935.74
502.39	6183.37
502.75	6440.45
503.11	6723.38
503.47	7028.56
503.83	7346.12
504.19	7690.18
504.55	8051.42
504.91	8400.11
505.26	8759.10
505.62	9158.45
505.98	9573.33
506.34	9982.08
506.70	10429.90
507.06	10905.12
507.42	11377.77
507.78	11861.81
508.13	12410.41
508.49	12974.83
508.85	13564.13
509.21	14176.18
509.57	14837.64
509.93	15496.01
510.28	16174.46
510.64	16884.98
511.00	17620.79
511.36	18363.07
511.72	19160.47
512.07	20037.23
512.43	20870.56
512.79	21739.88
513.15	22617.86
513.51	23433.91
513.86	24247.41
514.22	25143.74
514.58	26078.65
514.94	27040.70
515.30	28099.58
515.65	29189.17
516.01	30293.44
516.37	31365.10
516.73	32487.08
517.08	33568.43
517.44	34515.88
517.80	35469.98
518.16	36429.92
518.51	37316.21
518.87	38172.34
519.23	39139.89
519.59	40075.40
519.94	40953.41
520.30	41841.08
520.66	42627.10
521.01	43383.21
521.37	44023.65
521.73	44581.56
522.09	45075.30
522.44	45584.46
522.80	46000.70
523.16	46470.61
523.51	46889.05
523.87	47214.39
524.23	47503.28
524.58	47740.26
524.94	47999.12
525.30	48265.31
525.65	48538.90
526.01	48735.66
526.37	48892.88
526.72	48934.49
527.08	48947.20
527.44	48865.17
527.79	48710.41
528.15	48439.59
528.51	48081.79
528.86	47673.30
529.22	47288.56
529.58	46911.08
529.93	46573.81
530.29	46205.05
530.65	45752.79
531.00	45240.43
531.36	44741.73
531.71	44261.54
532.07	43715.75
532.43	43153.37
532.78	42533.99
533.14	41908.16
533.49	41199.23
533.85	40601.41
534.21	40020.40
534.56	39476.18
534.92	38872.37
535.27	38295.78
535.63	37601.48
535.98	36861.47
536.34	36147.14
536.69	35471.29
537.05	34818.42
537.41	34183.73
537.76	33563.49
538.12	32870.02
538.47	32253.57
538.83	31655.14
539.18	31059.14
539.54	30494.30
539.89	29993.38
540.25	29384.44
540.60	28795.00
540.96	28187.42
541.31	27619.96
541.67	27080.61
542.02	26591.53
542.38	26077.20
542.73	25595.37
543.09	25120.27
543.44	24684.34
543.80	24274.14
544.15	23832.86
544.51	23456.83
544.86	23028.51
545.22	22573.55
545.57	22094.21
545.93	21551.70
546.28	21039.94
546.64	20621.13
546.99	20159.53
547.35	19781.01
547.70	19492.85
548.05	19166.11
548.41	18791.48
548.76	18419.38
549.12	18032.10
549.47	17618.38
549.83	17225.15
550.18	16872.20
550.53	16538.90
550.89	16196.60
551.24	15874.17
551.60	15558.59
551.95	15234.55
552.30	14912.37
552.66	14582.33
553.01	14281.81
553.37	13951.70
553.72	13624.91
554.07	13337.19
554.43	13041.35
554.78	12717.84
555.13	12416.85
555.49	12120.46
555.84	11815.75
556.19	11504.55
556.55	11228.79
556.90	10976.88
557.26	10755.86
557.61	10519.00
557.96	10287.52
558.32	10067.79
558.67	9832.45
559.02	9563.19
559.37	9329.40
559.73	9127.48
560.08	8929.61
560.43	8732.12
560.79	8561.49
561.14	8372.87
561.49	8194.94
561.85	8001.36
562.20	7818.44
562.55	7654.84
562.90	7495.24
563.26	7316.12
563.61	7152.26
563.96	6990.83
564.32	6820.91
564.67	6648.43
565.02	6497.12
565.37	6358.79
565.73	6213.07
566.08	6090.82
566.43	5965.53
566.78	5844.67
567.14	5727.64
567.49	5614.69
567.84	5477.70
568.19	5374.92
568.54	5275.61
568.90	5164.84
569.25	5060.66
569.60	4970.50
569.95	4874.38
570.31	4781.60
570.66	4694.69
571.01	4605.89
571.36	4513.07
571.71	4428.95
572.06	4338.46
572.42	4255.84
572.77	4177.13
573.12	4098.93
573.47	4023.71
573.82	3955.48
574.18	3887.54
574.53	3818.23
574.88	3760.35
575.23	3700.69
575.58	3634.78
575.93	3566.79
576.28	3503.27
576.64	3434.62
576.99	3367.19
577.34	3302.43
577.69	3239.93
578.04	3180.23
578.39	3124.19
578.74	3064.84
579.09	3019.48
579.44	2970.77
579.80	2919.58
580.15	2866.41
580.50	2822.43
580.85	2773.23
581.20	2733.75
581.55	2698.03
581.90	2658.94
582.25	2609.84
582.60	2561.65
582.95	2520.76
583.30	2478.09
583.65	2442.21
584.00	2409.68
584.35	2376.77
584.71	2342.34
585.06	2312.38
585.41	2278.04
585.76	2244.36
586.11	2215.60
586.46	2182.81
586.81	2148.31
587.16	2121.93
587.51	2095.41
587.86	2068.35
588.21	2047.29
588.56	2026.37
588.91	1999.54
589.26	1985.38
589.61	1967.64
589.96	1944.17
590.31	1920.69
590.66	1899.04
591.01	1876.48
591.36	1858.90
591.71	1836.74
592.06	1823.93
592.41	1810.26
592.76	1789.36
593.10	1767.20
593.45	1752.41
593.80	1730.85
594.15	1713.11
594.50	1698.04
594.85	1683.06
595.20	1667.54
595.55	1655.67
595.90	1646.40
596.25	1631.40
596.60	1615.04
596.95	1603.66
597.30	1591.96
597.64	1627.56
597.99	1618.06
598.34	1610.48
598.69	1595.85
599.04	1583.86
599.39	1521.37
599.74	1511.71
600.09	1500.70
600.44	1488.91
600.78	1478.02
601.13	1469.55
601.48	1460.21
601.83	1452.30
602.18	1444.95
602.53	1436.46
602.88	1428.59
603.22	1420.33
603.57	1414.27
603.92	1412.42
604.27	1405.44
604.62	1394.26
604.97	1389.01
605.31	1381.78
605.66	1371.86
606.01	1366.08
606.36	1364.98
606.71	1353.34
607.05	1346.67
607.40	1341.22
607.75	1335.25
608.10	1325.28
608.44	1323.36
608.79	1317.21
609.14	1311.59
609.49	1304.99
609.84	1304.54
610.18	1299.32
610.53	1296.61
610.88	1292.61
611.23	1288.16
611.57	1278.38
611.92	1272.22
612.27	1264.19
612.62	1259.11
612.96	1255.77
613.31	1252.94
613.66	1252.51
614.00	1251.06
614.35	1247.08
614.70	1240.60
615.05	1239.81
615.39	1236.20
615.74	1231.64
616.09	1227.21
616.43	1226.00
616.78	1221.83
617.13	1216.40
617.47	1212.77
617.82	1210.10
618.17	1206.36
618.51	1204.23
618.86	1201.23
619.21	1198.66
619.55	1197.14
619.90	1193.67
620.25	1189.37
620.59	1189.44
620.94	1187.35
621.29	1184.05
621.63	1186.65
621.98	1181.71
622.32	1178.20
622.67	1174.48
623.02	1168.63
623.36	1161.12
623.71	1163.48
624.05	1158.78
624.40	1157.14
624.75	1157.42
625.09	1160.51
625.44	1158.99
625.78	1158.85
626.13	1156.74
626.48	1156.67
626.82	1157.89
627.17	1155.05
627.51	1154.19
627.86	1155.48
628.20	1155.41
628.55	1151.17
628.89	1148.95
629.24	1147.78
629.58	1144.52
629.93	1142.79
630.28	1142.25
630.62	1143.66
630.97	1138.51
631.31	1140.40
631.66	1139.33
632.00	1137.24
632.35	1137.71
632.69	1142.06
633.04	1137.34
633.38	1136.31
633.73	1137.36
634.07	1134.32
634.42	1133.26
634.76	1133.59
635.11	1133.26
635.45	1132.16
635.79	1131.51
636.14	1128.75
636.48	1126.29
636.83	1123.55
637.17	1120.23
637.52	1118.73
637.86	1118.89
638.21	1118.28
638.55	1120.91
638.89	1123.34
639.24	1122.99
639.58	1123.22
639.93	1125.28
640.27	1125.68
640.61	1121.51
640.96	1120.16
641.30	1120.67
641.65	1122.78
641.99	1121.42
642.33	1122.87
642.68	1121.80
643.02	1119.48
643.37	1117.63
643.71	1114.52
644.05	1108.92
644.40	1112.95
644.74	1111.68
645.08	1107.59
645.43	1106.00
645.77	1107.54
646.11	1106.28
646.46	1103.98
646.80	1104.12
647.14	1104.92
647.49	1106.46
647.83	1103.07
648.17	1105.90
648.52	1107.85
648.86	1109.16
649.20	1108.92
649.55	1107.05
649.89	1103.16
650.23	1102.70
650.57	1098.95
650.92	1099.70
651.26	1101.53
651.60	1105.51
651.95	1103.47
652.29	1105.95
652.63	1104.48
652.97	1100.61
653.32	1100.03
653.66	1102.21
654.00	1104.01
654.34	1105.01
654.69	1110.58
655.03	1107.99
655.37	1105.88
655.71	1104.94
656.05	1100.85
656.40	1097.66
656.74	1097.66
657.08	1099.72
657.42	1099.98
657.76	1101.62
658.11	1099.82
658.45	1099.21
658.79	1101.06
659.13	1100.03
659.47	1100.61
659.82	1102.16
660.16	1098.67
660.50	1091.63
660.84	1088.58
661.18	1085.40
661.52	1085.84
661.87	1089.36
662.21	1090.55
662.55	1091.72
662.89	1095.63
663.23	1095.98
663.57	1097.20
663.91	1095.00
664.25	1091.88
664.60	1091.20
664.94	1091.63
665.28	1088.75
665.62	1093.78
665.96	1096.92
666.30	1094.55
666.64	1091.65
666.98	1092.28
667.32	1092.61
667.66	1089.14
668.01	1093.64
668.35	1096.61
668.69	1097.55
669.03	1095.98
669.37	1099.96
669.71	1099.58
670.05	1097.50
670.39	1096.80
670.73	1094.27
671.07	1092.26
671.41	1089.05
671.75	1088.02
672.09	1087.48
672.43	1087.30
672.77	1089.19
673.11	1089.36
673.45	1089.54
673.79	1090.41
674.13	1092.12
674.47	1089.36
674.81	1089.52
675.15	1089.52
675.49	1090.15
675.83	1089.87
676.17	1090.29
676.51	1093.50
676.85	1094.18
677.19	1093.29
677.53	1092.49
677.87	1094.76
678.21	1090.03
678.55	1085.66
678.89	1088.00
679.23	1089.26
679.57	1085.10
679.90	1085.80
680.24	1088.04
680.58	1088.07
680.92	1088.56
681.26	1092.89
681.60	1091.86
681.94	1093.83
682.28	1092.49
682.62	1092.23
682.96	1087.79
683.29	1087.16
683.63	1089.36
683.97	1088.86
684.31	1089.64
684.65	1095.60
684.99	1097.43
685.33	1096.92
685.67	1097.38
686.00	1095.11
686.34	1094.67
686.68	1095.35
687.02	1094.65
687.36	1093.12
687.70	1092.23
688.03	1086.92
688.37	1086.41
688.71	1084.09
689.05	1086.36
689.39	1085.54
689.72	1089.89
690.06	1091.23
690.40	1092.52
690.74	1091.27
691.08	1094.08
691.41	1093.45
691.75	1091.20
692.09	1092.07
692.43	1090.78
692.76	1091.65
693.10	1089.96
693.44	1090.74
693.78	1091.67
694.11	1094.48
694.45	1091.84
694.79	1092.40
695.13	1091.44
695.46	1094.32
695.80	1090.81
696.14	1091.11
696.48	1091.63
696.81	1092.75
697.15	1085.73
697.49	1087.58
697.82	1090.27
698.16	1086.99
698.50	1088.58
698.83	1093.76
699.17	1094.81
699.51	1092.77
699.84	1095.82
700.18	1093.33
700.52	1088.96
700.85	1088.00
701.19	1086.97
701.53	1085.35
701.86	1087.58
702.20	1087.11
702.54	1088.16
702.87	1087.30
703.21	1087.67
703.55	1087.53
703.88	1088.28
704.22	1086.64
704.55	1089.24
704.89	1090.50
705.23	1086.99
705.56	1088.72
705.90	1089.33
706.23	1089.54
706.57	1088.77
706.91	1091.53
707.24	1093.10
707.58	1094.27
707.91	1092.96
708.25	1094.15
708.58	1092.45
708.92	1090.43
709.26	1088.96
709.59	1087.72
709.93	1086.90
710.26	1086.80
710.60	1086.64
710.93	1087.74
711.27	1091.91
711.60	1089.64
711.94	1090.74
712.27	1088.75
712.61	1086.08
712.94	1085.91
713.28	1088.96
713.61	1087.32
713.95	1087.23
714.28	1088.96
714.62	1085.68
714.95	1083.32
715.29	1082.61
715.62	1082.64
715.96	1080.25
716.29	1084.63
716.63	1087.76
716.96	1086.90
717.29	1088.37
717.63	1090.74
717.96	1087.30
718.30	1085.10
718.63	1088.16
718.97	1089.00
719.30	1087.83
719.63	1086.73
719.97	1085.19
720.30	1086.03
720.64	1084.56
720.97	1081.68
721.30	1085.42
721.64	1085.40
721.97	1083.20
722.31	1084.93
722.64	1087.88
722.97	1082.36
723.31	1083.01
723.64	1083.69
723.97	1081.84
724.31	1079.55
724.64	1080.30
724.98	1082.64
725.31	1082.85
725.64	1083.04
725.98	1084.35
726.31	1086.17
726.64	1086.66
726.97	1086.85
727.31	1085.21
727.64	1086.08
727.97	1085.66
728.31	1085.84
728.64	1085.77
728.97	1087.44
729.31	1087.55
729.64	1088.68
729.97	1087.79
730.30	1089.96
730.64	1089.64
730.97	1086.41
731.30	1085.38
731.63	1086.17
731.97	1083.01
732.30	1082.15
732.63	1084.11
732.96	1082.01
733.30	1078.73
733.63	1079.83
733.96	1082.12
734.29	1085.94
734.63	1088.56
734.96	1091.67
735.29	1093.01
735.62	1095.60
735.95	1095.89
736.29	1095.23
736.62	1094.81
736.95	1092.00
737.28	1089.87
737.61	1089.40
737.94	1090.97
738.28	1088.54
738.61	1088.26
738.94	1084.67
739.27	1083.81
739.60	1081.54
739.93	1084.56
740.27	1084.28
740.60	1085.56
740.93	1082.90
741.26	1086.97
741.59	1084.65
741.92	1087.76
742.25	1090.81
742.58	1091.34
742.91	1087.55
743.25	1089.71
743.58	1088.44
743.91	1089.22
744.24	1087.60
744.57	1086.13
744.90	1086.50
745.23	1084.04
745.56	1084.46
745.89	1087.34
746.22	1085.56
746.55	1082.69
746.88	1084.23
747.21	1081.58
747.54	1082.10
747.87	1084.37
748.20	1083.83
748.53	1088.37
748.87	1089.10
749.20	1087.67
749.53	1089.68
749.86	1089.50
750.19	1085.31
750.52	1083.36
750.85	1087.04
751.18	1089.96
751.51	1090.83
751.84	1093.38
752.16	1091.98
752.49	1088.63
752.82	1086.50
753.15	1084.25
753.48	1083.13
753.81	1085.19
754.14	1084.89
754.47	1087.32
754.80	1092.19
755.13	1091.65
755.46	1093.83
755.79	1095.16
756.12	1095.32
756.45	1089.68
756.78	1091.09
757.11	1088.93
757.43	1087.06
757.76	1083.04
758.09	1086.13
758.42	1085.19
758.75	1083.83
759.08	1081.51
759.41	1083.62
759.74	1084.14
760.07	1083.83
760.39	1086.48
760.72	1088.54
761.05	1086.24
761.38	1083.95
761.71	1084.89
762.04	1081.49
762.36	1083.27
762.69	1085.87
763.02	1088.04
763.35	1085.84
763.68	1087.32
764.01	1085.35
764.33	1080.95
764.66	1082.92
764.99	1083.53
765.32	1086.03
765.65	1088.04
765.97	1090.64
766.30	1091.06
766.63	1089.43
766.96	1089.19
767.28	1089.73
767.61	1090.15
767.94	1088.33
768.27	1088.98
768.59	1086.94
768.92	1086.10
769.25	1083.15
769.58	1081.40
769.90	1081.47
770.23	1078.94
770.56	1075.36
770.89	1079.46
771.21	1081.61
771.54	1081.75
771.87	1084.11
772.19	1088.14
772.52	1083.57
772.85	1081.21
773.17	1080.13
773.50	1081.00
773.83	1077.82
774.15	1078.33
774.48	1079.83
774.81	1081.63
775.13	1080.13
775.46	1082.29
775.79	1081.98
776.11	1081.80
776.44	1082.97
776.77	1086.20
777.09	1088.07
777.42	1091.37
777.74	1091.70
778.07	1088.30
778.40	1085.24
778.72	1086.83
779.05	1086.80
779.37	1086.85
779.70	1089.05
780.03	1093.73
780.35	1091.46
780.68	1092.45
781.00	1090.76
781.33	1091.11
781.65	1088.07
781.98	1087.11
782.31	1083.83
782.63	1080.77
782.96	1080.91
783.28	1084.02
783.61	1083.22
783.93	1082.76
784.26	1086.24
784.58	1086.27
784.91	1083.41
785.23	1083.29
785.56	1084.60
785.88	1085.66
786.21	1084.21
786.53	1082.43
786.86	1082.52
787.18	1082.90
787.51	1082.61
787.83	1084.25
788.16	1084.67
788.48	1082.92
788.81	1082.12
789.13	1082.69
789.46	1081.91
789.78	1082.85
790.10	1084.16
790.43	1084.60
790.75	1085.21
791.08	1085.03
791.40	1084.35
791.73	1087.65
792.05	1091.37
792.37	1092.94
792.70	1090.92
793.02	1091.67
793.35	1088.47
793.67	1084.93
793.99	1080.93
794.32	1082.08
794.64	1081.09
794.96	1082.83
795.29	1084.32
795.61	1085.07
795.93	1082.10
796.26	1083.46
796.58	1085.49
796.91	1083.27
797.23	1083.81
797.55	1090.39
797.87	1088.84
798.20	1084.32
798.52	1081.14
798.84	1080.95
799.17	1079.60
799.49	1080.32
799.81	1079.78
800.14	1081.47
800.46	1082.71
800.78	1083.53
801.10	1083.41
801.43	1083.69
801.75	1086.64
802.07	1085.99
802.40	1081.30
802.72	1082.38
803.04	1082.80
803.36	1080.65
803.69	1078.99
804.01	1081.56
804.33	1080.77
804.65	1079.01
804.97	1081.12
805.30	1083.55
805.62	1083.90
805.94	1084.32
806.26	1086.55
806.58	1086.20
806.91	1084.37
807.23	1083.76
807.55	1082.45
807.87	1083.27
808.19	1084.81
808.52	1087.53
808.84	1089.17
809.16	1090.43
809.48	1090.62
809.80	1089.89
810.12	1088.89
810.44	1090.60
810.77	1092.56
811.09	1090.22
811.41	1091.91
811.73	1092.28
812.05	1089.61
812.37	1085.77
812.69	1088.84
813.01	1088.33
813.33	1088.19
813.66	1087.02
813.98	1087.58
814.30	1087.55
814.62	1086.97
814.94	1085.21
815.26	1083.69
815.58	1085.59
815.90	1084.72
816.22	1083.50
816.54	1082.24
816.86	1082.26
817.18	1082.97
817.50	1082.33
817.82	1082.99
818.14	1085.82
818.46	1087.16
818.78	1083.93
819.10	1086.73
819.42	1082.94
819.74	1078.96
820.06	1081.49
820.38	1082.22
820.70	1079.24
821.02	1083.08
821.34	1086.17
821.66	1084.70
821.98	1082.69
822.30	1083.36
822.62	1081.42
822.94	1082.38
823.26	1083.25
823.58	1087.11
823.90	1084.46
824.22	1083.90
824.54	1081.91
824.86	1083.18
825.18	1081.40
825.50	1084.56
825.81	1087.18
826.13	1086.24
826.45	1082.73
826.77	1082.69
827.09	1082.59
827.41	1081.51
827.73	1081.00
828.05	1083.88
828.36	1082.87
828.68	1081.68
829.00	1081.80
829.32	1083.41
829.64	1083.08
829.96	1086.59
830.28	1087.69
830.59	1088.21
830.91	1088.63
831.23	1088.09
831.55	1086.90
831.87	1088.40
832.19	1085.35
832.50	1088.42
832.82	1087.72
833.14	1088.37
833.46	1084.91
833.78	1086.10
834.09	1085.03
834.41	1084.23
834.73	1082.45
835.05	1082.36
835.36	1085.03
835.68	1084.18
836.00	1085.99
836.32	1086.94
836.63	1089.38
836.95	1088.68
837.27	1088.54
837.59	1085.70
837.90	1085.91
838.22	1085.14
838.54	1082.71
838.85	1084.28
839.17	1084.37
839.49	1084.16
839.80	1086.24
840.12	1086.48
840.44	1081.66
840.76	1084.91
841.07	1084.37
841.39	1081.61
841.71	1080.77
842.02	1083.15
842.34	1078.54
842.65	1077.37
842.97	1077.18
843.29	1077.98
843.60	1077.37
843.92	1079.24
844.24	1081.19
844.55	1081.94
844.87	1082.71
845.18	1083.88
845.50	1082.47
845.82	1081.26
846.13	1081.12
846.45	1078.99
846.76	1078.07
847.08	1078.75
847.40	1077.16
847.71	1074.94
848.03	1077.70
848.34	1078.17
848.66	1078.33
848.97	1079.57
849.29	1082.08
849.60	1078.00
849.92	1076.69
850.24	1078.78
850.55	1077.07
850.87	1073.58
851.18	1075.22
851.50	1077.11
851.81	1077.89
852.13	1079.78
852.44	1082.33
852.76	1085.33
853.07	1085.24
853.39	1085.05
853.70	1084.77
854.01	1085.17
854.33	1083.69
854.64	1082.03
854.96	1081.58
855.27	1083.74
855.59	1082.03
855.90	1083.71
856.22	1083.46
856.53	1083.43
856.84	1080.98
857.16	1083.79
857.47	1084.44
857.79	1087.32
858.10	1085.59
858.41	1089.82
858.73	1089.80
859.04	1089.43
859.36	1082.19
859.67	1083.74
859.98	1080.67
860.30	1079.95
860.61	1076.90
860.92	1083.74
861.24	1084.16
861.55	1086.31
861.87	1087.58
862.18	1090.55
862.49	1088.84
862.81	1087.41
863.12	1083.88
863.43	1084.58
863.74	1083.93
864.06	1084.46
864.37	1082.43
864.68	1083.62
865.00	1082.64
865.31	1082.38
865.62	1079.67
865.94	1081.96
866.25	1081.02
866.56	1077.44
866.87	1076.32
867.19	1079.62
867.50	1078.36
867.81	1078.28
868.12	1080.65
868.44	1080.39
868.75	1079.15
869.06	1082.54
869.37	1085.03
869.68	1086.94
870.00	1086.34
870.31	1086.78
870.62	1085.38
870.93	1083.83
871.24	1083.97
871.56	1084.98
871.87	1085.49
872.18	1086.99
872.49	1086.41
872.80	1087.02
873.12	1090.60
873.43	1086.31
873.74	1085.40
874.05	1085.70
874.36	1082.59
874.67	1077.47
874.98	1081.96
875.29	1084.11
875.61	1085.05
875.92	1085.87
876.23	1089.36
876.54	1086.17
876.85	1083.48
877.16	1083.95
877.47	1082.03
877.78	1084.16
878.09	1087.55
878.40	1088.58
878.72	1090.15
879.03	1092.00
879.34	1090.27
879.65	1088.65
879.96	1088.79
880.27	1083.57
880.58	1083.41
880.89	1083.06
881.20	1080.93
881.51	1080.20
881.82	1083.64
882.13	1079.55
882.44	1076.67
882.75	1080.13
883.06	1080.77
883.37	1079.48
883.68	1083.90
883.99	1082.22
884.30	1083.97
884.61	1080.77
884.92	1078.68
885.23	1080.72
885.54	1082.87
885.85	1081.02
886.16	1080.53
886.47	1082.85
886.78	1080.65
887.08	1080.32
887.39	1076.06
887.70	1077.00
888.01	1076.53
888.32	1073.02
888.63	1075.15
888.94	1078.47
889.25	1082.50
889.56	1083.48
889.87	1089.12
890.17	1087.67
890.48	1087.27
890.79	1085.40
891.10	1085.77
891.41	1082.17
891.72	1079.97
892.03	1078.66
892.34	1077.18
892.64	1073.56
892.95	1073.42
893.26	1077.79
893.57	1078.66
893.88	1080.39
894.18	1084.11
894.49	1088.84
894.80	1084.18
895.11	1085.99
895.42	1083.11
895.72	1080.98
896.03	1077.56
896.34	1081.73
896.65	1079.38
896.96	1080.18
897.26	1081.14
897.57	1082.54
897.88	1081.02
898.19	1083.74
898.49	1084.72
898.80	1089.00
899.11	1086.94
899.41	1090.39
899.72	1089.54
900.03	1090.10
900.34	1084.63
900.64	1083.76
900.95	1081.14
901.26	1079.78
901.56	1077.79
901.87	1080.32
902.18	1081.61
902.48	1082.71
902.79	1085.52
903.10	1087.81
903.40	1088.00
903.71	1087.32
904.02	1084.11
904.32	1080.32
904.63	1078.68
904.94	1078.52
905.24	1081.35
905.55	1080.48
905.85	1084.49
906.16	1086.45
906.47	1085.42
906.77	1085.21
907.08	1085.82
907.38	1079.97
907.69	1079.20
908.00	1080.63
908.30	1079.81
908.61	1081.98
908.91	1087.69
909.22	1085.61
909.52	1084.30
909.83	1084.51
910.14	1085.54
910.44	1083.27
910.75	1082.26
911.05	1082.31
911.36	1082.73
911.66	1081.89
911.97	1081.63
912.27	1084.53
912.58	1082.31
912.88	1083.62
913.19	1080.79
913.49	1080.16
913.80	1078.19
914.10	1078.36
914.41	1073.84
914.71	1078.96
915.01	1078.47
915.32	1077.68
915.62	1078.54
915.93	1078.19
916.23	1077.40
916.54	1078.07
916.84	1080.13
917.15	1080.67
917.45	1083.27
917.75	1080.72
918.06	1079.62
918.36	1079.69
918.67	1081.91
918.97	1082.85
919.27	1084.21
919.58	1085.96
919.88	1086.27
920.18	1083.48
920.49	1082.85
920.79	1083.71
921.10	1082.90
921.40	1084.04
921.70	1083.20
922.01	1082.54
922.31	1082.59
922.61	1081.56
922.92	1081.23
923.22	1084.02
923.52	1085.68
923.82	1086.43
924.13	1085.10
924.43	1085.31
924.73	1082.45
925.04	1080.23
925.34	1077.49
925.64	1079.31
925.94	1079.99
926.25	1083.29
926.55	1084.28
926.85	1084.04
927.15	1086.03
927.46	1084.63
927.76	1083.32
928.06	1081.66
928.36	1083.43
928.67	1085.94
928.97	1081.96
929.27	1084.18
929.57	1083.41
929.87	1082.47
930.18	1079.43
930.48	1079.53
930.78	1076.72
931.08	1081.35
931.38	1081.21
931.69	1080.93
931.99	1081.21
932.29	1085.49
932.59	1084.23
932.89	1086.27
933.19	1085.91
933.49	1088.93
933.80	1084.81
934.10	1084.39
934.40	1078.73
934.70	1080.74
935.00	1083.81
935.30	1084.53
935.60	1086.15
935.90	1090.53
936.20	1089.80
936.50	1084.39
936.81	1084.93
937.11	1083.53
937.41	1081.40
937.71	1080.84
938.01	1083.97
938.31	1080.98
938.61	1078.50
938.91	1081.30
939.21	1081.96
939.51	1080.48
939.81	1082.15
940.11	1081.12
940.41	1078.94
940.71	1077.21
941.01	1077.65
941.31	1077.79
941.61	1083.34
941.91	1081.07
942.21	1080.88
942.51	1080.63
942.81	1079.43
943.11	1075.73
943.41	1079.08
943.71	1078.03
944.01	1077.51
944.31	1077.23
944.61	1076.95
944.90	1077.49
945.20	1078.54
945.50	1079.08
945.80	1079.90
946.10	1078.47
946.40	1077.40
946.70	1079.85
947.00	1078.45
947.30	1081.49
947.60	1085.31
947.89	1085.12
948.19	1085.28
948.49	1085.91
948.79	1081.51
949.09	1079.29
949.39	1080.34
949.69	1078.78
949.98	1081.12
950.28	1082.43
950.58	1082.85
950.88	1081.02
951.18	1082.10
951.48	1082.12
951.77	1083.18
952.07	1084.81
952.37	1084.63
952.67	1081.00
952.97	1081.80
953.26	1080.84
953.56	1082.38
953.86	1084.58
954.16	1085.66
954.45	1083.04
954.75	1083.76
955.05	1079.88
955.35	1080.32
955.64	1080.56
955.94	1081.82
956.24	1082.52
956.54	1082.61
956.83	1079.36
957.13	1083.04
957.43	1082.03
957.72	1081.54
958.02	1084.28
958.32	1082.12
958.61	1078.50
958.91	1081.09
959.21	1078.17
959.50	1075.66
959.80	1079.20
960.10	1078.82
960.39	1079.36
960.69	1082.85
960.99	1081.37
961.28	1081.84
961.58	1082.99
961.87	1083.76
962.17	1085.19
962.47	1086.36
962.76	1086.99
963.06	1087.90
963.36	1084.39
963.65	1080.04
963.95	1080.98
964.24	1080.11
964.54	1079.08
964.83	1076.48
965.13	1080.09
965.42	1079.06
965.72	1077.54
966.02	1077.09
966.31	1077.75
966.61	1074.10
966.90	1076.20
967.20	1080.34
967.49	1079.81
967.79	1080.11
968.08	1083.55
968.38	1083.06
968.67	1081.44
968.97	1082.45
969.26	1083.34
969.56	1078.73
969.85	1075.66
970.15	1076.51
970.44	1077.16
970.74	1077.00
971.03	1081.82
971.32	1081.77
971.62	1078.00
971.91	1078.82
972.21	1079.43
972.50	1075.78
972.80	1076.81
973.09	1078.82
973.38	1076.44
973.68	1077.65
973.97	1079.71
974.27	1080.79
974.56	1080.56
974.85	1079.17
975.15	1078.96
975.44	1079.43
975.73	1078.68
976.03	1076.86
976.32	1079.64
976.61	1074.66
976.91	1073.91
977.20	1075.69
977.49	1076.67
977.79	1076.83
978.08	1078.52
978.37	1077.23
978.67	1073.88
978.96	1071.31
979.25	1070.26
979.55	1074.98
979.84	1077.54
980.13	1079.10
980.42	1081.56
980.72	1085.10
981.01	1084.70
981.30	1085.12
981.59	1083.88
981.89	1083.32
982.18	1081.87
982.47	1081.12
982.76	1081.37
983.06	1083.93
983.35	1083.46
983.64	1079.64
983.93	1076.53
984.22	1075.52
984.52	1070.61
984.81	1074.91
985.10	1078.92
985.39	1080.37
985.68	1078.99
985.97	1083.22
986.27	1080.37
986.56	1080.18
986.85	1078.07
987.14	1078.73
987.43	1079.20
987.72	1078.31
988.01	1080.02
988.31	1080.77
988.60	1080.04
988.89	1077.84
989.18	1078.68
989.47	1075.87
989.76	1076.67
990.05	1078.10
990.34	1079.71
990.63	1076.44
990.92	1074.91
991.21	1077.00
991.51	1073.21
991.80	1073.28
992.09	1078.05
992.38	1078.07
992.67	1076.25
992.96	1078.66
993.25	1079.99
993.54	1082.08
993.83	1083.90
994.12	1085.05
994.41	1086.83
994.70	1086.48
994.99	1083.69
995.28	1084.79
995.57	1084.81
995.86	1084.72
996.15	1086.15
996.44	1084.53
996.73	1083.57
997.02	1084.14
997.31	1083.08
997.59	1081.47
997.88	1082.29
998.17	1083.20
998.46	1084.53
998.75	1085.80
999.04	1085.35
999.33	1086.17
999.62	1085.70
999.91	1082.85
1000.20	1081.33
1000.49	1082.92
1000.77	1083.50
1001.06	1085.21
1001.35	1086.94
1001.64	1087.51
1001.93	1084.07
1002.22	1085.33
1002.51	1079.13
1002.79	1077.79
1003.08	1075.99
1003.37	1076.95
1003.66	1076.27
1003.95	1079.22
1004.23	1078.64
1004.52	1080.20
1004.81	1077.63
1005.10	1075.90
1005.39	1080.77
1005.67	1079.88
1005.96	1077.11
1006.25	1076.55
1006.54	1079.03
1006.83	1077.00
1007.11	1080.25
1007.40	1083.22
1007.69	1085.73
1007.97	1083.74
1008.26	1079.62
1008.55	1077.49
1008.84	1079.22
1009.12	1079.69
1009.41	1082.87
1009.70	1088.49
1009.98	1087.34
1010.27	1084.49
1010.56	1085.35
1010.85	1081.61
1011.13	1079.78
1011.42	1081.12
1011.71	1081.47
1011.99	1082.97
1012.28	1083.29
1012.56	1081.40
1012.85	1081.16
1013.14	1085.45
1013.42	1085.89
1013.71	1086.55
1014.00	1086.92
1014.28	1086.99
1014.57	1082.50
1014.85	1079.48
1015.14	1078.33
1015.43	1075.24
1015.71	1076.55
1016.00	1076.60
1016.28	1076.60
1016.57	1079.22
1016.85	1083.04
1017.14	1078.40
1017.43	1079.62
1017.71	1080.88
1018.00	1078.19
1018.28	1079.20
1018.57	1081.44
1018.85	1080.74
1019.14	1083.62
1019.42	1086.80
1019.71	1087.79
1019.99	1087.32
1020.28	1089.89
1020.56	1085.75
1020.85	1082.83
1021.13	1078.89
1021.42	1080.88
1021.70	1080.48
1021.99	1082.73
1022.27	1082.01
1022.55	1086.83
1022.84	1075.36
>>>>>End Processed Spectral Data<<<<<
