SpectraSuite Data File
++++++++++++++++++++++++++++++++++++
Date: Mon Aug 26 10:26:07 PDT 2019
User: corrico
Dark Spectrum Present: No
Reference Spectrum Present: No
Number of Sampled Component Spectra: 1
Spectrometers: USB2+H06089
Integration Time (usec): 10000 (USB2+H06089)
Spectra Averaged: 20 (USB2+H06089)
Boxcar Smoothing: 2 (USB2+H06089)
Correct for Electrical Dark: No (USB2+H06089)
Strobe/Lamp Enabled: No (USB2+H06089)
Correct for Detector Non-linearity: No (USB2+H06089)
Correct for Stray Light: No (USB2+H06089)
Number of Pixels in Processed Spectrum: 2048
>>>>>Begin Processed Spectral Data<<<<<
339.70	1031.12
340.07	1031.12
340.45	999.90
340.82	978.34
341.19	954.38
341.57	928.75
341.94	913.89
342.31	905.55
342.69	899.54
343.06	894.46
343.43	894.62
343.81	899.61
344.18	903.73
344.55	908.97
344.93	918.26
345.30	925.33
345.67	932.07
346.04	941.39
346.42	950.16
346.79	956.93
347.16	965.52
347.54	972.09
347.91	974.27
348.28	983.14
348.65	990.54
349.03	998.52
349.40	1006.97
349.77	1017.34
350.14	1020.43
350.52	1028.71
350.89	1036.51
351.26	1041.61
351.63	1045.07
352.01	1054.15
352.38	1059.05
352.75	1062.95
353.12	1069.25
353.50	1076.39
353.87	1077.21
354.24	1082.36
354.61	1081.94
354.98	1081.37
355.36	1084.39
355.73	1085.96
356.10	1082.94
356.47	1083.43
356.84	1081.63
357.22	1079.46
357.59	1079.41
357.96	1079.74
358.33	1080.86
358.70	1081.77
359.08	1078.99
359.45	1077.56
359.82	1075.15
360.19	1073.74
360.56	1078.26
360.94	1078.50
361.31	1079.71
361.68	1081.82
362.05	1079.78
362.42	1075.20
362.79	1077.84
363.16	1073.91
363.54	1069.41
363.91	1068.88
364.28	1067.99
364.65	1064.29
365.02	1067.47
365.39	1070.63
365.76	1071.05
366.14	1073.23
366.51	1073.09
366.88	1072.22
367.25	1072.22
367.62	1074.89
367.99	1072.01
368.36	1073.00
368.73	1074.26
369.10	1072.95
369.48	1070.14
369.85	1071.03
370.22	1073.23
370.59	1072.81
370.96	1072.43
371.33	1073.44
371.70	1069.60
372.07	1068.03
372.44	1066.14
372.81	1065.41
373.18	1064.87
373.55	1068.59
373.93	1065.65
374.30	1066.16
374.67	1067.49
375.04	1066.09
375.41	1067.99
375.78	1071.99
376.15	1072.81
376.52	1073.51
376.89	1075.94
377.26	1072.39
377.63	1070.72
378.00	1072.43
378.37	1073.65
378.74	1072.55
379.11	1076.11
379.48	1074.68
379.85	1074.45
380.22	1074.19
380.59	1072.81
380.96	1071.03
381.33	1073.51
381.70	1070.16
382.07	1068.85
382.44	1071.90
382.81	1074.70
383.18	1071.38
383.55	1072.34
383.92	1071.90
384.29	1072.50
384.66	1068.50
385.03	1070.77
385.40	1073.98
385.77	1073.53
386.14	1070.14
386.51	1071.31
386.88	1072.90
387.25	1070.05
387.62	1073.88
387.99	1074.89
388.36	1073.00
388.73	1070.09
389.10	1070.21
389.46	1069.67
389.83	1071.45
390.20	1072.78
390.57	1076.83
390.94	1080.09
391.31	1079.48
391.68	1078.82
392.05	1080.18
392.42	1077.98
392.79	1077.42
393.16	1074.45
393.53	1074.52
393.89	1074.33
394.26	1071.97
394.63	1068.74
395.00	1072.78
395.37	1070.35
395.74	1069.13
396.11	1069.93
396.48	1073.23
396.84	1071.75
397.21	1071.36
397.58	1073.72
397.95	1074.59
398.32	1075.50
398.69	1073.56
399.06	1075.76
399.42	1076.83
399.79	1079.46
400.16	1079.90
400.53	1083.08
400.90	1083.62
401.27	1078.99
401.64	1076.04
402.00	1073.79
402.37	1071.03
402.74	1073.56
403.11	1075.64
403.48	1077.23
403.84	1076.90
404.21	1077.84
404.58	1078.10
404.95	1078.21
405.32	1079.15
405.68	1078.00
406.05	1080.16
406.42	1075.27
406.79	1075.41
407.16	1072.22
407.52	1068.55
407.89	1065.44
408.26	1067.05
408.63	1069.84
408.99	1070.28
409.36	1073.30
409.73	1074.59
410.10	1075.92
410.47	1074.40
410.83	1077.21
411.20	1079.01
411.57	1075.57
411.94	1078.03
412.30	1077.47
412.67	1076.95
413.04	1080.70
413.40	1085.33
413.77	1081.02
414.14	1079.34
414.51	1076.20
414.87	1070.87
415.24	1069.60
415.61	1071.15
415.97	1073.02
416.34	1078.99
416.71	1080.65
417.08	1080.44
417.44	1081.00
417.81	1081.00
418.18	1076.44
418.54	1077.09
418.91	1078.43
419.28	1076.88
419.64	1077.68
420.01	1077.30
420.38	1077.51
420.74	1080.46
421.11	1081.54
421.48	1080.81
421.84	1082.64
422.21	1080.63
422.58	1076.08
422.94	1075.83
423.31	1076.72
423.68	1075.43
424.04	1076.79
424.41	1078.28
424.77	1077.58
425.14	1076.30
425.51	1076.60
425.87	1075.78
426.24	1076.41
426.61	1075.76
426.97	1079.97
427.34	1082.99
427.70	1084.14
428.07	1082.15
428.44	1084.28
428.80	1078.07
429.17	1076.23
429.53	1074.40
429.90	1076.62
430.27	1076.86
430.63	1078.47
431.00	1078.59
431.36	1078.87
431.73	1079.43
432.09	1078.68
432.46	1077.07
432.83	1075.08
433.19	1076.20
433.56	1071.80
433.92	1073.86
434.29	1076.25
434.65	1079.22
435.02	1078.87
435.38	1082.73
435.75	1080.18
436.11	1078.17
436.48	1079.24
436.84	1081.30
437.21	1080.20
437.57	1079.13
437.94	1081.35
438.30	1078.24
438.67	1077.93
439.03	1077.11
439.40	1078.52
439.76	1078.68
440.13	1080.53
440.49	1080.91
440.86	1081.23
441.22	1078.71
441.59	1076.76
441.95	1074.31
442.32	1072.69
442.68	1072.69
443.05	1075.59
443.41	1077.18
443.78	1080.41
444.14	1081.21
444.51	1082.36
444.87	1082.03
445.24	1080.65
445.60	1078.85
445.96	1076.48
446.33	1076.76
446.69	1080.60
447.06	1082.73
447.42	1083.27
447.79	1083.55
448.15	1083.97
448.51	1081.68
448.88	1082.59
449.24	1082.05
449.61	1083.34
449.97	1078.94
450.33	1080.11
450.70	1082.19
451.06	1079.36
451.43	1081.87
451.79	1084.86
452.15	1082.85
452.52	1079.74
452.88	1080.74
453.24	1076.72
453.61	1077.75
453.97	1079.67
454.34	1080.13
454.70	1080.63
455.06	1081.70
455.43	1077.28
455.79	1074.47
456.15	1070.89
456.52	1072.20
456.88	1072.29
457.24	1075.20
457.61	1075.97
457.97	1082.36
458.33	1084.46
458.70	1086.48
459.06	1086.69
459.42	1086.10
459.79	1081.82
460.15	1079.46
460.51	1076.04
460.88	1074.66
461.24	1076.86
461.60	1079.85
461.96	1081.77
462.33	1084.98
462.69	1086.55
463.05	1082.33
463.42	1081.23
463.78	1078.85
464.14	1077.58
464.50	1078.43
464.87	1080.84
465.23	1079.06
465.59	1079.64
465.95	1079.71
466.32	1081.26
466.68	1081.47
467.04	1082.50
467.40	1082.47
467.77	1081.75
468.13	1078.03
468.49	1079.38
468.85	1079.31
469.22	1077.28
469.58	1077.82
469.94	1079.46
470.30	1077.96
470.66	1077.70
471.03	1080.98
471.39	1079.46
471.75	1077.37
472.11	1077.79
472.47	1075.97
472.84	1071.26
473.20	1074.28
473.56	1077.09
473.92	1076.60
474.28	1079.10
474.65	1080.25
475.01	1080.74
475.37	1083.01
475.73	1082.50
476.09	1081.21
476.45	1085.28
476.81	1080.95
477.18	1075.27
477.54	1076.44
477.90	1079.69
478.26	1079.57
478.62	1082.50
478.98	1085.84
479.34	1086.36
479.71	1082.24
480.07	1082.71
480.43	1082.52
480.79	1084.02
481.15	1083.20
481.51	1084.60
481.87	1082.22
482.23	1082.26
482.59	1080.41
482.96	1079.13
483.32	1077.37
483.68	1078.07
484.04	1080.37
484.40	1080.18
484.76	1081.47
485.12	1085.12
485.48	1085.77
485.84	1084.53
486.20	1083.76
486.56	1083.62
486.92	1083.43
487.28	1082.61
487.64	1081.66
488.00	1082.47
488.37	1081.19
488.73	1078.14
489.09	1080.18
489.45	1077.18
489.81	1077.51
490.17	1080.72
490.53	1082.52
490.89	1078.43
491.25	1080.39
491.61	1080.37
491.97	1080.20
492.33	1076.41
492.69	1076.27
493.05	1075.62
493.41	1076.23
493.77	1073.60
494.13	1076.72
494.49	1079.55
494.85	1081.87
495.21	1080.56
495.57	1083.79
495.93	1084.49
496.29	1082.61
496.64	1084.00
497.00	1084.14
497.36	1080.58
497.72	1079.92
498.08	1082.36
498.44	1080.70
498.80	1081.75
499.16	1078.96
499.52	1081.19
499.88	1078.19
500.24	1077.54
500.60	1077.44
500.96	1082.15
501.32	1080.58
501.68	1085.14
502.03	1084.96
502.39	1086.83
502.75	1086.59
503.11	1087.27
503.47	1084.18
503.83	1086.64
504.19	1082.22
504.55	1081.47
504.91	1080.63
505.26	1081.19
505.62	1077.40
505.98	1078.99
506.34	1078.14
506.70	1077.37
507.06	1078.07
507.42	1080.58
507.78	1084.14
508.13	1085.89
508.49	1087.69
508.85	1086.66
509.21	1086.41
509.57	1084.00
509.93	1083.41
510.28	1079.78
510.64	1081.84
511.00	1079.99
511.36	1080.77
511.72	1078.99
512.07	1079.90
512.43	1078.33
512.79	1080.09
513.15	1078.43
513.51	1078.03
513.86	1080.53
514.22	1080.93
514.58	1081.37
514.94	1083.01
515.30	1086.41
515.65	1088.21
516.01	1087.48
516.37	1088.58
516.73	1087.37
517.08	1086.31
517.44	1082.33
517.80	1084.07
518.16	1080.74
518.51	1081.28
518.87	1082.03
519.23	1086.62
519.59	1086.80
519.94	1091.58
520.30	1090.67
520.66	1092.35
521.01	1089.26
521.37	1085.63
521.73	1081.37
522.09	1083.60
522.44	1079.81
522.80	1079.90
523.16	1083.27
523.51	1083.15
523.87	1079.62
524.23	1082.71
524.58	1081.54
524.94	1080.27
525.30	1080.04
525.65	1083.25
526.01	1083.27
526.37	1086.64
526.72	1087.88
527.08	1089.24
527.44	1085.68
527.79	1086.22
528.15	1086.73
528.51	1086.10
528.86	1085.56
529.22	1090.20
529.58	1087.95
529.93	1086.41
530.29	1086.45
530.65	1087.83
531.00	1086.29
531.36	1090.85
531.71	1088.75
532.07	1089.57
532.43	1088.21
532.78	1086.45
533.14	1082.12
533.49	1081.87
533.85	1085.49
534.21	1087.02
534.56	1087.69
534.92	1087.06
535.27	1087.55
535.63	1082.40
535.98	1082.12
536.34	1082.85
536.69	1084.37
537.05	1084.60
537.41	1084.32
537.76	1083.90
538.12	1084.77
538.47	1085.26
538.83	1084.11
539.18	1084.98
539.54	1086.38
539.89	1086.10
540.25	1083.06
540.60	1087.90
540.96	1091.77
541.31	1092.77
541.67	1094.57
542.02	1098.65
542.38	1098.58
542.73	1093.47
543.09	1090.81
543.44	1092.00
543.80	1090.69
544.15	1088.14
544.51	1091.93
544.86	1096.63
545.22	1094.83
545.57	1096.12
545.93	1095.25
546.28	1091.30
546.64	1089.24
546.99	1087.95
547.35	1085.80
547.70	1090.24
548.05	1090.29
548.41	1088.91
548.76	1090.48
549.12	1091.58
549.47	1088.51
549.83	1088.82
550.18	1086.34
550.53	1084.09
550.89	1083.13
551.24	1080.32
551.60	1080.72
551.95	1082.57
552.30	1082.64
552.66	1081.12
553.01	1083.34
553.37	1082.52
553.72	1079.57
554.07	1076.81
554.43	1079.55
554.78	1079.38
555.13	1080.23
555.49	1081.63
555.84	1082.71
556.19	1080.95
556.55	1081.68
556.90	1081.49
557.26	1082.33
557.61	1080.53
557.96	1083.22
558.32	1079.24
558.67	1077.58
559.02	1077.77
559.37	1081.05
559.73	1080.46
560.08	1082.78
560.43	1083.01
560.79	1083.39
561.14	1082.31
561.49	1081.61
561.85	1080.56
562.20	1081.54
562.55	1078.80
562.90	1079.01
563.26	1076.65
563.61	1078.66
563.96	1081.09
564.32	1082.64
564.67	1084.14
565.02	1085.19
565.37	1085.63
565.73	1086.73
566.08	1090.34
566.43	1090.10
566.78	1087.11
567.14	1085.00
567.49	1083.67
567.84	1080.65
568.19	1081.68
568.54	1085.59
568.90	1086.52
569.25	1085.28
569.60	1083.53
569.95	1080.74
570.31	1078.85
570.66	1079.76
571.01	1078.05
571.36	1080.27
571.71	1082.73
572.06	1084.21
572.42	1081.87
572.77	1084.28
573.12	1086.20
573.47	1083.93
573.82	1084.72
574.18	1086.50
574.53	1085.38
574.88	1084.00
575.23	1084.84
575.58	1084.32
575.93	1084.96
576.28	1086.34
576.64	1086.31
576.99	1086.36
577.34	1087.02
577.69	1086.45
578.04	1084.44
578.39	1083.15
578.74	1085.19
579.09	1084.53
579.44	1086.57
579.80	1084.70
580.15	1086.01
580.50	1086.20
580.85	1086.27
581.20	1086.43
581.55	1090.99
581.90	1089.75
582.25	1084.89
582.60	1083.57
582.95	1081.33
583.30	1078.36
583.65	1077.51
584.00	1078.00
584.35	1079.48
584.71	1074.68
585.06	1075.71
585.41	1075.20
585.76	1079.57
586.11	1078.78
586.46	1081.30
586.81	1078.68
587.16	1081.16
587.51	1077.79
587.86	1081.35
588.21	1084.35
588.56	1088.14
588.91	1091.60
589.26	1092.23
589.61	1087.34
589.96	1085.31
590.31	1082.73
590.66	1076.34
591.01	1076.37
591.36	1076.18
591.71	1080.32
592.06	1084.46
592.41	1088.42
592.76	1086.27
593.10	1085.63
593.45	1081.40
593.80	1078.64
594.15	1079.22
594.50	1079.46
594.85	1081.51
595.20	1083.06
595.55	1084.42
595.90	1081.66
596.25	1085.00
596.60	1082.29
596.95	1081.07
597.30	1081.73
597.64	1132.59
597.99	1137.73
598.34	1139.26
598.69	1143.77
599.04	1145.58
599.39	1094.53
599.74	1090.48
600.09	1089.22
600.44	1086.76
600.78	1088.37
601.13	1091.53
601.48	1088.61
601.83	1091.86
602.18	1093.17
602.53	1087.25
602.88	1083.55
603.22	1085.40
603.57	1082.92
603.92	1081.26
604.27	1082.01
604.62	1081.84
604.97	1079.06
605.31	1081.96
605.66	1081.87
606.01	1082.45
606.36	1085.84
606.71	1091.74
607.05	1093.08
607.40	1092.47
607.75	1093.94
608.10	1090.27
608.44	1086.31
608.79	1082.01
609.14	1081.58
609.49	1081.02
609.84	1084.79
610.18	1087.09
610.53	1092.68
610.88	1099.07
611.23	1102.25
611.57	1103.73
611.92	1102.58
612.27	1099.82
612.62	1096.21
612.96	1092.19
613.31	1089.45
613.66	1089.12
614.00	1088.14
614.35	1084.49
614.70	1088.56
615.05	1088.23
615.39	1087.46
615.74	1089.89
616.09	1091.32
616.43	1087.65
616.78	1088.02
617.13	1089.33
617.47	1086.22
617.82	1087.86
618.17	1087.06
618.51	1085.07
618.86	1085.40
619.21	1086.10
619.55	1086.20
619.90	1084.89
620.25	1086.15
620.59	1085.17
620.94	1087.20
621.29	1087.48
621.63	1088.72
621.98	1088.86
622.32	1087.88
622.67	1085.38
623.02	1085.40
623.36	1085.91
623.71	1087.23
624.05	1089.22
624.40	1089.75
624.75	1086.97
625.09	1085.54
625.44	1085.77
625.78	1086.29
626.13	1087.06
626.48	1087.72
626.82	1085.12
627.17	1083.50
627.51	1080.48
627.86	1078.71
628.20	1079.53
628.55	1084.91
628.89	1084.86
629.24	1083.22
629.58	1083.62
629.93	1083.18
630.28	1081.19
630.62	1081.14
630.97	1082.61
631.31	1083.43
631.66	1084.16
632.00	1083.76
632.35	1084.42
632.69	1085.80
633.04	1086.31
633.38	1085.47
633.73	1085.87
634.07	1082.80
634.42	1083.27
634.76	1084.42
635.11	1083.67
635.45	1083.06
635.79	1084.81
636.14	1084.56
636.48	1082.33
636.83	1082.38
637.17	1081.98
637.52	1084.58
637.86	1085.24
638.21	1083.95
638.55	1083.32
638.89	1082.03
639.24	1082.57
639.58	1078.64
639.93	1079.97
640.27	1081.30
640.61	1083.83
640.96	1080.53
641.30	1080.88
641.65	1080.48
641.99	1080.06
642.33	1077.79
642.68	1077.91
643.02	1082.73
643.37	1081.44
643.71	1084.63
644.05	1085.35
644.40	1087.95
644.74	1088.61
645.08	1089.87
645.43	1088.09
645.77	1091.11
646.11	1088.35
646.46	1085.05
646.80	1085.75
647.14	1084.37
647.49	1081.37
647.83	1081.82
648.17	1081.70
648.52	1079.64
648.86	1081.21
649.20	1086.36
649.55	1087.93
649.89	1086.10
650.23	1085.17
650.57	1085.77
650.92	1080.84
651.26	1080.56
651.60	1083.93
651.95	1085.80
652.29	1083.97
652.63	1083.71
652.97	1085.21
653.32	1085.21
653.66	1087.48
654.00	1086.94
654.34	1087.44
654.69	1082.90
655.03	1078.89
655.37	1078.26
655.71	1079.64
656.05	1082.52
656.40	1084.44
656.74	1087.48
657.08	1087.93
657.42	1087.69
657.76	1086.41
658.11	1087.34
658.45	1087.58
658.79	1090.99
659.13	1091.67
659.47	1092.35
659.82	1092.23
660.16	1088.82
660.50	1084.14
660.84	1079.97
661.18	1081.87
661.52	1080.58
661.87	1081.87
662.21	1081.66
662.55	1084.23
662.89	1081.61
663.23	1081.35
663.57	1083.90
663.91	1084.74
664.25	1084.63
664.60	1084.72
664.94	1085.80
665.28	1086.48
665.62	1085.89
665.96	1086.31
666.30	1085.21
666.64	1083.22
666.98	1080.04
667.32	1078.73
667.66	1078.82
668.01	1079.74
668.35	1079.38
668.69	1077.82
669.03	1077.40
669.37	1076.11
669.71	1073.86
670.05	1074.28
670.39	1078.36
670.73	1080.25
671.07	1080.95
671.41	1082.36
671.75	1083.88
672.09	1082.85
672.43	1081.00
672.77	1080.81
673.11	1079.90
673.45	1077.96
673.79	1078.66
674.13	1078.64
674.47	1077.58
674.81	1078.64
675.15	1080.74
675.49	1082.57
675.83	1082.94
676.17	1084.42
676.51	1084.96
676.85	1083.62
677.19	1079.62
677.53	1080.41
677.87	1082.08
678.21	1083.41
678.55	1086.94
678.89	1086.29
679.23	1088.09
679.57	1086.41
679.90	1081.96
680.24	1079.06
680.58	1085.80
680.92	1085.68
681.26	1088.47
681.60	1091.93
681.94	1089.66
682.28	1084.53
682.62	1083.29
682.96	1079.88
683.29	1077.79
683.63	1083.18
683.97	1082.61
684.31	1082.99
684.65	1081.54
684.99	1082.87
685.33	1079.15
685.67	1078.96
686.00	1079.17
686.34	1079.48
686.68	1080.88
687.02	1080.04
687.36	1082.87
687.70	1082.43
688.03	1082.33
688.37	1079.81
688.71	1083.46
689.05	1080.23
689.39	1079.57
689.72	1081.54
690.06	1084.81
690.40	1083.67
690.74	1083.27
691.08	1083.79
691.41	1082.26
691.75	1077.91
692.09	1077.35
692.43	1080.91
692.76	1079.97
693.10	1078.94
693.44	1083.43
693.78	1084.49
694.11	1083.13
694.45	1083.81
694.79	1085.24
695.13	1078.24
695.46	1079.85
695.80	1081.58
696.14	1082.08
696.48	1082.08
696.81	1085.45
697.15	1082.17
697.49	1079.67
697.82	1078.05
698.16	1080.25
698.50	1080.18
698.83	1079.31
699.17	1080.46
699.51	1079.95
699.84	1076.51
700.18	1078.12
700.52	1077.75
700.85	1076.53
701.19	1078.82
701.53	1078.59
701.86	1078.99
702.20	1079.95
702.54	1081.66
702.87	1081.84
703.21	1083.32
703.55	1080.46
703.88	1080.41
704.22	1078.14
704.55	1078.75
704.89	1079.95
705.23	1082.15
705.56	1083.69
705.90	1085.59
706.23	1083.71
706.57	1083.90
706.91	1083.46
707.24	1083.81
707.58	1083.64
707.91	1083.20
708.25	1084.58
708.58	1085.40
708.92	1086.08
709.26	1082.36
709.59	1085.33
709.93	1083.32
710.26	1081.40
710.60	1078.52
710.93	1082.47
711.27	1082.12
711.60	1082.94
711.94	1083.34
712.27	1083.57
712.61	1085.77
712.94	1084.30
713.28	1084.39
713.61	1085.80
713.95	1085.17
714.28	1083.11
714.62	1081.61
714.95	1083.55
715.29	1080.74
715.62	1081.19
715.96	1078.43
716.29	1079.57
716.63	1078.45
716.96	1081.56
717.29	1084.18
717.63	1086.57
717.96	1088.16
718.30	1085.96
718.63	1083.97
718.97	1081.12
719.30	1078.40
719.63	1079.48
719.97	1078.64
720.30	1079.71
720.64	1080.79
720.97	1083.62
721.30	1079.22
721.64	1084.35
721.97	1082.97
722.31	1083.22
722.64	1082.24
722.97	1083.79
723.31	1080.13
723.64	1082.05
723.97	1082.78
724.31	1085.96
724.64	1085.45
724.98	1084.53
725.31	1086.15
725.64	1082.29
725.98	1078.10
726.31	1080.58
726.64	1082.57
726.97	1080.60
727.31	1084.89
727.64	1081.96
727.97	1079.81
728.31	1077.11
728.64	1078.68
728.97	1076.34
729.31	1079.29
729.64	1079.97
729.97	1082.71
730.30	1081.89
730.64	1086.08
730.97	1088.19
731.30	1088.33
731.63	1091.20
731.97	1091.58
732.30	1089.59
732.63	1088.93
732.96	1088.26
733.30	1080.65
733.63	1079.97
733.96	1080.65
734.29	1080.53
734.63	1081.70
734.96	1083.64
735.29	1083.22
735.62	1080.63
735.95	1083.76
736.29	1083.43
736.62	1085.10
736.95	1082.45
737.28	1082.31
737.61	1079.31
737.94	1081.14
738.28	1079.76
738.61	1081.00
738.94	1082.47
739.27	1079.36
739.60	1078.03
739.93	1077.16
740.27	1079.06
740.60	1079.78
740.93	1084.65
741.26	1083.34
741.59	1084.23
741.92	1081.56
742.25	1078.28
742.58	1077.96
742.91	1078.64
743.25	1078.52
743.58	1077.11
743.91	1076.67
744.24	1074.98
744.57	1073.18
744.90	1075.10
745.23	1080.18
745.56	1079.64
745.89	1080.30
746.22	1081.91
746.55	1078.82
746.88	1076.08
747.21	1078.68
747.54	1076.62
747.87	1073.93
748.20	1072.55
748.53	1071.97
748.87	1074.38
749.20	1075.66
749.53	1077.70
749.86	1082.59
750.19	1084.89
750.52	1085.24
750.85	1085.07
751.18	1084.39
751.51	1083.50
751.84	1082.71
752.16	1079.78
752.49	1077.54
752.82	1077.07
753.15	1077.98
753.48	1079.76
753.81	1078.68
754.14	1081.70
754.47	1084.16
754.80	1081.16
755.13	1078.82
755.46	1081.44
755.79	1077.37
756.12	1077.79
756.45	1081.33
756.78	1081.73
757.11	1079.55
757.43	1082.52
757.76	1082.38
758.09	1083.11
758.42	1084.02
758.75	1083.81
759.08	1085.31
759.41	1086.45
759.74	1084.89
760.07	1087.97
760.39	1089.75
760.72	1087.37
761.05	1083.53
761.38	1084.77
761.71	1081.87
762.04	1084.51
762.36	1084.79
762.69	1087.11
763.02	1084.49
763.35	1083.48
763.68	1080.09
764.01	1083.64
764.33	1082.97
764.66	1082.99
764.99	1081.12
765.32	1083.76
765.65	1082.57
765.97	1085.59
766.30	1087.32
766.63	1088.58
766.96	1086.90
767.28	1087.06
767.61	1082.71
767.94	1082.43
768.27	1084.28
768.59	1084.04
768.92	1082.24
769.25	1084.02
769.58	1081.73
769.90	1082.15
770.23	1081.87
770.56	1083.41
770.89	1083.39
771.21	1085.59
771.54	1086.66
771.87	1086.55
772.19	1084.37
772.52	1082.90
772.85	1081.98
773.17	1079.60
773.50	1079.41
773.83	1078.99
774.15	1079.01
774.48	1081.73
774.81	1080.63
775.13	1082.54
775.46	1085.35
775.79	1085.03
776.11	1082.47
776.44	1084.00
776.77	1084.00
777.09	1080.79
777.42	1081.94
777.74	1082.40
778.07	1080.93
778.40	1080.13
778.72	1081.77
779.05	1081.35
779.37	1079.03
779.70	1080.13
780.03	1079.08
780.35	1079.95
780.68	1078.40
781.00	1080.86
781.33	1081.42
781.65	1081.94
781.98	1081.02
782.31	1081.51
782.63	1081.14
782.96	1080.13
783.28	1081.94
783.61	1084.09
783.93	1084.46
784.26	1085.03
784.58	1085.82
784.91	1082.92
785.23	1079.46
785.56	1084.21
785.88	1082.64
786.21	1079.64
786.53	1079.46
786.86	1080.51
787.18	1075.85
787.51	1073.35
787.83	1074.40
788.16	1073.91
788.48	1073.58
788.81	1074.98
789.13	1077.25
789.46	1079.41
789.78	1080.09
790.10	1081.30
790.43	1082.24
790.75	1085.05
791.08	1083.18
791.40	1080.98
791.73	1085.75
792.05	1085.21
792.37	1082.69
792.70	1084.91
793.02	1088.51
793.35	1083.55
793.67	1082.19
793.99	1081.12
794.32	1080.44
794.64	1079.76
794.96	1077.07
795.29	1076.67
795.61	1079.29
795.93	1077.02
796.26	1076.88
796.58	1080.46
796.91	1083.27
797.23	1082.76
797.55	1083.18
797.87	1087.23
798.20	1087.37
798.52	1085.35
798.84	1082.83
799.17	1086.24
799.49	1083.81
799.81	1083.88
800.14	1086.08
800.46	1088.70
800.78	1084.42
801.10	1083.15
801.43	1080.37
801.75	1077.91
802.07	1074.28
802.40	1074.89
802.72	1074.54
803.04	1072.20
803.36	1071.08
803.69	1073.44
804.01	1075.55
804.33	1078.36
804.65	1082.99
804.97	1083.81
805.30	1085.47
805.62	1083.53
805.94	1080.98
806.26	1081.75
806.58	1086.66
806.91	1085.59
807.23	1088.33
807.55	1087.11
807.87	1086.24
808.19	1083.86
808.52	1084.53
808.84	1079.31
809.16	1080.81
809.48	1079.29
809.80	1079.92
810.12	1076.23
810.44	1079.95
810.77	1081.68
811.09	1082.97
811.41	1079.88
811.73	1081.23
812.05	1080.86
812.37	1082.22
812.69	1083.69
813.01	1084.98
813.33	1086.29
813.66	1088.56
813.98	1083.13
814.30	1081.02
814.62	1079.03
814.94	1080.84
815.26	1078.73
815.58	1084.04
815.90	1085.00
816.22	1089.59
816.54	1088.09
816.86	1088.86
817.18	1085.17
817.50	1086.27
817.82	1083.74
818.14	1083.95
818.46	1082.26
818.78	1080.93
819.10	1077.82
819.42	1078.36
819.74	1078.68
820.06	1079.17
820.38	1079.76
820.70	1077.68
821.02	1075.57
821.34	1076.51
821.66	1076.65
821.98	1077.86
822.30	1078.82
822.62	1079.01
822.94	1079.64
823.26	1080.88
823.58	1081.05
823.90	1082.78
824.22	1082.10
824.54	1078.71
824.86	1078.40
825.18	1079.76
825.50	1082.22
825.81	1083.11
826.13	1081.75
826.45	1080.25
826.77	1078.50
827.09	1082.19
827.41	1083.04
827.73	1085.66
828.05	1085.99
828.36	1087.34
828.68	1083.25
829.00	1083.67
829.32	1082.05
829.64	1082.19
829.96	1080.11
830.28	1079.81
830.59	1080.91
830.91	1084.70
831.23	1083.76
831.55	1082.52
831.87	1081.73
832.19	1079.92
832.50	1079.76
832.82	1077.79
833.14	1076.34
833.46	1076.46
833.78	1074.47
834.09	1071.31
834.41	1074.91
834.73	1078.24
835.05	1078.85
835.36	1082.64
835.68	1085.19
836.00	1085.47
836.32	1087.39
836.63	1085.68
836.95	1084.77
837.27	1085.80
837.59	1085.47
837.90	1084.51
838.22	1084.63
838.54	1081.23
838.85	1078.00
839.17	1077.65
839.49	1077.02
839.80	1079.50
840.12	1084.77
840.44	1084.56
840.76	1083.13
841.07	1083.41
841.39	1081.35
841.71	1080.53
842.02	1083.67
842.34	1086.17
842.65	1082.94
842.97	1082.54
843.29	1080.63
843.60	1078.66
843.92	1078.71
844.24	1083.04
844.55	1082.97
844.87	1084.37
845.18	1082.43
845.50	1080.30
845.82	1077.33
846.13	1077.61
846.45	1076.11
846.76	1079.36
847.08	1079.34
847.40	1079.43
847.71	1077.21
848.03	1079.64
848.34	1080.84
848.66	1083.11
848.97	1084.86
849.29	1087.58
849.60	1085.99
849.92	1085.19
850.24	1084.74
850.55	1086.97
850.87	1086.83
851.18	1086.94
851.50	1083.57
851.81	1081.94
852.13	1080.81
852.44	1082.66
852.76	1081.30
853.07	1084.11
853.39	1085.26
853.70	1083.64
854.01	1080.11
854.33	1080.81
854.64	1080.30
854.96	1080.95
855.27	1081.98
855.59	1084.02
855.90	1084.30
856.22	1082.99
856.53	1083.48
856.84	1081.56
857.16	1077.02
857.47	1074.96
857.79	1073.49
858.10	1070.72
858.41	1075.15
858.73	1080.27
859.04	1082.01
859.36	1086.34
859.67	1089.85
859.98	1086.45
860.30	1085.52
860.61	1087.09
860.92	1085.49
861.24	1081.77
861.55	1081.40
861.87	1080.74
862.18	1078.87
862.49	1078.03
862.81	1078.99
863.12	1076.88
863.43	1077.47
863.74	1078.99
864.06	1079.74
864.37	1083.50
864.68	1086.08
865.00	1086.17
865.31	1086.08
865.62	1085.47
865.94	1082.24
866.25	1080.20
866.56	1079.50
866.87	1078.52
867.19	1076.13
867.50	1075.59
867.81	1078.31
868.12	1076.46
868.44	1076.88
868.75	1078.21
869.06	1077.61
869.37	1076.62
869.68	1080.32
870.00	1080.48
870.31	1083.36
870.62	1083.43
870.93	1082.99
871.24	1080.65
871.56	1081.66
871.87	1078.17
872.18	1082.43
872.49	1086.08
872.80	1088.33
873.12	1086.22
873.43	1089.54
873.74	1086.52
874.05	1085.89
874.36	1084.49
874.67	1088.23
874.98	1087.02
875.29	1086.71
875.61	1083.04
875.92	1080.67
876.23	1079.24
876.54	1077.91
876.85	1075.45
877.16	1077.04
877.47	1082.29
877.78	1082.15
878.09	1080.41
878.40	1082.24
878.72	1082.33
879.03	1080.27
879.34	1079.24
879.65	1080.74
879.96	1084.14
880.27	1082.54
880.58	1079.62
880.89	1079.24
881.20	1082.69
881.51	1081.61
881.82	1086.10
882.13	1089.45
882.44	1088.19
882.75	1088.77
883.06	1088.09
883.37	1084.91
883.68	1081.09
883.99	1079.62
884.30	1076.01
884.61	1074.87
884.92	1072.41
885.23	1077.75
885.54	1079.83
885.85	1081.35
886.16	1082.52
886.47	1082.54
886.78	1079.85
887.08	1080.60
887.39	1077.98
887.70	1078.50
888.01	1080.72
888.32	1080.39
888.63	1081.47
888.94	1084.96
889.25	1083.20
889.56	1083.20
889.87	1085.03
890.17	1083.81
890.48	1081.09
890.79	1080.88
891.10	1082.01
891.41	1081.28
891.72	1078.92
892.03	1081.37
892.34	1086.57
892.64	1087.27
892.95	1086.36
893.26	1087.81
893.57	1087.86
893.88	1081.02
894.18	1078.78
894.49	1079.60
894.80	1080.93
895.11	1081.00
895.42	1082.90
895.72	1084.32
896.03	1082.15
896.34	1079.81
896.65	1077.51
896.96	1081.70
897.26	1079.60
897.57	1080.11
897.88	1081.02
898.19	1084.37
898.49	1081.68
898.80	1084.14
899.11	1086.20
899.41	1090.13
899.72	1090.32
900.03	1088.96
900.34	1088.56
900.64	1088.35
900.95	1085.84
901.26	1084.58
901.56	1088.09
901.87	1085.94
902.18	1087.25
902.48	1087.16
902.79	1084.25
903.10	1081.84
903.40	1083.43
903.71	1081.16
904.02	1077.09
904.32	1077.70
904.63	1077.49
904.94	1078.03
905.24	1079.27
905.55	1084.09
905.85	1085.03
906.16	1086.08
906.47	1084.56
906.77	1085.94
907.08	1084.02
907.38	1086.01
907.69	1085.14
908.00	1085.19
908.30	1083.43
908.61	1082.50
908.91	1079.29
909.22	1079.22
909.52	1080.18
909.83	1081.42
910.14	1081.91
910.44	1084.11
910.75	1084.14
911.05	1082.73
911.36	1082.19
911.66	1080.88
911.97	1081.58
912.27	1079.15
912.58	1081.00
912.88	1078.52
913.19	1080.20
913.49	1077.75
913.80	1079.71
914.10	1078.52
914.41	1079.41
914.71	1079.64
915.01	1077.63
915.32	1077.86
915.62	1078.87
915.93	1078.96
916.23	1076.55
916.54	1077.63
916.84	1075.13
917.15	1073.37
917.45	1073.95
917.75	1076.34
918.06	1079.31
918.36	1082.71
918.67	1081.12
918.97	1080.18
919.27	1083.22
919.58	1081.26
919.88	1076.46
920.18	1077.68
920.49	1078.47
920.79	1075.31
921.10	1075.92
921.40	1080.70
921.70	1084.00
922.01	1082.64
922.31	1085.61
922.61	1084.65
922.92	1083.93
923.22	1082.10
923.52	1085.40
923.82	1084.91
924.13	1086.22
924.43	1080.60
924.73	1081.33
925.04	1081.02
925.34	1078.99
925.64	1077.07
925.94	1081.37
926.25	1080.34
926.55	1078.96
926.85	1078.14
927.15	1080.70
927.46	1080.70
927.76	1081.77
928.06	1082.01
928.36	1085.19
928.67	1084.46
928.97	1085.96
929.27	1085.45
929.57	1086.27
929.87	1083.90
930.18	1081.61
930.48	1082.26
930.78	1083.04
931.08	1080.77
931.38	1079.29
931.69	1081.47
931.99	1079.57
932.29	1078.59
932.59	1074.77
932.89	1077.11
933.19	1077.65
933.49	1076.83
933.80	1080.16
934.10	1085.12
934.40	1083.36
934.70	1081.07
935.00	1084.21
935.30	1080.11
935.60	1082.54
935.90	1084.14
936.20	1086.62
936.50	1086.17
936.81	1086.43
937.11	1081.26
937.41	1082.54
937.71	1083.22
938.01	1080.39
938.31	1081.54
938.61	1086.90
938.91	1084.91
939.21	1084.04
939.51	1086.94
939.81	1087.02
940.11	1087.27
940.41	1086.38
940.71	1085.77
941.01	1082.69
941.31	1080.72
941.61	1081.91
941.91	1085.03
942.21	1085.28
942.51	1087.37
942.81	1085.21
943.11	1077.63
943.41	1076.83
943.71	1074.35
944.01	1074.61
944.31	1080.58
944.61	1083.50
944.90	1082.69
945.20	1085.52
945.50	1086.80
945.80	1081.63
946.10	1080.81
946.40	1076.27
946.70	1076.20
947.00	1075.13
947.30	1075.99
947.60	1075.50
947.89	1081.09
948.19	1083.93
948.49	1083.39
948.79	1085.84
949.09	1088.09
949.39	1085.63
949.69	1082.64
949.98	1084.46
950.28	1084.39
950.58	1080.16
950.88	1079.31
951.18	1078.99
951.48	1077.37
951.77	1078.80
952.07	1082.31
952.37	1083.79
952.67	1085.40
952.97	1084.35
953.26	1079.15
953.56	1075.97
953.86	1078.36
954.16	1078.71
954.45	1081.80
954.75	1085.28
955.05	1088.44
955.35	1084.53
955.64	1082.45
955.94	1080.44
956.24	1080.37
956.54	1080.88
956.83	1080.77
957.13	1083.83
957.43	1083.86
957.72	1082.71
958.02	1081.40
958.32	1083.50
958.61	1080.46
958.91	1078.82
959.21	1081.80
959.50	1081.77
959.80	1079.08
960.10	1078.52
960.39	1079.31
960.69	1078.40
960.99	1080.56
961.28	1085.40
961.58	1083.50
961.87	1084.93
962.17	1083.50
962.47	1080.65
962.76	1077.25
963.06	1078.78
963.36	1081.07
963.65	1080.27
963.95	1081.12
964.24	1081.54
964.54	1082.85
964.83	1078.94
965.13	1080.58
965.42	1080.34
965.72	1082.47
966.02	1081.70
966.31	1081.40
966.61	1079.50
966.90	1079.50
967.20	1075.59
967.49	1076.18
967.79	1077.25
968.08	1078.26
968.38	1079.62
968.67	1084.11
968.97	1082.54
969.26	1082.17
969.56	1083.36
969.85	1085.28
970.15	1085.49
970.44	1086.34
970.74	1084.53
971.03	1085.59
971.32	1084.04
971.62	1080.41
971.91	1080.67
972.21	1083.43
972.50	1085.28
972.80	1084.32
973.09	1085.75
973.38	1084.79
973.68	1083.43
973.97	1080.27
974.27	1079.97
974.56	1078.75
974.85	1080.48
975.15	1082.76
975.44	1082.69
975.73	1082.73
976.03	1080.23
976.32	1076.74
976.61	1075.38
976.91	1075.45
977.20	1074.63
977.49	1078.94
977.79	1083.41
978.08	1083.27
978.37	1082.22
978.67	1080.44
978.96	1076.74
979.25	1073.77
979.55	1072.67
979.84	1075.01
980.13	1078.87
980.42	1081.96
980.72	1083.32
981.01	1084.23
981.30	1081.49
981.59	1082.19
981.89	1082.43
982.18	1081.33
982.47	1080.63
982.76	1081.94
983.06	1081.96
983.35	1082.08
983.64	1083.95
983.93	1085.21
984.22	1085.56
984.52	1085.14
984.81	1084.91
985.10	1087.02
985.39	1083.29
985.68	1082.57
985.97	1083.01
986.27	1082.64
986.56	1078.43
986.85	1082.26
987.14	1082.90
987.43	1081.73
987.72	1078.21
988.01	1080.95
988.31	1079.29
988.60	1079.38
988.89	1077.35
989.18	1081.56
989.47	1081.16
989.76	1083.62
990.05	1081.44
990.34	1082.54
990.63	1079.88
990.92	1077.16
991.21	1076.83
991.51	1078.85
991.80	1078.78
992.09	1078.87
992.38	1081.89
992.67	1082.08
992.96	1083.13
993.25	1083.27
993.54	1087.44
993.83	1086.31
994.12	1086.62
994.41	1084.44
994.70	1086.45
994.99	1082.03
995.28	1082.19
995.57	1079.74
995.86	1079.83
996.15	1077.68
996.44	1076.60
996.73	1073.63
997.02	1074.21
997.31	1075.45
997.59	1075.45
997.88	1078.78
998.17	1080.84
998.46	1083.20
998.75	1083.25
999.04	1085.54
999.33	1085.54
999.62	1084.07
999.91	1080.56
1000.20	1081.40
1000.49	1079.74
1000.77	1077.82
1001.06	1080.16
1001.35	1081.37
1001.64	1080.44
1001.93	1078.05
1002.22	1077.35
1002.51	1077.47
1002.79	1076.81
1003.08	1077.02
1003.37	1079.81
1003.66	1081.61
1003.95	1082.43
1004.23	1083.93
1004.52	1083.55
1004.81	1082.92
1005.10	1082.05
1005.39	1082.50
1005.67	1082.90
1005.96	1083.60
1006.25	1083.04
1006.54	1084.07
1006.83	1081.80
1007.11	1082.19
1007.40	1081.61
1007.69	1082.22
1007.97	1081.61
1008.26	1082.45
1008.55	1080.51
1008.84	1079.24
1009.12	1079.97
1009.41	1081.56
1009.70	1083.18
1009.98	1087.69
1010.27	1089.57
1010.56	1091.77
1010.85	1090.29
1011.13	1087.34
1011.42	1083.50
1011.71	1079.92
1011.99	1076.76
1012.28	1078.54
1012.56	1083.04
1012.85	1082.59
1013.14	1082.57
1013.42	1084.60
1013.71	1082.90
1014.00	1081.63
1014.28	1080.74
1014.57	1084.16
1014.85	1082.05
1015.14	1083.04
1015.43	1081.58
1015.71	1081.54
1016.00	1079.08
1016.28	1077.84
1016.57	1078.52
1016.85	1080.37
1017.14	1084.56
1017.43	1084.56
1017.71	1084.77
1018.00	1084.63
1018.28	1082.50
1018.57	1082.19
1018.85	1085.00
1019.14	1084.30
1019.42	1081.00
1019.71	1079.60
1019.99	1078.45
1020.28	1078.64
1020.56	1084.93
1020.85	1090.01
1021.13	1093.31
1021.42	1091.34
1021.70	1090.36
1021.99	1088.12
1022.27	1085.61
1022.55	1091.98
1022.84	1080.63
>>>>>End Processed Spectral Data<<<<<
