SpectraSuite Data File
++++++++++++++++++++++++++++++++++++
Date: Mon Aug 26 10:26:11 PDT 2019
User: corrico
Dark Spectrum Present: No
Reference Spectrum Present: No
Number of Sampled Component Spectra: 1
Spectrometers: USB2+H06089
Integration Time (usec): 10000 (USB2+H06089)
Spectra Averaged: 20 (USB2+H06089)
Boxcar Smoothing: 2 (USB2+H06089)
Correct for Electrical Dark: No (USB2+H06089)
Strobe/Lamp Enabled: No (USB2+H06089)
Correct for Detector Non-linearity: No (USB2+H06089)
Correct for Stray Light: No (USB2+H06089)
Number of Pixels in Processed Spectrum: 2048
>>>>>Begin Processed Spectral Data<<<<<
339.70	1021.99
340.07	1021.99
340.45	991.24
340.82	970.83
341.19	948.29
341.57	926.24
341.94	915.90
342.31	908.55
342.69	905.18
343.06	901.55
343.43	899.66
343.81	897.55
344.18	902.14
344.55	904.48
344.93	912.90
345.30	921.21
345.67	930.04
346.04	937.45
346.42	943.66
346.79	951.31
347.16	956.95
347.54	962.78
347.91	974.06
348.28	985.93
348.65	1000.58
349.03	1012.07
349.40	1023.00
349.77	1029.51
350.14	1038.45
350.52	1042.64
350.89	1046.78
351.26	1053.64
351.63	1060.45
352.01	1063.35
352.38	1065.37
352.75	1073.02
353.12	1075.85
353.50	1078.03
353.87	1082.33
354.24	1084.67
354.61	1083.41
354.98	1083.81
355.36	1085.12
355.73	1088.35
356.10	1089.12
356.47	1091.02
356.84	1096.99
357.22	1096.89
357.59	1094.48
357.96	1094.72
358.33	1097.38
358.70	1093.57
359.08	1093.66
359.45	1095.39
359.82	1096.24
360.19	1092.96
360.56	1092.19
360.94	1091.34
361.31	1090.17
361.68	1089.82
362.05	1091.32
362.42	1092.89
362.79	1096.33
363.16	1096.54
363.54	1096.42
363.91	1095.11
364.28	1091.39
364.65	1089.31
365.02	1088.42
365.39	1088.82
365.76	1084.30
366.14	1083.11
366.51	1083.50
366.88	1082.33
367.25	1079.24
367.62	1081.91
367.99	1083.13
368.36	1078.68
368.73	1078.99
369.10	1077.18
369.48	1076.83
369.85	1075.85
370.22	1079.60
370.59	1080.06
370.96	1083.95
371.33	1086.17
371.70	1089.29
372.07	1085.66
372.44	1083.79
372.81	1083.18
373.18	1081.28
373.55	1081.51
373.93	1086.22
374.30	1087.30
374.67	1087.65
375.04	1088.33
375.41	1087.23
375.78	1084.93
376.15	1085.19
376.52	1082.83
376.89	1084.09
377.26	1087.44
377.63	1089.54
378.00	1090.67
378.37	1092.19
378.74	1090.97
379.11	1087.67
379.48	1084.98
379.85	1085.87
380.22	1085.24
380.59	1083.76
380.96	1086.69
381.33	1088.65
381.70	1086.99
382.07	1088.21
382.44	1089.07
382.81	1083.71
383.18	1083.67
383.55	1084.70
383.92	1085.17
384.29	1088.70
384.66	1091.06
385.03	1091.46
385.40	1093.69
385.77	1096.45
386.14	1093.64
386.51	1096.94
386.88	1098.41
387.25	1095.70
387.62	1090.43
387.99	1092.30
388.36	1091.32
388.73	1087.67
389.10	1086.78
389.46	1091.13
389.83	1092.09
390.20	1092.73
390.57	1097.41
390.94	1100.89
391.31	1099.56
391.68	1098.53
392.05	1095.84
392.42	1094.90
392.79	1094.20
393.16	1095.00
393.53	1095.23
393.89	1097.01
394.26	1096.10
394.63	1092.94
395.00	1094.79
395.37	1095.96
395.74	1097.76
396.11	1095.39
396.48	1099.14
396.84	1095.75
397.21	1095.18
397.58	1093.99
397.95	1095.35
398.32	1096.21
398.69	1097.73
399.06	1098.81
399.42	1099.09
399.79	1100.82
400.16	1101.32
400.53	1102.42
400.90	1100.52
401.27	1100.10
401.64	1102.16
402.00	1097.17
402.37	1098.39
402.74	1098.74
403.11	1100.52
403.48	1100.33
403.84	1104.64
404.21	1105.04
404.58	1109.37
404.95	1108.92
405.32	1109.18
405.68	1111.22
406.05	1108.90
406.42	1109.39
406.79	1110.75
407.16	1111.78
407.52	1109.27
407.89	1110.84
408.26	1108.99
408.63	1110.84
408.99	1111.78
409.36	1115.92
409.73	1117.86
410.10	1119.83
410.47	1120.11
410.83	1120.86
411.20	1122.08
411.57	1120.53
411.94	1119.03
412.30	1116.93
412.67	1114.02
413.04	1113.35
413.40	1115.01
413.77	1117.44
414.14	1119.69
414.51	1123.25
414.87	1122.38
415.24	1123.13
415.61	1120.98
415.97	1121.73
416.34	1121.65
416.71	1124.02
417.08	1124.46
417.44	1125.00
417.81	1129.12
418.18	1127.13
418.54	1126.34
418.91	1128.58
419.28	1132.75
419.64	1129.54
420.01	1134.67
420.38	1137.76
420.74	1134.95
421.11	1134.46
421.48	1135.42
421.84	1133.12
422.21	1133.29
422.58	1135.07
422.94	1134.08
423.31	1133.64
423.68	1134.27
424.04	1135.28
424.41	1139.65
424.77	1146.07
425.14	1149.81
425.51	1152.06
425.87	1146.77
426.24	1146.63
426.61	1142.95
426.97	1142.88
427.34	1143.54
427.70	1146.46
428.07	1144.73
428.44	1146.09
428.80	1146.16
429.17	1148.88
429.53	1151.99
429.90	1153.14
430.27	1153.37
430.63	1154.26
431.00	1150.16
431.36	1148.76
431.73	1153.30
432.09	1154.07
432.46	1153.84
432.83	1155.43
433.19	1154.96
433.56	1152.06
433.92	1152.20
434.29	1152.71
434.65	1152.01
435.02	1152.25
435.38	1149.04
435.75	1147.10
436.11	1146.98
436.48	1151.15
436.84	1150.84
437.21	1154.42
437.57	1153.65
437.94	1151.89
438.30	1150.16
438.67	1153.46
439.03	1147.89
439.40	1146.93
439.76	1148.71
440.13	1145.76
440.49	1141.48
440.86	1143.56
441.22	1143.42
441.59	1138.46
441.95	1137.10
442.32	1139.09
442.68	1138.83
443.05	1138.30
443.41	1140.89
443.78	1142.42
444.14	1140.17
444.51	1140.40
444.87	1141.15
445.24	1142.77
445.60	1140.71
445.96	1138.81
446.33	1138.06
446.69	1141.01
447.06	1133.78
447.42	1136.82
447.79	1136.47
448.15	1137.43
448.51	1133.43
448.88	1137.57
449.24	1138.39
449.61	1142.95
449.97	1143.49
450.33	1142.39
450.70	1144.03
451.06	1142.30
451.43	1140.00
451.79	1141.90
452.15	1143.89
452.52	1143.07
452.88	1141.36
453.24	1141.15
453.61	1135.79
453.97	1137.87
454.34	1136.56
454.70	1137.06
455.06	1136.54
455.43	1135.93
455.79	1134.76
456.15	1134.72
456.52	1133.90
456.88	1133.43
457.24	1136.33
457.61	1137.03
457.97	1139.54
458.33	1142.06
458.70	1141.85
459.06	1140.38
459.42	1141.99
459.79	1141.48
460.15	1141.36
460.51	1145.29
460.88	1148.29
461.24	1146.79
461.60	1149.55
461.96	1152.01
462.33	1151.59
462.69	1149.88
463.05	1155.41
463.42	1155.36
463.78	1155.38
464.14	1155.66
464.50	1160.48
464.87	1160.51
465.23	1161.96
465.59	1164.63
465.95	1170.85
466.32	1172.70
466.68	1171.04
467.04	1174.76
467.40	1175.09
467.77	1174.11
468.13	1176.00
468.49	1182.09
468.85	1181.10
469.22	1185.57
469.58	1188.22
469.94	1193.67
470.30	1196.95
470.66	1205.89
471.03	1209.73
471.39	1215.60
471.75	1216.26
472.11	1220.14
472.47	1222.30
472.84	1225.86
473.20	1233.84
473.56	1241.54
473.92	1246.69
474.28	1253.17
474.65	1262.60
475.01	1269.18
475.37	1281.42
475.73	1293.52
476.09	1305.62
476.45	1313.74
476.81	1326.76
477.18	1337.92
477.54	1350.61
477.90	1362.50
478.26	1380.49
478.62	1397.51
478.98	1414.60
479.34	1427.73
479.71	1448.74
480.07	1467.00
480.43	1484.81
480.79	1504.57
481.15	1531.34
481.51	1559.08
481.87	1589.69
482.23	1617.68
482.59	1652.14
482.96	1683.31
483.32	1712.99
483.68	1745.95
484.04	1781.55
484.40	1819.25
484.76	1863.37
485.12	1908.73
485.48	1953.90
485.84	2003.94
486.20	2053.61
486.56	2106.93
486.92	2166.03
487.28	2230.51
487.64	2300.21
488.00	2371.62
488.37	2444.97
488.73	2521.88
489.09	2603.54
489.45	2684.76
489.81	2768.50
490.17	2863.95
490.53	2957.62
490.89	3049.98
491.25	3147.93
491.61	3254.82
491.97	3369.62
492.33	3498.49
492.69	3631.83
493.05	3782.47
493.41	3945.04
493.77	4105.39
494.13	4271.88
494.49	4444.89
494.85	4621.43
495.21	4795.52
495.57	4980.38
495.93	5173.38
496.29	5383.84
496.64	5621.22
497.00	5870.58
497.36	6123.24
497.72	6393.48
498.08	6685.32
498.44	6986.87
498.80	7301.93
499.16	7617.93
499.52	7942.68
499.88	8258.79
500.24	8584.69
500.60	8936.84
500.96	9335.06
501.32	9743.91
501.68	10183.53
502.03	10657.09
502.39	11171.94
502.75	11715.11
503.11	12343.19
503.47	13011.20
503.83	13716.05
504.19	14411.68
504.55	15152.53
504.91	15890.48
505.26	16643.85
505.62	17392.15
505.98	18209.53
506.34	19009.39
506.70	19866.58
507.06	20790.09
507.42	21832.35
507.78	22916.42
508.13	24072.74
508.49	25274.44
508.85	26491.56
509.21	27767.06
509.57	29118.07
509.93	30504.20
510.28	31857.13
510.64	33258.64
511.00	34604.75
511.36	35974.13
511.72	37498.00
512.07	39189.72
512.43	40872.75
512.79	42704.78
513.15	44554.48
513.51	46363.55
513.86	48115.82
514.22	49903.64
514.58	51549.76
514.94	53108.84
515.30	54501.34
515.65	55727.24
516.01	56943.15
516.37	58076.63
516.73	59150.07
517.08	60183.95
517.44	61178.89
517.80	62047.58
518.16	62806.52
518.51	63514.53
518.87	64150.76
519.23	64687.00
519.59	65063.22
519.94	65348.25
520.30	65485.47
520.66	65530.11
521.01	65535.00
521.37	65535.00
521.73	65535.00
522.09	65535.00
522.44	65535.00
522.80	65535.00
523.16	65535.00
523.51	65535.00
523.87	65535.00
524.23	65535.00
524.58	65535.00
524.94	65535.00
525.30	65535.00
525.65	65535.00
526.01	65535.00
526.37	65535.00
526.72	65535.00
527.08	65535.00
527.44	65535.00
527.79	65535.00
528.15	65535.00
528.51	65535.00
528.86	65535.00
529.22	65535.00
529.58	65535.00
529.93	65535.00
530.29	65535.00
530.65	65535.00
531.00	65535.00
531.36	65535.00
531.71	65535.00
532.07	65535.00
532.43	65534.51
532.78	65527.81
533.14	65512.34
533.49	65492.96
533.85	65464.03
534.21	65341.32
534.56	65145.07
534.92	64868.93
535.27	64457.02
535.63	63935.24
535.98	63380.84
536.34	62823.82
536.69	62290.55
537.05	61771.61
537.41	61286.60
537.76	60798.81
538.12	60179.18
538.47	59553.97
538.83	58954.98
539.18	58291.14
539.54	57568.82
539.89	56883.30
540.25	56095.10
540.60	55309.48
540.96	54452.56
541.31	53675.88
541.67	52987.34
542.02	52220.98
542.38	51457.87
542.73	50613.57
543.09	49664.06
543.44	48764.52
543.80	47946.79
544.15	47068.69
544.51	46284.61
544.86	45532.90
545.22	44629.45
545.57	43701.06
545.93	42664.08
546.28	41761.41
546.64	40985.61
546.99	40241.70
547.35	39562.36
547.70	39021.27
548.05	38387.66
548.41	37613.51
548.76	36803.17
549.12	36063.04
549.47	35313.23
549.83	34650.16
550.18	33978.03
550.53	33318.72
550.89	32602.33
551.24	31763.27
551.60	30953.19
551.95	30194.01
552.30	29468.37
552.66	28723.12
553.01	28090.13
553.37	27404.00
553.72	26690.51
554.07	25994.97
554.43	25348.45
554.78	24715.50
555.13	24126.20
555.49	23557.98
555.84	23044.33
556.19	22455.90
556.55	21878.65
556.90	21317.81
557.26	20845.07
557.61	20327.72
557.96	19860.78
558.32	19412.38
558.67	18952.84
559.02	18461.61
559.37	18026.76
559.73	17627.37
560.08	17244.81
560.43	16840.34
560.79	16458.67
561.14	16048.35
561.49	15651.79
561.85	15245.69
562.20	14826.24
562.55	14425.70
562.90	14057.49
563.26	13695.48
563.61	13336.84
563.96	13019.91
564.32	12688.18
564.67	12377.31
565.02	12040.49
565.37	11761.29
565.73	11458.47
566.08	11171.28
566.43	10880.40
566.78	10655.52
567.14	10415.36
567.49	10233.95
567.84	10065.71
568.19	9874.21
568.54	9657.33
568.90	9454.52
569.25	9239.87
569.60	9044.34
569.95	8871.22
570.31	8688.42
570.66	8502.96
571.01	8298.70
571.36	8091.28
571.71	7895.38
572.06	7730.39
572.42	7584.46
572.77	7435.65
573.12	7295.54
573.47	7152.63
573.82	6983.22
574.18	6806.84
574.53	6643.75
574.88	6483.00
575.23	6324.71
575.58	6191.35
575.93	6052.37
576.28	5915.49
576.64	5766.89
576.99	5632.10
577.34	5497.33
577.69	5380.31
578.04	5272.71
578.39	5173.73
578.74	5079.81
579.09	4998.71
579.44	4895.23
579.80	4800.16
580.15	4706.89
580.50	4611.28
580.85	4504.88
581.20	4417.25
581.55	4323.72
581.90	4242.85
582.25	4156.86
582.60	4067.41
582.95	3986.31
583.30	3904.32
583.65	3814.35
584.00	3726.86
584.35	3649.27
584.71	3567.58
585.06	3489.32
585.41	3428.23
585.76	3367.00
586.11	3303.74
586.46	3245.57
586.81	3195.77
587.16	3137.63
587.51	3087.78
587.86	3043.35
588.21	2999.65
588.56	2954.13
588.91	2906.08
589.26	2859.03
589.61	2819.69
589.96	2774.75
590.31	2730.68
590.66	2682.75
591.01	2646.21
591.36	2604.97
591.71	2565.95
592.06	2531.57
592.41	2503.39
592.76	2471.16
593.10	2439.94
593.45	2408.43
593.80	2376.42
594.15	2346.36
594.50	2312.61
594.85	2276.64
595.20	2246.49
595.55	2213.87
595.90	2186.48
596.25	2157.95
596.60	2135.25
596.95	2112.17
597.30	2093.42
597.64	2124.76
597.99	2114.37
598.34	2096.91
598.69	2074.16
599.04	2052.44
599.39	1977.85
599.74	1945.90
600.09	1916.97
600.44	1898.92
600.78	1881.42
601.13	1858.36
601.48	1844.20
601.83	1830.58
602.18	1809.26
602.53	1784.75
602.88	1770.73
603.22	1750.23
603.57	1735.79
603.92	1721.11
604.27	1708.68
604.62	1692.30
604.97	1681.72
605.31	1667.51
605.66	1654.27
606.01	1644.04
606.36	1630.14
606.71	1615.20
607.05	1595.75
607.40	1583.93
607.75	1569.70
608.10	1563.01
608.44	1552.69
608.79	1543.61
609.14	1533.21
609.49	1525.14
609.84	1512.83
610.18	1499.82
610.53	1491.95
610.88	1482.89
611.23	1472.76
611.57	1465.64
611.92	1460.24
612.27	1452.89
612.62	1440.53
612.96	1432.62
613.31	1421.06
613.66	1408.63
614.00	1399.87
614.35	1397.79
614.70	1387.84
615.05	1379.39
615.39	1374.34
615.74	1368.89
616.09	1361.49
616.43	1356.34
616.78	1349.79
617.13	1338.81
617.47	1334.60
617.82	1326.66
618.17	1320.90
618.51	1314.26
618.86	1314.35
619.21	1310.09
619.55	1305.36
619.90	1299.21
620.25	1296.75
620.59	1291.60
620.94	1283.18
621.29	1278.99
621.63	1276.81
621.98	1278.89
622.32	1275.94
622.67	1270.84
623.02	1265.15
623.36	1264.15
623.71	1255.28
624.05	1253.10
624.40	1252.07
624.75	1251.74
625.09	1246.27
625.44	1242.03
625.78	1235.10
626.13	1233.20
626.48	1228.22
626.82	1224.47
627.17	1222.25
627.51	1221.71
627.86	1216.33
628.20	1214.50
628.55	1209.78
628.89	1205.47
629.24	1202.15
629.58	1199.31
629.93	1195.97
630.28	1198.05
630.62	1196.46
630.97	1193.21
631.31	1192.83
631.66	1191.05
632.00	1187.47
632.35	1186.30
632.69	1185.60
633.04	1182.11
633.38	1184.99
633.73	1181.15
634.07	1178.18
634.42	1179.09
634.76	1178.37
635.11	1171.41
635.45	1169.07
635.79	1169.24
636.14	1166.62
636.48	1163.36
636.83	1162.97
637.17	1161.84
637.52	1160.11
637.86	1160.27
638.21	1161.07
638.55	1159.20
638.89	1158.64
639.24	1154.63
639.58	1149.41
639.93	1146.23
640.27	1146.96
640.61	1144.19
640.96	1145.79
641.30	1142.88
641.65	1144.24
641.99	1139.75
642.33	1139.26
642.68	1136.10
643.02	1135.89
643.37	1133.43
643.71	1130.76
644.05	1129.92
644.40	1133.45
644.74	1135.44
645.08	1134.64
645.43	1136.75
645.77	1134.41
646.11	1128.49
646.46	1124.60
646.80	1123.06
647.14	1121.58
647.49	1124.00
647.83	1125.10
648.17	1124.74
648.52	1126.43
648.86	1126.29
649.20	1127.58
649.55	1127.08
649.89	1126.57
650.23	1128.21
650.57	1129.94
650.92	1125.49
651.26	1125.73
651.60	1123.34
651.95	1116.90
652.29	1115.71
652.63	1116.53
652.97	1117.00
653.32	1120.34
653.66	1121.30
654.00	1122.50
654.34	1121.49
654.69	1122.05
655.03	1120.34
655.37	1120.55
655.71	1117.72
656.05	1116.01
656.40	1112.41
656.74	1114.96
657.08	1114.00
657.42	1112.97
657.76	1112.20
658.11	1111.50
658.45	1108.29
658.79	1109.67
659.13	1109.48
659.47	1111.10
659.82	1113.07
660.16	1111.08
660.50	1109.44
660.84	1108.59
661.18	1108.27
661.52	1107.78
661.87	1109.11
662.21	1105.41
662.55	1104.48
662.89	1104.73
663.23	1102.11
663.57	1101.53
663.91	1106.54
664.25	1105.27
664.60	1105.13
664.94	1110.28
665.28	1111.31
665.62	1109.06
665.96	1112.01
666.30	1110.05
666.64	1108.71
666.98	1109.23
667.32	1107.71
667.66	1107.42
668.01	1107.75
668.35	1104.85
668.69	1102.88
669.03	1102.30
669.37	1101.41
669.71	1102.58
670.05	1104.59
670.39	1103.26
670.73	1105.36
671.07	1103.14
671.41	1102.46
671.75	1102.21
672.09	1108.03
672.43	1105.39
672.77	1105.60
673.11	1106.04
673.45	1103.21
673.79	1097.88
674.13	1100.22
674.47	1101.64
674.81	1101.32
675.15	1099.56
675.49	1100.38
675.83	1101.25
676.17	1101.11
676.51	1099.35
676.85	1102.11
677.19	1101.97
677.53	1099.84
677.87	1098.48
678.21	1099.37
678.55	1099.68
678.89	1098.69
679.23	1099.79
679.57	1104.26
679.90	1105.01
680.24	1103.05
680.58	1104.17
680.92	1101.06
681.26	1096.42
681.60	1097.90
681.94	1100.47
682.28	1099.49
682.62	1103.87
682.96	1104.80
683.29	1100.00
683.63	1098.04
683.97	1096.94
684.31	1092.35
684.65	1093.17
684.99	1095.60
685.33	1095.75
685.67	1095.79
686.00	1099.47
686.34	1099.98
686.68	1098.65
687.02	1096.05
687.36	1098.30
687.70	1096.49
688.03	1095.39
688.37	1095.18
688.71	1096.40
689.05	1093.10
689.39	1093.69
689.72	1095.46
690.06	1096.82
690.40	1096.52
690.74	1097.99
691.08	1098.48
691.41	1097.08
691.75	1096.14
692.09	1095.46
692.43	1099.07
692.76	1100.71
693.10	1100.61
693.44	1102.28
693.78	1105.25
694.11	1101.15
694.45	1101.25
694.79	1102.44
695.13	1100.38
695.46	1099.19
695.80	1100.47
696.14	1097.66
696.48	1097.48
696.81	1099.23
697.15	1100.12
697.49	1098.34
697.82	1100.89
698.16	1097.88
698.50	1099.77
698.83	1098.60
699.17	1097.43
699.51	1096.35
699.84	1096.05
700.18	1093.45
700.52	1091.53
700.85	1093.19
701.19	1092.00
701.53	1094.39
701.86	1094.83
702.20	1094.88
702.54	1096.54
702.87	1094.29
703.21	1092.84
703.55	1092.91
703.88	1093.94
704.22	1092.52
704.55	1092.98
704.89	1091.91
705.23	1093.33
705.56	1093.26
705.90	1094.60
706.23	1097.45
706.57	1096.80
706.91	1094.57
707.24	1095.86
707.58	1093.69
707.91	1092.00
708.25	1094.88
708.58	1093.83
708.92	1093.29
709.26	1093.26
709.59	1090.62
709.93	1091.46
710.26	1092.21
710.60	1093.83
710.93	1094.25
711.27	1093.85
711.60	1090.03
711.94	1090.13
712.27	1088.58
712.61	1087.25
712.94	1093.52
713.28	1092.80
713.61	1092.47
713.95	1090.39
714.28	1090.46
714.62	1085.68
714.95	1090.69
715.29	1090.97
715.62	1095.21
715.96	1097.88
716.29	1099.63
716.63	1097.08
716.96	1098.13
717.29	1094.50
717.63	1092.82
717.96	1091.04
718.30	1092.63
718.63	1091.84
718.97	1092.30
719.30	1088.30
719.63	1088.23
719.97	1085.05
720.30	1082.73
720.64	1085.33
720.97	1089.71
721.30	1090.39
721.64	1093.99
721.97	1095.21
722.31	1092.33
722.64	1093.31
722.97	1095.86
723.31	1094.57
723.64	1096.26
723.97	1095.44
724.31	1091.02
724.64	1089.12
724.98	1089.05
725.31	1091.72
725.64	1094.20
725.98	1097.15
726.31	1099.93
726.64	1100.82
726.97	1098.32
727.31	1098.48
727.64	1097.31
727.97	1090.92
728.31	1089.47
728.64	1087.11
728.97	1086.50
729.31	1087.20
729.64	1091.11
729.97	1089.61
730.30	1088.02
730.64	1087.27
730.97	1088.61
731.30	1088.44
731.63	1086.78
731.97	1086.41
732.30	1084.98
732.63	1084.28
732.96	1082.61
733.30	1085.40
733.63	1087.11
733.96	1087.30
734.29	1089.45
734.63	1091.79
734.96	1091.58
735.29	1093.12
735.62	1094.83
735.95	1096.03
736.29	1093.71
736.62	1091.25
736.95	1091.34
737.28	1092.14
737.61	1087.76
737.94	1088.91
738.28	1090.48
738.61	1089.24
738.94	1087.06
739.27	1088.16
739.60	1086.73
739.93	1087.90
740.27	1087.83
740.60	1089.68
740.93	1090.20
741.26	1089.38
741.59	1090.08
741.92	1089.94
742.25	1090.20
742.58	1089.17
742.91	1089.24
743.25	1089.24
743.58	1090.53
743.91	1087.55
744.24	1089.12
744.57	1090.99
744.90	1089.73
745.23	1090.76
745.56	1093.43
745.89	1094.39
746.22	1097.50
746.55	1094.79
746.88	1093.10
747.21	1093.69
747.54	1088.35
747.87	1084.89
748.20	1087.90
748.53	1088.14
748.87	1086.71
749.20	1089.89
749.53	1091.37
749.86	1090.95
750.19	1092.91
750.52	1093.29
750.85	1093.52
751.18	1093.73
751.51	1092.98
751.84	1089.96
752.16	1087.37
752.49	1090.88
752.82	1086.03
753.15	1088.00
753.48	1090.55
753.81	1094.20
754.14	1090.69
754.47	1093.03
754.80	1090.48
755.13	1088.86
755.46	1087.27
755.79	1086.64
756.12	1090.06
756.45	1092.26
756.78	1093.17
757.11	1092.09
757.43	1093.19
757.76	1088.58
758.09	1092.63
758.42	1090.27
758.75	1092.49
759.08	1091.84
759.41	1093.15
759.74	1087.72
760.07	1087.23
760.39	1083.25
760.72	1082.38
761.05	1081.21
761.38	1081.28
761.71	1082.71
762.04	1082.43
762.36	1082.31
762.69	1084.16
763.02	1084.51
763.35	1088.07
763.68	1088.23
764.01	1088.44
764.33	1087.25
764.66	1088.51
764.99	1085.47
765.32	1089.61
765.65	1090.85
765.97	1090.92
766.30	1090.46
766.63	1092.47
766.96	1088.40
767.28	1086.69
767.61	1085.68
767.94	1084.51
768.27	1081.07
768.59	1082.24
768.92	1082.12
769.25	1082.38
769.58	1084.53
769.90	1087.81
770.23	1090.08
770.56	1092.05
770.89	1095.63
771.21	1096.35
771.54	1092.12
771.87	1093.66
772.19	1094.65
772.52	1094.41
772.85	1093.66
773.17	1095.42
773.50	1089.40
773.83	1088.47
774.15	1087.95
774.48	1085.35
774.81	1087.93
775.13	1090.78
775.46	1088.84
775.79	1087.86
776.11	1088.70
776.44	1088.91
776.77	1088.54
777.09	1089.61
777.42	1092.33
777.74	1092.59
778.07	1088.23
778.40	1091.60
778.72	1092.23
779.05	1090.88
779.37	1092.23
779.70	1094.25
780.03	1094.11
780.35	1093.29
780.68	1092.19
781.00	1091.42
781.33	1090.22
781.65	1085.68
781.98	1087.93
782.31	1085.66
782.63	1086.29
782.96	1085.80
783.28	1089.89
783.61	1088.40
783.93	1091.46
784.26	1088.86
784.58	1090.62
784.91	1088.77
785.23	1089.71
785.56	1088.04
785.88	1087.44
786.21	1086.92
786.53	1087.55
786.86	1085.54
787.18	1086.08
787.51	1087.97
787.83	1089.03
788.16	1090.64
788.48	1090.20
788.81	1093.64
789.13	1093.80
789.46	1094.83
789.78	1089.92
790.10	1090.20
790.43	1088.33
790.75	1088.65
791.08	1089.14
791.40	1089.24
791.73	1093.47
792.05	1089.19
792.37	1088.61
792.70	1087.25
793.02	1091.91
793.35	1090.34
793.67	1093.15
793.99	1092.42
794.32	1090.17
794.64	1087.74
794.96	1083.15
795.29	1081.23
795.61	1079.78
795.93	1081.84
796.26	1081.33
796.58	1084.98
796.91	1086.55
797.23	1088.30
797.55	1088.02
797.87	1087.95
798.20	1087.58
798.52	1090.76
798.84	1094.20
799.17	1095.51
799.49	1097.57
799.81	1098.53
800.14	1091.34
800.46	1085.84
800.78	1084.70
801.10	1084.37
801.43	1085.70
801.75	1091.91
802.07	1096.73
802.40	1097.66
802.72	1095.63
803.04	1092.00
803.36	1089.52
803.69	1087.95
804.01	1083.83
804.33	1085.10
804.65	1084.72
804.97	1086.66
805.30	1087.37
805.62	1090.10
805.94	1089.43
806.26	1092.68
806.58	1095.16
806.91	1092.66
807.23	1090.55
807.55	1092.54
807.87	1091.81
808.19	1090.15
808.52	1091.79
808.84	1095.04
809.16	1093.10
809.48	1089.00
809.80	1089.54
810.12	1089.00
810.44	1087.97
810.77	1088.77
811.09	1094.55
811.41	1092.63
811.73	1089.89
812.05	1089.96
812.37	1090.97
812.69	1087.51
813.01	1087.90
813.33	1089.99
813.66	1088.37
813.98	1087.74
814.30	1086.41
814.62	1084.74
814.94	1088.00
815.26	1090.99
815.58	1089.14
815.90	1090.24
816.22	1091.95
816.54	1088.40
816.86	1084.21
817.18	1087.65
817.50	1087.88
817.82	1086.41
818.14	1084.72
818.46	1087.37
818.78	1084.37
819.10	1085.07
819.42	1086.76
819.74	1089.36
820.06	1087.55
820.38	1086.62
820.70	1084.02
821.02	1082.15
821.34	1084.51
821.66	1085.84
821.98	1085.66
822.30	1088.04
822.62	1085.07
822.94	1084.02
823.26	1082.36
823.58	1082.31
823.90	1079.67
824.22	1081.89
824.54	1078.75
824.86	1078.40
825.18	1081.89
825.50	1084.72
825.81	1086.45
826.13	1087.83
826.45	1090.57
826.77	1087.95
827.09	1088.40
827.41	1086.22
827.73	1087.11
828.05	1086.50
828.36	1086.73
828.68	1085.82
829.00	1087.58
829.32	1085.70
829.64	1086.66
829.96	1086.99
830.28	1086.92
830.59	1089.45
830.91	1088.93
831.23	1085.17
831.55	1085.54
831.87	1084.58
832.19	1081.77
832.50	1086.10
832.82	1088.28
833.14	1088.42
833.46	1086.34
833.78	1085.49
834.09	1081.37
834.41	1084.37
834.73	1085.54
835.05	1086.85
835.36	1083.55
835.68	1083.11
836.00	1078.47
836.32	1076.27
836.63	1075.73
836.95	1081.30
837.27	1082.22
837.59	1081.47
837.90	1080.06
838.22	1083.13
838.54	1084.44
838.85	1086.83
839.17	1091.11
839.49	1094.79
839.80	1092.94
840.12	1092.47
840.44	1092.49
840.76	1089.36
841.07	1090.43
841.39	1092.07
841.71	1090.36
842.02	1089.57
842.34	1089.57
842.65	1089.19
842.97	1088.21
843.29	1089.57
843.60	1090.39
843.92	1091.30
844.24	1088.89
844.55	1087.53
844.87	1084.91
845.18	1088.54
845.50	1090.95
845.82	1093.59
846.13	1097.90
846.45	1098.72
846.76	1093.73
847.08	1090.39
847.40	1086.41
847.71	1083.86
848.03	1082.45
848.34	1081.70
848.66	1082.99
848.97	1086.01
849.29	1082.52
849.60	1084.28
849.92	1081.96
850.24	1080.58
850.55	1077.47
850.87	1078.28
851.18	1074.56
851.50	1078.64
851.81	1078.89
852.13	1081.30
852.44	1084.74
852.76	1088.37
853.07	1088.86
853.39	1090.53
853.70	1090.34
854.01	1087.34
854.33	1088.30
854.64	1086.94
854.96	1086.48
855.27	1083.57
855.59	1083.27
855.90	1081.47
856.22	1081.49
856.53	1080.81
856.84	1085.38
857.16	1087.44
857.47	1087.83
857.79	1086.71
858.10	1086.87
858.41	1084.91
858.73	1087.13
859.04	1086.97
859.36	1089.00
859.67	1087.93
859.98	1086.69
860.30	1083.06
860.61	1083.50
860.92	1081.12
861.24	1082.45
861.55	1081.21
861.87	1080.48
862.18	1079.78
862.49	1081.42
862.81	1078.92
863.12	1079.36
863.43	1080.46
863.74	1083.71
864.06	1081.89
864.37	1087.06
864.68	1088.12
865.00	1089.61
865.31	1085.75
865.62	1083.60
865.94	1081.54
866.25	1084.63
866.56	1085.38
866.87	1084.86
867.19	1087.69
867.50	1087.67
867.81	1083.01
868.12	1080.39
868.44	1079.27
868.75	1078.61
869.06	1078.40
869.37	1079.71
869.68	1080.53
870.00	1081.05
870.31	1082.83
870.62	1082.38
870.93	1083.20
871.24	1085.82
871.56	1089.80
871.87	1089.71
872.18	1087.60
872.49	1086.73
872.80	1085.28
873.12	1084.00
873.43	1082.01
873.74	1082.24
874.05	1083.08
874.36	1083.18
874.67	1081.80
874.98	1081.96
875.29	1084.44
875.61	1084.28
875.92	1085.10
876.23	1085.91
876.54	1088.58
876.85	1088.42
877.16	1087.67
877.47	1087.02
877.78	1084.18
878.09	1081.70
878.40	1081.68
878.72	1079.88
879.03	1078.75
879.34	1081.35
879.65	1081.94
879.96	1081.80
880.27	1085.17
880.58	1085.24
880.89	1085.49
881.20	1086.76
881.51	1087.11
881.82	1086.83
882.13	1084.32
882.44	1083.79
882.75	1080.84
883.06	1080.95
883.37	1082.29
883.68	1084.65
883.99	1084.21
884.30	1087.53
884.61	1089.52
884.92	1087.53
885.23	1089.29
885.54	1086.29
885.85	1084.53
886.16	1083.57
886.47	1082.61
886.78	1081.54
887.08	1085.49
887.39	1082.36
887.70	1079.83
888.01	1079.41
888.32	1080.18
888.63	1076.69
888.94	1077.44
889.25	1077.75
889.56	1080.65
889.87	1080.67
890.17	1083.13
890.48	1084.67
890.79	1086.08
891.10	1084.25
891.41	1080.56
891.72	1080.27
892.03	1081.73
892.34	1080.91
892.64	1081.49
892.95	1082.99
893.26	1080.77
893.57	1081.33
893.88	1080.70
894.18	1077.37
894.49	1077.21
894.80	1081.02
895.11	1079.53
895.42	1079.38
895.72	1082.08
896.03	1083.20
896.34	1081.68
896.65	1081.58
896.96	1082.78
897.26	1084.84
897.57	1086.29
897.88	1088.42
898.19	1092.77
898.49	1092.45
898.80	1088.12
899.11	1087.02
899.41	1086.87
899.72	1082.43
900.03	1082.08
900.34	1081.98
900.64	1080.09
900.95	1077.35
901.26	1078.31
901.56	1079.78
901.87	1080.77
902.18	1080.77
902.48	1082.15
902.79	1080.58
903.10	1076.90
903.40	1077.35
903.71	1079.22
904.02	1078.64
904.32	1080.30
904.63	1081.12
904.94	1084.23
905.24	1082.50
905.55	1083.25
905.85	1085.75
906.16	1087.74
906.47	1086.90
906.77	1086.34
907.08	1085.35
907.38	1084.49
907.69	1085.77
908.00	1087.18
908.30	1087.53
908.61	1089.68
908.91	1088.68
909.22	1086.52
909.52	1082.85
909.83	1082.85
910.14	1081.47
910.44	1079.22
910.75	1076.41
911.05	1077.33
911.36	1078.31
911.66	1077.02
911.97	1075.97
912.27	1077.16
912.58	1076.65
912.88	1077.02
913.19	1076.44
913.49	1079.22
913.80	1080.72
914.10	1081.02
914.41	1082.22
914.71	1086.08
915.01	1082.85
915.32	1081.61
915.62	1084.60
915.93	1083.15
916.23	1078.82
916.54	1080.72
916.84	1083.48
917.15	1079.17
917.45	1079.27
917.75	1083.08
918.06	1082.36
918.36	1080.67
918.67	1083.88
918.97	1080.98
919.27	1081.09
919.58	1083.06
919.88	1085.19
920.18	1084.21
920.49	1086.34
920.79	1081.37
921.10	1080.34
921.40	1078.96
921.70	1079.60
922.01	1079.88
922.31	1083.43
922.61	1082.22
922.92	1082.69
923.22	1084.63
923.52	1082.61
923.82	1085.75
924.13	1086.69
924.43	1086.01
924.73	1083.06
925.04	1085.07
925.34	1081.96
925.64	1084.86
925.94	1084.42
926.25	1083.13
926.55	1086.83
926.85	1086.01
927.15	1086.31
927.46	1088.16
927.76	1088.37
928.06	1086.13
928.36	1087.04
928.67	1085.61
928.97	1085.63
929.27	1087.20
929.57	1084.51
929.87	1085.77
930.18	1085.68
930.48	1084.00
930.78	1084.21
931.08	1086.10
931.38	1081.61
931.69	1079.88
931.99	1079.69
932.29	1076.88
932.59	1076.58
932.89	1079.81
933.19	1080.74
933.49	1080.09
933.80	1081.09
934.10	1083.43
934.40	1082.17
934.70	1078.92
935.00	1078.24
935.30	1077.00
935.60	1074.40
935.90	1073.60
936.20	1076.86
936.50	1078.47
936.81	1079.81
937.11	1080.74
937.41	1081.23
937.71	1083.15
938.01	1080.39
938.31	1081.89
938.61	1082.38
938.91	1085.28
939.21	1080.11
939.51	1082.97
939.81	1081.61
940.11	1077.93
940.41	1076.65
940.71	1079.50
941.01	1081.63
941.31	1084.16
941.61	1088.72
941.91	1092.28
942.21	1092.66
942.51	1087.95
942.81	1087.81
943.11	1083.90
943.41	1080.11
943.71	1078.57
944.01	1082.83
944.31	1081.07
944.61	1083.15
944.90	1081.33
945.20	1084.77
945.50	1083.20
945.80	1083.27
946.10	1082.03
946.40	1081.58
946.70	1079.83
947.00	1079.78
947.30	1078.24
947.60	1083.29
947.89	1085.40
948.19	1084.02
948.49	1081.68
948.79	1084.18
949.09	1082.90
949.39	1084.77
949.69	1086.52
949.98	1087.13
950.28	1083.22
950.58	1080.86
950.88	1079.41
951.18	1078.71
951.48	1082.15
951.77	1084.51
952.07	1085.24
952.37	1083.13
952.67	1082.47
952.97	1079.95
953.26	1080.91
953.56	1080.67
953.86	1082.33
954.16	1083.83
954.45	1084.04
954.75	1082.66
955.05	1082.47
955.35	1081.84
955.64	1081.21
955.94	1082.87
956.24	1082.76
956.54	1081.40
956.83	1081.54
957.13	1079.22
957.43	1077.51
957.72	1077.11
958.02	1077.65
958.32	1077.72
958.61	1078.31
958.91	1077.70
959.21	1074.33
959.50	1075.66
959.80	1074.96
960.10	1073.25
960.39	1073.04
960.69	1076.25
960.99	1074.68
961.28	1074.77
961.58	1078.26
961.87	1077.63
962.17	1078.96
962.47	1078.45
962.76	1081.14
963.06	1081.02
963.36	1083.01
963.65	1082.71
963.95	1081.80
964.24	1082.94
964.54	1083.86
964.83	1082.71
965.13	1085.00
965.42	1086.66
965.72	1083.67
966.02	1081.73
966.31	1083.71
966.61	1082.71
966.90	1084.04
967.20	1084.46
967.49	1086.83
967.79	1086.73
968.08	1084.67
968.38	1082.99
968.67	1082.92
968.97	1084.32
969.26	1083.81
969.56	1085.75
969.85	1089.73
970.15	1090.74
970.44	1088.30
970.74	1089.26
971.03	1087.58
971.32	1086.24
971.62	1085.28
971.91	1085.26
972.21	1081.58
972.50	1082.10
972.80	1078.50
973.09	1078.71
973.38	1078.36
973.68	1082.24
973.97	1084.32
974.27	1084.35
974.56	1083.06
974.85	1082.78
975.15	1084.21
975.44	1079.27
975.73	1082.03
976.03	1081.33
976.32	1082.01
976.61	1077.91
976.91	1080.16
977.20	1077.91
977.49	1076.25
977.79	1075.57
978.08	1079.67
978.37	1080.32
978.67	1080.63
978.96	1083.79
979.25	1083.15
979.55	1077.11
979.84	1078.00
980.13	1077.75
980.42	1079.22
980.72	1079.34
981.01	1080.27
981.30	1079.62
981.59	1081.63
981.89	1083.08
982.18	1083.83
982.47	1085.99
982.76	1083.15
983.06	1082.43
983.35	1081.21
983.64	1081.19
983.93	1081.26
984.22	1085.89
984.52	1084.02
984.81	1083.43
985.10	1083.43
985.39	1086.08
985.68	1081.51
985.97	1083.32
986.27	1081.56
986.56	1082.47
986.85	1077.11
987.14	1078.89
987.43	1079.01
987.72	1076.04
988.01	1073.37
988.31	1074.75
988.60	1075.43
988.89	1073.14
989.18	1074.63
989.47	1072.50
989.76	1073.51
990.05	1076.53
990.34	1077.51
990.63	1079.95
990.92	1081.77
991.21	1084.25
991.51	1079.95
991.80	1081.70
992.09	1081.09
992.38	1082.85
992.67	1082.69
992.96	1085.63
993.25	1085.31
993.54	1084.46
993.83	1086.48
994.12	1085.89
994.41	1084.21
994.70	1082.40
994.99	1080.34
995.28	1080.51
995.57	1076.86
995.86	1080.25
996.15	1081.35
996.44	1083.11
996.73	1083.43
997.02	1087.37
997.31	1081.58
997.59	1079.57
997.88	1080.70
998.17	1078.52
998.46	1075.20
998.75	1078.59
999.04	1081.33
999.33	1082.71
999.62	1082.94
999.91	1084.46
1000.20	1087.09
1000.49	1086.62
1000.77	1082.57
1001.06	1080.95
1001.35	1078.68
1001.64	1074.73
1001.93	1071.66
1002.22	1073.56
1002.51	1075.34
1002.79	1078.38
1003.08	1080.60
1003.37	1084.18
1003.66	1083.06
1003.95	1082.73
1004.23	1081.07
1004.52	1078.50
1004.81	1079.10
1005.10	1081.70
1005.39	1080.41
1005.67	1080.39
1005.96	1081.33
1006.25	1079.38
1006.54	1080.65
1006.83	1081.26
1007.11	1082.57
1007.40	1082.87
1007.69	1081.40
1007.97	1080.16
1008.26	1081.75
1008.55	1079.50
1008.84	1080.39
1009.12	1079.36
1009.41	1079.90
1009.70	1080.11
1009.98	1080.65
1010.27	1076.86
1010.56	1084.28
1010.85	1081.30
1011.13	1080.13
1011.42	1081.66
1011.71	1084.56
1011.99	1082.31
1012.28	1082.61
1012.56	1082.69
1012.85	1083.67
1013.14	1087.41
1013.42	1088.02
1013.71	1090.64
1014.00	1091.98
1014.28	1092.96
1014.57	1091.27
1014.85	1089.59
1015.14	1088.49
1015.43	1086.73
1015.71	1083.36
1016.00	1084.37
1016.28	1083.64
1016.57	1082.01
1016.85	1081.68
1017.14	1081.68
1017.43	1077.98
1017.71	1077.47
1018.00	1079.97
1018.28	1080.51
1018.57	1081.54
1018.85	1083.41
1019.14	1086.66
1019.42	1087.09
1019.71	1085.54
1019.99	1087.09
1020.28	1085.70
1020.56	1082.19
1020.85	1082.69
1021.13	1083.95
1021.42	1081.82
1021.70	1081.47
1021.99	1083.20
1022.27	1081.98
1022.55	1087.41
1022.84	1084.25
>>>>>End Processed Spectral Data<<<<<
