SpectraSuite Data File
++++++++++++++++++++++++++++++++++++
Date: Mon Aug 26 10:26:01 PDT 2019
User: corrico
Dark Spectrum Present: No
Reference Spectrum Present: No
Number of Sampled Component Spectra: 1
Spectrometers: USB2+H06089
Integration Time (usec): 10000 (USB2+H06089)
Spectra Averaged: 2 (USB2+H06089)
Boxcar Smoothing: 2 (USB2+H06089)
Correct for Electrical Dark: No (USB2+H06089)
Strobe/Lamp Enabled: No (USB2+H06089)
Correct for Detector Non-linearity: No (USB2+H06089)
Correct for Stray Light: No (USB2+H06089)
Number of Pixels in Processed Spectrum: 2048
>>>>>Begin Processed Spectral Data<<<<<
339.70	1032.18
340.07	1032.18
340.45	986.30
340.82	962.43
341.19	935.04
341.57	906.96
341.94	909.30
342.31	902.04
342.69	893.15
343.06	895.25
343.43	895.02
343.81	887.53
344.18	886.36
344.55	892.91
344.93	896.19
345.30	904.15
345.67	918.89
346.04	926.62
346.42	936.21
346.79	943.00
347.16	952.13
347.54	962.19
347.91	969.92
348.28	979.75
348.65	998.47
349.03	996.37
349.40	1000.81
349.77	1018.13
350.14	1024.45
350.52	1020.47
350.89	1031.47
351.26	1032.41
351.63	1041.54
352.01	1052.54
352.38	1061.43
352.75	1067.28
353.12	1078.75
353.50	1072.90
353.87	1074.07
354.24	1082.50
354.61	1089.29
354.98	1084.84
355.36	1088.58
355.73	1082.26
356.10	1080.86
356.47	1089.05
356.84	1099.35
357.22	1101.69
357.59	1105.90
357.96	1099.82
358.33	1084.60
358.70	1070.09
359.08	1066.82
359.45	1065.18
359.82	1074.31
360.19	1075.01
360.56	1090.22
360.94	1091.39
361.31	1096.31
361.68	1085.07
362.05	1088.35
362.42	1076.41
362.79	1067.52
363.16	1063.54
363.54	1066.35
363.91	1055.35
364.28	1064.01
364.65	1070.09
365.02	1070.33
365.39	1066.58
365.76	1075.01
366.14	1063.77
366.51	1060.96
366.88	1055.82
367.25	1044.11
367.62	1043.41
367.99	1050.43
368.36	1049.73
368.73	1053.48
369.10	1064.71
369.48	1073.84
369.85	1071.73
370.22	1080.16
370.59	1078.28
370.96	1084.84
371.33	1086.01
371.70	1083.20
372.07	1086.24
372.44	1089.05
372.81	1080.86
373.18	1069.16
373.55	1080.16
373.93	1070.80
374.30	1075.01
374.67	1071.97
375.04	1071.97
375.41	1064.24
375.78	1065.18
376.15	1060.73
376.52	1074.07
376.89	1076.65
377.26	1073.60
377.63	1081.33
378.00	1076.18
378.37	1069.62
378.74	1069.39
379.11	1077.35
379.48	1066.35
379.85	1071.26
380.22	1067.05
380.59	1071.73
380.96	1068.92
381.33	1073.14
381.70	1067.75
382.07	1071.03
382.44	1079.22
382.81	1083.43
383.18	1079.92
383.55	1084.14
383.92	1073.60
384.29	1072.20
384.66	1060.03
385.03	1067.05
385.40	1068.69
385.77	1083.67
386.14	1071.50
386.51	1080.16
386.88	1066.58
387.25	1067.75
387.62	1075.01
387.99	1081.09
388.36	1080.86
388.73	1087.18
389.10	1089.52
389.46	1084.84
389.83	1078.99
390.20	1073.37
390.57	1078.75
390.94	1061.43
391.31	1058.86
391.68	1064.94
392.05	1063.54
392.42	1067.99
392.79	1083.90
393.16	1081.09
393.53	1077.11
393.89	1072.90
394.26	1069.86
394.63	1067.05
395.00	1068.22
395.37	1070.33
395.74	1071.03
396.11	1067.99
396.48	1070.33
396.84	1080.63
397.21	1081.33
397.58	1086.24
397.95	1085.31
398.32	1072.20
398.69	1064.48
399.06	1063.31
399.42	1061.20
399.79	1062.60
400.16	1074.77
400.53	1066.35
400.90	1063.07
401.27	1074.31
401.64	1071.50
402.00	1074.07
402.37	1084.84
402.74	1094.67
403.11	1088.12
403.48	1084.37
403.84	1078.99
404.21	1073.37
404.58	1065.18
404.95	1066.82
405.32	1073.60
405.68	1076.65
406.05	1078.05
406.42	1076.65
406.79	1066.35
407.16	1067.75
407.52	1067.52
407.89	1068.45
408.26	1079.46
408.63	1093.73
408.99	1100.05
409.36	1102.63
409.73	1097.71
410.10	1084.60
410.47	1076.18
410.83	1066.82
411.20	1060.03
411.57	1053.94
411.94	1057.45
412.30	1056.75
412.67	1055.35
413.04	1052.30
413.40	1057.69
413.77	1059.09
414.14	1058.62
414.51	1058.62
414.87	1058.39
415.24	1058.62
415.61	1063.31
415.97	1063.54
416.34	1066.58
416.71	1071.03
417.08	1080.16
417.44	1077.82
417.81	1080.16
418.18	1082.73
418.54	1083.67
418.91	1071.97
419.28	1067.52
419.64	1078.28
420.01	1067.99
420.38	1067.52
420.74	1074.31
421.11	1071.50
421.48	1063.31
421.84	1067.28
422.21	1068.45
422.58	1064.71
422.94	1076.88
423.31	1077.58
423.68	1084.14
424.04	1084.84
424.41	1086.48
424.77	1083.43
425.14	1082.73
425.51	1083.43
425.87	1097.01
426.24	1094.67
426.61	1086.48
426.97	1083.67
427.34	1077.58
427.70	1070.80
428.07	1075.24
428.44	1081.80
428.80	1088.12
429.17	1082.26
429.53	1079.46
429.90	1071.03
430.27	1073.37
430.63	1061.43
431.00	1059.33
431.36	1056.52
431.73	1060.50
432.09	1056.05
432.46	1072.43
432.83	1084.14
433.19	1079.92
433.56	1080.63
433.92	1073.60
434.29	1066.11
434.65	1067.05
435.02	1069.39
435.38	1069.86
435.75	1076.88
436.11	1082.97
436.48	1085.31
436.84	1087.65
437.21	1084.37
437.57	1078.99
437.94	1074.07
438.30	1074.07
438.67	1078.99
439.03	1084.60
439.40	1088.58
439.76	1084.60
440.13	1075.01
440.49	1064.71
440.86	1061.20
441.22	1070.80
441.59	1072.20
441.95	1079.46
442.32	1082.73
442.68	1082.50
443.05	1082.50
443.41	1086.01
443.78	1084.37
444.14	1093.26
444.51	1093.50
444.87	1086.94
445.24	1085.54
445.60	1086.24
445.96	1086.01
446.33	1092.33
446.69	1089.75
447.06	1091.86
447.42	1093.26
447.79	1090.22
448.15	1083.67
448.51	1088.58
448.88	1092.33
449.24	1083.90
449.61	1082.26
449.97	1086.24
450.33	1085.77
450.70	1077.35
451.06	1094.43
451.43	1091.63
451.79	1084.84
452.15	1087.65
452.52	1085.54
452.88	1067.05
453.24	1075.24
453.61	1078.99
453.97	1074.54
454.34	1075.48
454.70	1077.11
455.06	1070.09
455.43	1067.99
455.79	1067.75
456.15	1070.09
456.52	1071.50
456.88	1069.62
457.24	1086.94
457.61	1088.82
457.97	1094.43
458.33	1108.24
458.70	1107.54
459.06	1092.09
459.42	1087.18
459.79	1077.11
460.15	1060.73
460.51	1068.69
460.88	1067.99
461.24	1069.16
461.60	1078.52
461.96	1092.09
462.33	1085.54
462.69	1097.24
463.05	1101.46
463.42	1101.69
463.78	1090.92
464.14	1097.48
464.50	1089.99
464.87	1093.03
465.23	1089.05
465.59	1087.88
465.95	1080.16
466.32	1076.65
466.68	1076.88
467.04	1077.58
467.40	1075.48
467.77	1070.56
468.13	1069.39
468.49	1065.65
468.85	1067.99
469.22	1072.67
469.58	1086.01
469.94	1094.90
470.30	1086.94
470.66	1079.69
471.03	1071.73
471.39	1068.45
471.75	1063.07
472.11	1073.60
472.47	1072.67
472.84	1086.24
473.20	1070.80
473.56	1069.62
473.92	1070.56
474.28	1063.54
474.65	1055.82
475.01	1067.28
475.37	1058.86
475.73	1051.60
476.09	1059.09
476.45	1066.35
476.81	1077.35
477.18	1087.18
477.54	1097.71
477.90	1101.69
478.26	1100.52
478.62	1091.39
478.98	1090.46
479.34	1095.84
479.71	1096.78
480.07	1098.41
480.43	1098.41
480.79	1097.95
481.15	1084.84
481.51	1084.37
481.87	1083.43
482.23	1079.46
482.59	1083.43
482.96	1080.16
483.32	1084.60
483.68	1082.73
484.04	1084.60
484.40	1090.22
484.76	1091.63
485.12	1089.99
485.48	1085.54
485.84	1089.99
486.20	1081.56
486.56	1089.05
486.92	1086.24
487.28	1087.88
487.64	1089.29
488.00	1090.69
488.37	1088.58
488.73	1088.12
489.09	1087.41
489.45	1082.73
489.81	1082.97
490.17	1077.11
490.53	1072.43
490.89	1076.18
491.25	1077.11
491.61	1075.71
491.97	1083.43
492.33	1090.22
492.69	1086.01
493.05	1085.54
493.41	1079.22
493.77	1068.92
494.13	1070.33
494.49	1073.84
494.85	1082.03
495.21	1090.22
495.57	1093.73
495.93	1091.86
496.29	1098.41
496.64	1101.22
497.00	1100.99
497.36	1098.18
497.72	1093.50
498.08	1085.54
498.44	1077.11
498.80	1080.63
499.16	1079.92
499.52	1083.90
499.88	1088.35
500.24	1085.77
500.60	1081.56
500.96	1084.14
501.32	1096.78
501.68	1089.29
502.03	1083.43
502.39	1084.37
502.75	1087.41
503.11	1072.90
503.47	1072.20
503.83	1081.09
504.19	1094.67
504.55	1086.71
504.91	1089.99
505.26	1099.58
505.62	1098.18
505.98	1085.07
506.34	1094.43
506.70	1088.58
507.06	1082.97
507.42	1086.71
507.78	1091.86
508.13	1098.41
508.49	1104.50
508.85	1109.88
509.21	1109.41
509.57	1107.54
509.93	1106.61
510.28	1115.27
510.64	1108.95
511.00	1101.22
511.36	1097.48
511.72	1097.01
512.07	1099.35
512.43	1109.65
512.79	1114.56
513.15	1114.56
513.51	1107.07
513.86	1101.22
514.22	1093.73
514.58	1096.54
514.94	1096.78
515.30	1099.58
515.65	1093.03
516.01	1093.26
516.37	1082.73
516.73	1084.60
517.08	1081.09
517.44	1081.09
517.80	1092.09
518.16	1099.58
518.51	1099.12
518.87	1100.99
519.23	1113.16
519.59	1110.58
519.94	1122.75
520.30	1127.20
520.66	1131.18
521.01	1121.12
521.37	1115.97
521.73	1104.97
522.09	1099.82
522.44	1092.56
522.80	1095.14
523.16	1097.95
523.51	1098.88
523.87	1098.18
524.23	1096.07
524.58	1098.41
524.94	1100.75
525.30	1104.03
525.65	1109.41
526.01	1123.46
526.37	1115.27
526.72	1103.56
527.08	1096.54
527.44	1099.35
527.79	1085.07
528.15	1084.14
528.51	1090.22
528.86	1090.22
529.22	1087.65
529.58	1093.03
529.93	1101.22
530.29	1108.71
530.65	1105.90
531.00	1105.44
531.36	1116.20
531.71	1116.67
532.07	1103.80
532.43	1114.56
532.78	1104.73
533.14	1093.97
533.49	1088.82
533.85	1095.60
534.21	1089.29
534.56	1091.39
534.92	1087.65
535.27	1087.41
535.63	1080.86
535.98	1081.56
536.34	1086.48
536.69	1080.86
537.05	1083.20
537.41	1091.63
537.76	1081.56
538.12	1071.26
538.47	1088.12
538.83	1081.56
539.18	1070.80
539.54	1081.33
539.89	1086.48
540.25	1080.16
540.60	1088.82
540.96	1085.77
541.31	1086.01
541.67	1089.29
542.02	1085.77
542.38	1084.60
542.73	1086.01
543.09	1086.48
543.44	1085.07
543.80	1086.48
544.15	1080.39
544.51	1081.09
544.86	1083.43
545.22	1085.54
545.57	1088.58
545.93	1096.54
546.28	1109.65
546.64	1102.39
546.99	1101.69
547.35	1102.86
547.70	1100.75
548.05	1090.92
548.41	1089.29
548.76	1083.90
549.12	1082.73
549.47	1076.88
549.83	1082.26
550.18	1087.88
550.53	1092.56
550.89	1092.09
551.24	1095.14
551.60	1088.82
551.95	1088.35
552.30	1090.46
552.66	1089.75
553.01	1090.69
553.37	1103.09
553.72	1101.46
554.07	1097.24
554.43	1100.29
554.78	1103.80
555.13	1095.14
555.49	1098.88
555.84	1098.41
556.19	1088.12
556.55	1078.28
556.90	1075.94
557.26	1073.60
557.61	1077.11
557.96	1077.11
558.32	1076.18
558.67	1086.94
559.02	1084.14
559.37	1091.63
559.73	1094.43
560.08	1097.95
560.43	1089.05
560.79	1091.63
561.14	1083.20
561.49	1082.97
561.85	1078.99
562.20	1070.33
562.55	1063.31
562.90	1067.28
563.26	1072.20
563.61	1069.39
563.96	1081.56
564.32	1088.12
564.67	1082.03
565.02	1084.14
565.37	1101.22
565.73	1103.33
566.08	1110.12
566.43	1109.88
566.78	1111.29
567.14	1095.14
567.49	1085.77
567.84	1081.80
568.19	1075.01
568.54	1076.65
568.90	1093.03
569.25	1104.26
569.60	1096.07
569.95	1107.31
570.31	1100.05
570.66	1097.48
571.01	1085.07
571.36	1093.03
571.71	1081.56
572.06	1073.37
572.42	1061.67
572.77	1060.26
573.12	1052.30
573.47	1063.77
573.82	1071.03
574.18	1069.39
574.53	1078.52
574.88	1078.28
575.23	1071.73
575.58	1066.82
575.93	1064.48
576.28	1070.33
576.64	1078.52
576.99	1079.46
577.34	1089.05
577.69	1102.63
578.04	1090.92
578.39	1092.33
578.74	1084.60
579.09	1077.82
579.44	1065.65
579.80	1068.22
580.15	1057.69
580.50	1074.31
580.85	1083.67
581.20	1095.37
581.55	1097.01
581.90	1114.80
582.25	1116.67
582.60	1112.92
582.95	1098.18
583.30	1102.63
583.65	1089.05
584.00	1078.28
584.35	1079.22
584.71	1090.46
585.06	1087.18
585.41	1089.52
585.76	1086.71
586.11	1087.88
586.46	1087.65
586.81	1092.80
587.16	1091.86
587.51	1098.41
587.86	1090.92
588.21	1084.37
588.56	1073.14
588.91	1063.54
589.26	1056.75
589.61	1055.58
589.96	1054.41
590.31	1055.35
590.66	1058.86
591.01	1065.88
591.36	1069.86
591.71	1069.39
592.06	1073.60
592.41	1076.18
592.76	1075.94
593.10	1064.48
593.45	1072.43
593.80	1073.60
594.15	1081.33
594.50	1086.71
594.85	1095.37
595.20	1091.16
595.55	1093.50
595.90	1089.05
596.25	1086.71
596.60	1080.39
596.95	1069.62
597.30	1061.20
597.64	1107.78
597.99	1110.58
598.34	1115.50
598.69	1129.78
599.04	1133.99
599.39	1092.56
599.74	1089.99
600.09	1083.90
600.44	1086.01
600.78	1076.65
601.13	1075.71
601.48	1082.97
601.83	1101.46
602.18	1109.88
602.53	1126.73
602.88	1130.01
603.22	1124.63
603.57	1112.22
603.92	1101.92
604.27	1093.97
604.62	1088.12
604.97	1087.65
605.31	1094.90
605.66	1084.60
606.01	1090.69
606.36	1091.63
606.71	1089.05
607.05	1086.01
607.40	1099.82
607.75	1090.46
608.10	1091.39
608.44	1090.69
608.79	1092.56
609.14	1088.35
609.49	1093.26
609.84	1098.88
610.18	1102.86
610.53	1103.80
610.88	1098.18
611.23	1101.69
611.57	1093.03
611.92	1089.29
612.27	1081.33
612.62	1090.46
612.96	1083.67
613.31	1082.50
613.66	1078.75
614.00	1088.12
614.35	1092.09
614.70	1096.07
615.05	1089.52
615.39	1089.52
615.74	1078.99
616.09	1071.26
616.43	1068.92
616.78	1080.16
617.13	1082.26
617.47	1078.05
617.82	1079.22
618.17	1082.03
618.51	1086.48
618.86	1090.92
619.21	1107.07
619.55	1111.52
619.90	1112.46
620.25	1096.54
620.59	1092.56
620.94	1083.20
621.29	1081.33
621.63	1076.65
621.98	1081.33
622.32	1086.24
622.67	1087.41
623.02	1081.56
623.36	1078.75
623.71	1080.16
624.05	1070.09
624.40	1072.67
624.75	1078.52
625.09	1088.82
625.44	1097.95
625.78	1105.90
626.13	1104.03
626.48	1104.73
626.82	1103.80
627.17	1088.82
627.51	1085.07
627.86	1093.97
628.20	1090.46
628.55	1083.67
628.89	1090.69
629.24	1092.33
629.58	1081.80
629.93	1076.65
630.28	1075.71
630.62	1071.73
630.97	1075.71
631.31	1075.71
631.66	1083.20
632.00	1087.88
632.35	1103.09
632.69	1097.48
633.04	1097.24
633.38	1092.09
633.73	1089.05
634.07	1075.24
634.42	1074.54
634.76	1081.09
635.11	1079.92
635.45	1083.67
635.79	1087.88
636.14	1088.35
636.48	1074.31
636.83	1086.24
637.17	1090.46
637.52	1084.14
637.86	1076.18
638.21	1088.58
638.55	1071.50
638.89	1063.77
639.24	1074.54
639.58	1085.07
639.93	1080.39
640.27	1082.97
640.61	1082.50
640.96	1076.88
641.30	1074.31
641.65	1071.97
641.99	1082.50
642.33	1086.01
642.68	1081.56
643.02	1083.67
643.37	1083.90
643.71	1080.86
644.05	1083.90
644.40	1083.67
644.74	1084.14
645.08	1099.12
645.43	1096.31
645.77	1094.20
646.11	1098.88
646.46	1083.43
646.80	1079.92
647.14	1081.56
647.49	1077.11
647.83	1077.82
648.17	1084.14
648.52	1071.03
648.86	1070.80
649.20	1073.60
649.55	1061.43
649.89	1064.01
650.23	1069.16
650.57	1063.31
650.92	1061.20
651.26	1066.11
651.60	1076.88
651.95	1067.99
652.29	1064.24
652.63	1055.82
652.97	1060.50
653.32	1055.11
653.66	1070.80
654.00	1086.71
654.34	1089.75
654.69	1092.33
655.03	1100.75
655.37	1096.07
655.71	1092.80
656.05	1095.14
656.40	1093.50
656.74	1085.77
657.08	1086.24
657.42	1085.54
657.76	1093.50
658.11	1091.86
658.45	1087.18
658.79	1085.07
659.13	1078.52
659.47	1060.26
659.82	1061.43
660.16	1063.31
660.50	1072.90
660.84	1080.39
661.18	1093.26
661.52	1098.65
661.87	1105.90
662.21	1096.54
662.55	1093.97
662.89	1096.31
663.23	1089.75
663.57	1086.48
663.91	1087.41
664.25	1082.26
664.60	1077.58
664.94	1084.84
665.28	1076.41
665.62	1076.88
665.96	1080.39
666.30	1081.56
666.64	1066.35
666.98	1064.01
667.32	1058.86
667.66	1051.13
668.01	1051.13
668.35	1059.09
668.69	1060.03
669.03	1061.67
669.37	1076.18
669.71	1071.97
670.05	1074.77
670.39	1074.07
670.73	1086.48
671.07	1092.80
671.41	1094.43
671.75	1086.48
672.09	1081.33
672.43	1071.26
672.77	1061.20
673.11	1068.22
673.45	1076.65
673.79	1089.75
674.13	1086.01
674.47	1071.97
674.81	1065.88
675.15	1057.92
675.49	1054.88
675.83	1054.41
676.17	1057.22
676.51	1056.28
676.85	1062.14
677.19	1064.01
677.53	1069.16
677.87	1084.37
678.21	1087.65
678.55	1086.01
678.89	1092.09
679.23	1085.07
679.57	1083.90
679.90	1081.33
680.24	1073.37
680.58	1068.22
680.92	1074.07
681.26	1064.24
681.60	1071.26
681.94	1079.22
682.28	1075.01
682.62	1078.52
682.96	1088.12
683.29	1081.56
683.63	1085.31
683.97	1085.77
684.31	1072.20
684.65	1071.26
684.99	1078.75
685.33	1075.24
685.67	1077.82
686.00	1091.16
686.34	1093.03
686.68	1092.33
687.02	1093.50
687.36	1098.18
687.70	1098.65
688.03	1093.97
688.37	1092.33
688.71	1082.73
689.05	1079.92
689.39	1071.50
689.72	1080.39
690.06	1082.26
690.40	1091.39
690.74	1094.20
691.08	1103.33
691.41	1099.12
691.75	1094.43
692.09	1101.46
692.43	1097.24
692.76	1092.80
693.10	1089.05
693.44	1092.80
693.78	1090.22
694.11	1091.86
694.45	1086.71
694.79	1089.52
695.13	1083.20
695.46	1073.14
695.80	1078.05
696.14	1080.63
696.48	1084.84
696.81	1091.63
697.15	1093.97
697.49	1087.18
697.82	1091.16
698.16	1082.26
698.50	1075.24
698.83	1081.56
699.17	1077.58
699.51	1076.41
699.84	1075.71
700.18	1086.94
700.52	1083.43
700.85	1094.43
701.19	1088.35
701.53	1081.80
701.86	1075.01
702.20	1083.90
702.54	1069.39
702.87	1076.18
703.21	1088.58
703.55	1078.99
703.88	1069.39
704.22	1069.86
704.55	1072.90
704.89	1058.86
705.23	1067.52
705.56	1079.22
705.90	1086.71
706.23	1082.03
706.57	1088.12
706.91	1087.41
707.24	1072.20
707.58	1064.71
707.91	1062.60
708.25	1070.09
708.58	1077.35
708.92	1083.43
709.26	1091.39
709.59	1092.56
709.93	1092.33
710.26	1080.86
710.60	1081.09
710.93	1078.28
711.27	1074.77
711.60	1072.43
711.94	1079.22
712.27	1077.82
712.61	1080.39
712.94	1086.01
713.28	1074.54
713.61	1070.09
713.95	1075.24
714.28	1073.84
714.62	1075.94
714.95	1076.88
715.29	1081.80
715.62	1077.82
715.96	1075.01
716.29	1076.65
716.63	1084.84
716.96	1074.31
717.29	1077.82
717.63	1075.48
717.96	1066.11
718.30	1068.22
718.63	1086.01
718.97	1087.18
719.30	1092.80
719.63	1104.50
719.97	1104.26
720.30	1090.69
720.64	1083.67
720.97	1093.50
721.30	1083.67
721.64	1078.75
721.97	1092.33
722.31	1100.05
722.64	1086.48
722.97	1084.37
723.31	1076.65
723.64	1065.65
723.97	1059.79
724.31	1066.35
724.64	1078.75
724.98	1083.43
725.31	1089.99
725.64	1087.18
725.98	1082.73
726.31	1079.22
726.64	1083.20
726.97	1090.46
727.31	1102.63
727.64	1106.61
727.97	1107.07
728.31	1113.63
728.64	1109.88
728.97	1095.60
729.31	1093.03
729.64	1091.86
729.97	1085.07
730.30	1077.82
730.64	1084.14
730.97	1086.71
731.30	1094.90
731.63	1093.03
731.97	1091.63
732.30	1087.65
732.63	1078.28
732.96	1066.82
733.30	1073.37
733.63	1071.03
733.96	1066.35
734.29	1079.22
734.63	1078.52
734.96	1082.03
735.29	1090.92
735.62	1098.65
735.95	1095.84
736.29	1099.82
736.62	1090.22
736.95	1082.26
737.28	1078.75
737.61	1078.05
737.94	1075.94
738.28	1069.62
738.61	1072.90
738.94	1075.94
739.27	1067.05
739.60	1070.56
739.93	1081.80
740.27	1085.77
740.60	1091.63
740.93	1097.71
741.26	1085.54
741.59	1082.50
741.92	1072.20
742.25	1061.90
742.58	1065.41
742.91	1074.54
743.25	1067.05
743.58	1068.92
743.91	1078.52
744.24	1077.35
744.57	1076.18
744.90	1089.75
745.23	1095.14
745.56	1088.35
745.89	1080.39
746.22	1069.62
746.55	1065.18
746.88	1062.14
747.21	1063.77
747.54	1064.71
747.87	1075.24
748.20	1072.20
748.53	1063.07
748.87	1063.31
749.20	1071.97
749.53	1079.69
749.86	1086.01
750.19	1086.01
750.52	1082.73
750.85	1075.24
751.18	1071.73
751.51	1060.73
751.84	1066.11
752.16	1078.05
752.49	1075.48
752.82	1072.20
753.15	1078.52
753.48	1087.18
753.81	1077.35
754.14	1090.46
754.47	1089.75
754.80	1102.39
755.13	1094.90
755.46	1099.82
755.79	1088.12
756.12	1091.63
756.45	1081.09
756.78	1086.71
757.11	1080.16
757.43	1081.56
757.76	1088.35
758.09	1087.65
758.42	1076.41
758.75	1076.41
759.08	1078.05
759.41	1069.86
759.74	1071.73
760.07	1075.71
760.39	1075.24
760.72	1080.39
761.05	1079.46
761.38	1073.37
761.71	1080.86
762.04	1079.92
762.36	1070.80
762.69	1075.48
763.02	1080.16
763.35	1083.43
763.68	1089.75
764.01	1093.97
764.33	1083.67
764.66	1079.46
764.99	1076.88
765.32	1080.16
765.65	1073.14
765.97	1077.11
766.30	1089.29
766.63	1088.12
766.96	1085.07
767.28	1089.05
767.61	1093.50
767.94	1084.14
768.27	1086.24
768.59	1086.48
768.92	1089.29
769.25	1084.60
769.58	1084.37
769.90	1074.54
770.23	1070.09
770.56	1075.01
770.89	1083.90
771.21	1091.16
771.54	1093.50
771.87	1093.97
772.19	1081.80
772.52	1077.58
772.85	1076.41
773.17	1082.73
773.50	1077.35
773.83	1090.46
774.15	1079.22
774.48	1075.48
774.81	1068.45
775.13	1080.16
775.46	1073.37
775.79	1079.46
776.11	1081.80
776.44	1091.39
776.77	1078.28
777.09	1082.26
777.42	1086.48
777.74	1091.16
778.07	1087.18
778.40	1088.12
778.72	1097.48
779.05	1089.99
779.37	1089.52
779.70	1082.50
780.03	1086.48
780.35	1076.88
780.68	1087.41
781.00	1085.54
781.33	1089.05
781.65	1102.86
781.98	1100.52
782.31	1089.52
782.63	1086.48
782.96	1095.14
783.28	1081.56
783.61	1081.80
783.93	1086.71
784.26	1077.35
784.58	1079.69
784.91	1075.94
785.23	1070.80
785.56	1070.80
785.88	1071.97
786.21	1071.73
786.53	1078.28
786.86	1076.41
787.18	1078.28
787.51	1072.90
787.83	1069.86
788.16	1070.56
788.48	1072.43
788.81	1062.84
789.13	1076.88
789.46	1071.26
789.78	1062.37
790.10	1065.88
790.43	1072.67
790.75	1074.07
791.08	1073.84
791.40	1082.73
791.73	1095.60
792.05	1099.58
792.37	1097.01
792.70	1100.75
793.02	1104.26
793.35	1094.90
793.67	1092.56
793.99	1082.50
794.32	1071.73
794.64	1074.54
794.96	1075.48
795.29	1073.14
795.61	1090.92
795.93	1100.05
796.26	1090.22
796.58	1079.92
796.91	1083.20
797.23	1077.82
797.55	1075.71
797.87	1085.31
798.20	1083.20
798.52	1078.05
798.84	1066.58
799.17	1067.75
799.49	1064.48
799.81	1067.52
800.14	1077.35
800.46	1088.35
800.78	1090.46
801.10	1087.18
801.43	1093.73
801.75	1088.82
802.07	1090.46
802.40	1088.82
802.72	1091.16
803.04	1092.09
803.36	1089.52
803.69	1084.60
804.01	1087.65
804.33	1087.65
804.65	1081.09
804.97	1082.97
805.30	1084.84
805.62	1080.39
805.94	1082.03
806.26	1094.20
806.58	1095.37
806.91	1090.69
807.23	1091.63
807.55	1087.41
807.87	1075.94
808.19	1076.88
808.52	1081.33
808.84	1085.77
809.16	1084.60
809.48	1084.60
809.80	1079.22
810.12	1083.90
810.44	1075.94
810.77	1084.60
811.09	1097.01
811.41	1103.56
811.73	1102.86
812.05	1105.90
812.37	1098.88
812.69	1094.43
813.01	1102.16
813.33	1096.07
813.66	1093.73
813.98	1095.84
814.30	1093.97
814.62	1087.88
814.94	1090.22
815.26	1088.35
815.58	1090.22
815.90	1090.92
816.22	1085.07
816.54	1081.33
816.86	1082.26
817.18	1071.26
817.50	1068.69
817.82	1068.45
818.14	1067.99
818.46	1068.45
818.78	1078.99
819.10	1075.71
819.42	1082.73
819.74	1089.05
820.06	1088.35
820.38	1084.84
820.70	1093.97
821.02	1092.33
821.34	1078.28
821.66	1081.80
821.98	1081.09
822.30	1081.56
822.62	1076.65
822.94	1092.80
823.26	1095.84
823.58	1097.24
823.90	1095.37
824.22	1097.71
824.54	1087.18
824.86	1080.63
825.18	1070.33
825.50	1065.18
825.81	1063.31
826.13	1056.05
826.45	1064.71
826.77	1069.86
827.09	1076.18
827.41	1078.75
827.73	1094.67
828.05	1086.94
828.36	1082.97
828.68	1067.99
829.00	1064.94
829.32	1058.16
829.64	1062.84
829.96	1072.20
830.28	1082.03
830.59	1074.77
830.91	1078.52
831.23	1070.80
831.55	1060.50
831.87	1064.01
832.19	1064.94
832.50	1064.94
832.82	1060.96
833.14	1067.28
833.46	1066.11
833.78	1068.92
834.09	1067.75
834.41	1085.54
834.73	1088.58
835.05	1092.80
835.36	1096.54
835.68	1097.48
836.00	1077.82
836.32	1078.52
836.63	1074.07
836.95	1069.16
837.27	1063.54
837.59	1071.50
837.90	1072.20
838.22	1077.11
838.54	1083.43
838.85	1082.97
839.17	1085.07
839.49	1082.50
839.80	1070.56
840.12	1068.69
840.44	1077.11
840.76	1069.86
841.07	1075.71
841.39	1082.97
841.71	1082.50
842.02	1082.26
842.34	1091.16
842.65	1093.73
842.97	1093.03
843.29	1092.80
843.60	1086.94
843.92	1081.09
844.24	1074.77
844.55	1072.20
844.87	1070.56
845.18	1077.58
845.50	1076.18
845.82	1078.28
846.13	1078.28
846.45	1080.86
846.76	1083.90
847.08	1093.03
847.40	1096.54
847.71	1105.44
848.03	1098.88
848.34	1091.39
848.66	1089.99
848.97	1075.94
849.29	1075.01
849.60	1080.16
849.92	1085.77
850.24	1082.73
850.55	1077.35
850.87	1074.07
851.18	1082.50
851.50	1073.84
851.81	1076.41
852.13	1096.78
852.44	1097.01
852.76	1093.03
853.07	1097.71
853.39	1100.99
853.70	1093.26
854.01	1089.29
854.33	1083.67
854.64	1074.31
854.96	1076.41
855.27	1076.65
855.59	1078.28
855.90	1080.86
856.22	1081.80
856.53	1083.20
856.84	1075.48
857.16	1072.90
857.47	1073.37
857.79	1080.39
858.10	1073.14
858.41	1084.14
858.73	1083.67
859.04	1080.39
859.36	1078.75
859.67	1075.01
859.98	1069.86
860.30	1075.71
860.61	1089.29
860.92	1093.97
861.24	1089.29
861.55	1092.56
861.87	1099.82
862.18	1092.56
862.49	1091.86
862.81	1097.24
863.12	1098.18
863.43	1082.97
863.74	1082.97
864.06	1078.75
864.37	1083.90
864.68	1072.67
865.00	1078.05
865.31	1066.82
865.62	1062.84
865.94	1058.62
866.25	1073.84
866.56	1073.84
866.87	1079.92
867.19	1095.60
867.50	1084.84
867.81	1081.33
868.12	1085.54
868.44	1091.63
868.75	1078.75
869.06	1095.14
869.37	1091.86
869.68	1094.43
870.00	1088.12
870.31	1086.71
870.62	1084.84
870.93	1080.39
871.24	1071.26
871.56	1073.60
871.87	1078.99
872.18	1081.09
872.49	1082.97
872.80	1081.33
873.12	1087.65
873.43	1088.58
873.74	1083.43
874.05	1080.39
874.36	1083.43
874.67	1080.86
874.98	1086.94
875.29	1098.65
875.61	1110.12
875.92	1109.65
876.23	1101.46
876.54	1096.07
876.85	1089.99
877.16	1084.84
877.47	1090.46
877.78	1092.80
878.09	1090.69
878.40	1088.58
878.72	1089.29
879.03	1078.75
879.34	1083.43
879.65	1082.50
879.96	1077.11
880.27	1069.86
880.58	1080.16
880.89	1075.48
881.20	1079.22
881.51	1068.92
881.82	1067.75
882.13	1067.75
882.44	1065.41
882.75	1063.54
883.06	1073.84
883.37	1080.86
883.68	1072.20
883.99	1072.90
884.30	1072.43
884.61	1074.31
884.92	1064.94
885.23	1072.90
885.54	1081.80
885.85	1076.88
886.16	1082.03
886.47	1086.24
886.78	1078.28
887.08	1070.33
887.39	1070.80
887.70	1059.56
888.01	1062.60
888.32	1063.54
888.63	1066.11
888.94	1061.90
889.25	1070.80
889.56	1077.82
889.87	1080.16
890.17	1084.60
890.48	1090.46
890.79	1089.52
891.10	1086.24
891.41	1080.86
891.72	1077.11
892.03	1072.43
892.34	1066.35
892.64	1062.60
892.95	1073.60
893.26	1069.39
893.57	1083.90
893.88	1087.65
894.18	1091.16
894.49	1092.09
894.80	1094.67
895.11	1096.31
895.42	1097.71
895.72	1098.88
896.03	1097.01
896.34	1099.35
896.65	1099.35
896.96	1088.82
897.26	1094.67
897.57	1087.65
897.88	1086.71
898.19	1069.39
898.49	1078.28
898.80	1074.07
899.11	1074.07
899.41	1084.60
899.72	1090.46
900.03	1087.41
900.34	1092.80
900.64	1105.20
900.95	1089.99
901.26	1090.69
901.56	1093.26
901.87	1087.65
902.18	1074.77
902.48	1075.71
902.79	1080.86
903.10	1086.71
903.40	1081.09
903.71	1081.09
904.02	1087.65
904.32	1080.16
904.63	1079.46
904.94	1063.77
905.24	1067.05
905.55	1052.07
905.85	1050.20
906.16	1054.18
906.47	1066.58
906.77	1069.86
907.08	1086.01
907.38	1089.05
907.69	1089.05
908.00	1095.14
908.30	1097.01
908.61	1094.43
908.91	1097.01
909.22	1087.88
909.52	1080.63
909.83	1076.18
910.14	1076.88
910.44	1075.24
910.75	1069.62
911.05	1079.46
911.36	1080.16
911.66	1067.99
911.97	1071.03
912.27	1079.92
912.58	1068.69
912.88	1067.05
913.19	1074.31
913.49	1068.45
913.80	1066.11
914.10	1071.50
914.41	1074.07
914.71	1083.90
915.01	1083.43
915.32	1090.92
915.62	1090.22
915.93	1097.48
916.23	1092.33
916.54	1101.92
916.84	1095.84
917.15	1097.01
917.45	1087.88
917.75	1079.22
918.06	1068.22
918.36	1058.39
918.67	1053.48
918.97	1053.94
919.27	1060.26
919.58	1071.50
919.88	1081.09
920.18	1086.94
920.49	1087.18
920.79	1086.01
921.10	1081.33
921.40	1083.90
921.70	1080.39
922.01	1076.88
922.31	1080.39
922.61	1081.56
922.92	1072.43
923.22	1080.86
923.52	1076.65
923.82	1072.43
924.13	1076.88
924.43	1083.20
924.73	1081.09
925.04	1083.43
925.34	1086.48
925.64	1087.18
925.94	1079.46
926.25	1078.99
926.55	1081.80
926.85	1093.03
927.15	1093.73
927.46	1105.90
927.76	1105.20
928.06	1108.01
928.36	1099.12
928.67	1093.03
928.97	1085.77
929.27	1088.35
929.57	1082.97
929.87	1091.16
930.18	1090.69
930.48	1091.86
930.78	1083.67
931.08	1089.52
931.38	1079.92
931.69	1075.01
931.99	1069.86
932.29	1073.84
932.59	1071.97
932.89	1072.90
933.19	1066.35
933.49	1071.50
933.80	1071.97
934.10	1073.37
934.40	1067.75
934.70	1076.88
935.00	1074.54
935.30	1067.75
935.60	1067.05
935.90	1068.22
936.20	1066.35
936.50	1065.41
936.81	1071.97
937.11	1078.28
937.41	1078.75
937.71	1081.56
938.01	1090.92
938.31	1083.67
938.61	1086.94
938.91	1093.97
939.21	1088.35
939.51	1076.65
939.81	1082.50
940.11	1064.48
940.41	1054.88
940.71	1056.99
941.01	1063.07
941.31	1069.39
941.61	1085.54
941.91	1089.75
942.21	1100.05
942.51	1101.46
942.81	1091.63
943.11	1081.56
943.41	1078.28
943.71	1071.03
944.01	1062.14
944.31	1067.75
944.61	1077.35
944.90	1077.58
945.20	1061.20
945.50	1070.09
945.80	1064.01
946.10	1063.54
946.40	1063.07
946.70	1083.67
947.00	1073.14
947.30	1077.58
947.60	1069.62
947.89	1071.50
948.19	1064.94
948.49	1075.71
948.79	1082.50
949.09	1083.20
949.39	1071.50
949.69	1076.41
949.98	1084.37
950.28	1077.82
950.58	1077.82
950.88	1092.80
951.18	1095.14
951.48	1091.16
951.77	1087.41
952.07	1085.07
952.37	1085.31
952.67	1071.26
952.97	1063.54
953.26	1068.45
953.56	1074.77
953.86	1064.48
954.16	1069.62
954.45	1069.16
954.75	1078.99
955.05	1078.75
955.35	1088.82
955.64	1086.24
955.94	1090.22
956.24	1073.37
956.54	1057.22
956.83	1050.67
957.13	1056.99
957.43	1055.82
957.72	1059.79
958.02	1073.14
958.32	1077.58
958.61	1077.11
958.91	1080.39
959.21	1079.69
959.50	1073.84
959.80	1072.90
960.10	1069.39
960.39	1066.11
960.69	1066.35
960.99	1081.80
961.28	1083.43
961.58	1087.65
961.87	1087.88
962.17	1092.80
962.47	1078.99
962.76	1084.37
963.06	1087.41
963.36	1086.01
963.65	1090.92
963.95	1097.01
964.24	1089.75
964.54	1087.65
964.83	1092.09
965.13	1089.29
965.42	1088.12
965.72	1087.18
966.02	1089.75
966.31	1075.24
966.61	1066.11
966.90	1067.75
967.20	1071.03
967.49	1071.50
967.79	1083.90
968.08	1083.43
968.38	1084.84
968.67	1085.07
968.97	1077.11
969.26	1077.11
969.56	1082.50
969.85	1082.73
970.15	1084.14
970.44	1086.48
970.74	1087.41
971.03	1093.50
971.32	1090.22
971.62	1081.80
971.91	1080.86
972.21	1085.07
972.50	1085.31
972.80	1081.56
973.09	1076.18
973.38	1076.41
973.68	1064.48
973.97	1057.22
974.27	1060.50
974.56	1076.65
974.85	1075.48
975.15	1080.86
975.44	1081.09
975.73	1082.50
976.03	1073.60
976.32	1077.35
976.61	1077.58
976.91	1081.09
977.20	1073.37
977.49	1072.67
977.79	1067.28
978.08	1069.86
978.37	1062.14
978.67	1063.77
978.96	1063.07
979.25	1070.56
979.55	1067.99
979.84	1074.31
980.13	1085.54
980.42	1090.69
980.72	1088.12
981.01	1087.41
981.30	1089.75
981.59	1082.97
981.89	1085.77
982.18	1081.80
982.47	1084.84
982.76	1079.22
983.06	1081.09
983.35	1083.20
983.64	1097.01
983.93	1092.56
984.22	1087.18
984.52	1079.69
984.81	1082.26
985.10	1071.50
985.39	1072.67
985.68	1078.05
985.97	1080.16
986.27	1078.99
986.56	1088.12
986.85	1090.22
987.14	1092.80
987.43	1090.69
987.72	1083.67
988.01	1075.01
988.31	1075.48
988.60	1072.20
988.89	1078.05
989.18	1073.60
989.47	1071.97
989.76	1064.24
990.05	1060.73
990.34	1051.84
990.63	1056.28
990.92	1056.99
991.21	1061.67
991.51	1066.58
991.80	1077.35
992.09	1076.65
992.38	1085.07
992.67	1085.77
992.96	1091.39
993.25	1089.52
993.54	1093.73
993.83	1097.24
994.12	1101.22
994.41	1089.29
994.70	1085.54
994.99	1076.88
995.28	1061.43
995.57	1064.94
995.86	1074.07
996.15	1077.58
996.44	1082.26
996.73	1090.92
997.02	1083.90
997.31	1085.77
997.59	1084.37
997.88	1094.67
998.17	1087.65
998.46	1079.22
998.75	1083.67
999.04	1082.50
999.33	1068.22
999.62	1075.48
999.91	1085.54
1000.20	1070.09
1000.49	1075.94
1000.77	1081.56
1001.06	1088.12
1001.35	1079.92
1001.64	1086.48
1001.93	1084.60
1002.22	1083.90
1002.51	1072.67
1002.79	1080.86
1003.08	1083.67
1003.37	1079.46
1003.66	1074.54
1003.95	1071.50
1004.23	1061.67
1004.52	1062.84
1004.81	1076.41
1005.10	1090.46
1005.39	1097.48
1005.67	1112.92
1005.96	1107.54
1006.25	1093.26
1006.54	1095.14
1006.83	1095.14
1007.11	1096.31
1007.40	1093.73
1007.69	1103.33
1007.97	1095.60
1008.26	1091.63
1008.55	1087.41
1008.84	1087.18
1009.12	1078.75
1009.41	1079.46
1009.70	1082.73
1009.98	1082.73
1010.27	1086.24
1010.56	1086.01
1010.85	1078.52
1011.13	1076.18
1011.42	1078.28
1011.71	1089.05
1011.99	1086.24
1012.28	1094.43
1012.56	1100.52
1012.85	1097.95
1013.14	1093.26
1013.42	1094.67
1013.71	1094.67
1014.00	1085.54
1014.28	1089.29
1014.57	1093.50
1014.85	1101.22
1015.14	1099.35
1015.43	1097.95
1015.71	1093.50
1016.00	1087.88
1016.28	1089.29
1016.57	1086.94
1016.85	1091.63
1017.14	1090.46
1017.43	1087.88
1017.71	1083.90
1018.00	1087.41
1018.28	1088.58
1018.57	1083.90
1018.85	1083.90
1019.14	1081.33
1019.42	1086.94
1019.71	1092.56
1019.99	1085.31
1020.28	1081.33
1020.56	1091.86
1020.85	1076.65
1021.13	1073.84
1021.42	1078.28
1021.70	1076.18
1021.99	1071.26
1022.27	1081.33
1022.55	1103.56
1022.84	1102.39
>>>>>End Processed Spectral Data<<<<<
