SpectraSuite Data File
++++++++++++++++++++++++++++++++++++
Date: Mon Aug 26 10:26:00 PDT 2019
User: corrico
Dark Spectrum Present: No
Reference Spectrum Present: No
Number of Sampled Component Spectra: 1
Spectrometers: USB2+H06089
Integration Time (usec): 10000 (USB2+H06089)
Spectra Averaged: 2 (USB2+H06089)
Boxcar Smoothing: 2 (USB2+H06089)
Correct for Electrical Dark: No (USB2+H06089)
Strobe/Lamp Enabled: No (USB2+H06089)
Correct for Detector Non-linearity: No (USB2+H06089)
Correct for Stray Light: No (USB2+H06089)
Number of Pixels in Processed Spectrum: 2048
>>>>>Begin Processed Spectral Data<<<<<
339.70	1002.92
340.07	1002.92
340.45	984.20
340.82	968.51
341.19	950.49
341.57	934.81
341.94	921.94
342.31	916.79
342.69	898.06
343.06	899.23
343.43	895.25
343.81	891.04
344.18	885.66
344.55	901.34
344.93	904.85
345.30	912.11
345.67	915.38
346.04	928.26
346.42	941.83
346.79	951.43
347.16	956.34
347.54	977.41
347.91	989.11
348.28	995.20
348.65	996.13
349.03	1003.62
349.40	1008.07
349.77	1016.03
350.14	1014.62
350.52	1018.60
350.89	1019.07
351.26	1026.32
351.63	1028.43
352.01	1034.98
352.38	1051.13
352.75	1056.52
353.12	1062.84
353.50	1069.86
353.87	1081.56
354.24	1068.92
354.61	1073.37
354.98	1071.26
355.36	1069.62
355.73	1063.07
356.10	1069.86
356.47	1082.73
356.84	1076.88
357.22	1083.20
357.59	1084.60
357.96	1086.48
358.33	1078.28
358.70	1079.69
359.08	1068.92
359.45	1061.67
359.82	1063.77
360.19	1060.96
360.56	1061.20
360.94	1060.03
361.31	1077.11
361.68	1071.50
362.05	1079.92
362.42	1084.14
362.79	1098.65
363.16	1092.09
363.54	1100.29
363.91	1091.16
364.28	1088.58
364.65	1084.37
365.02	1082.26
365.39	1077.58
365.76	1089.29
366.14	1082.73
366.51	1070.80
366.88	1077.11
367.25	1085.54
367.62	1067.52
367.99	1068.22
368.36	1078.99
368.73	1074.31
369.10	1075.48
369.48	1085.07
369.85	1087.41
370.22	1084.14
370.59	1082.50
370.96	1073.84
371.33	1065.65
371.70	1067.52
372.07	1059.09
372.44	1061.20
372.81	1061.90
373.18	1066.58
373.55	1057.92
373.93	1055.58
374.30	1056.28
374.67	1061.20
375.04	1067.52
375.41	1077.35
375.78	1084.37
376.15	1095.37
376.52	1079.92
376.89	1074.07
377.26	1066.35
377.63	1068.69
378.00	1062.37
378.37	1063.07
378.74	1066.35
379.11	1068.69
379.48	1065.65
379.85	1060.03
380.22	1071.26
380.59	1073.84
380.96	1071.03
381.33	1073.84
381.70	1067.99
382.07	1060.26
382.44	1053.24
382.81	1056.75
383.18	1063.77
383.55	1065.41
383.92	1067.28
384.29	1062.14
384.66	1067.28
385.03	1056.05
385.40	1056.28
385.77	1053.71
386.14	1063.31
386.51	1071.50
386.88	1083.20
387.25	1085.07
387.62	1087.88
387.99	1083.90
388.36	1070.09
388.73	1059.79
389.10	1054.88
389.46	1050.20
389.83	1055.58
390.20	1054.88
390.57	1060.96
390.94	1063.77
391.31	1068.22
391.68	1065.88
392.05	1069.39
392.42	1064.48
392.79	1066.58
393.16	1065.41
393.53	1069.39
393.89	1075.01
394.26	1076.18
394.63	1079.46
395.00	1087.41
395.37	1095.37
395.74	1102.63
396.11	1104.73
396.48	1102.39
396.84	1102.63
397.21	1095.84
397.58	1084.60
397.95	1078.75
398.32	1082.97
398.69	1074.07
399.06	1060.73
399.42	1067.52
399.79	1071.03
400.16	1062.37
400.53	1065.41
400.90	1076.41
401.27	1069.39
401.64	1075.24
402.00	1078.52
402.37	1087.88
402.74	1082.03
403.11	1084.84
403.48	1083.67
403.84	1085.54
404.21	1068.92
404.58	1075.24
404.95	1078.75
405.32	1079.46
405.68	1079.92
406.05	1089.75
406.42	1097.24
406.79	1097.48
407.16	1093.26
407.52	1096.54
407.89	1097.24
408.26	1075.01
408.63	1057.92
408.99	1061.20
409.36	1053.94
409.73	1060.73
410.10	1071.03
410.47	1089.29
410.83	1090.69
411.20	1102.16
411.57	1097.71
411.94	1095.37
412.30	1082.03
412.67	1079.46
413.04	1071.03
413.40	1066.82
413.77	1075.01
414.14	1084.14
414.51	1079.92
414.87	1084.60
415.24	1088.58
415.61	1082.03
415.97	1074.54
416.34	1070.56
416.71	1064.48
417.08	1061.90
417.44	1072.20
417.81	1084.37
418.18	1101.46
418.54	1097.01
418.91	1113.63
419.28	1104.50
419.64	1094.43
420.01	1080.86
420.38	1088.35
420.74	1068.92
421.11	1076.88
421.48	1075.24
421.84	1070.56
422.21	1067.52
422.58	1065.88
422.94	1064.48
423.31	1073.84
423.68	1083.67
424.04	1085.31
424.41	1089.05
424.77	1084.14
425.14	1069.86
425.51	1071.26
425.87	1074.77
426.24	1081.09
426.61	1076.88
426.97	1089.05
427.34	1094.20
427.70	1094.20
428.07	1085.77
428.44	1088.82
428.80	1091.39
429.17	1085.77
429.53	1087.65
429.90	1095.60
430.27	1104.26
430.63	1101.22
431.00	1099.58
431.36	1089.75
431.73	1082.73
432.09	1082.03
432.46	1082.26
432.83	1085.31
433.19	1097.48
433.56	1094.90
433.92	1087.88
434.29	1091.86
434.65	1086.24
435.02	1081.33
435.38	1093.26
435.75	1093.97
436.11	1085.54
436.48	1091.39
436.84	1090.22
437.21	1086.71
437.57	1094.20
437.94	1092.09
438.30	1086.94
438.67	1084.60
439.03	1079.46
439.40	1069.86
439.76	1069.39
440.13	1066.58
440.49	1076.41
440.86	1075.01
441.22	1081.80
441.59	1089.05
441.95	1092.56
442.32	1079.46
442.68	1079.22
443.05	1071.73
443.41	1071.50
443.78	1071.50
444.14	1078.52
444.51	1073.14
444.87	1076.88
445.24	1076.18
445.60	1071.73
445.96	1078.52
446.33	1086.71
446.69	1083.90
447.06	1086.71
447.42	1090.46
447.79	1081.80
448.15	1086.24
448.51	1082.97
448.88	1079.69
449.24	1082.26
449.61	1079.92
449.97	1086.24
450.33	1091.86
450.70	1091.16
451.06	1088.12
451.43	1097.24
451.79	1088.35
452.15	1087.18
452.52	1096.07
452.88	1101.92
453.24	1088.35
453.61	1088.12
453.97	1095.84
454.34	1087.18
454.70	1080.16
455.06	1082.03
455.43	1075.94
455.79	1063.07
456.15	1070.80
456.52	1079.92
456.88	1079.22
457.24	1090.46
457.61	1102.63
457.97	1093.03
458.33	1092.56
458.70	1092.33
459.06	1086.48
459.42	1080.39
459.79	1084.37
460.15	1076.65
460.51	1082.26
460.88	1075.48
461.24	1075.24
461.60	1068.69
461.96	1062.60
462.33	1057.92
462.69	1067.99
463.05	1076.65
463.42	1082.03
463.78	1089.75
464.14	1089.52
464.50	1079.46
464.87	1067.05
465.23	1073.84
465.59	1078.52
465.95	1086.01
466.32	1097.48
466.68	1090.92
467.04	1077.11
467.40	1073.60
467.77	1077.58
468.13	1086.94
468.49	1093.26
468.85	1096.54
469.22	1091.16
469.58	1082.50
469.94	1065.41
470.30	1068.69
470.66	1070.56
471.03	1081.09
471.39	1082.03
471.75	1098.41
472.11	1097.01
472.47	1099.82
472.84	1088.35
473.20	1085.54
473.56	1071.50
473.92	1081.56
474.28	1077.11
474.65	1076.41
475.01	1079.22
475.37	1084.14
475.73	1062.60
476.09	1064.01
476.45	1072.43
476.81	1071.73
477.18	1061.20
477.54	1071.73
477.90	1068.45
478.26	1060.03
478.62	1059.79
478.98	1067.99
479.34	1074.54
479.71	1081.09
480.07	1089.99
480.43	1086.94
480.79	1087.65
481.15	1083.43
481.51	1084.37
481.87	1089.75
482.23	1100.75
482.59	1090.46
482.96	1099.12
483.32	1094.43
483.68	1083.20
484.04	1083.20
484.40	1085.31
484.76	1073.37
485.12	1078.75
485.48	1079.46
485.84	1070.33
486.20	1084.37
486.56	1085.77
486.92	1082.97
487.28	1092.33
487.64	1098.41
488.00	1093.97
488.37	1095.37
488.73	1096.31
489.09	1086.94
489.45	1080.86
489.81	1077.35
490.17	1078.52
490.53	1087.41
490.89	1089.75
491.25	1089.52
491.61	1093.50
491.97	1095.37
492.33	1093.97
492.69	1097.95
493.05	1095.14
493.41	1085.77
493.77	1081.56
494.13	1061.20
494.49	1075.48
494.85	1081.33
495.21	1085.77
495.57	1093.03
495.93	1104.26
496.29	1090.92
496.64	1092.56
497.00	1100.05
497.36	1099.35
497.72	1098.65
498.08	1089.52
498.44	1089.52
498.80	1071.97
499.16	1063.77
499.52	1057.92
499.88	1053.48
500.24	1046.22
500.60	1062.37
500.96	1074.54
501.32	1071.50
501.68	1083.67
502.03	1086.24
502.39	1083.20
502.75	1069.62
503.11	1075.71
503.47	1077.11
503.83	1075.24
504.19	1076.65
504.55	1090.22
504.91	1094.43
505.26	1095.84
505.62	1104.50
505.98	1095.14
506.34	1086.24
506.70	1087.88
507.06	1078.99
507.42	1078.28
507.78	1082.97
508.13	1081.56
508.49	1078.99
508.85	1077.11
509.21	1077.35
509.57	1083.67
509.93	1086.01
510.28	1088.82
510.64	1094.67
511.00	1093.97
511.36	1092.33
511.72	1084.60
512.07	1081.80
512.43	1085.31
512.79	1078.99
513.15	1074.77
513.51	1090.46
513.86	1096.54
514.22	1100.52
514.58	1100.75
514.94	1102.63
515.30	1103.56
515.65	1096.54
516.01	1082.26
516.37	1082.03
516.73	1089.99
517.08	1083.20
517.44	1085.54
517.80	1087.88
518.16	1099.58
518.51	1095.14
518.87	1100.05
519.23	1111.52
519.59	1116.44
519.94	1111.05
520.30	1110.12
520.66	1107.31
521.01	1094.43
521.37	1094.67
521.73	1097.95
522.09	1100.05
522.44	1095.60
522.80	1103.33
523.16	1105.20
523.51	1089.52
523.87	1092.80
524.23	1104.50
524.58	1092.09
524.94	1090.46
525.30	1099.58
525.65	1086.94
526.01	1077.82
526.37	1084.60
526.72	1079.46
527.08	1080.86
527.44	1092.56
527.79	1102.16
528.15	1105.44
528.51	1115.50
528.86	1118.31
529.22	1112.92
529.58	1105.44
529.93	1107.54
530.29	1098.88
530.65	1095.14
531.00	1101.92
531.36	1102.63
531.71	1098.88
532.07	1102.39
532.43	1109.41
532.78	1100.29
533.14	1102.16
533.49	1108.24
533.85	1112.92
534.21	1107.78
534.56	1107.78
534.92	1104.50
535.27	1100.29
535.63	1098.18
535.98	1094.67
536.34	1091.16
536.69	1094.43
537.05	1094.90
537.41	1079.69
537.76	1088.35
538.12	1093.73
538.47	1090.46
538.83	1080.63
539.18	1093.50
539.54	1083.90
539.89	1088.82
540.25	1093.26
540.60	1107.07
540.96	1105.67
541.31	1115.50
541.67	1101.69
542.02	1094.67
542.38	1102.16
542.73	1100.75
543.09	1093.73
543.44	1101.22
543.80	1104.97
544.15	1085.77
544.51	1095.84
544.86	1103.09
545.22	1099.12
545.57	1103.09
545.93	1111.75
546.28	1100.29
546.64	1093.97
546.99	1103.80
547.35	1100.52
547.70	1089.52
548.05	1096.07
548.41	1094.90
548.76	1087.18
549.12	1080.86
549.47	1081.33
549.83	1081.33
550.18	1085.77
550.53	1084.37
550.89	1082.03
551.24	1083.67
551.60	1087.88
551.95	1082.03
552.30	1082.50
552.66	1092.09
553.01	1094.20
553.37	1090.46
553.72	1094.20
554.07	1100.05
554.43	1101.46
554.78	1108.71
555.13	1109.41
555.49	1111.75
555.84	1117.37
556.19	1113.16
556.55	1100.29
556.90	1093.73
557.26	1089.99
557.61	1078.99
557.96	1081.33
558.32	1086.01
558.67	1087.41
559.02	1090.46
559.37	1095.84
559.73	1089.29
560.08	1095.37
560.43	1098.88
560.79	1100.05
561.14	1090.46
561.49	1084.84
561.85	1079.46
562.20	1073.37
562.55	1064.48
562.90	1061.20
563.26	1059.56
563.61	1064.94
563.96	1061.90
564.32	1063.54
564.67	1077.82
565.02	1079.46
565.37	1072.67
565.73	1078.75
566.08	1086.01
566.43	1071.73
566.78	1074.77
567.14	1086.24
567.49	1079.69
567.84	1079.46
568.19	1093.50
568.54	1097.01
568.90	1086.01
569.25	1093.26
569.60	1089.99
569.95	1091.16
570.31	1082.97
570.66	1089.05
571.01	1083.90
571.36	1085.07
571.71	1076.18
572.06	1079.22
572.42	1074.31
572.77	1087.18
573.12	1078.28
573.47	1078.52
573.82	1076.65
574.18	1069.62
574.53	1056.99
574.88	1070.56
575.23	1076.65
575.58	1081.56
575.93	1088.82
576.28	1094.43
576.64	1080.16
576.99	1071.73
577.34	1076.18
577.69	1077.82
578.04	1075.48
578.39	1080.39
578.74	1090.46
579.09	1089.29
579.44	1086.01
579.80	1102.39
580.15	1109.18
580.50	1103.09
580.85	1097.48
581.20	1091.63
581.55	1076.88
581.90	1076.18
582.25	1072.90
582.60	1078.75
582.95	1079.92
583.30	1078.99
583.65	1068.92
584.00	1071.97
584.35	1074.77
584.71	1080.39
585.06	1078.99
585.41	1085.77
585.76	1088.58
586.11	1087.18
586.46	1093.26
586.81	1098.65
587.16	1104.50
587.51	1103.80
587.86	1095.84
588.21	1092.80
588.56	1093.50
588.91	1086.48
589.26	1091.39
589.61	1089.75
589.96	1089.52
590.31	1074.31
590.66	1074.07
591.01	1069.86
591.36	1076.41
591.71	1071.50
592.06	1070.80
592.41	1078.05
592.76	1068.69
593.10	1060.50
593.45	1063.77
593.80	1089.75
594.15	1076.41
594.50	1085.07
594.85	1090.92
595.20	1096.54
595.55	1082.73
595.90	1099.12
596.25	1096.54
596.60	1097.24
596.95	1098.41
597.30	1095.60
597.64	1135.16
597.99	1151.54
598.34	1153.88
598.69	1144.52
599.04	1139.37
599.39	1092.09
599.74	1074.54
600.09	1075.01
600.44	1075.24
600.78	1077.35
601.13	1076.88
601.48	1079.69
601.83	1085.31
602.18	1095.84
602.53	1099.35
602.88	1100.05
603.22	1089.75
603.57	1078.75
603.92	1076.65
604.27	1081.33
604.62	1083.43
604.97	1088.35
605.31	1093.26
605.66	1084.60
606.01	1085.07
606.36	1082.26
606.71	1100.29
607.05	1093.50
607.40	1090.92
607.75	1079.92
608.10	1079.22
608.44	1064.48
608.79	1070.56
609.14	1083.43
609.49	1088.82
609.84	1089.75
610.18	1095.60
610.53	1088.58
610.88	1089.52
611.23	1093.26
611.57	1087.65
611.92	1088.35
612.27	1102.86
612.62	1089.29
612.96	1091.86
613.31	1107.78
613.66	1099.58
614.00	1092.56
614.35	1097.95
614.70	1098.65
615.05	1085.54
615.39	1085.54
615.74	1086.71
616.09	1086.48
616.43	1078.28
616.78	1081.56
617.13	1087.65
617.47	1093.03
617.82	1089.99
618.17	1098.65
618.51	1096.78
618.86	1092.33
619.21	1077.11
619.55	1090.92
619.90	1079.22
620.25	1082.50
620.59	1093.26
620.94	1103.33
621.29	1100.29
621.63	1108.71
621.98	1102.86
622.32	1093.03
622.67	1098.65
623.02	1087.65
623.36	1080.86
623.71	1092.56
624.05	1094.20
624.40	1080.16
624.75	1074.07
625.09	1083.90
625.44	1073.14
625.78	1072.20
626.13	1085.54
626.48	1099.12
626.82	1087.41
627.17	1084.84
627.51	1082.26
627.86	1070.80
628.20	1064.24
628.55	1070.09
628.89	1075.01
629.24	1073.84
629.58	1080.63
629.93	1081.09
630.28	1080.16
630.62	1086.24
630.97	1086.48
631.31	1086.94
631.66	1086.24
632.00	1080.63
632.35	1068.45
632.69	1072.67
633.04	1078.28
633.38	1084.60
633.73	1094.67
634.07	1100.05
634.42	1103.33
634.76	1091.16
635.11	1091.63
635.45	1085.54
635.79	1082.26
636.14	1081.80
636.48	1080.86
636.83	1065.65
637.17	1070.56
637.52	1073.60
637.86	1080.63
638.21	1083.67
638.55	1089.29
638.89	1087.88
639.24	1090.22
639.58	1083.43
639.93	1072.90
640.27	1088.58
640.61	1087.65
640.96	1086.24
641.30	1075.94
641.65	1083.90
641.99	1070.09
642.33	1068.69
642.68	1061.20
643.02	1071.73
643.37	1074.54
643.71	1075.71
644.05	1082.03
644.40	1090.69
644.74	1086.71
645.08	1090.22
645.43	1088.82
645.77	1086.71
646.11	1090.46
646.46	1085.07
646.80	1081.56
647.14	1080.16
647.49	1074.31
647.83	1068.92
648.17	1079.46
648.52	1075.94
648.86	1073.60
649.20	1074.54
649.55	1080.86
649.89	1071.50
650.23	1075.48
650.57	1089.52
650.92	1086.24
651.26	1078.28
651.60	1085.07
651.95	1082.50
652.29	1075.01
652.63	1080.86
652.97	1076.18
653.32	1073.37
653.66	1078.05
654.00	1066.35
654.34	1065.41
654.69	1075.94
655.03	1081.80
655.37	1075.71
655.71	1086.24
656.05	1095.37
656.40	1098.88
656.74	1090.69
657.08	1099.12
657.42	1099.12
657.76	1089.75
658.11	1082.50
658.45	1096.07
658.79	1097.24
659.13	1097.48
659.47	1101.69
659.82	1103.56
660.16	1084.37
660.50	1078.75
660.84	1092.09
661.18	1082.26
661.52	1089.75
661.87	1094.20
662.21	1092.33
662.55	1078.75
662.89	1082.26
663.23	1068.69
663.57	1067.05
663.91	1074.31
664.25	1079.69
664.60	1083.43
664.94	1083.20
665.28	1087.18
665.62	1083.43
665.96	1085.07
666.30	1081.33
666.64	1086.24
666.98	1084.37
667.32	1085.07
667.66	1077.58
668.01	1089.05
668.35	1077.58
668.69	1079.69
669.03	1093.50
669.37	1093.50
669.71	1081.09
670.05	1082.50
670.39	1090.69
670.73	1079.22
671.07	1091.39
671.41	1093.97
671.75	1104.26
672.09	1099.12
672.43	1095.37
672.77	1078.75
673.11	1067.52
673.45	1062.84
673.79	1058.62
674.13	1061.67
674.47	1066.82
674.81	1077.82
675.15	1084.84
675.49	1086.24
675.83	1087.88
676.17	1085.07
676.51	1087.88
676.85	1078.28
677.19	1073.37
677.53	1070.09
677.87	1077.58
678.21	1081.80
678.55	1099.82
678.89	1111.29
679.23	1113.63
679.57	1109.41
679.90	1104.50
680.24	1095.84
680.58	1085.77
680.92	1080.86
681.26	1080.63
681.60	1079.46
681.94	1081.09
682.28	1093.50
682.62	1093.26
682.96	1089.75
683.29	1090.92
683.63	1091.86
683.97	1075.94
684.31	1073.14
684.65	1075.01
684.99	1078.28
685.33	1073.60
685.67	1078.75
686.00	1085.54
686.34	1094.43
686.68	1083.67
687.02	1073.60
687.36	1076.88
687.70	1074.31
688.03	1065.65
688.37	1063.77
688.71	1065.65
689.05	1064.01
689.39	1069.62
689.72	1074.07
690.06	1090.92
690.40	1103.09
690.74	1109.41
691.08	1100.05
691.41	1100.29
691.75	1080.39
692.09	1069.16
692.43	1063.31
692.76	1063.31
693.10	1057.22
693.44	1070.56
693.78	1071.50
694.11	1065.88
694.45	1072.90
694.79	1077.58
695.13	1071.03
695.46	1072.67
695.80	1079.69
696.14	1077.35
696.48	1089.52
696.81	1092.56
697.15	1090.22
697.49	1088.58
697.82	1073.14
698.16	1052.54
698.50	1053.71
698.83	1060.50
699.17	1063.54
699.51	1080.16
699.84	1087.65
700.18	1094.90
700.52	1085.54
700.85	1079.92
701.19	1069.62
701.53	1059.33
701.86	1049.50
702.20	1056.28
702.54	1062.14
702.87	1063.31
703.21	1077.11
703.55	1086.71
703.88	1087.65
704.22	1085.31
704.55	1095.37
704.89	1091.39
705.23	1078.05
705.56	1076.18
705.90	1077.58
706.23	1074.77
706.57	1068.45
706.91	1067.75
707.24	1071.03
707.58	1070.56
707.91	1073.37
708.25	1082.97
708.58	1090.22
708.92	1095.84
709.26	1090.69
709.59	1100.99
709.93	1107.07
710.26	1107.07
710.60	1109.18
710.93	1116.44
711.27	1103.33
711.60	1097.48
711.94	1106.61
712.27	1095.14
712.61	1086.48
712.94	1081.56
713.28	1072.43
713.61	1063.31
713.95	1065.65
714.28	1066.82
714.62	1072.20
714.95	1084.14
715.29	1072.67
715.62	1067.05
715.96	1070.56
716.29	1067.28
716.63	1059.79
716.96	1069.86
717.29	1079.92
717.63	1082.73
717.96	1087.65
718.30	1096.78
718.63	1105.67
718.97	1097.24
719.30	1091.39
719.63	1089.99
719.97	1083.90
720.30	1064.24
720.64	1063.07
720.97	1066.58
721.30	1077.35
721.64	1067.05
721.97	1078.99
722.31	1085.54
722.64	1084.84
722.97	1063.07
723.31	1075.94
723.64	1076.41
723.97	1065.88
724.31	1069.39
724.64	1083.20
724.98	1075.94
725.31	1079.69
725.64	1089.29
725.98	1094.67
726.31	1100.52
726.64	1105.90
726.97	1101.92
727.31	1098.65
727.64	1093.73
727.97	1081.80
728.31	1085.77
728.64	1093.50
728.97	1102.86
729.31	1095.84
729.64	1102.86
729.97	1092.80
730.30	1086.01
730.64	1074.77
730.97	1082.03
731.30	1078.75
731.63	1086.71
731.97	1086.48
732.30	1086.94
732.63	1091.16
732.96	1083.67
733.30	1080.16
733.63	1087.65
733.96	1093.50
734.29	1082.03
734.63	1089.05
734.96	1084.60
735.29	1072.67
735.62	1065.18
735.95	1069.86
736.29	1072.20
736.62	1076.65
736.95	1081.80
737.28	1092.33
737.61	1091.16
737.94	1088.35
738.28	1084.37
738.61	1083.43
738.94	1077.82
739.27	1079.69
739.60	1083.20
739.93	1091.63
740.27	1092.09
740.60	1087.18
740.93	1088.35
741.26	1079.46
741.59	1072.90
741.92	1068.69
742.25	1078.75
742.58	1075.71
742.91	1066.58
743.25	1071.73
743.58	1082.97
743.91	1080.86
744.24	1083.67
744.57	1098.65
744.90	1097.71
745.23	1094.67
745.56	1097.48
745.89	1091.86
746.22	1092.56
746.55	1090.46
746.88	1091.63
747.21	1086.48
747.54	1093.50
747.87	1091.86
748.20	1090.92
748.53	1097.48
748.87	1092.33
749.20	1090.22
749.53	1088.12
749.86	1092.09
750.19	1076.41
750.52	1080.39
750.85	1078.28
751.18	1084.14
751.51	1081.09
751.84	1082.03
752.16	1090.92
752.49	1092.33
752.82	1100.75
753.15	1103.33
753.48	1101.92
753.81	1096.07
754.14	1095.14
754.47	1084.84
754.80	1078.28
755.13	1076.41
755.46	1079.69
755.79	1087.88
756.12	1091.39
756.45	1096.54
756.78	1103.33
757.11	1098.18
757.43	1088.12
757.76	1084.37
758.09	1078.75
758.42	1080.86
758.75	1084.14
759.08	1093.26
759.41	1084.84
759.74	1090.22
760.07	1091.16
760.39	1092.09
760.72	1088.35
761.05	1095.60
761.38	1088.35
761.71	1085.54
762.04	1083.20
762.36	1078.75
762.69	1073.37
763.02	1074.07
763.35	1068.92
763.68	1070.33
764.01	1075.24
764.33	1075.01
764.66	1077.11
764.99	1081.09
765.32	1080.16
765.65	1074.54
765.97	1091.86
766.30	1104.03
766.63	1091.16
766.96	1088.82
767.28	1088.58
767.61	1076.41
767.94	1065.88
768.27	1078.05
768.59	1075.24
768.92	1076.88
769.25	1079.22
769.58	1081.80
769.90	1089.99
770.23	1093.26
770.56	1085.54
770.89	1081.56
771.21	1086.24
771.54	1078.05
771.87	1088.12
772.19	1090.92
772.52	1096.54
772.85	1091.63
773.17	1084.37
773.50	1078.99
773.83	1090.92
774.15	1086.71
774.48	1086.71
774.81	1095.37
775.13	1089.75
775.46	1078.52
775.79	1077.58
776.11	1072.20
776.44	1076.65
776.77	1086.01
777.09	1095.84
777.42	1092.80
777.74	1097.95
778.07	1092.80
778.40	1078.05
778.72	1077.35
779.05	1094.43
779.37	1093.97
779.70	1092.33
780.03	1098.65
780.35	1099.58
780.68	1084.37
781.00	1087.88
781.33	1088.12
781.65	1093.73
781.98	1092.09
782.31	1091.16
782.63	1080.86
782.96	1081.09
783.28	1088.35
783.61	1078.75
783.93	1080.63
784.26	1086.24
784.58	1079.22
784.91	1059.79
785.23	1058.86
785.56	1062.37
785.88	1061.20
786.21	1063.77
786.53	1067.28
786.86	1073.37
787.18	1074.31
787.51	1083.90
787.83	1087.18
788.16	1091.39
788.48	1084.84
788.81	1081.80
789.13	1070.09
789.46	1073.14
789.78	1073.14
790.10	1079.22
790.43	1077.82
790.75	1081.09
791.08	1070.80
791.40	1077.58
791.73	1084.60
792.05	1087.41
792.37	1092.09
792.70	1097.48
793.02	1084.84
793.35	1080.63
793.67	1069.16
793.99	1060.50
794.32	1069.39
794.64	1078.52
794.96	1071.97
795.29	1082.73
795.61	1086.48
795.93	1080.63
796.26	1075.01
796.58	1073.14
796.91	1069.86
797.23	1065.88
797.55	1061.43
797.87	1053.01
798.20	1064.01
798.52	1066.82
798.84	1072.90
799.17	1080.86
799.49	1089.29
799.81	1089.99
800.14	1090.69
800.46	1094.90
800.78	1089.29
801.10	1098.18
801.43	1098.65
801.75	1095.60
802.07	1086.71
802.40	1092.33
802.72	1087.88
803.04	1075.94
803.36	1066.82
803.69	1065.41
804.01	1064.24
804.33	1063.07
804.65	1066.82
804.97	1071.73
805.30	1074.54
805.62	1068.69
805.94	1074.07
806.26	1084.84
806.58	1090.22
806.91	1092.09
807.23	1088.58
807.55	1072.20
807.87	1064.24
808.19	1056.05
808.52	1056.99
808.84	1061.90
809.16	1066.11
809.48	1060.50
809.80	1077.58
810.12	1074.54
810.44	1068.69
810.77	1073.84
811.09	1071.73
811.41	1056.52
811.73	1057.22
812.05	1064.24
812.37	1060.73
812.69	1064.71
813.01	1061.90
813.33	1069.86
813.66	1064.01
813.98	1061.67
814.30	1060.73
814.62	1072.20
814.94	1060.26
815.26	1067.75
815.58	1071.97
815.90	1069.62
816.22	1060.50
816.54	1070.33
816.86	1072.67
817.18	1075.48
817.50	1072.20
817.82	1079.46
818.14	1086.01
818.46	1088.12
818.78	1094.43
819.10	1096.54
819.42	1087.88
819.74	1082.97
820.06	1081.09
820.38	1077.11
820.70	1086.71
821.02	1097.95
821.34	1092.80
821.66	1087.88
821.98	1081.09
822.30	1074.54
822.62	1064.01
822.94	1069.62
823.26	1065.88
823.58	1072.43
823.90	1078.28
824.22	1085.54
824.54	1082.03
824.86	1087.88
825.18	1082.26
825.50	1093.97
825.81	1094.43
826.13	1092.33
826.45	1089.05
826.77	1095.14
827.09	1079.92
827.41	1082.50
827.73	1080.86
828.05	1085.07
828.36	1076.41
828.68	1084.60
829.00	1089.05
829.32	1099.35
829.64	1098.18
829.96	1104.73
830.28	1105.44
830.59	1110.82
830.91	1097.95
831.23	1091.86
831.55	1097.71
831.87	1091.39
832.19	1085.31
832.50	1093.03
832.82	1098.41
833.14	1091.16
833.46	1092.56
833.78	1076.41
834.09	1071.50
834.41	1061.90
834.73	1062.37
835.05	1061.43
835.36	1077.58
835.68	1074.31
836.00	1079.46
836.32	1083.90
836.63	1078.28
836.95	1075.71
837.27	1082.50
837.59	1088.12
837.90	1078.75
838.22	1087.65
838.54	1082.03
838.85	1083.20
839.17	1091.63
839.49	1099.82
839.80	1095.37
840.12	1085.31
840.44	1088.12
840.76	1074.77
841.07	1071.03
841.39	1071.97
841.71	1079.92
842.02	1071.73
842.34	1072.67
842.65	1075.71
842.97	1074.77
843.29	1075.48
843.60	1075.48
843.92	1085.31
844.24	1077.35
844.55	1090.22
844.87	1092.56
845.18	1097.01
845.50	1100.29
845.82	1109.65
846.13	1093.50
846.45	1095.84
846.76	1086.48
847.08	1067.99
847.40	1062.60
847.71	1059.33
848.03	1057.92
848.34	1061.20
848.66	1069.39
848.97	1064.71
849.29	1072.43
849.60	1077.35
849.92	1079.92
850.24	1082.97
850.55	1081.09
850.87	1081.09
851.18	1072.67
851.50	1073.14
851.81	1061.67
852.13	1067.05
852.44	1075.48
852.76	1090.46
853.07	1086.94
853.39	1098.18
853.70	1110.82
854.01	1104.26
854.33	1097.01
854.64	1103.80
854.96	1099.82
855.27	1090.92
855.59	1086.94
855.90	1078.28
856.22	1075.71
856.53	1073.84
856.84	1072.90
857.16	1077.82
857.47	1077.82
857.79	1071.03
858.10	1076.18
858.41	1075.94
858.73	1077.58
859.04	1089.05
859.36	1089.29
859.67	1093.73
859.98	1088.12
860.30	1087.41
860.61	1084.84
860.92	1092.33
861.24	1093.50
861.55	1101.69
861.87	1097.01
862.18	1099.58
862.49	1102.39
862.81	1100.99
863.12	1103.80
863.43	1104.73
863.74	1092.56
864.06	1094.67
864.37	1093.50
864.68	1087.18
865.00	1095.37
865.31	1094.43
865.62	1082.26
865.94	1079.69
866.25	1072.43
866.56	1058.62
866.87	1058.16
867.19	1067.99
867.50	1067.75
867.81	1083.20
868.12	1090.69
868.44	1097.71
868.75	1100.05
869.06	1090.92
869.37	1075.01
869.68	1070.09
870.00	1069.16
870.31	1061.90
870.62	1054.18
870.93	1061.90
871.24	1072.20
871.56	1075.24
871.87	1071.50
872.18	1082.73
872.49	1085.54
872.80	1087.41
873.12	1078.52
873.43	1080.63
873.74	1092.09
874.05	1090.92
874.36	1078.99
874.67	1081.80
874.98	1080.86
875.29	1074.31
875.61	1062.14
875.92	1058.86
876.23	1060.73
876.54	1054.41
876.85	1038.50
877.16	1046.92
877.47	1052.30
877.78	1051.13
878.09	1054.41
878.40	1072.43
878.72	1081.09
879.03	1086.24
879.34	1088.82
879.65	1100.29
879.96	1108.95
880.27	1097.48
880.58	1087.18
880.89	1087.65
881.20	1081.56
881.51	1074.54
881.82	1082.97
882.13	1082.26
882.44	1081.56
882.75	1080.86
883.06	1072.90
883.37	1073.37
883.68	1078.99
883.99	1074.31
884.30	1070.09
884.61	1058.86
884.92	1051.37
885.23	1051.37
885.54	1058.62
885.85	1064.48
886.16	1080.63
886.47	1081.56
886.78	1082.26
887.08	1071.50
887.39	1072.90
887.70	1070.33
888.01	1087.65
888.32	1084.60
888.63	1104.26
888.94	1101.69
889.25	1102.16
889.56	1094.20
889.87	1095.84
890.17	1084.84
890.48	1085.07
890.79	1081.56
891.10	1080.16
891.41	1078.52
891.72	1084.84
892.03	1090.92
892.34	1093.26
892.64	1079.22
892.95	1084.84
893.26	1079.69
893.57	1082.50
893.88	1088.82
894.18	1098.41
894.49	1097.48
894.80	1096.07
895.11	1095.14
895.42	1089.99
895.72	1086.94
896.03	1078.05
896.34	1084.37
896.65	1082.03
896.96	1088.82
897.26	1099.82
897.57	1103.33
897.88	1098.65
898.19	1093.50
898.49	1086.94
898.80	1078.28
899.11	1082.26
899.41	1083.90
899.72	1087.41
900.03	1083.90
900.34	1085.54
900.64	1078.05
900.95	1077.82
901.26	1067.99
901.56	1082.26
901.87	1085.77
902.18	1087.41
902.48	1088.12
902.79	1097.48
903.10	1082.97
903.40	1080.86
903.71	1093.50
904.02	1082.73
904.32	1082.50
904.63	1089.52
904.94	1081.80
905.24	1073.84
905.55	1076.65
905.85	1071.97
906.16	1069.62
906.47	1071.50
906.77	1075.94
907.08	1077.11
907.38	1071.73
907.69	1066.11
908.00	1069.86
908.30	1065.18
908.61	1065.88
908.91	1083.20
909.22	1091.39
909.52	1081.56
909.83	1076.88
910.14	1086.48
910.44	1079.92
910.75	1073.37
911.05	1076.18
911.36	1083.20
911.66	1076.18
911.97	1068.69
912.27	1071.26
912.58	1077.35
912.88	1079.22
913.19	1086.94
913.49	1099.12
913.80	1100.75
914.10	1093.26
914.41	1089.29
914.71	1088.12
915.01	1088.12
915.32	1082.50
915.62	1089.52
915.93	1086.71
916.23	1080.39
916.54	1071.50
916.84	1083.90
917.15	1080.63
917.45	1089.99
917.75	1094.20
918.06	1100.75
918.36	1094.67
918.67	1101.22
918.97	1095.37
919.27	1090.46
919.58	1089.99
919.88	1082.03
920.18	1071.97
920.49	1069.86
920.79	1071.26
921.10	1072.20
921.40	1073.84
921.70	1095.14
922.01	1094.20
922.31	1106.61
922.61	1102.39
922.92	1100.52
923.22	1084.37
923.52	1088.58
923.82	1075.01
924.13	1084.60
924.43	1097.95
924.73	1101.69
925.04	1100.75
925.34	1111.29
925.64	1099.58
925.94	1086.01
926.25	1080.63
926.55	1078.52
926.85	1063.54
927.15	1070.56
927.46	1078.28
927.76	1089.29
928.06	1093.26
928.36	1102.63
928.67	1094.20
928.97	1091.86
929.27	1084.60
929.57	1085.77
929.87	1079.69
930.18	1082.73
930.48	1100.05
930.78	1099.58
931.08	1096.78
931.38	1096.78
931.69	1099.58
931.99	1088.35
932.29	1084.84
932.59	1090.46
932.89	1107.54
933.19	1099.35
933.49	1092.33
933.80	1099.12
934.10	1090.69
934.40	1074.07
934.70	1073.37
935.00	1072.90
935.30	1069.86
935.60	1071.03
935.90	1070.80
936.20	1079.69
936.50	1078.05
936.81	1083.20
937.11	1084.60
937.41	1091.86
937.71	1098.41
938.01	1109.65
938.31	1099.12
938.61	1096.54
938.91	1091.63
939.21	1086.48
939.51	1084.60
939.81	1087.88
940.11	1088.82
940.41	1091.63
940.71	1086.24
941.01	1088.12
941.31	1090.92
941.61	1089.75
941.91	1089.75
942.21	1090.92
942.51	1079.92
942.81	1080.63
943.11	1082.73
943.41	1080.39
943.71	1073.14
944.01	1080.63
944.31	1078.52
944.61	1084.84
944.90	1089.75
945.20	1090.92
945.50	1092.56
945.80	1089.29
946.10	1079.22
946.40	1073.60
946.70	1086.24
947.00	1075.01
947.30	1074.54
947.60	1082.50
947.89	1080.63
948.19	1067.75
948.49	1075.01
948.79	1080.16
949.09	1077.58
949.39	1074.54
949.69	1080.16
949.98	1084.60
950.28	1084.14
950.58	1087.65
950.88	1093.73
951.18	1088.58
951.48	1091.39
951.77	1082.03
952.07	1077.82
952.37	1076.41
952.67	1078.99
952.97	1078.99
953.26	1091.16
953.56	1090.92
953.86	1089.29
954.16	1088.12
954.45	1077.35
954.75	1071.97
955.05	1071.50
955.35	1070.33
955.64	1066.58
955.94	1076.18
956.24	1076.88
956.54	1082.50
956.83	1087.41
957.13	1096.54
957.43	1088.35
957.72	1086.71
958.02	1076.18
958.32	1065.88
958.61	1063.54
958.91	1069.39
959.21	1075.01
959.50	1079.69
959.80	1093.50
960.10	1087.88
960.39	1082.03
960.69	1079.22
960.99	1080.86
961.28	1082.26
961.58	1087.88
961.87	1092.80
962.17	1098.18
962.47	1094.90
962.76	1085.31
963.06	1080.86
963.36	1076.65
963.65	1068.92
963.95	1073.60
964.24	1085.07
964.54	1087.41
964.83	1087.88
965.13	1090.69
965.42	1079.22
965.72	1060.73
966.02	1060.50
966.31	1060.96
966.61	1062.84
966.90	1074.31
967.20	1077.58
967.49	1077.58
967.79	1075.94
968.08	1065.65
968.38	1057.22
968.67	1058.39
968.97	1064.01
969.26	1079.46
969.56	1085.07
969.85	1092.09
970.15	1097.48
970.44	1082.97
970.74	1075.94
971.03	1082.50
971.32	1081.56
971.62	1075.48
971.91	1088.12
972.21	1077.82
972.50	1069.86
972.80	1068.22
973.09	1068.22
973.38	1073.37
973.68	1072.20
973.97	1086.01
974.27	1080.39
974.56	1093.03
974.85	1083.67
975.15	1089.29
975.44	1078.99
975.73	1086.94
976.03	1083.90
976.32	1073.37
976.61	1071.97
976.91	1070.33
977.20	1070.09
977.49	1071.03
977.79	1086.01
978.08	1088.12
978.37	1083.20
978.67	1083.67
978.96	1077.11
979.25	1072.43
979.55	1072.90
979.84	1075.24
980.13	1075.48
980.42	1068.92
980.72	1071.03
981.01	1068.45
981.30	1072.43
981.59	1079.69
981.89	1089.29
982.18	1089.05
982.47	1077.11
982.76	1081.33
983.06	1075.94
983.35	1073.37
983.64	1078.28
983.93	1082.97
984.22	1081.33
984.52	1071.50
984.81	1073.84
985.10	1071.73
985.39	1071.97
985.68	1069.39
985.97	1075.24
986.27	1075.71
986.56	1072.90
986.85	1080.86
987.14	1082.26
987.43	1086.48
987.72	1093.50
988.01	1102.39
988.31	1097.71
988.60	1097.01
988.89	1092.56
989.18	1097.01
989.47	1078.75
989.76	1086.94
990.05	1088.12
990.34	1079.92
990.63	1055.35
990.92	1064.01
991.21	1059.09
991.51	1055.35
991.80	1064.71
992.09	1074.31
992.38	1060.73
992.67	1058.16
992.96	1063.77
993.25	1065.41
993.54	1066.82
993.83	1080.39
994.12	1086.48
994.41	1074.54
994.70	1069.16
994.99	1063.07
995.28	1064.01
995.57	1067.52
995.86	1082.97
996.15	1087.18
996.44	1092.80
996.73	1099.58
997.02	1094.67
997.31	1093.50
997.59	1083.67
997.88	1084.84
998.17	1078.28
998.46	1082.03
998.75	1077.82
999.04	1100.05
999.33	1097.01
999.62	1098.65
999.91	1093.50
1000.20	1084.14
1000.49	1072.90
1000.77	1078.75
1001.06	1071.26
1001.35	1071.03
1001.64	1077.58
1001.93	1074.54
1002.22	1071.50
1002.51	1082.26
1002.79	1089.75
1003.08	1094.20
1003.37	1100.29
1003.66	1094.67
1003.95	1094.67
1004.23	1087.65
1004.52	1084.37
1004.81	1080.16
1005.10	1090.46
1005.39	1088.12
1005.67	1090.46
1005.96	1086.94
1006.25	1087.88
1006.54	1089.52
1006.83	1088.12
1007.11	1084.14
1007.40	1096.54
1007.69	1091.86
1007.97	1086.48
1008.26	1074.31
1008.55	1072.43
1008.84	1065.65
1009.12	1065.41
1009.41	1063.54
1009.70	1072.20
1009.98	1077.11
1010.27	1074.07
1010.56	1070.80
1010.85	1078.99
1011.13	1078.05
1011.42	1076.18
1011.71	1074.31
1011.99	1080.86
1012.28	1066.11
1012.56	1067.05
1012.85	1070.33
1013.14	1070.33
1013.42	1064.24
1013.71	1070.80
1014.00	1073.37
1014.28	1074.77
1014.57	1081.09
1014.85	1087.88
1015.14	1086.71
1015.43	1093.50
1015.71	1087.88
1016.00	1087.18
1016.28	1089.52
1016.57	1088.58
1016.85	1087.65
1017.14	1093.03
1017.43	1089.52
1017.71	1082.26
1018.00	1082.26
1018.28	1082.50
1018.57	1079.69
1018.85	1073.37
1019.14	1071.97
1019.42	1083.43
1019.71	1067.05
1019.99	1065.88
1020.28	1069.16
1020.56	1072.20
1020.85	1067.05
1021.13	1089.99
1021.42	1096.54
1021.70	1103.80
1021.99	1106.37
1022.27	1104.03
1022.55	1080.16
1022.84	1084.84
>>>>>End Processed Spectral Data<<<<<
