SpectraSuite Data File
++++++++++++++++++++++++++++++++++++
Date: Mon Aug 26 10:26:00 PDT 2019
User: corrico
Dark Spectrum Present: No
Reference Spectrum Present: No
Number of Sampled Component Spectra: 1
Spectrometers: USB2+H06089
Integration Time (usec): 10000 (USB2+H06089)
Spectra Averaged: 2 (USB2+H06089)
Boxcar Smoothing: 2 (USB2+H06089)
Correct for Electrical Dark: No (USB2+H06089)
Strobe/Lamp Enabled: No (USB2+H06089)
Correct for Detector Non-linearity: No (USB2+H06089)
Correct for Stray Light: No (USB2+H06089)
Number of Pixels in Processed Spectrum: 2048
>>>>>Begin Processed Spectral Data<<<<<
339.70	992.39
340.07	992.39
340.45	965.00
340.82	945.34
341.19	922.64
341.57	911.40
341.94	903.68
342.31	907.19
342.69	900.87
343.06	904.62
343.43	895.25
343.81	897.60
344.18	889.87
344.55	902.98
344.93	909.77
345.30	926.38
345.67	926.62
346.04	928.49
346.42	930.13
346.79	939.26
347.16	943.24
347.54	955.41
347.91	967.58
348.28	977.41
348.65	980.92
349.03	994.96
349.40	1008.77
349.77	1024.22
350.14	1026.79
350.52	1034.98
350.89	1034.05
351.26	1039.43
351.63	1042.47
352.01	1052.77
352.38	1054.88
352.75	1057.45
353.12	1056.75
353.50	1064.48
353.87	1070.56
354.24	1081.33
354.61	1087.88
354.98	1088.82
355.36	1090.22
355.73	1094.43
356.10	1086.24
356.47	1084.84
356.84	1082.26
357.22	1081.09
357.59	1077.82
357.96	1075.01
358.33	1070.80
358.70	1079.69
359.08	1080.16
359.45	1075.94
359.82	1087.18
360.19	1084.14
360.56	1080.86
360.94	1066.58
361.31	1065.65
361.68	1058.86
362.05	1064.94
362.42	1070.80
362.79	1080.39
363.16	1079.46
363.54	1081.09
363.91	1065.18
364.28	1059.79
364.65	1066.11
365.02	1059.56
365.39	1054.65
365.76	1068.22
366.14	1067.52
366.51	1061.90
366.88	1063.77
367.25	1074.54
367.62	1068.69
367.99	1058.62
368.36	1061.20
368.73	1073.84
369.10	1061.20
369.48	1070.56
369.85	1068.69
370.22	1059.09
370.59	1062.60
370.96	1068.69
371.33	1058.62
371.70	1066.58
372.07	1072.90
372.44	1066.58
372.81	1065.41
373.18	1071.73
373.55	1077.82
373.93	1088.35
374.30	1085.77
374.67	1095.37
375.04	1097.71
375.41	1093.03
375.78	1074.31
376.15	1071.26
376.52	1065.65
376.89	1052.77
377.26	1047.62
377.63	1067.05
378.00	1073.37
378.37	1073.60
378.74	1076.65
379.11	1081.56
379.48	1073.84
379.85	1068.69
380.22	1061.67
380.59	1065.41
380.96	1064.24
381.33	1057.45
381.70	1069.39
382.07	1071.03
382.44	1075.71
382.81	1084.37
383.18	1083.67
383.55	1065.65
383.92	1069.86
384.29	1075.71
384.66	1072.43
385.03	1075.94
385.40	1082.73
385.77	1080.86
386.14	1071.03
386.51	1066.82
386.88	1068.92
387.25	1067.28
387.62	1064.48
387.99	1063.31
388.36	1058.16
388.73	1052.54
389.10	1058.62
389.46	1060.03
389.83	1063.31
390.20	1065.18
390.57	1072.67
390.94	1066.11
391.31	1062.14
391.68	1065.41
392.05	1062.84
392.42	1070.80
392.79	1069.86
393.16	1075.48
393.53	1076.88
393.89	1088.82
394.26	1076.41
394.63	1079.22
395.00	1078.75
395.37	1073.14
395.74	1065.18
396.11	1067.28
396.48	1067.99
396.84	1074.07
397.21	1089.05
397.58	1101.46
397.95	1096.31
398.32	1118.78
398.69	1117.14
399.06	1108.24
399.42	1097.01
399.79	1094.90
400.16	1077.35
400.53	1069.62
400.90	1062.37
401.27	1064.01
401.64	1069.16
402.00	1066.58
402.37	1068.92
402.74	1076.88
403.11	1081.33
403.48	1072.43
403.84	1071.97
404.21	1076.88
404.58	1067.99
404.95	1060.96
405.32	1077.11
405.68	1074.31
406.05	1071.50
406.42	1076.41
406.79	1080.63
407.16	1072.43
407.52	1076.41
407.89	1069.16
408.26	1067.05
408.63	1064.48
408.99	1059.79
409.36	1056.52
409.73	1062.14
410.10	1057.22
410.47	1054.41
410.83	1058.62
411.20	1055.82
411.57	1057.22
411.94	1064.01
412.30	1069.86
412.67	1071.97
413.04	1080.63
413.40	1089.52
413.77	1092.33
414.14	1099.82
414.51	1101.46
414.87	1103.56
415.24	1088.58
415.61	1089.05
415.97	1083.67
416.34	1086.48
416.71	1078.28
417.08	1080.16
417.44	1079.22
417.81	1072.43
418.18	1067.52
418.54	1057.92
418.91	1058.86
419.28	1048.09
419.64	1051.37
420.01	1050.43
420.38	1066.35
420.74	1065.18
421.11	1075.48
421.48	1075.48
421.84	1079.46
422.21	1075.24
422.58	1079.92
422.94	1087.41
423.31	1090.92
423.68	1080.86
424.04	1075.71
424.41	1070.33
424.77	1059.09
425.14	1061.20
425.51	1056.52
425.87	1053.48
426.24	1054.41
426.61	1056.52
426.97	1051.13
427.34	1060.26
427.70	1057.92
428.07	1058.86
428.44	1056.52
428.80	1056.99
429.17	1061.20
429.53	1074.54
429.90	1077.58
430.27	1083.67
430.63	1088.12
431.00	1091.63
431.36	1092.56
431.73	1084.37
432.09	1080.39
432.46	1061.90
432.83	1058.86
433.19	1051.13
433.56	1062.37
433.92	1065.18
434.29	1078.28
434.65	1076.65
435.02	1071.73
435.38	1075.94
435.75	1067.05
436.11	1065.65
436.48	1070.80
436.84	1083.90
437.21	1072.20
437.57	1070.80
437.94	1074.07
438.30	1077.82
438.67	1085.77
439.03	1096.54
439.40	1097.24
439.76	1100.99
440.13	1090.92
440.49	1076.65
440.86	1074.77
441.22	1084.14
441.59	1084.14
441.95	1098.18
442.32	1100.52
442.68	1104.03
443.05	1110.12
443.41	1109.41
443.78	1098.65
444.14	1099.58
444.51	1088.35
444.87	1081.09
445.24	1074.31
445.60	1075.48
445.96	1078.05
446.33	1089.99
446.69	1088.58
447.06	1096.78
447.42	1093.97
447.79	1094.67
448.15	1081.33
448.51	1093.03
448.88	1091.16
449.24	1088.58
449.61	1092.56
449.97	1089.75
450.33	1073.14
450.70	1063.54
451.06	1068.69
451.43	1067.75
451.79	1073.14
452.15	1068.22
452.52	1078.05
452.88	1076.65
453.24	1072.90
453.61	1077.11
453.97	1084.37
454.34	1082.97
454.70	1085.54
455.06	1088.58
455.43	1088.35
455.79	1086.94
456.15	1080.39
456.52	1085.31
456.88	1082.50
457.24	1081.09
457.61	1081.56
457.97	1089.52
458.33	1085.31
458.70	1082.50
459.06	1084.84
459.42	1087.65
459.79	1077.35
460.15	1076.88
460.51	1065.18
460.88	1062.60
461.24	1063.07
461.60	1070.56
461.96	1075.01
462.33	1093.97
462.69	1087.65
463.05	1074.07
463.42	1074.77
463.78	1068.92
464.14	1051.84
464.50	1054.65
464.87	1067.28
465.23	1070.80
465.59	1068.45
465.95	1074.77
466.32	1079.69
466.68	1082.73
467.04	1064.48
467.40	1063.54
467.77	1070.09
468.13	1059.33
468.49	1048.33
468.85	1059.79
469.22	1059.56
469.58	1064.48
469.94	1068.22
470.30	1078.28
470.66	1078.05
471.03	1091.63
471.39	1085.77
471.75	1091.86
472.11	1089.29
472.47	1092.80
472.84	1072.43
473.20	1064.24
473.56	1064.71
473.92	1067.75
474.28	1064.48
474.65	1069.62
475.01	1072.67
475.37	1077.11
475.73	1075.01
476.09	1073.14
476.45	1073.37
476.81	1083.43
477.18	1077.35
477.54	1071.97
477.90	1075.01
478.26	1081.56
478.62	1080.16
478.98	1088.82
479.34	1096.54
479.71	1099.82
480.07	1102.39
480.43	1095.84
480.79	1086.71
481.15	1082.73
481.51	1086.48
481.87	1080.39
482.23	1077.35
482.59	1078.28
482.96	1083.43
483.32	1070.33
483.68	1066.11
484.04	1070.33
484.40	1073.14
484.76	1079.69
485.12	1087.88
485.48	1097.95
485.84	1103.80
486.20	1103.80
486.56	1093.03
486.92	1096.31
487.28	1092.09
487.64	1086.24
488.00	1081.33
488.37	1083.90
488.73	1078.99
489.09	1084.84
489.45	1087.65
489.81	1099.58
490.17	1097.95
490.53	1096.54
490.89	1084.14
491.25	1087.88
491.61	1086.48
491.97	1088.12
492.33	1090.69
492.69	1093.50
493.05	1084.60
493.41	1082.26
493.77	1068.92
494.13	1069.62
494.49	1066.82
494.85	1071.26
495.21	1057.22
495.57	1074.07
495.93	1064.01
496.29	1076.41
496.64	1088.82
497.00	1090.92
497.36	1086.48
497.72	1094.20
498.08	1082.03
498.44	1063.54
498.80	1070.09
499.16	1071.50
499.52	1076.18
499.88	1076.65
500.24	1085.54
500.60	1089.52
500.96	1084.84
501.32	1078.99
501.68	1078.99
502.03	1076.18
502.39	1069.39
502.75	1061.90
503.11	1064.71
503.47	1057.92
503.83	1059.33
504.19	1051.13
504.55	1064.48
504.91	1066.58
505.26	1076.65
505.62	1072.67
505.98	1080.63
506.34	1069.86
506.70	1065.41
507.06	1067.75
507.42	1076.41
507.78	1078.99
508.13	1092.33
508.49	1096.31
508.85	1089.29
509.21	1087.41
509.57	1079.22
509.93	1079.92
510.28	1075.71
510.64	1083.90
511.00	1076.65
511.36	1087.41
511.72	1079.69
512.07	1084.84
512.43	1082.97
512.79	1086.48
513.15	1075.94
513.51	1077.82
513.86	1071.26
514.22	1074.31
514.58	1078.75
514.94	1090.46
515.30	1089.75
515.65	1095.14
516.01	1083.20
516.37	1074.54
516.73	1073.60
517.08	1077.35
517.44	1075.48
517.80	1079.46
518.16	1084.84
518.51	1083.43
518.87	1089.29
519.23	1094.43
519.59	1096.54
519.94	1090.22
520.30	1087.65
520.66	1077.35
521.01	1080.39
521.37	1086.01
521.73	1093.97
522.09	1095.60
522.44	1097.24
522.80	1085.77
523.16	1082.03
523.51	1072.90
523.87	1075.01
524.23	1078.28
524.58	1086.71
524.94	1100.52
525.30	1115.03
525.65	1115.27
526.01	1107.78
526.37	1104.73
526.72	1103.80
527.08	1101.22
527.44	1100.52
527.79	1105.67
528.15	1103.56
528.51	1094.90
528.86	1095.60
529.22	1099.35
529.58	1102.39
529.93	1106.84
530.29	1103.56
530.65	1097.01
531.00	1091.86
531.36	1092.33
531.71	1094.20
532.07	1097.48
532.43	1109.41
532.78	1109.65
533.14	1100.99
533.49	1099.12
533.85	1109.41
534.21	1087.65
534.56	1090.92
534.92	1097.48
535.27	1089.99
535.63	1079.69
535.98	1092.33
536.34	1088.12
536.69	1084.84
537.05	1082.97
537.41	1081.56
537.76	1086.71
538.12	1088.35
538.47	1081.80
538.83	1091.16
539.18	1097.48
539.54	1100.75
539.89	1100.05
540.25	1105.67
540.60	1102.86
540.96	1093.50
541.31	1084.14
541.67	1085.07
542.02	1091.63
542.38	1092.33
542.73	1084.60
543.09	1071.97
543.44	1081.33
543.80	1083.43
544.15	1078.52
544.51	1094.43
544.86	1105.90
545.22	1097.24
545.57	1081.80
545.93	1085.31
546.28	1079.92
546.64	1077.82
546.99	1074.07
547.35	1081.09
547.70	1082.73
548.05	1086.01
548.41	1076.88
548.76	1084.84
549.12	1080.63
549.47	1073.14
549.83	1072.90
550.18	1079.22
550.53	1075.24
550.89	1082.97
551.24	1086.94
551.60	1084.84
551.95	1078.99
552.30	1086.48
552.66	1095.37
553.01	1094.90
553.37	1089.05
553.72	1098.88
554.07	1092.33
554.43	1083.67
554.78	1085.31
555.13	1096.78
555.49	1091.39
555.84	1094.43
556.19	1084.60
556.55	1087.65
556.90	1082.26
557.26	1080.16
557.61	1078.99
557.96	1089.75
558.32	1082.26
558.67	1087.18
559.02	1089.05
559.37	1084.37
559.73	1078.05
560.08	1079.46
560.43	1071.26
560.79	1078.05
561.14	1082.03
561.49	1087.65
561.85	1087.41
562.20	1092.56
562.55	1097.95
562.90	1096.54
563.26	1097.24
563.61	1103.09
563.96	1102.39
564.32	1096.78
564.67	1091.86
565.02	1086.48
565.37	1090.69
565.73	1085.07
566.08	1079.22
566.43	1074.31
566.78	1067.52
567.14	1061.90
567.49	1069.62
567.84	1070.80
568.19	1080.39
568.54	1093.50
568.90	1097.24
569.25	1090.69
569.60	1090.22
569.95	1080.86
570.31	1079.22
570.66	1073.14
571.01	1068.69
571.36	1068.45
571.71	1070.80
572.06	1063.77
572.42	1063.77
572.77	1074.31
573.12	1070.33
573.47	1076.65
573.82	1080.39
574.18	1075.94
574.53	1068.45
574.88	1083.20
575.23	1089.99
575.58	1089.05
575.93	1093.26
576.28	1096.78
576.64	1088.58
576.99	1078.75
577.34	1084.84
577.69	1083.90
578.04	1079.46
578.39	1078.52
578.74	1075.01
579.09	1067.99
579.44	1075.01
579.80	1084.37
580.15	1084.14
580.50	1089.75
580.85	1089.75
581.20	1082.03
581.55	1074.31
581.90	1076.88
582.25	1073.60
582.60	1075.24
582.95	1075.94
583.30	1081.80
583.65	1077.82
584.00	1081.80
584.35	1086.94
584.71	1089.52
585.06	1092.80
585.41	1100.05
585.76	1092.33
586.11	1097.71
586.46	1100.29
586.81	1102.16
587.16	1105.67
587.51	1110.12
587.86	1091.63
588.21	1087.88
588.56	1086.24
588.91	1078.99
589.26	1083.43
589.61	1092.33
589.96	1091.39
590.31	1093.97
590.66	1093.73
591.01	1100.52
591.36	1101.22
591.71	1108.48
592.06	1092.56
592.41	1090.69
592.76	1082.03
593.10	1071.97
593.45	1059.33
593.80	1059.79
594.15	1064.24
594.50	1063.77
594.85	1076.88
595.20	1089.05
595.55	1088.12
595.90	1075.71
596.25	1080.63
596.60	1076.41
596.95	1067.52
597.30	1078.75
597.64	1134.22
597.99	1125.80
598.34	1117.37
598.69	1121.58
599.04	1115.73
599.39	1076.88
599.74	1080.63
600.09	1086.24
600.44	1092.09
600.78	1091.39
601.13	1080.86
601.48	1083.67
601.83	1086.48
602.18	1077.35
602.53	1074.07
602.88	1062.84
603.22	1059.79
603.57	1056.75
603.92	1063.07
604.27	1062.14
604.62	1074.07
604.97	1074.54
605.31	1079.46
605.66	1073.37
606.01	1079.69
606.36	1084.60
606.71	1078.52
607.05	1075.01
607.40	1077.11
607.75	1070.33
608.10	1076.88
608.44	1086.48
608.79	1088.12
609.14	1087.18
609.49	1090.22
609.84	1084.14
610.18	1080.39
610.53	1078.05
610.88	1082.97
611.23	1093.97
611.57	1093.50
611.92	1090.22
612.27	1097.01
612.62	1092.09
612.96	1081.09
613.31	1079.92
613.66	1080.16
614.00	1080.16
614.35	1088.58
614.70	1101.46
615.05	1104.73
615.39	1108.01
615.74	1107.31
616.09	1099.82
616.43	1091.86
616.78	1089.52
617.13	1088.82
617.47	1089.52
617.82	1091.16
618.17	1073.14
618.51	1079.46
618.86	1077.58
619.21	1076.41
619.55	1069.16
619.90	1085.77
620.25	1066.11
620.59	1067.99
620.94	1067.05
621.29	1073.60
621.63	1063.77
621.98	1070.56
622.32	1064.01
622.67	1064.48
623.02	1067.05
623.36	1080.63
623.71	1085.31
624.05	1094.67
624.40	1094.90
624.75	1087.88
625.09	1076.88
625.44	1074.07
625.78	1083.20
626.13	1077.58
626.48	1089.05
626.82	1093.97
627.17	1106.14
627.51	1096.78
627.86	1097.48
628.20	1088.12
628.55	1085.31
628.89	1069.16
629.24	1073.60
629.58	1080.39
629.93	1076.88
630.28	1081.80
630.62	1086.71
630.97	1082.73
631.31	1090.46
631.66	1088.35
632.00	1091.39
632.35	1092.33
632.69	1092.33
633.04	1077.58
633.38	1083.43
633.73	1078.99
634.07	1074.77
634.42	1069.62
634.76	1064.94
635.11	1066.11
635.45	1071.03
635.79	1070.56
636.14	1068.69
636.48	1070.56
636.83	1069.62
637.17	1071.03
637.52	1079.92
637.86	1084.37
638.21	1089.52
638.55	1088.58
638.89	1084.84
639.24	1083.20
639.58	1084.84
639.93	1085.77
640.27	1086.48
640.61	1080.86
640.96	1075.01
641.30	1078.05
641.65	1079.46
641.99	1082.50
642.33	1080.16
642.68	1085.77
643.02	1075.71
643.37	1070.80
643.71	1071.73
644.05	1072.43
644.40	1078.52
644.74	1080.16
645.08	1090.22
645.43	1093.03
645.77	1103.56
646.11	1093.73
646.46	1090.92
646.80	1085.07
647.14	1074.77
647.49	1082.97
647.83	1085.77
648.17	1098.65
648.52	1099.12
648.86	1106.84
649.20	1090.92
649.55	1084.60
649.89	1073.37
650.23	1073.84
650.57	1080.16
650.92	1076.65
651.26	1075.94
651.60	1080.63
651.95	1081.80
652.29	1073.84
652.63	1080.86
652.97	1089.29
653.32	1088.35
653.66	1082.73
654.00	1076.65
654.34	1069.16
654.69	1066.82
655.03	1062.37
655.37	1066.58
655.71	1076.65
656.05	1088.35
656.40	1085.54
656.74	1094.90
657.08	1087.41
657.42	1080.86
657.76	1077.35
658.11	1080.39
658.45	1067.99
658.79	1078.75
659.13	1075.01
659.47	1083.43
659.82	1080.63
660.16	1093.73
660.50	1082.50
660.84	1085.77
661.18	1071.03
661.52	1075.94
661.87	1075.94
662.21	1074.54
662.55	1067.28
662.89	1064.24
663.23	1060.50
663.57	1056.99
663.91	1058.62
664.25	1063.07
664.60	1077.82
664.94	1088.12
665.28	1084.14
665.62	1086.01
665.96	1087.18
666.30	1089.75
666.64	1081.33
666.98	1077.82
667.32	1078.05
667.66	1072.90
668.01	1060.96
668.35	1070.80
668.69	1078.75
669.03	1082.50
669.37	1087.41
669.71	1100.05
670.05	1095.60
670.39	1093.03
670.73	1096.31
671.07	1106.84
671.41	1094.43
671.75	1085.07
672.09	1081.33
672.43	1079.46
672.77	1075.48
673.11	1082.03
673.45	1087.41
673.79	1090.46
674.13	1089.52
674.47	1086.94
674.81	1089.05
675.15	1093.97
675.49	1100.99
675.83	1097.01
676.17	1090.22
676.51	1086.48
676.85	1083.90
677.19	1067.05
677.53	1067.05
677.87	1072.90
678.21	1064.24
678.55	1062.14
678.89	1072.90
679.23	1072.20
679.57	1063.54
679.90	1070.33
680.24	1065.88
680.58	1070.09
680.92	1076.41
681.26	1094.20
681.60	1097.24
681.94	1103.09
682.28	1108.24
682.62	1102.39
682.96	1090.22
683.29	1087.41
683.63	1087.18
683.97	1081.09
684.31	1086.48
684.65	1091.63
684.99	1090.46
685.33	1089.29
685.67	1087.88
686.00	1089.29
686.34	1083.67
686.68	1082.50
687.02	1086.24
687.36	1096.31
687.70	1100.52
688.03	1103.80
688.37	1101.22
688.71	1094.90
689.05	1081.33
689.39	1073.84
689.72	1073.37
690.06	1074.54
690.40	1078.75
690.74	1077.58
691.08	1069.39
691.41	1077.11
691.75	1085.54
692.09	1084.60
692.43	1092.56
692.76	1108.24
693.10	1102.39
693.44	1084.14
693.78	1079.92
694.11	1074.77
694.45	1067.75
694.79	1068.69
695.13	1084.37
695.46	1082.97
695.80	1080.16
696.14	1074.07
696.48	1068.22
696.81	1069.39
697.15	1068.22
697.49	1066.58
697.82	1070.80
698.16	1080.16
698.50	1071.73
698.83	1069.86
699.17	1083.67
699.51	1086.01
699.84	1080.86
700.18	1085.77
700.52	1083.67
700.85	1073.84
701.19	1071.97
701.53	1077.82
701.86	1068.92
702.20	1074.77
702.54	1078.52
702.87	1071.73
703.21	1060.50
703.55	1067.52
703.88	1071.03
704.22	1067.05
704.55	1079.92
704.89	1086.71
705.23	1087.65
705.56	1096.54
705.90	1097.71
706.23	1088.58
706.57	1091.16
706.91	1103.09
707.24	1085.31
707.58	1088.58
707.91	1090.92
708.25	1091.39
708.58	1078.75
708.92	1089.29
709.26	1087.88
709.59	1088.12
709.93	1080.39
710.26	1078.52
710.60	1075.71
710.93	1072.90
711.27	1064.94
711.60	1071.73
711.94	1077.11
712.27	1081.56
712.61	1086.94
712.94	1097.24
713.28	1093.73
713.61	1089.29
713.95	1085.07
714.28	1082.03
714.62	1077.82
714.95	1072.67
715.29	1081.56
715.62	1088.35
715.96	1086.71
716.29	1102.86
716.63	1110.35
716.96	1101.46
717.29	1088.58
717.63	1088.82
717.96	1070.33
718.30	1073.84
718.63	1072.67
718.97	1077.35
719.30	1086.71
719.63	1095.84
719.97	1092.56
720.30	1098.65
720.64	1102.86
720.97	1093.97
721.30	1090.92
721.64	1090.22
721.97	1081.56
722.31	1078.05
722.64	1075.24
722.97	1077.11
723.31	1075.94
723.64	1087.65
723.97	1091.39
724.31	1089.52
724.64	1081.09
724.98	1084.84
725.31	1081.33
725.64	1079.92
725.98	1083.43
726.31	1095.84
726.64	1089.29
726.97	1089.29
727.31	1093.50
727.64	1093.26
727.97	1086.94
728.31	1084.60
728.64	1085.54
728.97	1081.80
729.31	1079.46
729.64	1066.11
729.97	1071.03
730.30	1071.73
730.64	1071.97
730.97	1069.86
731.30	1078.99
731.63	1074.77
731.97	1064.71
732.30	1060.50
732.63	1074.07
732.96	1074.07
733.30	1084.37
733.63	1089.52
733.96	1089.05
734.29	1085.07
734.63	1087.65
734.96	1071.50
735.29	1060.96
735.62	1065.41
735.95	1058.39
736.29	1059.09
736.62	1073.14
736.95	1092.09
737.28	1093.50
737.61	1103.80
737.94	1117.37
738.28	1120.65
738.61	1117.61
738.94	1110.12
739.27	1103.09
739.60	1090.46
739.93	1086.94
740.27	1077.82
740.60	1081.09
740.93	1073.84
741.26	1077.35
741.59	1071.73
741.92	1073.37
742.25	1076.41
742.58	1087.41
742.91	1079.46
743.25	1082.03
743.58	1089.75
743.91	1084.14
744.24	1084.14
744.57	1077.58
744.90	1075.24
745.23	1062.37
745.56	1067.05
745.89	1068.69
746.22	1085.31
746.55	1093.26
746.88	1103.56
747.21	1098.41
747.54	1102.39
747.87	1104.26
748.20	1096.54
748.53	1099.12
748.87	1100.99
749.20	1097.95
749.53	1084.14
749.86	1088.12
750.19	1083.67
750.52	1083.90
750.85	1081.09
751.18	1081.33
751.51	1081.09
751.84	1080.16
752.16	1075.71
752.49	1070.80
752.82	1081.56
753.15	1079.92
753.48	1082.97
753.81	1091.86
754.14	1098.41
754.47	1095.37
754.80	1094.90
755.13	1095.14
755.46	1090.22
755.79	1092.33
756.12	1097.24
756.45	1108.71
756.78	1105.44
757.11	1104.26
757.43	1097.48
757.76	1085.54
758.09	1074.54
758.42	1072.90
758.75	1077.58
759.08	1076.41
759.41	1078.75
759.74	1082.26
760.07	1091.63
760.39	1086.94
760.72	1085.07
761.05	1084.37
761.38	1078.99
761.71	1078.52
762.04	1087.65
762.36	1088.82
762.69	1100.52
763.02	1097.71
763.35	1097.01
763.68	1084.14
764.01	1078.05
764.33	1062.84
764.66	1068.22
764.99	1060.26
765.32	1064.48
765.65	1074.54
765.97	1077.11
766.30	1079.22
766.63	1088.82
766.96	1094.43
767.28	1095.60
767.61	1097.01
767.94	1091.39
768.27	1077.11
768.59	1067.75
768.92	1065.65
769.25	1069.62
769.58	1072.20
769.90	1073.84
770.23	1071.26
770.56	1075.94
770.89	1075.71
771.21	1080.86
771.54	1082.73
771.87	1097.01
772.19	1080.63
772.52	1083.43
772.85	1073.84
773.17	1068.45
773.50	1066.58
773.83	1083.20
774.15	1084.14
774.48	1091.63
774.81	1095.14
775.13	1101.22
775.46	1096.31
775.79	1085.07
776.11	1075.24
776.44	1082.73
776.77	1079.92
777.09	1076.65
777.42	1083.67
777.74	1086.01
778.07	1080.86
778.40	1072.20
778.72	1073.84
779.05	1081.80
779.37	1077.82
779.70	1071.50
780.03	1072.90
780.35	1074.54
780.68	1061.67
781.00	1069.86
781.33	1072.90
781.65	1076.18
781.98	1075.71
782.31	1082.03
782.63	1087.41
782.96	1096.31
783.28	1097.24
783.61	1100.52
783.93	1103.56
784.26	1094.67
784.58	1094.90
784.91	1086.01
785.23	1085.77
785.56	1074.54
785.88	1083.67
786.21	1078.52
786.53	1080.63
786.86	1078.05
787.18	1078.52
787.51	1072.20
787.83	1072.43
788.16	1081.33
788.48	1081.56
788.81	1090.22
789.13	1090.46
789.46	1089.29
789.78	1079.46
790.10	1070.56
790.43	1066.11
790.75	1062.60
791.08	1065.41
791.40	1067.28
791.73	1092.33
792.05	1095.14
792.37	1091.16
792.70	1098.88
793.02	1103.56
793.35	1089.29
793.67	1094.20
793.99	1088.82
794.32	1091.86
794.64	1092.09
794.96	1094.43
795.29	1079.92
795.61	1096.54
795.93	1089.52
796.26	1081.33
796.58	1077.82
796.91	1091.86
797.23	1092.80
797.55	1099.35
797.87	1104.03
798.20	1099.82
798.52	1093.50
798.84	1093.73
799.17	1081.09
799.49	1086.94
799.81	1093.73
800.14	1097.71
800.46	1093.73
800.78	1093.50
801.10	1092.56
801.43	1090.92
801.75	1096.31
802.07	1100.29
802.40	1115.27
802.72	1119.24
803.04	1115.27
803.36	1107.54
803.69	1104.26
804.01	1090.46
804.33	1093.26
804.65	1092.33
804.97	1094.20
805.30	1093.03
805.62	1091.39
805.94	1078.75
806.26	1082.97
806.58	1082.03
806.91	1081.56
807.23	1083.67
807.55	1087.88
807.87	1087.41
808.19	1091.63
808.52	1091.16
808.84	1086.24
809.16	1085.31
809.48	1080.16
809.80	1070.80
810.12	1063.77
810.44	1068.69
810.77	1075.94
811.09	1080.63
811.41	1076.41
811.73	1077.11
812.05	1074.31
812.37	1070.33
812.69	1069.86
813.01	1082.73
813.33	1090.92
813.66	1102.39
813.98	1097.95
814.30	1101.46
814.62	1098.65
814.94	1101.22
815.26	1090.69
815.58	1093.03
815.90	1087.18
816.22	1088.58
816.54	1082.50
816.86	1083.20
817.18	1088.12
817.50	1082.73
817.82	1087.41
818.14	1082.03
818.46	1079.46
818.78	1078.05
819.10	1077.58
819.42	1071.03
819.74	1078.28
820.06	1082.73
820.38	1086.01
820.70	1081.56
821.02	1081.80
821.34	1084.14
821.66	1082.97
821.98	1074.07
822.30	1079.46
822.62	1069.39
822.94	1070.33
823.26	1068.92
823.58	1060.96
823.90	1067.05
824.22	1073.14
824.54	1060.96
824.86	1065.65
825.18	1067.05
825.50	1072.20
825.81	1078.05
826.13	1086.71
826.45	1085.31
826.77	1093.26
827.09	1096.54
827.41	1096.78
827.73	1097.01
828.05	1097.24
828.36	1097.95
828.68	1089.52
829.00	1083.43
829.32	1079.46
829.64	1081.33
829.96	1079.92
830.28	1078.75
830.59	1072.20
830.91	1069.39
831.23	1076.41
831.55	1077.82
831.87	1077.11
832.19	1085.31
832.50	1088.58
832.82	1076.65
833.14	1071.97
833.46	1074.31
833.78	1081.56
834.09	1090.22
834.41	1093.26
834.73	1095.60
835.05	1094.90
835.36	1083.90
835.68	1085.07
836.00	1086.48
836.32	1085.77
836.63	1076.88
836.95	1080.39
837.27	1064.24
837.59	1063.31
837.90	1064.24
838.22	1077.58
838.54	1077.35
838.85	1088.12
839.17	1078.75
839.49	1062.60
839.80	1058.62
840.12	1048.56
840.44	1046.92
840.76	1056.52
841.07	1056.52
841.39	1061.43
841.71	1077.35
842.02	1072.43
842.34	1084.37
842.65	1099.12
842.97	1097.24
843.29	1087.65
843.60	1093.26
843.92	1088.58
844.24	1092.09
844.55	1085.54
844.87	1098.88
845.18	1098.18
845.50	1087.65
845.82	1084.60
846.13	1088.35
846.45	1083.20
846.76	1081.33
847.08	1078.52
847.40	1078.52
847.71	1077.35
848.03	1060.03
848.34	1069.62
848.66	1081.09
848.97	1080.16
849.29	1081.33
849.60	1087.18
849.92	1081.09
850.24	1080.16
850.55	1083.43
850.87	1077.82
851.18	1087.41
851.50	1082.50
851.81	1077.11
852.13	1073.60
852.44	1079.92
852.76	1076.41
853.07	1085.77
853.39	1086.71
853.70	1086.94
854.01	1075.24
854.33	1075.71
854.64	1068.92
854.96	1066.35
855.27	1066.11
855.59	1086.24
855.90	1088.82
856.22	1086.48
856.53	1084.84
856.84	1095.14
857.16	1082.97
857.47	1079.22
857.79	1081.80
858.10	1075.01
858.41	1072.67
858.73	1069.62
859.04	1073.60
859.36	1065.88
859.67	1065.18
859.98	1058.86
860.30	1057.92
860.61	1056.99
860.92	1061.20
861.24	1079.92
861.55	1073.60
861.87	1079.46
862.18	1069.86
862.49	1070.56
862.81	1065.88
863.12	1065.88
863.43	1070.09
863.74	1077.58
864.06	1083.90
864.37	1082.97
864.68	1086.24
865.00	1075.94
865.31	1083.20
865.62	1081.80
865.94	1087.65
866.25	1086.71
866.56	1093.97
866.87	1086.24
867.19	1089.75
867.50	1079.22
867.81	1074.31
868.12	1070.09
868.44	1070.33
868.75	1059.56
869.06	1052.07
869.37	1062.60
869.68	1058.39
870.00	1062.84
870.31	1068.45
870.62	1072.67
870.93	1074.07
871.24	1086.24
871.56	1082.50
871.87	1080.86
872.18	1089.05
872.49	1090.69
872.80	1090.46
873.12	1086.24
873.43	1097.48
873.74	1091.16
874.05	1091.16
874.36	1089.99
874.67	1090.46
874.98	1078.75
875.29	1081.56
875.61	1077.82
875.92	1076.65
876.23	1091.16
876.54	1085.31
876.85	1085.77
877.16	1076.65
877.47	1076.18
877.78	1070.09
878.09	1079.69
878.40	1084.14
878.72	1085.07
879.03	1080.86
879.34	1079.22
879.65	1068.22
879.96	1065.41
880.27	1073.60
880.58	1064.24
880.89	1062.60
881.20	1072.90
881.51	1072.67
881.82	1076.18
882.13	1088.82
882.44	1090.22
882.75	1089.99
883.06	1088.35
883.37	1086.01
883.68	1081.33
883.99	1075.71
884.30	1080.63
884.61	1083.90
884.92	1074.54
885.23	1087.65
885.54	1092.56
885.85	1077.35
886.16	1071.26
886.47	1082.73
886.78	1075.48
887.08	1070.80
887.39	1075.71
887.70	1092.80
888.01	1082.26
888.32	1080.86
888.63	1093.97
888.94	1100.29
889.25	1087.65
889.56	1087.41
889.87	1077.82
890.17	1070.80
890.48	1071.50
890.79	1074.31
891.10	1086.71
891.41	1102.63
891.72	1089.99
892.03	1081.09
892.34	1083.20
892.64	1069.86
892.95	1066.11
893.26	1072.90
893.57	1075.48
893.88	1067.52
894.18	1068.45
894.49	1066.35
894.80	1070.80
895.11	1074.54
895.42	1082.73
895.72	1084.14
896.03	1073.14
896.34	1081.09
896.65	1083.43
896.96	1069.62
897.26	1078.52
897.57	1082.26
897.88	1072.90
898.19	1068.92
898.49	1078.05
898.80	1073.37
899.11	1077.82
899.41	1082.26
899.72	1077.35
900.03	1080.16
900.34	1081.33
900.64	1079.69
900.95	1074.31
901.26	1073.14
901.56	1066.82
901.87	1070.80
902.18	1078.05
902.48	1079.92
902.79	1091.39
903.10	1087.65
903.40	1080.63
903.71	1072.67
904.02	1068.92
904.32	1065.88
904.63	1063.31
904.94	1057.92
905.24	1065.41
905.55	1068.22
905.85	1073.37
906.16	1080.63
906.47	1088.82
906.77	1095.14
907.08	1099.35
907.38	1103.09
907.69	1102.16
908.00	1099.58
908.30	1088.35
908.61	1091.39
908.91	1081.33
909.22	1086.94
909.52	1090.22
909.83	1077.35
910.14	1069.39
910.44	1067.05
910.75	1062.84
911.05	1064.24
911.36	1079.92
911.66	1085.54
911.97	1089.05
912.27	1086.01
912.58	1091.39
912.88	1087.88
913.19	1079.22
913.49	1070.33
913.80	1077.82
914.10	1070.80
914.41	1078.52
914.71	1085.77
915.01	1097.71
915.32	1100.29
915.62	1104.73
915.93	1108.95
916.23	1110.82
916.54	1104.73
916.84	1096.78
917.15	1095.14
917.45	1082.50
917.75	1077.11
918.06	1077.35
918.36	1071.73
918.67	1072.90
918.97	1078.28
919.27	1077.11
919.58	1076.41
919.88	1078.52
920.18	1084.14
920.49	1074.77
920.79	1068.69
921.10	1073.14
921.40	1077.11
921.70	1065.88
922.01	1074.31
922.31	1081.80
922.61	1082.26
922.92	1081.09
923.22	1084.84
923.52	1082.26
923.82	1081.09
924.13	1075.94
924.43	1082.73
924.73	1071.03
925.04	1077.11
925.34	1071.73
925.64	1075.71
925.94	1062.60
926.25	1075.24
926.55	1064.01
926.85	1064.94
927.15	1065.18
927.46	1075.01
927.76	1075.24
928.06	1086.48
928.36	1093.26
928.67	1095.37
928.97	1095.84
929.27	1091.39
929.57	1089.52
929.87	1090.22
930.18	1095.60
930.48	1093.73
930.78	1091.63
931.08	1086.94
931.38	1081.56
931.69	1077.35
931.99	1078.99
932.29	1083.20
932.59	1086.48
932.89	1079.22
933.19	1075.71
933.49	1070.56
933.80	1058.16
934.10	1051.37
934.40	1055.82
934.70	1051.84
935.00	1051.37
935.30	1067.28
935.60	1080.63
935.90	1086.71
936.20	1084.60
936.50	1089.75
936.81	1089.75
937.11	1074.31
937.41	1071.26
937.71	1076.41
938.01	1068.45
938.31	1057.69
938.61	1059.33
938.91	1055.82
939.21	1047.16
939.51	1054.41
939.81	1066.82
940.11	1071.73
940.41	1079.69
940.71	1081.80
941.01	1080.16
941.31	1071.97
941.61	1084.37
941.91	1077.82
942.21	1099.82
942.51	1098.65
942.81	1092.80
943.11	1085.07
943.41	1092.33
943.71	1067.99
944.01	1073.37
944.31	1076.41
944.61	1075.48
944.90	1063.77
945.20	1072.90
945.50	1070.80
945.80	1076.65
946.10	1078.99
946.40	1084.84
946.70	1084.37
947.00	1073.84
947.30	1062.84
947.60	1051.60
947.89	1050.20
948.19	1053.24
948.49	1058.62
948.79	1068.45
949.09	1073.60
949.39	1082.73
949.69	1081.09
949.98	1085.07
950.28	1089.05
950.58	1090.69
950.88	1095.37
951.18	1100.05
951.48	1106.61
951.77	1093.50
952.07	1094.90
952.37	1090.92
952.67	1090.22
952.97	1089.99
953.26	1102.39
953.56	1093.26
953.86	1083.67
954.16	1078.28
954.45	1070.56
954.75	1064.24
955.05	1074.77
955.35	1083.90
955.64	1082.73
955.94	1076.18
956.24	1075.94
956.54	1080.86
956.83	1084.37
957.13	1089.05
957.43	1096.78
957.72	1093.73
958.02	1086.01
958.32	1087.18
958.61	1086.24
958.91	1089.52
959.21	1099.82
959.50	1094.20
959.80	1086.71
960.10	1087.88
960.39	1091.39
960.69	1089.75
960.99	1090.92
961.28	1082.73
961.58	1082.50
961.87	1075.01
962.17	1072.67
962.47	1072.20
962.76	1075.01
963.06	1083.20
963.36	1082.26
963.65	1083.67
963.95	1080.86
964.24	1088.35
964.54	1075.71
964.83	1079.46
965.13	1081.80
965.42	1082.73
965.72	1078.52
966.02	1081.56
966.31	1072.43
966.61	1072.20
966.90	1078.05
967.20	1082.26
967.49	1083.20
967.79	1086.01
968.08	1074.31
968.38	1073.60
968.67	1071.03
968.97	1064.01
969.26	1070.56
969.56	1086.01
969.85	1086.94
970.15	1093.26
970.44	1093.97
970.74	1092.09
971.03	1084.14
971.32	1090.46
971.62	1083.90
971.91	1085.07
972.21	1084.60
972.50	1086.71
972.80	1074.54
973.09	1075.24
973.38	1071.73
973.68	1083.67
973.97	1077.58
974.27	1082.50
974.56	1079.69
974.85	1085.31
975.15	1077.35
975.44	1074.77
975.73	1076.18
976.03	1082.73
976.32	1079.46
976.61	1089.75
976.91	1093.03
977.20	1089.05
977.49	1087.18
977.79	1095.84
978.08	1086.94
978.37	1094.20
978.67	1098.18
978.96	1097.01
979.25	1095.37
979.55	1090.92
979.84	1094.20
980.13	1096.07
980.42	1100.29
980.72	1100.05
981.01	1099.58
981.30	1089.05
981.59	1086.71
981.89	1080.16
982.18	1080.39
982.47	1073.60
982.76	1080.86
983.06	1078.52
983.35	1081.33
983.64	1075.94
983.93	1086.71
984.22	1082.97
984.52	1073.14
984.81	1068.45
985.10	1073.60
985.39	1074.77
985.68	1077.58
985.97	1090.22
986.27	1094.67
986.56	1093.73
986.85	1081.80
987.14	1076.18
987.43	1071.26
987.72	1064.01
988.01	1065.18
988.31	1073.14
988.60	1072.43
988.89	1083.43
989.18	1074.54
989.47	1060.03
989.76	1055.35
990.05	1060.50
990.34	1053.01
990.63	1065.88
990.92	1081.09
991.21	1082.03
991.51	1082.03
991.80	1085.31
992.09	1083.90
992.38	1084.84
992.67	1089.29
992.96	1085.77
993.25	1082.97
993.54	1086.71
993.83	1091.39
994.12	1095.37
994.41	1096.07
994.70	1095.14
994.99	1095.14
995.28	1085.31
995.57	1080.16
995.86	1087.88
996.15	1084.37
996.44	1083.20
996.73	1086.24
997.02	1083.20
997.31	1076.65
997.59	1079.46
997.88	1077.35
998.17	1076.88
998.46	1076.41
998.75	1074.54
999.04	1080.16
999.33	1087.18
999.62	1088.58
999.91	1093.73
1000.20	1101.92
1000.49	1094.67
1000.77	1087.18
1001.06	1084.37
1001.35	1083.90
1001.64	1079.69
1001.93	1086.24
1002.22	1089.05
1002.51	1087.65
1002.79	1078.52
1003.08	1067.05
1003.37	1062.60
1003.66	1064.71
1003.95	1061.67
1004.23	1069.39
1004.52	1076.41
1004.81	1081.33
1005.10	1076.65
1005.39	1078.05
1005.67	1075.24
1005.96	1083.90
1006.25	1088.12
1006.54	1085.54
1006.83	1092.33
1007.11	1094.43
1007.40	1086.01
1007.69	1071.73
1007.97	1076.41
1008.26	1071.26
1008.55	1068.45
1008.84	1065.88
1009.12	1075.48
1009.41	1070.80
1009.70	1082.26
1009.98	1088.12
1010.27	1085.54
1010.56	1086.94
1010.85	1094.90
1011.13	1082.26
1011.42	1080.16
1011.71	1088.12
1011.99	1086.48
1012.28	1081.80
1012.56	1085.54
1012.85	1088.12
1013.14	1081.33
1013.42	1081.80
1013.71	1085.07
1014.00	1076.88
1014.28	1069.86
1014.57	1070.09
1014.85	1062.84
1015.14	1067.05
1015.43	1072.67
1015.71	1082.50
1016.00	1094.20
1016.28	1089.99
1016.57	1078.75
1016.85	1083.90
1017.14	1080.86
1017.43	1074.07
1017.71	1082.97
1018.00	1081.80
1018.28	1069.39
1018.57	1066.11
1018.85	1064.48
1019.14	1056.05
1019.42	1062.37
1019.71	1084.37
1019.99	1081.56
1020.28	1085.77
1020.56	1094.90
1020.85	1098.65
1021.13	1083.20
1021.42	1081.09
1021.70	1070.56
1021.99	1066.11
1022.27	1060.50
1022.55	1066.11
1022.84	1070.80
>>>>>End Processed Spectral Data<<<<<
