SpectraSuite Data File
++++++++++++++++++++++++++++++++++++
Date: Mon Aug 26 10:26:02 PDT 2019
User: corrico
Dark Spectrum Present: No
Reference Spectrum Present: No
Number of Sampled Component Spectra: 1
Spectrometers: USB2+H06089
Integration Time (usec): 10000 (USB2+H06089)
Spectra Averaged: 2 (USB2+H06089)
Boxcar Smoothing: 2 (USB2+H06089)
Correct for Electrical Dark: No (USB2+H06089)
Strobe/Lamp Enabled: No (USB2+H06089)
Correct for Detector Non-linearity: No (USB2+H06089)
Correct for Stray Light: No (USB2+H06089)
Number of Pixels in Processed Spectrum: 2048
>>>>>Begin Processed Spectral Data<<<<<
339.70	1093.03
340.07	1093.03
340.45	1036.16
340.82	996.37
341.19	960.09
341.57	925.21
341.94	915.15
342.31	905.55
342.69	913.04
343.06	913.51
343.43	909.30
343.81	910.47
344.18	911.40
344.55	917.02
344.93	916.55
345.30	924.75
345.67	937.85
346.04	942.77
346.42	942.53
346.79	956.34
347.16	972.96
347.54	975.07
347.91	984.90
348.28	991.92
348.65	996.60
349.03	990.98
349.40	1004.56
349.77	1012.75
350.14	1020.47
350.52	1034.05
350.89	1045.75
351.26	1032.18
351.63	1037.33
352.01	1042.71
352.38	1044.11
352.75	1049.50
353.12	1066.58
353.50	1067.28
353.87	1066.35
354.24	1061.20
354.61	1060.73
354.98	1058.86
355.36	1052.54
355.73	1049.50
356.10	1050.20
356.47	1047.39
356.84	1048.56
357.22	1047.39
357.59	1050.43
357.96	1054.18
358.33	1061.90
358.70	1063.77
359.08	1081.33
359.45	1082.73
359.82	1072.43
360.19	1072.20
360.56	1071.97
360.94	1067.75
361.31	1074.31
361.68	1087.65
362.05	1082.73
362.42	1079.22
362.79	1071.26
363.16	1058.86
363.54	1048.33
363.91	1042.24
364.28	1049.26
364.65	1061.67
365.02	1073.84
365.39	1075.48
365.76	1081.80
366.14	1075.01
366.51	1050.67
366.88	1045.05
367.25	1043.64
367.62	1040.84
367.99	1040.84
368.36	1051.60
368.73	1052.77
369.10	1063.31
369.48	1068.69
369.85	1064.24
370.22	1073.84
370.59	1075.94
370.96	1069.86
371.33	1067.52
371.70	1076.41
372.07	1065.41
372.44	1060.50
372.81	1058.62
373.18	1055.82
373.55	1053.71
373.93	1065.18
374.30	1061.90
374.67	1060.26
375.04	1059.33
375.41	1054.88
375.78	1047.16
376.15	1053.24
376.52	1067.52
376.89	1066.58
377.26	1072.67
377.63	1086.94
378.00	1084.60
378.37	1070.80
378.74	1066.58
379.11	1066.58
379.48	1054.41
379.85	1054.88
380.22	1064.94
380.59	1077.11
380.96	1078.05
381.33	1076.41
381.70	1075.48
382.07	1074.07
382.44	1073.14
382.81	1086.94
383.18	1090.69
383.55	1093.97
383.92	1096.54
384.29	1100.05
384.66	1083.90
385.03	1091.86
385.40	1097.48
385.77	1093.26
386.14	1074.54
386.51	1070.56
386.88	1067.52
387.25	1058.16
387.62	1052.54
387.99	1066.82
388.36	1071.73
388.73	1072.90
389.10	1089.29
389.46	1093.73
389.83	1089.75
390.20	1087.65
390.57	1086.24
390.94	1072.43
391.31	1070.33
391.68	1073.14
392.05	1076.41
392.42	1072.20
392.79	1066.82
393.16	1067.05
393.53	1071.50
393.89	1068.22
394.26	1071.97
394.63	1088.58
395.00	1093.03
395.37	1082.03
395.74	1077.58
396.11	1076.88
396.48	1067.99
396.84	1066.58
397.21	1068.69
397.58	1076.88
397.95	1080.39
398.32	1072.43
398.69	1078.52
399.06	1086.24
399.42	1085.54
399.79	1077.35
400.16	1091.63
400.53	1086.24
400.90	1083.20
401.27	1086.94
401.64	1081.33
402.00	1083.20
402.37	1088.35
402.74	1086.71
403.11	1083.43
403.48	1093.73
403.84	1082.03
404.21	1072.90
404.58	1071.03
404.95	1067.05
405.32	1069.86
405.68	1070.09
406.05	1079.22
406.42	1086.01
406.79	1085.54
407.16	1080.16
407.52	1075.48
407.89	1071.26
408.26	1059.09
408.63	1065.18
408.99	1068.69
409.36	1076.41
409.73	1069.86
410.10	1077.11
410.47	1077.11
410.83	1073.37
411.20	1067.28
411.57	1068.45
411.94	1067.75
412.30	1067.52
412.67	1061.20
413.04	1065.41
413.40	1070.80
413.77	1068.22
414.14	1074.07
414.51	1082.03
414.87	1081.09
415.24	1078.99
415.61	1084.14
415.97	1070.80
416.34	1065.88
416.71	1072.67
417.08	1070.33
417.44	1071.50
417.81	1079.69
418.18	1078.99
418.54	1080.16
418.91	1080.86
419.28	1081.33
419.64	1075.94
420.01	1076.18
420.38	1071.73
420.74	1068.69
421.11	1066.82
421.48	1067.28
421.84	1078.52
422.21	1070.80
422.58	1078.52
422.94	1076.88
423.31	1074.31
423.68	1071.73
424.04	1078.99
424.41	1072.20
424.77	1077.82
425.14	1086.01
425.51	1078.05
425.87	1080.63
426.24	1084.37
426.61	1074.31
426.97	1064.48
427.34	1071.97
427.70	1067.99
428.07	1060.73
428.44	1064.94
428.80	1066.35
429.17	1063.31
429.53	1063.07
429.90	1069.62
430.27	1071.03
430.63	1087.41
431.00	1089.99
431.36	1085.54
431.73	1076.18
432.09	1073.60
432.46	1060.26
432.83	1056.28
433.19	1054.65
433.56	1056.75
433.92	1054.18
434.29	1059.79
434.65	1062.14
435.02	1067.05
435.38	1077.35
435.75	1083.67
436.11	1085.31
436.48	1086.24
436.84	1085.07
437.21	1084.60
437.57	1087.41
437.94	1090.69
438.30	1092.80
438.67	1098.18
439.03	1101.22
439.40	1092.33
439.76	1076.65
440.13	1074.77
440.49	1073.14
440.86	1067.52
441.22	1070.56
441.59	1078.05
441.95	1078.05
442.32	1081.80
442.68	1091.39
443.05	1089.99
443.41	1090.69
443.78	1089.29
444.14	1085.54
444.51	1074.54
444.87	1077.58
445.24	1082.50
445.60	1075.24
445.96	1078.05
446.33	1077.11
446.69	1071.03
447.06	1066.58
447.42	1070.56
447.79	1068.22
448.15	1070.09
448.51	1073.84
448.88	1075.24
449.24	1071.03
449.61	1074.54
449.97	1082.26
450.33	1093.97
450.70	1089.75
451.06	1090.69
451.43	1092.56
451.79	1084.60
452.15	1068.22
452.52	1076.88
452.88	1081.80
453.24	1083.20
453.61	1076.18
453.97	1078.99
454.34	1067.28
454.70	1066.11
455.06	1063.31
455.43	1064.48
455.79	1071.73
456.15	1074.77
456.52	1070.56
456.88	1065.18
457.24	1074.31
457.61	1065.88
457.97	1071.26
458.33	1080.63
458.70	1082.03
459.06	1076.88
459.42	1084.14
459.79	1083.43
460.15	1085.54
460.51	1077.82
460.88	1080.86
461.24	1078.05
461.60	1074.77
461.96	1060.26
462.33	1070.33
462.69	1067.05
463.05	1073.60
463.42	1065.41
463.78	1071.03
464.14	1079.46
464.50	1078.99
464.87	1075.24
465.23	1089.52
465.59	1095.60
465.95	1084.84
466.32	1090.69
466.68	1079.69
467.04	1078.28
467.40	1080.39
467.77	1082.26
468.13	1075.48
468.49	1083.20
468.85	1085.54
469.22	1085.77
469.58	1087.18
469.94	1083.67
470.30	1086.24
470.66	1083.43
471.03	1079.92
471.39	1078.05
471.75	1084.60
472.11	1081.09
472.47	1072.90
472.84	1069.39
473.20	1060.26
473.56	1060.50
473.92	1056.99
474.28	1069.86
474.65	1082.26
475.01	1085.77
475.37	1084.14
475.73	1093.50
476.09	1087.41
476.45	1074.77
476.81	1077.35
477.18	1068.22
477.54	1053.71
477.90	1046.45
478.26	1048.09
478.62	1047.39
478.98	1063.54
479.34	1079.22
479.71	1083.20
480.07	1090.22
480.43	1091.63
480.79	1084.60
481.15	1088.82
481.51	1086.24
481.87	1080.86
482.23	1080.86
482.59	1082.97
482.96	1073.60
483.32	1079.92
483.68	1078.75
484.04	1080.86
484.40	1079.22
484.76	1079.46
485.12	1086.24
485.48	1082.73
485.84	1078.99
486.20	1079.22
486.56	1078.52
486.92	1066.11
487.28	1062.60
487.64	1068.22
488.00	1071.50
488.37	1062.37
488.73	1060.50
489.09	1056.52
489.45	1055.35
489.81	1063.77
490.17	1064.01
490.53	1071.73
490.89	1078.28
491.25	1072.90
491.61	1060.26
491.97	1071.26
492.33	1072.20
492.69	1078.28
493.05	1087.65
493.41	1098.65
493.77	1094.67
494.13	1089.29
494.49	1086.48
494.85	1087.41
495.21	1083.20
495.57	1078.52
495.93	1081.56
496.29	1088.82
496.64	1081.09
497.00	1075.71
497.36	1091.86
497.72	1098.88
498.08	1092.09
498.44	1096.07
498.80	1102.16
499.16	1092.33
499.52	1088.58
499.88	1086.48
500.24	1092.33
500.60	1085.31
500.96	1078.99
501.32	1067.75
501.68	1067.99
502.03	1061.20
502.39	1073.14
502.75	1085.31
503.11	1095.14
503.47	1089.52
503.83	1094.43
504.19	1090.92
504.55	1089.29
504.91	1090.69
505.26	1099.35
505.62	1100.29
505.98	1096.31
506.34	1100.52
506.70	1105.44
507.06	1093.50
507.42	1081.33
507.78	1074.77
508.13	1069.62
508.49	1062.84
508.85	1075.71
509.21	1078.75
509.57	1082.97
509.93	1082.50
510.28	1088.12
510.64	1086.01
511.00	1095.14
511.36	1095.37
511.72	1086.71
512.07	1077.11
512.43	1087.41
512.79	1078.28
513.15	1087.41
513.51	1104.50
513.86	1107.54
514.22	1101.69
514.58	1108.48
514.94	1101.22
515.30	1095.37
515.65	1090.69
516.01	1087.18
516.37	1088.35
516.73	1093.03
517.08	1090.69
517.44	1093.97
517.80	1094.90
518.16	1090.22
518.51	1084.84
518.87	1086.24
519.23	1090.46
519.59	1090.22
519.94	1082.26
520.30	1083.43
520.66	1082.03
521.01	1085.77
521.37	1099.82
521.73	1102.63
522.09	1100.05
522.44	1097.95
522.80	1091.63
523.16	1073.60
523.51	1086.48
523.87	1092.33
524.23	1104.50
524.58	1099.12
524.94	1100.29
525.30	1097.71
525.65	1093.97
526.01	1091.16
526.37	1101.92
526.72	1117.61
527.08	1120.18
527.44	1113.16
527.79	1108.01
528.15	1102.63
528.51	1090.22
528.86	1079.22
529.22	1090.69
529.58	1097.01
529.93	1097.48
530.29	1100.05
530.65	1093.97
531.00	1092.33
531.36	1088.12
531.71	1093.26
532.07	1089.05
532.43	1105.20
532.78	1103.80
533.14	1102.86
533.49	1102.39
533.85	1108.01
534.21	1099.12
534.56	1098.41
534.92	1089.75
535.27	1086.94
535.63	1080.86
535.98	1081.09
536.34	1079.46
536.69	1082.73
537.05	1073.60
537.41	1074.54
537.76	1080.16
538.12	1076.18
538.47	1086.48
538.83	1089.29
539.18	1090.69
539.54	1082.03
539.89	1079.69
540.25	1069.86
540.60	1071.97
540.96	1078.75
541.31	1085.31
541.67	1088.58
542.02	1084.37
542.38	1086.94
542.73	1076.88
543.09	1067.52
543.44	1070.56
543.80	1077.82
544.15	1077.58
544.51	1078.52
544.86	1090.46
545.22	1094.43
545.57	1098.65
545.93	1104.97
546.28	1100.29
546.64	1104.73
546.99	1107.31
547.35	1092.56
547.70	1082.97
548.05	1084.37
548.41	1090.46
548.76	1078.75
549.12	1075.24
549.47	1081.09
549.83	1087.18
550.18	1064.24
550.53	1066.58
550.89	1083.67
551.24	1072.67
551.60	1067.75
551.95	1073.84
552.30	1082.26
552.66	1080.63
553.01	1086.94
553.37	1084.14
553.72	1082.50
554.07	1071.03
554.43	1070.80
554.78	1074.77
555.13	1094.43
555.49	1097.24
555.84	1108.95
556.19	1108.71
556.55	1106.37
556.90	1094.90
557.26	1092.09
557.61	1093.50
557.96	1089.52
558.32	1091.39
558.67	1094.90
559.02	1095.37
559.37	1089.29
559.73	1092.33
560.08	1096.07
560.43	1093.73
560.79	1092.09
561.14	1092.09
561.49	1087.65
561.85	1083.43
562.20	1075.01
562.55	1082.03
562.90	1085.54
563.26	1089.29
563.61	1084.84
563.96	1087.41
564.32	1078.75
564.67	1076.65
565.02	1075.71
565.37	1070.80
565.73	1075.24
566.08	1074.54
566.43	1063.77
566.78	1067.28
567.14	1076.88
567.49	1082.26
567.84	1086.71
568.19	1096.07
568.54	1093.97
568.90	1090.22
569.25	1084.84
569.60	1090.92
569.95	1084.37
570.31	1078.05
570.66	1074.31
571.01	1077.82
571.36	1078.52
571.71	1078.28
572.06	1077.35
572.42	1084.60
572.77	1079.92
573.12	1074.31
573.47	1082.03
573.82	1086.01
574.18	1087.18
574.53	1089.52
574.88	1084.14
575.23	1076.88
575.58	1063.77
575.93	1065.41
576.28	1066.58
576.64	1074.54
576.99	1081.09
577.34	1091.16
577.69	1088.58
578.04	1095.60
578.39	1100.05
578.74	1091.16
579.09	1101.69
579.44	1093.50
579.80	1079.69
580.15	1074.07
580.50	1092.33
580.85	1086.24
581.20	1091.39
581.55	1095.14
581.90	1089.99
582.25	1084.60
582.60	1083.43
582.95	1086.24
583.30	1082.50
583.65	1083.20
584.00	1078.99
584.35	1081.33
584.71	1079.46
585.06	1084.84
585.41	1086.24
585.76	1089.29
586.11	1086.24
586.46	1079.22
586.81	1078.05
587.16	1083.43
587.51	1071.26
587.86	1073.60
588.21	1082.50
588.56	1074.31
588.91	1082.03
589.26	1094.67
589.61	1102.39
589.96	1094.67
590.31	1102.39
590.66	1092.09
591.01	1091.86
591.36	1082.26
591.71	1090.92
592.06	1088.58
592.41	1086.71
592.76	1084.84
593.10	1089.99
593.45	1086.71
593.80	1086.94
594.15	1085.07
594.50	1077.58
594.85	1072.67
595.20	1074.07
595.55	1069.16
595.90	1076.41
596.25	1078.52
596.60	1079.92
596.95	1076.88
597.30	1084.14
597.64	1138.20
597.99	1137.50
598.34	1136.56
598.69	1135.16
599.04	1142.88
599.39	1088.35
599.74	1088.35
600.09	1078.99
600.44	1089.75
600.78	1081.56
601.13	1074.31
601.48	1078.99
601.83	1093.73
602.18	1087.88
602.53	1092.33
602.88	1100.29
603.22	1103.56
603.57	1099.35
603.92	1088.35
604.27	1085.54
604.62	1072.43
604.97	1063.31
605.31	1057.45
605.66	1064.71
606.01	1069.86
606.36	1080.86
606.71	1080.86
607.05	1093.50
607.40	1091.16
607.75	1074.77
608.10	1069.86
608.44	1068.69
608.79	1056.05
609.14	1064.24
609.49	1074.77
609.84	1066.58
610.18	1069.86
610.53	1084.37
610.88	1083.90
611.23	1088.58
611.57	1098.88
611.92	1105.67
612.27	1091.63
612.62	1093.26
612.96	1088.12
613.31	1088.12
613.66	1088.35
614.00	1089.52
614.35	1084.84
614.70	1092.56
615.05	1096.07
615.39	1091.16
615.74	1093.03
616.09	1083.90
616.43	1071.97
616.78	1064.24
617.13	1065.18
617.47	1066.82
617.82	1078.75
618.17	1076.88
618.51	1080.16
618.86	1085.31
619.21	1087.18
619.55	1084.37
619.90	1095.84
620.25	1094.90
620.59	1096.78
620.94	1094.90
621.29	1095.14
621.63	1092.09
621.98	1104.97
622.32	1095.37
622.67	1097.95
623.02	1097.01
623.36	1097.01
623.71	1086.24
624.05	1087.65
624.40	1081.33
624.75	1076.88
625.09	1076.65
625.44	1073.14
625.78	1069.62
626.13	1075.48
626.48	1072.67
626.82	1064.71
627.17	1067.28
627.51	1056.52
627.86	1051.60
628.20	1055.58
628.55	1058.62
628.89	1053.01
629.24	1062.84
629.58	1066.35
629.93	1078.28
630.28	1083.67
630.62	1093.73
630.97	1098.18
631.31	1095.14
631.66	1086.71
632.00	1078.28
632.35	1077.58
632.69	1077.58
633.04	1072.43
633.38	1065.41
633.73	1068.69
634.07	1067.99
634.42	1067.99
634.76	1076.18
635.11	1096.54
635.45	1099.35
635.79	1089.29
636.14	1096.07
636.48	1105.90
636.83	1080.39
637.17	1083.67
637.52	1098.88
637.86	1093.73
638.21	1075.48
638.55	1084.60
638.89	1086.24
639.24	1078.75
639.58	1084.60
639.93	1093.50
640.27	1104.50
640.61	1107.54
640.96	1106.37
641.30	1106.84
641.65	1106.14
641.99	1105.44
642.33	1102.86
642.68	1097.71
643.02	1095.84
643.37	1093.97
643.71	1085.77
644.05	1081.56
644.40	1087.18
644.74	1084.14
645.08	1073.14
645.43	1075.24
645.77	1072.90
646.11	1072.90
646.46	1058.62
646.80	1068.45
647.14	1074.54
647.49	1072.20
647.83	1072.67
648.17	1088.82
648.52	1089.05
648.86	1078.52
649.20	1081.56
649.55	1087.18
649.89	1086.01
650.23	1081.56
650.57	1083.43
650.92	1079.46
651.26	1066.58
651.60	1064.48
651.95	1072.20
652.29	1077.35
652.63	1082.03
652.97	1089.52
653.32	1084.60
653.66	1086.48
654.00	1081.33
654.34	1076.41
654.69	1072.43
655.03	1078.52
655.37	1083.43
655.71	1084.84
656.05	1089.99
656.40	1091.16
656.74	1096.54
657.08	1094.67
657.42	1092.33
657.76	1089.99
658.11	1097.24
658.45	1096.31
658.79	1084.37
659.13	1085.54
659.47	1085.77
659.82	1080.16
660.16	1074.54
660.50	1083.20
660.84	1078.99
661.18	1083.43
661.52	1087.41
661.87	1090.92
662.21	1090.92
662.55	1093.50
662.89	1087.18
663.23	1076.88
663.57	1067.75
663.91	1058.39
664.25	1064.48
664.60	1075.24
664.94	1085.77
665.28	1091.16
665.62	1109.18
665.96	1105.20
666.30	1100.75
666.64	1096.31
666.98	1099.12
667.32	1088.12
667.66	1086.01
668.01	1084.84
668.35	1092.33
668.69	1089.75
669.03	1087.88
669.37	1094.67
669.71	1086.48
670.05	1080.39
670.39	1083.67
670.73	1081.56
671.07	1074.07
671.41	1069.86
671.75	1066.58
672.09	1057.92
672.43	1070.80
672.77	1075.24
673.11	1083.67
673.45	1083.67
673.79	1083.20
674.13	1076.88
674.47	1078.05
674.81	1076.41
675.15	1087.18
675.49	1101.46
675.83	1098.88
676.17	1093.73
676.51	1095.37
676.85	1097.24
677.19	1090.22
677.53	1099.82
677.87	1103.80
678.21	1106.14
678.55	1093.97
678.89	1098.65
679.23	1079.46
679.57	1075.71
679.90	1068.22
680.24	1079.22
680.58	1083.43
680.92	1091.63
681.26	1089.75
681.60	1088.82
681.94	1080.39
682.28	1061.90
682.62	1060.26
682.96	1058.39
683.29	1066.82
683.63	1064.01
683.97	1065.18
684.31	1072.67
684.65	1071.73
684.99	1067.52
685.33	1077.58
685.67	1089.75
686.00	1078.52
686.34	1085.54
686.68	1099.12
687.02	1097.01
687.36	1080.86
687.70	1086.71
688.03	1083.43
688.37	1067.28
688.71	1063.77
689.05	1079.69
689.39	1074.07
689.72	1074.77
690.06	1077.82
690.40	1080.86
690.74	1063.54
691.08	1066.58
691.41	1067.28
691.75	1065.41
692.09	1061.43
692.43	1075.71
692.76	1069.86
693.10	1074.07
693.44	1077.11
693.78	1078.28
694.11	1078.52
694.45	1092.33
694.79	1093.50
695.13	1103.80
695.46	1105.90
695.80	1098.65
696.14	1094.43
696.48	1093.73
696.81	1086.24
697.15	1078.52
697.49	1085.31
697.82	1081.09
698.16	1076.65
698.50	1079.22
698.83	1080.16
699.17	1081.56
699.51	1088.82
699.84	1087.18
700.18	1079.92
700.52	1077.82
700.85	1077.11
701.19	1066.11
701.53	1062.60
701.86	1061.67
702.20	1075.48
702.54	1069.86
702.87	1075.71
703.21	1088.35
703.55	1095.84
703.88	1086.24
704.22	1083.43
704.55	1087.18
704.89	1075.48
705.23	1076.65
705.56	1073.84
705.90	1082.73
706.23	1082.97
706.57	1088.12
706.91	1085.31
707.24	1091.39
707.58	1082.73
707.91	1090.69
708.25	1099.12
708.58	1097.01
708.92	1098.41
709.26	1103.33
709.59	1097.71
709.93	1085.07
710.26	1080.86
710.60	1074.54
710.93	1076.88
711.27	1078.99
711.60	1085.07
711.94	1084.84
712.27	1096.54
712.61	1099.35
712.94	1096.31
713.28	1098.41
713.61	1107.07
713.95	1097.01
714.28	1087.88
714.62	1074.77
714.95	1066.82
715.29	1061.20
715.62	1063.77
715.96	1070.80
716.29	1079.46
716.63	1082.03
716.96	1080.16
717.29	1078.05
717.63	1068.69
717.96	1070.33
718.30	1080.63
718.63	1082.73
718.97	1080.39
719.30	1091.16
719.63	1088.58
719.97	1070.80
720.30	1070.80
720.64	1073.14
720.97	1069.62
721.30	1070.33
721.64	1086.71
721.97	1082.50
722.31	1078.99
722.64	1081.09
722.97	1084.60
723.31	1079.22
723.64	1086.94
723.97	1088.58
724.31	1090.22
724.64	1087.65
724.98	1082.73
725.31	1081.09
725.64	1091.63
725.98	1084.37
726.31	1090.92
726.64	1092.80
726.97	1086.71
727.31	1074.77
727.64	1069.39
727.97	1064.48
728.31	1070.56
728.64	1075.94
728.97	1075.01
729.31	1079.69
729.64	1079.92
729.97	1085.07
730.30	1088.12
730.64	1089.99
730.97	1086.01
731.30	1082.97
731.63	1073.37
731.97	1074.07
732.30	1080.16
732.63	1083.67
732.96	1082.73
733.30	1078.28
733.63	1076.65
733.96	1067.52
734.29	1070.80
734.63	1075.01
734.96	1080.16
735.29	1072.67
735.62	1073.14
735.95	1069.39
736.29	1065.65
736.62	1067.75
736.95	1073.37
737.28	1082.50
737.61	1093.73
737.94	1094.90
738.28	1093.97
738.61	1090.22
738.94	1076.65
739.27	1077.58
739.60	1084.60
739.93	1089.29
740.27	1093.26
740.60	1097.95
740.93	1088.82
741.26	1077.58
741.59	1068.92
741.92	1066.58
742.25	1071.26
742.58	1073.84
742.91	1079.22
743.25	1073.84
743.58	1064.71
743.91	1065.65
744.24	1071.03
744.57	1075.71
744.90	1091.16
745.23	1101.69
745.56	1100.05
745.89	1086.94
746.22	1084.14
746.55	1075.24
746.88	1078.05
747.21	1071.03
747.54	1073.60
747.87	1073.84
748.20	1070.56
748.53	1062.14
748.87	1063.07
749.20	1064.94
749.53	1066.35
749.86	1080.86
750.19	1082.73
750.52	1081.56
750.85	1085.07
751.18	1078.75
751.51	1066.35
751.84	1070.56
752.16	1073.37
752.49	1073.14
752.82	1074.54
753.15	1065.65
753.48	1066.11
753.81	1065.41
754.14	1064.71
754.47	1064.71
754.80	1079.92
755.13	1082.97
755.46	1098.41
755.79	1103.09
756.12	1109.65
756.45	1109.18
756.78	1105.90
757.11	1095.14
757.43	1089.29
757.76	1073.37
758.09	1065.18
758.42	1056.99
758.75	1053.48
759.08	1066.82
759.41	1077.11
759.74	1081.09
760.07	1085.31
760.39	1089.29
760.72	1077.11
761.05	1074.07
761.38	1070.56
761.71	1073.14
762.04	1072.20
762.36	1075.94
762.69	1075.71
763.02	1066.82
763.35	1069.16
763.68	1073.14
764.01	1069.16
764.33	1073.60
764.66	1090.92
764.99	1088.35
765.32	1081.80
765.65	1080.86
765.97	1078.28
766.30	1083.67
766.63	1088.35
766.96	1103.56
767.28	1101.92
767.61	1095.84
767.94	1090.22
768.27	1081.09
768.59	1075.48
768.92	1076.41
769.25	1078.75
769.58	1072.90
769.90	1070.09
770.23	1064.94
770.56	1056.75
770.89	1059.79
771.21	1061.43
771.54	1064.01
771.87	1064.24
772.19	1083.90
772.52	1085.77
772.85	1074.31
773.17	1078.75
773.50	1080.39
773.83	1062.84
774.15	1064.48
774.48	1080.63
774.81	1089.52
775.13	1082.50
775.46	1093.73
775.79	1087.65
776.11	1085.54
776.44	1075.71
776.77	1081.33
777.09	1081.56
777.42	1083.43
777.74	1090.22
778.07	1103.33
778.40	1103.33
778.72	1100.05
779.05	1105.67
779.37	1089.75
779.70	1075.01
780.03	1076.65
780.35	1072.67
780.68	1070.56
781.00	1072.67
781.33	1083.43
781.65	1080.63
781.98	1095.37
782.31	1100.52
782.63	1106.61
782.96	1096.07
783.28	1092.33
783.61	1085.77
783.93	1079.69
784.26	1067.52
784.58	1070.33
784.91	1081.33
785.23	1079.22
785.56	1084.37
785.88	1095.37
786.21	1090.69
786.53	1092.33
786.86	1094.67
787.18	1093.26
787.51	1090.22
787.83	1104.50
788.16	1097.48
788.48	1082.26
788.81	1081.09
789.13	1075.94
789.46	1063.07
789.78	1051.84
790.10	1067.28
790.43	1070.56
790.75	1072.90
791.08	1079.92
791.40	1097.48
791.73	1099.58
792.05	1094.43
792.37	1100.75
792.70	1094.20
793.02	1086.94
793.35	1081.09
793.67	1078.75
793.99	1081.56
794.32	1085.77
794.64	1082.50
794.96	1076.88
795.29	1080.86
795.61	1074.07
795.93	1074.77
796.26	1075.94
796.58	1083.43
796.91	1084.37
797.23	1085.54
797.55	1080.86
797.87	1080.63
798.20	1079.46
798.52	1082.03
798.84	1085.77
799.17	1079.69
799.49	1075.48
799.81	1070.33
800.14	1063.77
800.46	1059.09
800.78	1064.71
801.10	1061.90
801.43	1062.84
801.75	1059.09
802.07	1059.56
802.40	1063.77
802.72	1071.97
803.04	1081.33
803.36	1084.60
803.69	1088.12
804.01	1088.82
804.33	1084.37
804.65	1071.97
804.97	1065.65
805.30	1059.09
805.62	1051.84
805.94	1057.45
806.26	1068.22
806.58	1072.43
806.91	1080.63
807.23	1089.52
807.55	1096.54
807.87	1094.90
808.19	1090.22
808.52	1081.33
808.84	1081.56
809.16	1072.43
809.48	1061.90
809.80	1071.26
810.12	1075.01
810.44	1071.97
810.77	1068.22
811.09	1066.82
811.41	1058.39
811.73	1061.43
812.05	1064.01
812.37	1063.31
812.69	1060.96
813.01	1071.50
813.33	1074.77
813.66	1070.33
813.98	1079.92
814.30	1081.80
814.62	1070.09
814.94	1070.56
815.26	1070.33
815.58	1072.20
815.90	1084.37
816.22	1100.05
816.54	1090.92
816.86	1097.24
817.18	1098.41
817.50	1093.97
817.82	1086.48
818.14	1092.09
818.46	1089.75
818.78	1085.31
819.10	1084.84
819.42	1083.20
819.74	1075.71
820.06	1074.77
820.38	1069.86
820.70	1073.14
821.02	1071.26
821.34	1075.01
821.66	1069.62
821.98	1059.33
822.30	1053.48
822.62	1052.54
822.94	1053.94
823.26	1057.69
823.58	1066.35
823.90	1071.97
824.22	1079.22
824.54	1078.75
824.86	1076.65
825.18	1076.41
825.50	1067.52
825.81	1067.99
826.13	1064.48
826.45	1064.24
826.77	1064.48
827.09	1072.20
827.41	1052.07
827.73	1051.13
828.05	1054.65
828.36	1053.94
828.68	1046.22
829.00	1063.54
829.32	1060.73
829.64	1056.52
829.96	1059.56
830.28	1070.33
830.59	1071.03
830.91	1075.94
831.23	1088.82
831.55	1092.56
831.87	1084.60
832.19	1084.60
832.50	1086.48
832.82	1074.07
833.14	1068.22
833.46	1071.73
833.78	1071.03
834.09	1074.07
834.41	1084.37
834.73	1084.84
835.05	1076.18
835.36	1080.39
835.68	1078.05
836.00	1075.01
836.32	1082.26
836.63	1098.41
836.95	1084.84
837.27	1084.84
837.59	1073.84
837.90	1064.01
838.22	1056.52
838.54	1062.37
838.85	1074.77
839.17	1078.52
839.49	1088.35
839.80	1091.63
840.12	1091.16
840.44	1080.16
840.76	1080.86
841.07	1075.71
841.39	1074.54
841.71	1075.94
842.02	1088.12
842.34	1099.12
842.65	1103.33
842.97	1108.01
843.29	1113.16
843.60	1104.73
843.92	1109.88
844.24	1104.73
844.55	1096.54
844.87	1091.16
845.18	1082.73
845.50	1063.31
845.82	1073.60
846.13	1082.97
846.45	1082.50
846.76	1086.71
847.08	1097.95
847.40	1087.88
847.71	1071.97
848.03	1078.99
848.34	1079.46
848.66	1073.60
848.97	1078.75
849.29	1089.52
849.60	1083.43
849.92	1094.90
850.24	1096.78
850.55	1087.65
850.87	1086.24
851.18	1090.92
851.50	1076.18
851.81	1067.05
852.13	1074.54
852.44	1074.54
852.76	1065.88
853.07	1075.71
853.39	1081.09
853.70	1074.31
854.01	1078.52
854.33	1089.75
854.64	1084.84
854.96	1094.20
855.27	1103.09
855.59	1097.95
855.90	1088.35
856.22	1087.41
856.53	1079.92
856.84	1075.94
857.16	1069.16
857.47	1075.48
857.79	1079.92
858.10	1076.65
858.41	1066.11
858.73	1083.20
859.04	1078.75
859.36	1071.97
859.67	1076.41
859.98	1090.22
860.30	1081.33
860.61	1081.80
860.92	1089.05
861.24	1084.14
861.55	1086.01
861.87	1076.88
862.18	1084.37
862.49	1079.69
862.81	1084.60
863.12	1080.39
863.43	1093.03
863.74	1098.88
864.06	1096.31
864.37	1095.84
864.68	1100.75
865.00	1093.26
865.31	1078.28
865.62	1080.63
865.94	1083.90
866.25	1077.35
866.56	1071.50
866.87	1065.41
867.19	1062.60
867.50	1052.30
867.81	1062.60
868.12	1068.22
868.44	1075.94
868.75	1079.69
869.06	1088.58
869.37	1076.88
869.68	1088.82
870.00	1097.24
870.31	1101.69
870.62	1104.97
870.93	1107.54
871.24	1104.50
871.56	1102.63
871.87	1090.92
872.18	1088.58
872.49	1081.80
872.80	1071.26
873.12	1067.52
873.43	1074.77
873.74	1073.37
874.05	1083.20
874.36	1074.31
874.67	1074.31
874.98	1080.39
875.29	1078.05
875.61	1074.77
875.92	1090.22
876.23	1092.33
876.54	1084.84
876.85	1081.09
877.16	1089.99
877.47	1095.60
877.78	1090.46
878.09	1084.84
878.40	1092.09
878.72	1084.37
879.03	1081.09
879.34	1075.48
879.65	1075.24
879.96	1073.60
880.27	1071.26
880.58	1065.65
880.89	1082.97
881.20	1090.46
881.51	1086.01
881.82	1090.69
882.13	1093.97
882.44	1088.58
882.75	1089.29
883.06	1086.94
883.37	1088.12
883.68	1078.05
883.99	1076.41
884.30	1079.46
884.61	1080.39
884.92	1076.41
885.23	1088.82
885.54	1095.14
885.85	1093.97
886.16	1097.24
886.47	1097.71
886.78	1097.24
887.08	1090.22
887.39	1077.82
887.70	1081.56
888.01	1078.99
888.32	1078.52
888.63	1075.01
888.94	1077.82
889.25	1069.39
889.56	1071.50
889.87	1064.24
890.17	1076.65
890.48	1085.07
890.79	1096.07
891.10	1097.24
891.41	1097.48
891.72	1090.69
892.03	1092.33
892.34	1082.73
892.64	1079.69
892.95	1073.37
893.26	1068.45
893.57	1068.45
893.88	1073.37
894.18	1072.67
894.49	1078.28
894.80	1078.52
895.11	1065.88
895.42	1067.99
895.72	1072.20
896.03	1078.52
896.34	1075.24
896.65	1100.52
896.96	1099.12
897.26	1097.71
897.57	1095.37
897.88	1100.29
898.19	1088.35
898.49	1096.54
898.80	1094.90
899.11	1092.09
899.41	1085.77
899.72	1079.92
900.03	1072.43
900.34	1068.22
900.64	1075.48
900.95	1081.80
901.26	1080.16
901.56	1072.20
901.87	1071.26
902.18	1068.92
902.48	1077.58
902.79	1080.63
903.10	1087.65
903.40	1095.84
903.71	1097.48
904.02	1096.31
904.32	1104.73
904.63	1096.31
904.94	1090.46
905.24	1084.60
905.55	1088.35
905.85	1083.90
906.16	1094.20
906.47	1096.07
906.77	1100.29
907.08	1086.94
907.38	1075.48
907.69	1077.82
908.00	1083.43
908.30	1094.20
908.61	1095.60
908.91	1099.12
909.22	1094.20
909.52	1087.65
909.83	1074.31
910.14	1069.86
910.44	1074.77
910.75	1075.24
911.05	1084.60
911.36	1082.50
911.66	1090.69
911.97	1086.01
912.27	1083.67
912.58	1076.41
912.88	1075.71
913.19	1064.24
913.49	1064.48
913.80	1069.16
914.10	1075.48
914.41	1073.14
914.71	1087.41
915.01	1087.65
915.32	1078.05
915.62	1069.39
915.93	1078.28
916.23	1070.56
916.54	1078.52
916.84	1090.92
917.15	1090.69
917.45	1080.39
917.75	1082.73
918.06	1075.24
918.36	1070.09
918.67	1079.69
918.97	1095.37
919.27	1098.41
919.58	1097.71
919.88	1108.01
920.18	1104.73
920.49	1094.67
920.79	1078.52
921.10	1074.07
921.40	1064.48
921.70	1059.56
922.01	1059.56
922.31	1060.73
922.61	1077.35
922.92	1079.46
923.22	1077.82
923.52	1068.45
923.82	1086.24
924.13	1080.63
924.43	1075.48
924.73	1076.18
925.04	1090.46
925.34	1083.90
925.64	1081.33
925.94	1084.60
926.25	1086.94
926.55	1088.12
926.85	1087.18
927.15	1079.46
927.46	1071.26
927.76	1076.88
928.06	1078.99
928.36	1085.07
928.67	1085.54
928.97	1086.71
929.27	1081.33
929.57	1081.56
929.87	1076.41
930.18	1079.69
930.48	1081.56
930.78	1090.46
931.08	1088.12
931.38	1087.88
931.69	1094.90
931.99	1103.09
932.29	1095.60
932.59	1100.29
932.89	1095.60
933.19	1084.37
933.49	1079.46
933.80	1077.11
934.10	1064.48
934.40	1067.99
934.70	1077.35
935.00	1074.07
935.30	1078.99
935.60	1081.80
935.90	1084.84
936.20	1086.48
936.50	1086.01
936.81	1083.67
937.11	1098.65
937.41	1100.05
937.71	1098.41
938.01	1103.09
938.31	1101.92
938.61	1086.71
938.91	1077.82
939.21	1072.43
939.51	1071.26
939.81	1069.16
940.11	1069.16
940.41	1078.99
940.71	1084.60
941.01	1077.35
941.31	1076.65
941.61	1086.01
941.91	1080.63
942.21	1074.07
942.51	1082.26
942.81	1079.92
943.11	1064.48
943.41	1067.52
943.71	1071.03
944.01	1076.65
944.31	1084.60
944.61	1084.14
944.90	1084.37
945.20	1075.94
945.50	1075.01
945.80	1075.71
946.10	1075.94
946.40	1069.62
946.70	1077.82
947.00	1078.52
947.30	1073.84
947.60	1087.41
947.89	1089.99
948.19	1081.09
948.49	1070.80
948.79	1078.05
949.09	1070.56
949.39	1066.58
949.69	1069.16
949.98	1076.65
950.28	1076.41
950.58	1086.01
950.88	1091.63
951.18	1105.90
951.48	1097.95
951.77	1086.48
952.07	1076.41
952.37	1073.84
952.67	1069.86
952.97	1071.03
953.26	1083.43
953.56	1090.46
953.86	1097.71
954.16	1095.37
954.45	1099.82
954.75	1100.75
955.05	1092.80
955.35	1089.99
955.64	1080.63
955.94	1078.75
956.24	1069.16
956.54	1079.92
956.83	1080.16
957.13	1084.60
957.43	1080.39
957.72	1078.75
958.02	1067.75
958.32	1060.73
958.61	1062.37
958.91	1063.77
959.21	1068.22
959.50	1065.65
959.80	1078.99
960.10	1089.99
960.39	1100.75
960.69	1102.39
960.99	1112.46
961.28	1092.33
961.58	1090.46
961.87	1078.75
962.17	1075.01
962.47	1060.50
962.76	1077.11
963.06	1071.50
963.36	1072.43
963.65	1077.82
963.95	1084.84
964.24	1073.37
964.54	1071.03
964.83	1078.05
965.13	1077.35
965.42	1083.20
965.72	1081.09
966.02	1086.01
966.31	1085.77
966.61	1079.22
966.90	1079.22
967.20	1089.29
967.49	1084.37
967.79	1086.24
968.08	1087.65
968.38	1088.35
968.67	1076.88
968.97	1067.75
969.26	1051.84
969.56	1056.99
969.85	1049.50
970.15	1063.31
970.44	1057.69
970.74	1070.09
971.03	1078.52
971.32	1086.94
971.62	1077.58
971.91	1094.90
972.21	1094.90
972.50	1086.01
972.80	1088.82
973.09	1096.78
973.38	1089.75
973.68	1093.97
973.97	1084.84
974.27	1074.31
974.56	1070.80
974.85	1078.28
975.15	1068.92
975.44	1078.05
975.73	1084.14
976.03	1078.99
976.32	1077.11
976.61	1081.80
976.91	1078.05
977.20	1077.58
977.49	1071.97
977.79	1073.37
978.08	1071.97
978.37	1072.43
978.67	1067.52
978.96	1079.22
979.25	1077.11
979.55	1078.99
979.84	1074.54
980.13	1080.39
980.42	1077.35
980.72	1086.01
981.01	1081.56
981.30	1094.43
981.59	1087.65
981.89	1085.54
982.18	1070.33
982.47	1075.71
982.76	1056.05
983.06	1052.54
983.35	1056.75
983.64	1067.05
983.93	1061.67
984.22	1071.03
984.52	1071.26
984.81	1069.39
985.10	1065.18
985.39	1068.92
985.68	1069.39
985.97	1075.94
986.27	1079.69
986.56	1086.48
986.85	1075.24
987.14	1076.41
987.43	1078.99
987.72	1076.41
988.01	1068.22
988.31	1069.39
988.60	1064.24
988.89	1062.37
989.18	1057.92
989.47	1065.41
989.76	1075.01
990.05	1080.86
990.34	1078.28
990.63	1086.94
990.92	1083.90
991.21	1085.77
991.51	1086.01
991.80	1085.31
992.09	1078.05
992.38	1067.05
992.67	1065.88
992.96	1066.82
993.25	1082.73
993.54	1087.65
993.83	1094.20
994.12	1082.97
994.41	1089.29
994.70	1079.46
994.99	1076.88
995.28	1082.97
995.57	1093.73
995.86	1097.24
996.15	1094.90
996.44	1094.90
996.73	1088.58
997.02	1096.31
997.31	1076.65
997.59	1075.94
997.88	1078.52
998.17	1071.97
998.46	1069.62
998.75	1071.03
999.04	1073.37
999.33	1071.50
999.62	1083.90
999.91	1080.63
1000.20	1096.07
1000.49	1088.58
1000.77	1086.01
1001.06	1081.80
1001.35	1086.94
1001.64	1069.16
1001.93	1070.09
1002.22	1078.75
1002.51	1076.41
1002.79	1063.31
1003.08	1078.99
1003.37	1093.50
1003.66	1082.03
1003.95	1081.33
1004.23	1089.99
1004.52	1081.80
1004.81	1067.28
1005.10	1071.73
1005.39	1074.31
1005.67	1070.80
1005.96	1073.37
1006.25	1072.90
1006.54	1067.75
1006.83	1067.75
1007.11	1069.62
1007.40	1069.62
1007.69	1076.88
1007.97	1081.09
1008.26	1091.16
1008.55	1087.65
1008.84	1079.46
1009.12	1075.01
1009.41	1080.39
1009.70	1063.77
1009.98	1072.90
1010.27	1085.31
1010.56	1089.75
1010.85	1083.20
1011.13	1087.18
1011.42	1085.07
1011.71	1090.92
1011.99	1095.14
1012.28	1103.80
1012.56	1102.16
1012.85	1096.54
1013.14	1070.56
1013.42	1056.28
1013.71	1061.90
1014.00	1068.92
1014.28	1066.58
1014.57	1086.94
1014.85	1095.84
1015.14	1086.71
1015.43	1083.90
1015.71	1085.77
1016.00	1076.88
1016.28	1073.84
1016.57	1079.22
1016.85	1071.26
1017.14	1073.37
1017.43	1067.99
1017.71	1064.94
1018.00	1059.33
1018.28	1069.39
1018.57	1061.67
1018.85	1070.80
1019.14	1074.77
1019.42	1071.97
1019.71	1067.75
1019.99	1064.71
1020.28	1055.82
1020.56	1064.94
1020.85	1070.33
1021.13	1079.69
1021.42	1093.26
1021.70	1101.92
1021.99	1091.16
1022.27	1082.73
1022.55	1071.97
1022.84	1054.41
>>>>>End Processed Spectral Data<<<<<
