SpectraSuite Data File
++++++++++++++++++++++++++++++++++++
Date: Mon Aug 26 10:26:01 PDT 2019
User: corrico
Dark Spectrum Present: No
Reference Spectrum Present: No
Number of Sampled Component Spectra: 1
Spectrometers: USB2+H06089
Integration Time (usec): 10000 (USB2+H06089)
Spectra Averaged: 2 (USB2+H06089)
Boxcar Smoothing: 2 (USB2+H06089)
Correct for Electrical Dark: No (USB2+H06089)
Strobe/Lamp Enabled: No (USB2+H06089)
Correct for Detector Non-linearity: No (USB2+H06089)
Correct for Stray Light: No (USB2+H06089)
Number of Pixels in Processed Spectrum: 2048
>>>>>Begin Processed Spectral Data<<<<<
339.70	998.24
340.07	998.24
340.45	982.79
340.82	970.15
341.19	955.64
341.57	927.32
341.94	907.89
342.31	900.64
342.69	888.47
343.06	886.83
343.43	896.43
343.81	908.36
344.18	927.32
344.55	939.02
344.93	937.62
345.30	941.60
345.67	930.13
346.04	923.81
346.42	930.83
346.79	942.77
347.16	956.58
347.54	976.71
347.91	994.03
348.28	997.77
348.65	1000.58
349.03	1004.32
349.40	1011.35
349.77	1009.24
350.14	1024.22
350.52	1034.98
350.89	1034.28
351.26	1041.54
351.63	1045.99
352.01	1045.52
352.38	1048.56
352.75	1064.01
353.12	1064.71
353.50	1060.50
353.87	1060.96
354.24	1062.14
354.61	1062.84
354.98	1070.80
355.36	1080.39
355.73	1078.28
356.10	1084.60
356.47	1088.82
356.84	1085.31
357.22	1091.63
357.59	1103.56
357.96	1106.37
358.33	1101.22
358.70	1100.29
359.08	1098.41
359.45	1095.14
359.82	1085.31
360.19	1087.18
360.56	1079.22
360.94	1065.41
361.31	1064.01
361.68	1075.94
362.05	1075.71
362.42	1084.37
362.79	1087.18
363.16	1082.03
363.54	1079.92
363.91	1080.16
364.28	1073.14
364.65	1076.88
365.02	1077.58
365.39	1066.35
365.76	1052.30
366.14	1051.13
366.51	1052.77
366.88	1049.96
367.25	1051.84
367.62	1064.01
367.99	1068.22
368.36	1065.41
368.73	1076.18
369.10	1078.99
369.48	1076.18
369.85	1070.09
370.22	1078.52
370.59	1070.09
370.96	1069.62
371.33	1067.75
371.70	1075.01
372.07	1063.31
372.44	1065.88
372.81	1056.99
373.18	1054.18
373.55	1057.45
373.93	1059.56
374.30	1059.79
374.67	1073.60
375.04	1073.60
375.41	1073.14
375.78	1071.50
376.15	1067.05
376.52	1066.35
376.89	1071.03
377.26	1056.05
377.63	1050.90
378.00	1052.30
378.37	1048.09
378.74	1051.37
379.11	1062.60
379.48	1074.07
379.85	1076.65
380.22	1080.86
380.59	1085.77
380.96	1089.99
381.33	1082.73
381.70	1090.69
382.07	1098.18
382.44	1088.58
382.81	1087.41
383.18	1092.80
383.55	1095.84
383.92	1086.24
384.29	1089.05
384.66	1090.22
385.03	1089.05
385.40	1083.43
385.77	1093.03
386.14	1089.99
386.51	1087.41
386.88	1082.73
387.25	1076.88
387.62	1067.05
387.99	1068.69
388.36	1065.65
388.73	1081.56
389.10	1081.09
389.46	1081.33
389.83	1077.35
390.20	1075.01
390.57	1067.05
390.94	1059.56
391.31	1058.62
391.68	1058.86
392.05	1068.22
392.42	1062.60
392.79	1060.96
393.16	1055.11
393.53	1061.90
393.89	1060.03
394.26	1062.37
394.63	1067.05
395.00	1073.84
395.37	1075.24
395.74	1073.84
396.11	1075.94
396.48	1089.75
396.84	1093.50
397.21	1085.54
397.58	1077.11
397.95	1083.43
398.32	1074.77
398.69	1067.28
399.06	1064.94
399.42	1078.99
399.79	1067.28
400.16	1064.24
400.53	1065.41
400.90	1067.75
401.27	1064.48
401.64	1073.14
402.00	1074.54
402.37	1072.67
402.74	1078.75
403.11	1077.11
403.48	1076.65
403.84	1079.46
404.21	1081.33
404.58	1070.56
404.95	1074.07
405.32	1064.48
405.68	1072.43
406.05	1072.43
406.42	1085.54
406.79	1076.18
407.16	1081.09
407.52	1075.24
407.89	1081.33
408.26	1069.16
408.63	1071.26
408.99	1074.07
409.36	1072.90
409.73	1077.82
410.10	1081.33
410.47	1086.24
410.83	1088.58
411.20	1094.43
411.57	1089.99
411.94	1087.41
412.30	1079.46
412.67	1076.88
413.04	1067.52
413.40	1058.16
413.77	1067.99
414.14	1065.88
414.51	1054.88
414.87	1056.99
415.24	1055.35
415.61	1047.39
415.97	1051.84
416.34	1053.48
416.71	1049.50
417.08	1044.82
417.44	1048.56
417.81	1051.84
418.18	1062.84
418.54	1071.26
418.91	1081.56
419.28	1085.31
419.64	1087.41
420.01	1083.20
420.38	1075.94
420.74	1069.16
421.11	1067.52
421.48	1064.94
421.84	1061.43
422.21	1061.67
422.58	1064.71
422.94	1059.79
423.31	1058.16
423.68	1067.28
424.04	1072.67
424.41	1074.31
424.77	1077.58
425.14	1081.09
425.51	1071.97
425.87	1061.90
426.24	1066.11
426.61	1069.16
426.97	1074.07
427.34	1075.94
427.70	1084.60
428.07	1092.80
428.44	1092.09
428.80	1087.88
429.17	1091.86
429.53	1089.75
429.90	1079.69
430.27	1075.94
430.63	1074.07
431.00	1078.28
431.36	1087.88
431.73	1087.88
432.09	1085.54
432.46	1082.26
432.83	1079.69
433.19	1077.11
433.56	1072.43
433.92	1072.43
434.29	1068.22
434.65	1062.84
435.02	1061.67
435.38	1065.41
435.75	1069.86
436.11	1068.22
436.48	1069.16
436.84	1062.14
437.21	1067.05
437.57	1063.07
437.94	1074.77
438.30	1077.82
438.67	1077.58
439.03	1074.54
439.40	1081.09
439.76	1078.99
440.13	1082.03
440.49	1080.86
440.86	1081.33
441.22	1076.88
441.59	1080.63
441.95	1079.69
442.32	1084.37
442.68	1077.82
443.05	1081.33
443.41	1067.99
443.78	1066.82
444.14	1075.01
444.51	1072.90
444.87	1082.50
445.24	1089.29
445.60	1087.65
445.96	1075.71
446.33	1088.58
446.69	1076.65
447.06	1078.05
447.42	1086.01
447.79	1084.37
448.15	1082.50
448.51	1082.03
448.88	1081.33
449.24	1074.31
449.61	1079.46
449.97	1079.46
450.33	1082.97
450.70	1085.07
451.06	1093.03
451.43	1090.46
451.79	1084.60
452.15	1084.37
452.52	1086.48
452.88	1074.07
453.24	1078.75
453.61	1081.09
453.97	1083.20
454.34	1076.88
454.70	1069.86
455.06	1071.73
455.43	1072.43
455.79	1066.35
456.15	1075.01
456.52	1086.01
456.88	1087.65
457.24	1086.01
457.61	1096.31
457.97	1095.37
458.33	1098.41
458.70	1081.56
459.06	1088.12
459.42	1078.99
459.79	1063.54
460.15	1058.16
460.51	1060.73
460.88	1056.75
461.24	1054.88
461.60	1060.73
461.96	1064.71
462.33	1066.82
462.69	1063.07
463.05	1065.41
463.42	1066.82
463.78	1064.71
464.14	1073.37
464.50	1071.26
464.87	1067.28
465.23	1073.84
465.59	1070.09
465.95	1067.52
466.32	1069.62
466.68	1079.92
467.04	1080.39
467.40	1092.56
467.77	1096.31
468.13	1102.16
468.49	1102.16
468.85	1087.65
469.22	1076.41
469.58	1072.43
469.94	1069.39
470.30	1059.79
470.66	1068.92
471.03	1072.90
471.39	1078.28
471.75	1067.75
472.11	1076.65
472.47	1075.48
472.84	1084.60
473.20	1080.16
473.56	1087.41
473.92	1086.24
474.28	1091.86
474.65	1082.03
475.01	1078.75
475.37	1081.80
475.73	1078.75
476.09	1071.26
476.45	1071.26
476.81	1075.94
477.18	1074.77
477.54	1069.39
477.90	1070.80
478.26	1073.37
478.62	1077.58
478.98	1081.56
479.34	1083.90
479.71	1084.14
480.07	1076.41
480.43	1076.41
480.79	1068.92
481.15	1064.01
481.51	1067.28
481.87	1075.71
482.23	1073.14
482.59	1082.73
482.96	1093.73
483.32	1099.12
483.68	1099.12
484.04	1099.35
484.40	1094.43
484.76	1092.80
485.12	1094.43
485.48	1086.48
485.84	1083.67
486.20	1089.52
486.56	1094.20
486.92	1088.12
487.28	1084.60
487.64	1094.67
488.00	1090.69
488.37	1081.56
488.73	1079.46
489.09	1090.92
489.45	1076.88
489.81	1071.97
490.17	1070.56
490.53	1071.97
490.89	1066.11
491.25	1059.79
491.61	1061.20
491.97	1064.71
492.33	1065.41
492.69	1068.22
493.05	1078.75
493.41	1082.03
493.77	1083.90
494.13	1082.26
494.49	1085.07
494.85	1094.67
495.21	1084.60
495.57	1091.86
495.93	1100.05
496.29	1097.95
496.64	1077.58
497.00	1088.12
497.36	1078.28
497.72	1079.22
498.08	1080.16
498.44	1082.97
498.80	1084.14
499.16	1087.65
499.52	1080.63
499.88	1084.84
500.24	1091.86
500.60	1084.84
500.96	1073.60
501.32	1072.90
501.68	1058.39
502.03	1059.79
502.39	1067.05
502.75	1074.77
503.11	1079.22
503.47	1091.63
503.83	1089.29
504.19	1086.94
504.55	1088.12
504.91	1082.03
505.26	1085.31
505.62	1083.43
505.98	1078.05
506.34	1082.03
506.70	1086.48
507.06	1085.31
507.42	1091.16
507.78	1096.31
508.13	1087.88
508.49	1082.03
508.85	1078.99
509.21	1087.88
509.57	1085.77
509.93	1088.12
510.28	1090.92
510.64	1091.39
511.00	1079.46
511.36	1082.26
511.72	1081.56
512.07	1075.24
512.43	1071.26
512.79	1072.90
513.15	1066.82
513.51	1070.33
513.86	1078.75
514.22	1082.50
514.58	1081.80
514.94	1092.09
515.30	1098.41
515.65	1102.86
516.01	1104.26
516.37	1098.41
516.73	1099.82
517.08	1101.69
517.44	1104.26
517.80	1105.67
518.16	1116.20
518.51	1107.31
518.87	1087.18
519.23	1079.92
519.59	1069.16
519.94	1069.62
520.30	1069.16
520.66	1079.46
521.01	1084.60
521.37	1083.43
521.73	1086.48
522.09	1086.24
522.44	1089.29
522.80	1089.99
523.16	1095.84
523.51	1091.63
523.87	1101.69
524.23	1097.24
524.58	1092.09
524.94	1090.46
525.30	1094.20
525.65	1090.92
526.01	1096.31
526.37	1103.09
526.72	1107.78
527.08	1102.86
527.44	1108.01
527.79	1104.97
528.15	1096.07
528.51	1092.80
528.86	1087.18
529.22	1080.39
529.58	1088.12
529.93	1096.54
530.29	1096.78
530.65	1099.12
531.00	1098.88
531.36	1100.52
531.71	1092.33
532.07	1095.14
532.43	1091.63
532.78	1091.16
533.14	1084.14
533.49	1093.26
533.85	1097.48
534.21	1099.35
534.56	1102.86
534.92	1104.97
535.27	1102.63
535.63	1100.99
535.98	1097.48
536.34	1095.37
536.69	1092.80
537.05	1091.16
537.41	1083.90
537.76	1087.88
538.12	1088.58
538.47	1096.78
538.83	1097.48
539.18	1101.92
539.54	1100.05
539.89	1094.43
540.25	1085.54
540.60	1078.28
540.96	1083.43
541.31	1084.60
541.67	1086.24
542.02	1097.24
542.38	1106.84
542.73	1106.37
543.09	1100.99
543.44	1097.48
543.80	1083.90
544.15	1089.52
544.51	1087.88
544.86	1085.54
545.22	1080.39
545.57	1089.52
545.93	1087.18
546.28	1075.24
546.64	1088.35
546.99	1089.29
547.35	1083.43
547.70	1079.46
548.05	1086.48
548.41	1091.16
548.76	1095.60
549.12	1102.39
549.47	1093.26
549.83	1093.97
550.18	1082.97
550.53	1082.03
550.89	1077.58
551.24	1079.69
551.60	1071.97
551.95	1073.60
552.30	1080.63
552.66	1074.77
553.01	1073.84
553.37	1078.28
553.72	1076.88
554.07	1068.22
554.43	1075.48
554.78	1071.97
555.13	1068.92
555.49	1068.69
555.84	1069.86
556.19	1069.16
556.55	1075.24
556.90	1075.01
557.26	1089.99
557.61	1093.97
557.96	1089.52
558.32	1090.46
558.67	1096.54
559.02	1075.94
559.37	1075.24
559.73	1072.43
560.08	1073.37
560.43	1065.88
560.79	1077.35
561.14	1080.16
561.49	1085.54
561.85	1082.03
562.20	1092.56
562.55	1086.71
562.90	1083.20
563.26	1081.80
563.61	1085.07
563.96	1087.65
564.32	1083.67
564.67	1083.90
565.02	1085.31
565.37	1085.31
565.73	1077.58
566.08	1086.94
566.43	1090.69
566.78	1093.50
567.14	1086.01
567.49	1090.22
567.84	1078.05
568.19	1077.11
568.54	1068.22
568.90	1072.67
569.25	1063.54
569.60	1080.63
569.95	1079.22
570.31	1076.88
570.66	1071.73
571.01	1074.54
571.36	1064.71
571.71	1050.90
572.06	1057.69
572.42	1065.41
572.77	1074.54
573.12	1075.24
573.47	1083.90
573.82	1086.48
574.18	1087.41
574.53	1086.24
574.88	1093.03
575.23	1097.48
575.58	1091.16
575.93	1085.31
576.28	1075.24
576.64	1070.33
576.99	1065.88
577.34	1074.31
577.69	1073.60
578.04	1077.35
578.39	1076.65
578.74	1082.50
579.09	1080.63
579.44	1078.99
579.80	1082.50
580.15	1092.09
580.50	1088.12
580.85	1095.84
581.20	1106.84
581.55	1100.29
581.90	1086.94
582.25	1090.92
582.60	1082.03
582.95	1072.43
583.30	1077.11
583.65	1085.54
584.00	1089.05
584.35	1092.56
584.71	1092.33
585.06	1090.22
585.41	1088.58
585.76	1095.37
586.11	1088.35
586.46	1087.41
586.81	1094.43
587.16	1087.18
587.51	1075.71
587.86	1076.18
588.21	1086.48
588.56	1089.05
588.91	1090.69
589.26	1084.84
589.61	1087.41
589.96	1080.16
590.31	1072.20
590.66	1072.67
591.01	1083.90
591.36	1079.22
591.71	1082.73
592.06	1079.92
592.41	1075.01
592.76	1069.16
593.10	1071.03
593.45	1072.67
593.80	1073.84
594.15	1083.43
594.50	1089.05
594.85	1086.01
595.20	1079.92
595.55	1077.58
595.90	1068.22
596.25	1064.01
596.60	1075.48
596.95	1080.16
597.30	1088.35
597.64	1144.99
597.99	1146.16
598.34	1133.99
598.69	1126.50
599.04	1120.41
599.39	1073.37
599.74	1072.20
600.09	1077.11
600.44	1086.24
600.78	1088.35
601.13	1083.67
601.48	1087.65
601.83	1085.31
602.18	1072.67
602.53	1075.94
602.88	1082.03
603.22	1079.92
603.57	1082.03
603.92	1093.50
604.27	1093.50
604.62	1087.41
604.97	1084.60
605.31	1095.37
605.66	1096.07
606.01	1089.05
606.36	1093.50
606.71	1100.99
607.05	1090.92
607.40	1082.03
607.75	1089.05
608.10	1085.07
608.44	1072.67
608.79	1072.43
609.14	1077.11
609.49	1060.96
609.84	1068.22
610.18	1080.16
610.53	1074.07
610.88	1078.75
611.23	1094.20
611.57	1096.07
611.92	1094.90
612.27	1099.82
612.62	1096.54
612.96	1090.46
613.31	1086.71
613.66	1084.84
614.00	1087.65
614.35	1087.65
614.70	1103.09
615.05	1097.24
615.39	1095.14
615.74	1094.20
616.09	1088.58
616.43	1078.52
616.78	1084.84
617.13	1088.12
617.47	1096.07
617.82	1097.95
618.17	1100.52
618.51	1102.16
618.86	1099.35
619.21	1093.03
619.55	1091.63
619.90	1087.18
620.25	1085.31
620.59	1084.84
620.94	1087.41
621.29	1082.97
621.63	1084.60
621.98	1086.94
622.32	1087.65
622.67	1078.28
623.02	1077.58
623.36	1071.50
623.71	1068.92
624.05	1070.56
624.40	1080.39
624.75	1101.92
625.09	1101.22
625.44	1092.09
625.78	1091.86
626.13	1091.39
626.48	1083.90
626.82	1088.12
627.17	1096.54
627.51	1097.95
627.86	1086.71
628.20	1085.54
628.55	1079.46
628.89	1079.46
629.24	1083.20
629.58	1100.99
629.93	1091.16
630.28	1101.69
630.62	1095.37
630.97	1082.26
631.31	1074.31
631.66	1083.20
632.00	1083.43
632.35	1088.58
632.69	1092.09
633.04	1086.01
633.38	1080.39
633.73	1075.01
634.07	1076.65
634.42	1073.37
634.76	1074.54
635.11	1070.80
635.45	1075.24
635.79	1069.39
636.14	1075.01
636.48	1069.16
636.83	1075.71
637.17	1072.20
637.52	1075.71
637.86	1073.37
638.21	1080.63
638.55	1074.31
638.89	1073.60
639.24	1069.39
639.58	1064.24
639.93	1067.52
640.27	1073.14
640.61	1068.22
640.96	1068.92
641.30	1074.31
641.65	1065.65
641.99	1074.31
642.33	1079.22
642.68	1079.92
643.02	1082.50
643.37	1087.88
643.71	1077.82
644.05	1082.50
644.40	1086.48
644.74	1096.31
645.08	1096.78
645.43	1092.80
645.77	1091.86
646.11	1084.84
646.46	1083.90
646.80	1084.60
647.14	1086.94
647.49	1085.07
647.83	1086.01
648.17	1073.60
648.52	1072.90
648.86	1075.71
649.20	1071.97
649.55	1067.99
649.89	1064.71
650.23	1053.71
650.57	1048.79
650.92	1052.07
651.26	1051.84
651.60	1057.22
651.95	1061.67
652.29	1066.82
652.63	1060.96
652.97	1057.45
653.32	1059.79
653.66	1068.92
654.00	1065.18
654.34	1073.60
654.69	1081.80
655.03	1085.31
655.37	1087.65
655.71	1086.71
656.05	1080.16
656.40	1081.80
656.74	1071.97
657.08	1065.88
657.42	1072.20
657.76	1075.94
658.11	1078.28
658.45	1086.94
658.79	1088.12
659.13	1087.88
659.47	1085.31
659.82	1090.92
660.16	1081.80
660.50	1080.39
660.84	1074.54
661.18	1071.73
661.52	1057.22
661.87	1061.90
662.21	1059.79
662.55	1066.11
662.89	1079.46
663.23	1083.90
663.57	1079.46
663.91	1079.69
664.25	1068.22
664.60	1058.86
664.94	1057.92
665.28	1058.86
665.62	1061.90
665.96	1076.88
666.30	1078.05
666.64	1078.05
666.98	1068.69
667.32	1056.99
667.66	1048.09
668.01	1046.92
668.35	1049.73
668.69	1064.48
669.03	1078.99
669.37	1088.12
669.71	1089.75
670.05	1083.90
670.39	1075.24
670.73	1079.46
671.07	1078.28
671.41	1085.54
671.75	1096.78
672.09	1107.07
672.43	1101.46
672.77	1088.35
673.11	1077.35
673.45	1078.52
673.79	1074.31
674.13	1064.71
674.47	1083.90
674.81	1078.52
675.15	1073.37
675.49	1070.33
675.83	1074.54
676.17	1067.28
676.51	1071.97
676.85	1075.24
677.19	1088.58
677.53	1093.50
677.87	1089.52
678.21	1095.37
678.55	1097.71
678.89	1087.18
679.23	1082.97
679.57	1088.12
679.90	1078.52
680.24	1070.33
680.58	1070.09
680.92	1071.50
681.26	1058.62
681.60	1077.35
681.94	1077.82
682.28	1085.31
682.62	1087.41
682.96	1094.67
683.29	1084.84
683.63	1087.18
683.97	1082.26
684.31	1082.03
684.65	1083.43
684.99	1075.24
685.33	1079.22
685.67	1071.97
686.00	1071.03
686.34	1075.01
686.68	1076.65
687.02	1079.92
687.36	1085.31
687.70	1086.24
688.03	1086.24
688.37	1094.67
688.71	1093.26
689.05	1095.37
689.39	1100.75
689.72	1095.37
690.06	1094.43
690.40	1084.84
690.74	1070.80
691.08	1063.31
691.41	1060.03
691.75	1056.75
692.09	1058.39
692.43	1078.05
692.76	1073.84
693.10	1072.67
693.44	1071.50
693.78	1079.46
694.11	1072.43
694.45	1073.37
694.79	1084.37
695.13	1085.54
695.46	1073.37
695.80	1076.65
696.14	1089.99
696.48	1097.01
696.81	1104.26
697.15	1105.90
697.49	1097.01
697.82	1085.07
698.16	1072.43
698.50	1069.16
698.83	1071.26
699.17	1074.07
699.51	1083.90
699.84	1089.99
700.18	1083.67
700.52	1086.71
700.85	1093.73
701.19	1090.22
701.53	1080.39
701.86	1094.67
702.20	1090.22
702.54	1095.14
702.87	1095.14
703.21	1102.86
703.55	1084.37
703.88	1081.80
704.22	1075.01
704.55	1075.01
704.89	1076.18
705.23	1091.39
705.56	1096.07
705.90	1099.82
706.23	1089.05
706.57	1090.22
706.91	1086.01
707.24	1084.37
707.58	1073.60
707.91	1085.54
708.25	1079.46
708.58	1074.54
708.92	1072.90
709.26	1072.67
709.59	1062.14
709.93	1060.26
710.26	1062.37
710.60	1073.84
710.93	1076.41
711.27	1080.16
711.60	1087.88
711.94	1084.37
712.27	1067.75
712.61	1072.43
712.94	1080.86
713.28	1082.50
713.61	1085.31
713.95	1089.99
714.28	1085.77
714.62	1077.58
714.95	1059.33
715.29	1057.45
715.62	1068.22
715.96	1079.46
716.29	1077.82
716.63	1089.05
716.96	1088.35
717.29	1069.86
717.63	1066.82
717.96	1071.97
718.30	1066.11
718.63	1065.65
718.97	1084.60
719.30	1074.31
719.63	1068.69
719.97	1068.45
720.30	1075.94
720.64	1065.18
720.97	1069.39
721.30	1062.14
721.64	1067.52
721.97	1066.58
722.31	1078.99
722.64	1074.31
722.97	1097.24
723.31	1101.46
723.64	1104.73
723.97	1095.60
724.31	1095.84
724.64	1091.39
724.98	1087.18
725.31	1079.92
725.64	1068.69
725.98	1069.86
726.31	1060.03
726.64	1065.18
726.97	1061.43
727.31	1069.39
727.64	1070.56
727.97	1062.84
728.31	1055.11
728.64	1063.07
728.97	1074.31
729.31	1083.90
729.64	1091.16
729.97	1099.35
730.30	1100.05
730.64	1089.05
730.97	1077.82
731.30	1074.31
731.63	1074.07
731.97	1075.94
732.30	1082.97
732.63	1089.52
732.96	1102.63
733.30	1095.37
733.63	1082.73
733.96	1075.24
734.29	1071.26
734.63	1063.54
734.96	1061.20
735.29	1058.16
735.62	1057.69
735.95	1064.48
736.29	1060.96
736.62	1067.28
736.95	1069.39
737.28	1071.73
737.61	1071.97
737.94	1076.41
738.28	1074.54
738.61	1083.43
738.94	1093.73
739.27	1089.75
739.60	1088.12
739.93	1088.12
740.27	1078.99
740.60	1072.43
740.93	1072.20
741.26	1072.43
741.59	1074.77
741.92	1083.67
742.25	1084.14
742.58	1085.31
742.91	1087.18
743.25	1086.24
743.58	1081.33
743.91	1078.05
744.24	1072.20
744.57	1067.99
744.90	1066.58
745.23	1063.54
745.56	1067.05
745.89	1068.69
746.22	1076.65
746.55	1073.84
746.88	1082.50
747.21	1073.37
747.54	1062.14
747.87	1052.30
748.20	1059.33
748.53	1055.11
748.87	1060.26
749.20	1075.24
749.53	1079.92
749.86	1081.09
750.19	1089.52
750.52	1090.69
750.85	1089.05
751.18	1090.92
751.51	1094.20
751.84	1087.88
752.16	1079.69
752.49	1074.07
752.82	1075.01
753.15	1064.71
753.48	1064.94
753.81	1075.24
754.14	1068.69
754.47	1075.71
754.80	1073.84
755.13	1073.84
755.46	1067.75
755.79	1083.20
756.12	1080.16
756.45	1091.16
756.78	1084.37
757.11	1093.03
757.43	1087.88
757.76	1078.05
758.09	1070.80
758.42	1078.99
758.75	1076.18
759.08	1088.12
759.41	1096.54
759.74	1094.90
760.07	1096.78
760.39	1092.80
760.72	1071.03
761.05	1071.26
761.38	1070.80
761.71	1064.48
762.04	1067.05
762.36	1078.75
762.69	1076.41
763.02	1084.60
763.35	1084.14
763.68	1083.90
764.01	1082.26
764.33	1082.73
764.66	1075.94
764.99	1082.26
765.32	1084.14
765.65	1091.39
765.97	1080.63
766.30	1083.43
766.63	1082.73
766.96	1087.18
767.28	1085.77
767.61	1090.22
767.94	1085.77
768.27	1093.97
768.59	1090.92
768.92	1079.92
769.25	1086.71
769.58	1083.67
769.90	1081.56
770.23	1073.14
770.56	1086.71
770.89	1086.71
771.21	1086.71
771.54	1086.71
771.87	1087.41
772.19	1078.52
772.52	1072.67
772.85	1081.09
773.17	1076.41
773.50	1094.67
773.83	1093.97
774.15	1096.07
774.48	1088.58
774.81	1079.92
775.13	1057.45
775.46	1054.88
775.79	1051.13
776.11	1056.28
776.44	1066.82
776.77	1075.48
777.09	1075.01
777.42	1074.31
777.74	1070.56
778.07	1066.82
778.40	1078.28
778.72	1073.37
779.05	1071.03
779.37	1068.92
779.70	1070.09
780.03	1062.84
780.35	1077.11
780.68	1091.39
781.00	1093.26
781.33	1081.09
781.65	1078.28
781.98	1075.71
782.31	1077.11
782.63	1081.80
782.96	1092.33
783.28	1098.41
783.61	1092.09
783.93	1088.35
784.26	1086.94
784.58	1087.18
784.91	1075.71
785.23	1079.92
785.56	1075.01
785.88	1071.73
786.21	1068.69
786.53	1077.35
786.86	1069.86
787.18	1071.73
787.51	1073.14
787.83	1073.84
788.16	1074.54
788.48	1073.37
788.81	1072.20
789.13	1078.28
789.46	1081.33
789.78	1079.92
790.10	1087.18
790.43	1082.26
790.75	1077.11
791.08	1071.03
791.40	1062.60
791.73	1070.09
792.05	1075.24
792.37	1077.82
792.70	1078.99
793.02	1078.99
793.35	1079.46
793.67	1080.16
793.99	1076.41
794.32	1082.97
794.64	1091.63
794.96	1081.80
795.29	1079.92
795.61	1083.43
795.93	1087.65
796.26	1088.12
796.58	1091.39
796.91	1094.67
797.23	1090.46
797.55	1085.07
797.87	1084.14
798.20	1082.50
798.52	1079.22
798.84	1088.12
799.17	1082.26
799.49	1087.18
799.81	1093.26
800.14	1097.01
800.46	1098.65
800.78	1107.31
801.10	1102.39
801.43	1092.09
801.75	1089.75
802.07	1074.54
802.40	1071.03
802.72	1065.41
803.04	1071.50
803.36	1071.26
803.69	1081.09
804.01	1077.11
804.33	1075.48
804.65	1068.22
804.97	1068.69
805.30	1070.56
805.62	1065.41
805.94	1075.94
806.26	1081.33
806.58	1078.05
806.91	1070.09
807.23	1076.88
807.55	1075.01
807.87	1079.69
808.19	1078.28
808.52	1085.54
808.84	1084.60
809.16	1086.48
809.48	1082.50
809.80	1076.88
810.12	1071.73
810.44	1075.01
810.77	1074.54
811.09	1069.86
811.41	1077.11
811.73	1075.48
812.05	1076.41
812.37	1068.92
812.69	1080.63
813.01	1092.09
813.33	1104.03
813.66	1099.82
813.98	1106.84
814.30	1098.88
814.62	1081.09
814.94	1075.48
815.26	1074.54
815.58	1062.14
815.90	1060.50
816.22	1071.50
816.54	1070.09
816.86	1082.26
817.18	1091.39
817.50	1091.63
817.82	1086.71
818.14	1081.09
818.46	1073.60
818.78	1077.35
819.10	1076.41
819.42	1069.62
819.74	1068.92
820.06	1063.31
820.38	1061.90
820.70	1079.69
821.02	1081.80
821.34	1089.52
821.66	1089.99
821.98	1080.63
822.30	1068.22
822.62	1082.03
822.94	1075.94
823.26	1076.65
823.58	1080.16
823.90	1086.94
824.22	1080.39
824.54	1079.22
824.86	1082.26
825.18	1081.09
825.50	1069.86
825.81	1068.22
826.13	1077.11
826.45	1079.69
826.77	1081.80
827.09	1081.33
827.41	1081.09
827.73	1080.39
828.05	1076.41
828.36	1068.22
828.68	1067.52
829.00	1071.73
829.32	1074.54
829.64	1076.65
829.96	1082.03
830.28	1086.71
830.59	1084.37
830.91	1077.58
831.23	1078.28
831.55	1083.20
831.87	1079.22
832.19	1079.22
832.50	1080.63
832.82	1085.07
833.14	1079.46
833.46	1087.65
833.78	1099.12
834.09	1103.56
834.41	1098.88
834.73	1099.35
835.05	1089.29
835.36	1086.24
835.68	1087.88
836.00	1083.90
836.32	1087.18
836.63	1090.92
836.95	1084.37
837.27	1080.63
837.59	1084.84
837.90	1086.94
838.22	1093.50
838.54	1086.71
838.85	1077.82
839.17	1083.90
839.49	1078.99
839.80	1067.52
840.12	1082.73
840.44	1086.71
840.76	1082.50
841.07	1083.43
841.39	1087.88
841.71	1076.88
842.02	1072.67
842.34	1065.18
842.65	1065.65
842.97	1073.37
843.29	1070.56
843.60	1081.09
843.92	1083.43
844.24	1084.37
844.55	1083.67
844.87	1086.24
845.18	1086.48
845.50	1098.88
845.82	1092.33
846.13	1086.48
846.45	1090.69
846.76	1085.31
847.08	1074.54
847.40	1076.88
847.71	1075.71
848.03	1074.07
848.34	1071.50
848.66	1068.22
848.97	1075.94
849.29	1072.20
849.60	1074.54
849.92	1085.54
850.24	1086.94
850.55	1083.90
850.87	1089.29
851.18	1081.09
851.50	1073.37
851.81	1073.14
852.13	1075.94
852.44	1069.39
852.76	1076.41
853.07	1083.90
853.39	1084.84
853.70	1075.24
854.01	1090.69
854.33	1083.20
854.64	1071.03
854.96	1069.86
855.27	1071.73
855.59	1069.86
855.90	1073.37
856.22	1076.18
856.53	1082.03
856.84	1091.16
857.16	1091.16
857.47	1094.20
857.79	1092.33
858.10	1090.46
858.41	1083.20
858.73	1081.80
859.04	1076.18
859.36	1075.24
859.67	1074.07
859.98	1072.20
860.30	1064.24
860.61	1064.48
860.92	1075.24
861.24	1074.07
861.55	1081.56
861.87	1080.63
862.18	1076.65
862.49	1072.20
862.81	1083.20
863.12	1081.80
863.43	1083.90
863.74	1092.33
864.06	1097.01
864.37	1098.41
864.68	1099.35
865.00	1105.90
865.31	1108.48
865.62	1103.80
865.94	1100.75
866.25	1103.80
866.56	1104.97
866.87	1100.75
867.19	1104.03
867.50	1090.46
867.81	1080.63
868.12	1076.41
868.44	1075.01
868.75	1068.69
869.06	1081.09
869.37	1089.52
869.68	1090.22
870.00	1091.86
870.31	1096.78
870.62	1101.69
870.93	1096.07
871.24	1094.67
871.56	1095.84
871.87	1094.67
872.18	1084.60
872.49	1087.65
872.80	1085.31
873.12	1085.31
873.43	1077.82
873.74	1072.20
874.05	1071.26
874.36	1071.73
874.67	1072.90
874.98	1074.31
875.29	1082.03
875.61	1082.97
875.92	1086.01
876.23	1084.84
876.54	1077.82
876.85	1073.14
877.16	1076.18
877.47	1075.71
877.78	1076.41
878.09	1089.05
878.40	1093.73
878.72	1091.16
879.03	1098.65
879.34	1101.92
879.65	1102.86
879.96	1099.35
880.27	1102.16
880.58	1084.14
880.89	1082.03
881.20	1087.18
881.51	1085.07
881.82	1082.03
882.13	1082.50
882.44	1083.20
882.75	1072.43
883.06	1075.01
883.37	1070.80
883.68	1075.71
883.99	1080.16
884.30	1088.35
884.61	1087.41
884.92	1089.52
885.23	1093.50
885.54	1087.18
885.85	1078.99
886.16	1082.26
886.47	1086.48
886.78	1089.29
887.08	1098.18
887.39	1097.24
887.70	1090.46
888.01	1085.54
888.32	1077.11
888.63	1066.35
888.94	1065.65
889.25	1057.92
889.56	1056.28
889.87	1061.20
890.17	1070.33
890.48	1072.20
890.79	1089.52
891.10	1097.95
891.41	1103.09
891.72	1097.48
892.03	1102.86
892.34	1097.24
892.64	1099.35
892.95	1104.03
893.26	1100.99
893.57	1099.12
893.88	1088.58
894.18	1085.07
894.49	1069.16
894.80	1069.86
895.11	1073.60
895.42	1082.50
895.72	1080.63
896.03	1086.24
896.34	1090.69
896.65	1083.67
896.96	1086.94
897.26	1083.43
897.57	1082.97
897.88	1078.99
898.19	1080.63
898.49	1080.39
898.80	1086.94
899.11	1086.94
899.41	1085.07
899.72	1080.86
900.03	1075.24
900.34	1071.73
900.64	1074.77
900.95	1072.20
901.26	1070.09
901.56	1075.24
901.87	1073.37
902.18	1075.48
902.48	1075.01
902.79	1082.50
903.10	1077.11
903.40	1071.73
903.71	1057.92
904.02	1061.90
904.32	1053.01
904.63	1056.75
904.94	1067.05
905.24	1074.54
905.55	1073.14
905.85	1076.18
906.16	1079.22
906.47	1077.35
906.77	1070.56
907.08	1071.73
907.38	1077.35
907.69	1089.52
908.00	1088.35
908.30	1088.35
908.61	1086.71
908.91	1081.33
909.22	1059.09
909.52	1054.18
909.83	1068.22
910.14	1074.31
910.44	1077.58
910.75	1084.84
911.05	1085.07
911.36	1068.45
911.66	1058.16
911.97	1060.03
912.27	1056.28
912.58	1060.26
912.88	1074.07
913.19	1087.18
913.49	1093.50
913.80	1100.05
914.10	1104.97
914.41	1107.54
914.71	1093.03
915.01	1087.65
915.32	1082.50
915.62	1069.16
915.93	1064.48
916.23	1067.52
916.54	1068.69
916.84	1067.05
917.15	1076.65
917.45	1074.07
917.75	1086.24
918.06	1085.31
918.36	1085.07
918.67	1084.14
918.97	1086.48
919.27	1073.60
919.58	1065.65
919.88	1074.07
920.18	1070.80
920.49	1074.31
920.79	1085.77
921.10	1095.37
921.40	1082.50
921.70	1092.56
922.01	1077.82
922.31	1069.86
922.61	1066.11
922.92	1068.45
923.22	1061.20
923.52	1074.77
923.82	1071.26
924.13	1072.43
924.43	1075.24
924.73	1072.43
925.04	1071.26
925.34	1078.28
925.64	1085.54
925.94	1085.31
926.25	1081.33
926.55	1081.33
926.85	1083.67
927.15	1071.03
927.46	1067.28
927.76	1081.80
928.06	1082.73
928.36	1079.22
928.67	1083.43
928.97	1089.99
929.27	1081.33
929.57	1081.33
929.87	1076.18
930.18	1085.54
930.48	1086.48
930.78	1093.97
931.08	1093.50
931.38	1101.92
931.69	1092.80
931.99	1089.75
932.29	1085.54
932.59	1085.07
932.89	1089.99
933.19	1093.97
933.49	1102.86
933.80	1106.84
934.10	1106.37
934.40	1092.56
934.70	1095.60
935.00	1090.92
935.30	1083.43
935.60	1080.86
935.90	1072.90
936.20	1064.71
936.50	1066.11
936.81	1059.33
937.11	1052.07
937.41	1071.73
937.71	1073.84
938.01	1073.14
938.31	1085.07
938.61	1086.71
938.91	1084.60
939.21	1082.73
939.51	1080.63
939.81	1082.26
940.11	1089.05
940.41	1083.67
940.71	1089.52
941.01	1091.86
941.31	1080.63
941.61	1085.31
941.91	1085.31
942.21	1087.88
942.51	1087.65
942.81	1090.22
943.11	1092.33
943.41	1090.69
943.71	1085.07
944.01	1083.67
944.31	1087.18
944.61	1081.56
944.90	1092.33
945.20	1087.41
945.50	1083.20
945.80	1089.75
946.10	1094.90
946.40	1078.05
946.70	1079.46
947.00	1087.88
947.30	1083.90
947.60	1081.80
947.89	1089.52
948.19	1091.39
948.49	1089.75
948.79	1084.60
949.09	1087.41
949.39	1088.35
949.69	1088.82
949.98	1085.77
950.28	1085.31
950.58	1088.12
950.88	1093.73
951.18	1097.01
951.48	1096.78
951.77	1107.31
952.07	1099.58
952.37	1085.77
952.67	1078.28
952.97	1074.54
953.26	1066.11
953.56	1068.92
953.86	1072.67
954.16	1076.18
954.45	1081.33
954.75	1079.92
955.05	1085.77
955.35	1084.60
955.64	1082.26
955.94	1091.63
956.24	1093.26
956.54	1090.92
956.83	1095.60
957.13	1101.69
957.43	1090.46
957.72	1102.39
958.02	1100.75
958.32	1106.84
958.61	1101.46
958.91	1084.37
959.21	1077.82
959.50	1067.28
959.80	1067.99
960.10	1065.65
960.39	1083.20
960.69	1082.26
960.99	1084.60
961.28	1065.18
961.58	1067.75
961.87	1060.96
962.17	1054.41
962.47	1053.94
962.76	1071.03
963.06	1072.43
963.36	1084.14
963.65	1084.60
963.95	1082.50
964.24	1082.03
964.54	1078.99
964.83	1075.94
965.13	1086.94
965.42	1089.52
965.72	1086.01
966.02	1082.26
966.31	1071.50
966.61	1052.77
966.90	1049.50
967.20	1046.45
967.49	1055.82
967.79	1067.28
968.08	1081.33
968.38	1090.69
968.67	1096.31
968.97	1097.01
969.26	1095.14
969.56	1084.37
969.85	1091.39
970.15	1097.71
970.44	1090.92
970.74	1090.92
971.03	1096.78
971.32	1087.41
971.62	1078.52
971.91	1074.31
972.21	1071.73
972.50	1069.62
972.80	1068.92
973.09	1075.24
973.38	1081.33
973.68	1086.01
973.97	1092.33
974.27	1094.67
974.56	1093.03
974.85	1094.43
975.15	1092.56
975.44	1091.63
975.73	1078.99
976.03	1069.86
976.32	1073.37
976.61	1069.39
976.91	1064.48
977.20	1071.26
977.49	1080.86
977.79	1080.39
978.08	1080.63
978.37	1082.26
978.67	1086.94
978.96	1075.24
979.25	1073.60
979.55	1076.41
979.84	1064.48
980.13	1059.79
980.42	1066.35
980.72	1069.39
981.01	1064.48
981.30	1075.71
981.59	1086.01
981.89	1087.65
982.18	1086.01
982.47	1095.60
982.76	1108.24
983.06	1099.12
983.35	1104.26
983.64	1097.71
983.93	1099.12
984.22	1089.05
984.52	1090.22
984.81	1085.54
985.10	1091.16
985.39	1075.48
985.68	1068.92
985.97	1067.52
986.27	1059.33
986.56	1061.67
986.85	1068.22
987.14	1079.69
987.43	1077.82
987.72	1093.97
988.01	1089.99
988.31	1101.69
988.60	1089.05
988.89	1094.43
989.18	1083.43
989.47	1078.28
989.76	1063.31
990.05	1070.09
990.34	1067.75
990.63	1065.18
990.92	1073.84
991.21	1082.73
991.51	1081.09
991.80	1081.80
992.09	1078.52
992.38	1072.20
992.67	1070.33
992.96	1064.94
993.25	1063.54
993.54	1078.05
993.83	1080.16
994.12	1078.05
994.41	1082.03
994.70	1082.26
994.99	1079.69
995.28	1074.77
995.57	1072.67
995.86	1080.39
996.15	1079.22
996.44	1073.37
996.73	1077.11
997.02	1078.05
997.31	1074.77
997.59	1072.20
997.88	1077.35
998.17	1081.56
998.46	1084.14
998.75	1080.63
999.04	1089.05
999.33	1079.92
999.62	1073.37
999.91	1076.41
1000.20	1078.05
1000.49	1078.75
1000.77	1082.73
1001.06	1083.43
1001.35	1087.88
1001.64	1090.22
1001.93	1082.50
1002.22	1086.24
1002.51	1082.03
1002.79	1075.01
1003.08	1074.07
1003.37	1069.16
1003.66	1064.48
1003.95	1076.41
1004.23	1078.52
1004.52	1073.14
1004.81	1083.67
1005.10	1083.67
1005.39	1078.99
1005.67	1077.11
1005.96	1084.14
1006.25	1080.39
1006.54	1084.14
1006.83	1099.82
1007.11	1098.65
1007.40	1093.50
1007.69	1093.03
1007.97	1087.65
1008.26	1069.16
1008.55	1068.22
1008.84	1078.05
1009.12	1080.39
1009.41	1088.12
1009.70	1093.26
1009.98	1095.37
1010.27	1085.54
1010.56	1091.39
1010.85	1079.69
1011.13	1069.16
1011.42	1067.28
1011.71	1073.60
1011.99	1066.11
1012.28	1078.52
1012.56	1094.43
1012.85	1094.20
1013.14	1095.14
1013.42	1103.80
1013.71	1098.65
1014.00	1095.37
1014.28	1100.99
1014.57	1098.18
1014.85	1090.69
1015.14	1089.29
1015.43	1083.67
1015.71	1088.12
1016.00	1081.56
1016.28	1082.50
1016.57	1087.18
1016.85	1088.58
1017.14	1078.75
1017.43	1083.90
1017.71	1078.75
1018.00	1075.01
1018.28	1079.22
1018.57	1086.71
1018.85	1089.52
1019.14	1094.43
1019.42	1094.20
1019.71	1088.58
1019.99	1086.48
1020.28	1088.58
1020.56	1087.88
1020.85	1082.03
1021.13	1078.28
1021.42	1077.58
1021.70	1077.82
1021.99	1070.80
1022.27	1079.22
1022.55	1043.88
1022.84	1088.35
>>>>>End Processed Spectral Data<<<<<
