SpectraSuite Data File
++++++++++++++++++++++++++++++++++++
Date: Mon Aug 26 10:26:06 PDT 2019
User: corrico
Dark Spectrum Present: No
Reference Spectrum Present: No
Number of Sampled Component Spectra: 1
Spectrometers: USB2+H06089
Integration Time (usec): 10000 (USB2+H06089)
Spectra Averaged: 20 (USB2+H06089)
Boxcar Smoothing: 2 (USB2+H06089)
Correct for Electrical Dark: No (USB2+H06089)
Strobe/Lamp Enabled: No (USB2+H06089)
Correct for Detector Non-linearity: No (USB2+H06089)
Correct for Stray Light: No (USB2+H06089)
Number of Pixels in Processed Spectrum: 2048
>>>>>Begin Processed Spectral Data<<<<<
339.70	1045.99
340.07	1045.99
340.45	1008.56
340.82	987.87
341.19	961.87
341.57	934.76
341.94	917.98
342.31	909.27
342.69	900.76
343.06	895.54
343.43	890.90
343.81	895.93
344.18	899.33
344.55	903.42
344.93	912.93
345.30	922.80
345.67	929.87
346.04	936.54
346.42	943.91
346.79	949.63
347.16	958.22
347.54	966.83
347.91	976.45
348.28	984.50
348.65	992.76
349.03	999.17
349.40	1008.07
349.77	1014.83
350.14	1021.27
350.52	1028.20
350.89	1034.40
351.26	1037.28
351.63	1040.74
352.01	1048.54
352.38	1052.52
352.75	1054.79
353.12	1062.23
353.50	1069.88
353.87	1071.73
354.24	1072.25
354.61	1077.61
354.98	1077.47
355.36	1074.94
355.73	1077.07
356.10	1079.13
356.47	1077.56
356.84	1075.85
357.22	1079.31
357.59	1077.25
357.96	1079.31
358.33	1079.34
358.70	1079.15
359.08	1074.98
359.45	1077.00
359.82	1076.88
360.19	1078.85
360.56	1077.54
360.94	1076.72
361.31	1073.02
361.68	1070.35
362.05	1065.55
362.42	1068.17
362.79	1070.21
363.16	1070.96
363.54	1071.26
363.91	1070.80
364.28	1068.03
364.65	1067.49
365.02	1066.18
365.39	1066.28
365.76	1068.76
366.14	1070.63
366.51	1071.08
366.88	1071.05
367.25	1072.71
367.62	1074.47
367.99	1072.53
368.36	1070.35
368.73	1071.52
369.10	1071.17
369.48	1069.67
369.85	1071.57
370.22	1074.70
370.59	1075.50
370.96	1072.43
371.33	1075.48
371.70	1075.62
372.07	1073.21
372.44	1072.67
372.81	1071.75
373.18	1068.01
373.55	1066.18
373.93	1065.67
374.30	1064.52
374.67	1066.82
375.04	1068.29
375.41	1068.06
375.78	1065.69
376.15	1066.37
376.52	1065.37
376.89	1068.41
377.26	1069.84
377.63	1074.19
378.00	1070.87
378.37	1070.28
378.74	1064.92
379.11	1066.35
379.48	1064.10
379.85	1067.00
380.22	1067.64
380.59	1069.30
380.96	1068.76
381.33	1070.51
381.70	1070.63
382.07	1070.47
382.44	1071.61
382.81	1070.63
383.18	1070.94
383.55	1073.07
383.92	1074.49
384.29	1074.54
384.66	1075.17
385.03	1076.88
385.40	1074.19
385.77	1072.27
386.14	1071.52
386.51	1071.75
386.88	1070.00
387.25	1070.02
387.62	1071.26
387.99	1071.47
388.36	1069.86
388.73	1069.62
389.10	1070.42
389.46	1070.65
389.83	1069.04
390.20	1070.49
390.57	1069.95
390.94	1072.69
391.31	1072.95
391.68	1073.60
392.05	1072.15
392.42	1073.88
392.79	1070.40
393.16	1071.36
393.53	1071.05
393.89	1071.87
394.26	1072.50
394.63	1073.14
395.00	1070.82
395.37	1068.24
395.74	1068.03
396.11	1067.96
396.48	1068.15
396.84	1071.54
397.21	1075.24
397.58	1075.85
397.95	1072.78
398.32	1074.17
398.69	1072.48
399.06	1070.75
399.42	1070.70
399.79	1073.09
400.16	1070.35
400.53	1069.53
400.90	1071.45
401.27	1073.65
401.64	1071.24
402.00	1071.71
402.37	1073.60
402.74	1073.72
403.11	1071.45
403.48	1072.53
403.84	1073.11
404.21	1071.61
404.58	1071.50
404.95	1074.12
405.32	1076.81
405.68	1076.86
406.05	1077.77
406.42	1081.00
406.79	1081.49
407.16	1079.85
407.52	1082.03
407.89	1083.34
408.26	1081.23
408.63	1079.17
408.99	1081.44
409.36	1080.23
409.73	1080.34
410.10	1080.91
410.47	1081.87
410.83	1077.70
411.20	1075.10
411.57	1071.80
411.94	1071.01
412.30	1070.58
412.67	1071.26
413.04	1075.05
413.40	1078.54
413.77	1078.17
414.14	1079.17
414.51	1080.86
414.87	1077.72
415.24	1077.56
415.61	1076.58
415.97	1075.45
416.34	1074.75
416.71	1078.19
417.08	1076.18
417.44	1077.44
417.81	1076.46
418.18	1076.51
418.54	1074.12
418.91	1076.06
419.28	1075.94
419.64	1074.94
420.01	1074.96
420.38	1078.75
420.74	1078.10
421.11	1080.02
421.48	1083.36
421.84	1083.83
422.21	1079.97
422.58	1081.37
422.94	1079.50
423.31	1079.41
423.68	1082.38
424.04	1083.27
424.41	1082.71
424.77	1083.27
425.14	1080.51
425.51	1078.64
425.87	1078.75
426.24	1079.48
426.61	1076.88
426.97	1081.80
427.34	1082.33
427.70	1083.27
428.07	1078.71
428.44	1080.65
428.80	1076.15
429.17	1072.85
429.53	1071.05
429.90	1072.32
430.27	1071.75
430.63	1071.33
431.00	1072.04
431.36	1072.32
431.73	1074.21
432.09	1074.73
432.46	1074.31
432.83	1073.93
433.19	1074.03
433.56	1074.77
433.92	1076.95
434.29	1079.81
434.65	1082.26
435.02	1082.29
435.38	1079.15
435.75	1075.48
436.11	1073.58
436.48	1073.28
436.84	1076.88
437.21	1077.02
437.57	1079.90
437.94	1079.48
438.30	1079.92
438.67	1079.34
439.03	1081.77
439.40	1078.19
439.76	1082.12
440.13	1081.21
440.49	1080.30
440.86	1079.03
441.22	1081.33
441.59	1079.74
441.95	1080.88
442.32	1078.61
442.68	1077.09
443.05	1075.64
443.41	1075.43
443.78	1074.82
444.14	1074.87
444.51	1077.58
444.87	1078.33
445.24	1077.42
445.60	1076.08
445.96	1074.73
446.33	1074.38
446.69	1075.15
447.06	1077.56
447.42	1079.24
447.79	1080.63
448.15	1078.19
448.51	1076.25
448.88	1071.47
449.24	1068.99
449.61	1071.03
449.97	1075.52
450.33	1076.79
450.70	1077.77
451.06	1078.05
451.43	1074.96
451.79	1072.32
452.15	1073.58
452.52	1076.67
452.88	1078.57
453.24	1080.60
453.61	1079.50
453.97	1081.75
454.34	1077.86
454.70	1078.00
455.06	1080.30
455.43	1080.95
455.79	1078.71
456.15	1081.07
456.52	1079.53
456.88	1078.59
457.24	1079.97
457.61	1079.64
457.97	1081.75
458.33	1086.94
458.70	1084.51
459.06	1084.91
459.42	1089.36
459.79	1087.25
460.15	1085.21
460.51	1086.80
460.88	1087.06
461.24	1085.03
461.60	1084.67
461.96	1081.28
462.33	1078.73
462.69	1076.62
463.05	1074.68
463.42	1076.37
463.78	1076.25
464.14	1077.58
464.50	1077.37
464.87	1077.63
465.23	1076.01
465.59	1077.84
465.95	1080.04
466.32	1082.01
466.68	1082.22
467.04	1082.57
467.40	1079.46
467.77	1076.37
468.13	1075.22
468.49	1073.79
468.85	1076.13
469.22	1077.61
469.58	1081.16
469.94	1081.12
470.30	1079.69
470.66	1076.41
471.03	1082.40
471.39	1079.06
471.75	1079.46
472.11	1079.55
472.47	1084.60
472.84	1077.84
473.20	1077.93
473.56	1077.72
473.92	1078.36
474.28	1077.93
474.65	1081.96
475.01	1086.64
475.37	1087.37
475.73	1090.69
476.09	1087.90
476.45	1086.15
476.81	1085.49
477.18	1084.16
477.54	1082.61
477.90	1085.42
478.26	1087.11
478.62	1082.47
478.98	1084.53
479.34	1086.38
479.71	1085.89
480.07	1085.80
480.43	1087.23
480.79	1082.69
481.15	1080.88
481.51	1076.18
481.87	1074.28
482.23	1076.04
482.59	1079.34
482.96	1079.67
483.32	1080.46
483.68	1081.94
484.04	1079.92
484.40	1081.84
484.76	1081.66
485.12	1083.36
485.48	1080.02
485.84	1081.94
486.20	1079.17
486.56	1080.74
486.92	1080.74
487.28	1085.31
487.64	1080.91
488.00	1083.20
488.37	1080.20
488.73	1079.08
489.09	1076.55
489.45	1083.32
489.81	1080.88
490.17	1079.60
490.53	1080.46
490.89	1081.70
491.25	1079.60
491.61	1084.60
491.97	1088.54
492.33	1086.69
492.69	1084.21
493.05	1083.08
493.41	1080.65
493.77	1078.36
494.13	1084.16
494.49	1084.23
494.85	1088.77
495.21	1089.43
495.57	1087.55
495.93	1082.61
496.29	1081.28
496.64	1078.59
497.00	1076.15
497.36	1077.51
497.72	1076.51
498.08	1078.75
498.44	1076.15
498.80	1074.96
499.16	1076.86
499.52	1078.87
499.88	1078.61
500.24	1079.67
500.60	1082.08
500.96	1079.69
501.32	1079.62
501.68	1079.53
502.03	1081.30
502.39	1079.41
502.75	1080.79
503.11	1080.84
503.47	1085.17
503.83	1084.09
504.19	1086.36
504.55	1086.08
504.91	1084.42
505.26	1083.83
505.62	1083.53
505.98	1079.97
506.34	1080.16
506.70	1079.64
507.06	1076.37
507.42	1076.74
507.78	1078.78
508.13	1078.73
508.49	1080.11
508.85	1081.49
509.21	1082.38
509.57	1080.77
509.93	1084.09
510.28	1085.87
510.64	1084.35
511.00	1082.57
511.36	1088.12
511.72	1088.84
512.07	1087.04
512.43	1088.28
512.79	1086.57
513.15	1084.28
513.51	1078.66
513.86	1081.87
514.22	1082.73
514.58	1085.31
514.94	1082.33
515.30	1084.25
515.65	1081.73
516.01	1078.96
516.37	1080.04
516.73	1081.84
517.08	1082.40
517.44	1085.00
517.80	1087.60
518.16	1085.17
518.51	1084.79
518.87	1084.56
519.23	1083.81
519.59	1081.75
519.94	1083.15
520.30	1086.38
520.66	1087.25
521.01	1085.84
521.37	1090.41
521.73	1088.93
522.09	1083.93
522.44	1085.47
522.80	1086.15
523.16	1080.72
523.51	1079.13
523.87	1081.07
524.23	1081.82
524.58	1079.85
524.94	1082.24
525.30	1084.21
525.65	1083.64
526.01	1079.27
526.37	1079.71
526.72	1080.79
527.08	1083.90
527.44	1087.83
527.79	1088.44
528.15	1089.82
528.51	1088.84
528.86	1084.89
529.22	1083.43
529.58	1085.63
529.93	1088.00
530.29	1085.38
530.65	1086.64
531.00	1085.87
531.36	1084.16
531.71	1082.80
532.07	1083.60
532.43	1082.50
532.78	1081.94
533.14	1082.15
533.49	1078.87
533.85	1084.37
534.21	1088.42
534.56	1088.37
534.92	1091.60
535.27	1091.49
535.63	1087.46
535.98	1084.96
536.34	1083.08
536.69	1078.26
537.05	1082.03
537.41	1081.63
537.76	1083.95
538.12	1089.57
538.47	1094.08
538.83	1090.22
539.18	1090.83
539.54	1088.63
539.89	1086.22
540.25	1085.96
540.60	1086.85
540.96	1088.51
541.31	1093.66
541.67	1092.37
542.02	1091.30
542.38	1094.97
542.73	1092.87
543.09	1088.79
543.44	1092.56
543.80	1092.91
544.15	1092.42
544.51	1094.08
544.86	1092.96
545.22	1090.99
545.57	1088.98
545.93	1087.27
546.28	1086.24
546.64	1089.36
546.99	1088.44
547.35	1091.42
547.70	1091.09
548.05	1091.42
548.41	1090.20
548.76	1089.14
549.12	1088.16
549.47	1088.84
549.83	1088.19
550.18	1084.07
550.53	1084.56
550.89	1084.23
551.24	1084.44
551.60	1084.28
551.95	1090.01
552.30	1087.76
552.66	1085.77
553.01	1085.05
553.37	1083.74
553.72	1080.77
554.07	1083.50
554.43	1079.83
554.78	1076.95
555.13	1078.52
555.49	1079.41
555.84	1078.73
556.19	1083.32
556.55	1084.39
556.90	1084.79
557.26	1079.83
557.61	1078.36
557.96	1078.47
558.32	1079.90
558.67	1082.57
559.02	1085.54
559.37	1085.07
559.73	1084.16
560.08	1084.39
560.43	1079.13
560.79	1078.38
561.14	1079.92
561.49	1080.41
561.85	1080.88
562.20	1082.50
562.55	1083.43
562.90	1083.55
563.26	1084.44
563.61	1082.22
563.96	1082.45
564.32	1081.51
564.67	1081.70
565.02	1079.01
565.37	1080.46
565.73	1078.85
566.08	1081.82
566.43	1081.23
566.78	1082.64
567.14	1078.07
567.49	1079.48
567.84	1076.53
568.19	1075.24
568.54	1075.24
568.90	1078.54
569.25	1079.64
569.60	1078.85
569.95	1078.94
570.31	1079.78
570.66	1082.29
571.01	1083.95
571.36	1086.59
571.71	1088.75
572.06	1086.87
572.42	1085.10
572.77	1084.46
573.12	1080.48
573.47	1078.75
573.82	1077.49
574.18	1077.96
574.53	1075.99
574.88	1080.44
575.23	1080.77
575.58	1086.29
575.93	1088.02
576.28	1088.79
576.64	1088.61
576.99	1090.95
577.34	1088.33
577.69	1088.12
578.04	1086.97
578.39	1087.13
578.74	1086.69
579.09	1086.59
579.44	1086.13
579.80	1084.49
580.15	1081.26
580.50	1080.95
580.85	1082.43
581.20	1081.73
581.55	1084.56
581.90	1085.66
582.25	1085.77
582.60	1081.96
582.95	1081.21
583.30	1079.24
583.65	1081.26
584.00	1081.70
584.35	1082.26
584.71	1081.91
585.06	1083.60
585.41	1086.97
585.76	1085.35
586.11	1086.78
586.46	1086.57
586.81	1085.99
587.16	1080.32
587.51	1081.16
587.86	1078.26
588.21	1080.11
588.56	1078.94
588.91	1078.85
589.26	1077.37
589.61	1080.09
589.96	1076.04
590.31	1076.18
590.66	1078.47
591.01	1078.94
591.36	1079.81
591.71	1082.29
592.06	1082.71
592.41	1084.09
592.76	1084.63
593.10	1082.08
593.45	1082.57
593.80	1082.92
594.15	1078.38
594.50	1077.56
594.85	1082.47
595.20	1080.65
595.55	1082.69
595.90	1081.70
596.25	1082.45
596.60	1078.28
596.95	1080.16
597.30	1081.98
597.64	1139.68
597.99	1143.38
598.34	1145.50
598.69	1146.14
599.04	1144.52
599.39	1091.56
599.74	1090.46
600.09	1090.90
600.44	1088.70
600.78	1085.38
601.13	1082.80
601.48	1082.03
601.83	1081.84
602.18	1084.02
602.53	1084.65
602.88	1088.02
603.22	1086.50
603.57	1084.56
603.92	1086.55
604.27	1086.41
604.62	1083.39
604.97	1083.43
605.31	1082.87
605.66	1080.77
606.01	1079.20
606.36	1080.93
606.71	1080.56
607.05	1078.66
607.40	1078.94
607.75	1083.83
608.10	1083.53
608.44	1083.34
608.79	1086.92
609.14	1086.52
609.49	1086.90
609.84	1089.89
610.18	1093.05
610.53	1094.76
610.88	1096.68
611.23	1097.22
611.57	1097.10
611.92	1098.16
612.27	1098.27
612.62	1097.20
612.96	1095.37
613.31	1096.03
613.66	1093.03
614.00	1092.26
614.35	1093.10
614.70	1094.22
615.05	1092.00
615.39	1091.37
615.74	1087.90
616.09	1088.02
616.43	1087.06
616.78	1086.66
617.13	1089.59
617.47	1091.23
617.82	1089.33
618.17	1084.11
618.51	1082.36
618.86	1080.37
619.21	1081.77
619.55	1081.14
619.90	1085.94
620.25	1087.72
620.59	1085.54
620.94	1085.75
621.29	1083.11
621.63	1082.26
621.98	1080.46
622.32	1081.47
622.67	1079.57
623.02	1084.39
623.36	1081.66
623.71	1081.58
624.05	1081.82
624.40	1085.80
624.75	1082.69
625.09	1086.45
625.44	1086.52
625.78	1086.38
626.13	1084.04
626.48	1086.20
626.82	1085.87
627.17	1086.24
627.51	1086.22
627.86	1086.24
628.20	1086.13
628.55	1086.22
628.89	1085.75
629.24	1084.44
629.58	1085.10
629.93	1088.84
630.28	1090.03
630.62	1091.34
630.97	1093.87
631.31	1092.35
631.66	1089.75
632.00	1086.71
632.35	1086.08
632.69	1083.27
633.04	1085.24
633.38	1084.60
633.73	1084.46
634.07	1082.97
634.42	1084.37
634.76	1084.81
635.11	1083.27
635.45	1084.18
635.79	1083.27
636.14	1083.46
636.48	1080.91
636.83	1082.85
637.17	1083.36
637.52	1085.42
637.86	1084.00
638.21	1086.97
638.55	1085.05
638.89	1086.01
639.24	1085.94
639.58	1088.51
639.93	1082.92
640.27	1086.13
640.61	1083.46
640.96	1083.81
641.30	1083.34
641.65	1087.02
641.99	1084.44
642.33	1086.27
642.68	1083.20
643.02	1084.11
643.37	1083.74
643.71	1082.12
644.05	1080.13
644.40	1081.94
644.74	1081.68
645.08	1079.97
645.43	1080.48
645.77	1077.77
646.11	1080.16
646.46	1079.83
646.80	1082.64
647.14	1083.55
647.49	1087.18
647.83	1083.71
648.17	1081.21
648.52	1078.47
648.86	1078.80
649.20	1079.03
649.55	1081.80
649.89	1084.56
650.23	1085.56
650.57	1084.23
650.92	1084.70
651.26	1086.45
651.60	1085.94
651.95	1084.79
652.29	1086.13
652.63	1084.42
652.97	1081.05
653.32	1080.72
653.66	1080.16
654.00	1080.37
654.34	1080.95
654.69	1085.26
655.03	1086.17
655.37	1087.69
655.71	1089.03
656.05	1090.71
656.40	1086.34
656.74	1083.01
657.08	1083.90
657.42	1081.89
657.76	1079.03
658.11	1081.33
658.45	1083.20
658.79	1081.63
659.13	1079.83
659.47	1081.94
659.82	1081.56
660.16	1079.50
660.50	1079.41
660.84	1078.05
661.18	1078.43
661.52	1073.74
661.87	1075.62
662.21	1076.65
662.55	1078.82
662.89	1077.23
663.23	1080.86
663.57	1080.18
663.91	1084.79
664.25	1086.52
664.60	1084.21
664.94	1086.41
665.28	1088.65
665.62	1085.56
665.96	1084.53
666.30	1084.89
666.64	1081.42
666.98	1078.38
667.32	1077.25
667.66	1078.19
668.01	1078.00
668.35	1081.02
668.69	1082.54
669.03	1081.14
669.37	1078.38
669.71	1083.08
670.05	1080.93
670.39	1081.28
670.73	1080.16
671.07	1079.48
671.41	1076.25
671.75	1076.81
672.09	1075.57
672.43	1076.04
672.77	1078.82
673.11	1082.05
673.45	1081.73
673.79	1082.54
674.13	1085.24
674.47	1084.42
674.81	1082.26
675.15	1082.64
675.49	1085.17
675.83	1083.93
676.17	1083.81
676.51	1082.57
676.85	1081.23
677.19	1078.43
677.53	1077.82
677.87	1076.93
678.21	1080.70
678.55	1082.24
678.89	1083.39
679.23	1085.45
679.57	1087.34
679.90	1086.10
680.24	1087.51
680.58	1085.07
680.92	1083.01
681.26	1081.68
681.60	1080.27
681.94	1073.84
682.28	1074.80
682.62	1075.08
682.96	1077.49
683.29	1079.03
683.63	1084.32
683.97	1084.11
684.31	1083.08
684.65	1082.19
684.99	1079.15
685.33	1075.83
685.67	1077.65
686.00	1080.84
686.34	1081.09
686.68	1082.15
687.02	1084.14
687.36	1084.86
687.70	1083.90
688.03	1082.31
688.37	1085.28
688.71	1086.01
689.05	1083.13
689.39	1082.76
689.72	1084.39
690.06	1080.72
690.40	1078.78
690.74	1080.20
691.08	1080.04
691.41	1079.27
691.75	1080.58
692.09	1079.85
692.43	1077.75
692.76	1074.61
693.10	1075.13
693.44	1072.43
693.78	1075.83
694.11	1076.74
694.45	1081.19
694.79	1081.09
695.13	1085.73
695.46	1085.75
695.80	1085.59
696.14	1082.36
696.48	1082.29
696.81	1080.34
697.15	1081.56
697.49	1082.85
697.82	1085.28
698.16	1082.71
698.50	1080.48
698.83	1080.06
699.17	1080.48
699.51	1080.06
699.84	1080.60
700.18	1082.78
700.52	1084.56
700.85	1083.74
701.19	1082.08
701.53	1082.69
701.86	1082.83
702.20	1077.91
702.54	1075.85
702.87	1075.92
703.21	1076.25
703.55	1076.53
703.88	1077.65
704.22	1081.49
704.55	1084.39
704.89	1087.58
705.23	1089.07
705.56	1087.79
705.90	1085.61
706.23	1081.94
706.57	1078.50
706.91	1075.83
707.24	1076.88
707.58	1078.05
707.91	1079.60
708.25	1081.84
708.58	1079.90
708.92	1080.72
709.26	1082.01
709.59	1085.24
709.93	1085.17
710.26	1086.34
710.60	1088.02
710.93	1089.54
711.27	1086.01
711.60	1085.12
711.94	1086.55
712.27	1083.62
712.61	1078.99
712.94	1077.37
713.28	1079.31
713.61	1079.69
713.95	1079.97
714.28	1081.98
714.62	1084.63
714.95	1081.58
715.29	1081.87
715.62	1080.23
715.96	1078.26
716.29	1077.47
716.63	1079.99
716.96	1078.61
717.29	1079.90
717.63	1079.55
717.96	1080.72
718.30	1077.89
718.63	1078.21
718.97	1079.71
719.30	1082.33
719.63	1080.81
719.97	1081.21
720.30	1081.63
720.64	1078.89
720.97	1077.93
721.30	1076.74
721.64	1076.01
721.97	1078.85
722.31	1081.19
722.64	1079.29
722.97	1080.58
723.31	1082.40
723.64	1080.11
723.97	1079.01
724.31	1080.32
724.64	1081.96
724.98	1081.91
725.31	1080.95
725.64	1080.34
725.98	1079.10
726.31	1077.28
726.64	1077.61
726.97	1077.82
727.31	1077.82
727.64	1079.99
727.97	1080.70
728.31	1078.17
728.64	1078.64
728.97	1081.07
729.31	1078.61
729.64	1080.67
729.97	1083.64
730.30	1082.50
730.64	1081.33
730.97	1083.20
731.30	1081.28
731.63	1079.97
731.97	1083.55
732.30	1083.83
732.63	1084.91
732.96	1084.93
733.30	1083.27
733.63	1081.07
733.96	1077.54
734.29	1078.00
734.63	1076.53
734.96	1080.09
735.29	1079.46
735.62	1083.64
735.95	1081.21
736.29	1081.47
736.62	1083.79
736.95	1081.35
737.28	1081.58
737.61	1084.67
737.94	1085.03
738.28	1085.00
738.61	1088.91
738.94	1085.91
739.27	1080.88
739.60	1081.84
739.93	1077.33
740.27	1075.66
740.60	1078.68
740.93	1080.41
741.26	1077.47
741.59	1079.76
741.92	1079.06
742.25	1077.70
742.58	1076.30
742.91	1078.59
743.25	1077.58
743.58	1077.61
743.91	1078.00
744.24	1082.24
744.57	1084.25
744.90	1084.28
745.23	1089.19
745.56	1089.19
745.89	1089.26
746.22	1086.13
746.55	1087.93
746.88	1083.95
747.21	1079.29
747.54	1076.60
747.87	1077.16
748.20	1073.84
748.53	1072.34
748.87	1074.70
749.20	1076.60
749.53	1078.19
749.86	1079.74
750.19	1079.57
750.52	1082.76
750.85	1083.90
751.18	1085.99
751.51	1084.21
751.84	1085.91
752.16	1083.86
752.49	1079.92
752.82	1071.92
753.15	1071.64
753.48	1071.08
753.81	1070.61
754.14	1072.69
754.47	1079.60
754.80	1082.01
755.13	1082.05
755.46	1083.34
755.79	1083.36
756.12	1084.30
756.45	1082.85
756.78	1085.47
757.11	1086.80
757.43	1086.80
757.76	1082.99
758.09	1083.55
758.42	1080.02
758.75	1078.19
759.08	1076.01
759.41	1077.37
759.74	1076.79
760.07	1077.16
760.39	1078.85
760.72	1084.56
761.05	1083.27
761.38	1084.60
761.71	1085.89
762.04	1085.28
762.36	1081.21
762.69	1080.37
763.02	1080.18
763.35	1081.40
763.68	1079.71
764.01	1078.28
764.33	1082.47
764.66	1084.02
764.99	1081.26
765.32	1083.27
765.65	1084.67
765.97	1083.88
766.30	1080.39
766.63	1081.98
766.96	1081.61
767.28	1082.26
767.61	1080.88
767.94	1082.08
768.27	1080.63
768.59	1080.09
768.92	1082.38
769.25	1083.13
769.58	1085.94
769.90	1086.01
770.23	1086.41
770.56	1083.08
770.89	1081.02
771.21	1078.14
771.54	1080.51
771.87	1079.88
772.19	1081.09
772.52	1082.57
772.85	1082.45
773.17	1083.11
773.50	1082.66
773.83	1083.76
774.15	1082.71
774.48	1082.73
774.81	1079.17
775.13	1080.88
775.46	1076.76
775.79	1077.28
776.11	1078.92
776.44	1083.81
776.77	1081.68
777.09	1083.06
777.42	1080.16
777.74	1078.61
778.07	1074.35
778.40	1078.03
778.72	1081.33
779.05	1085.68
779.37	1082.83
779.70	1081.14
780.03	1077.72
780.35	1077.37
780.68	1075.01
781.00	1078.24
781.33	1079.15
781.65	1080.20
781.98	1080.79
782.31	1084.09
782.63	1085.96
782.96	1088.47
783.28	1088.79
783.61	1088.56
783.93	1088.75
784.26	1088.21
784.58	1086.69
784.91	1088.70
785.23	1086.08
785.56	1083.41
785.88	1081.54
786.21	1082.97
786.53	1079.99
786.86	1078.71
787.18	1080.32
787.51	1078.50
787.83	1076.44
788.16	1078.52
788.48	1080.18
788.81	1077.47
789.13	1080.93
789.46	1082.40
789.78	1079.67
790.10	1078.14
790.43	1078.87
790.75	1077.42
791.08	1082.19
791.40	1083.79
791.73	1088.33
792.05	1086.97
792.37	1086.90
792.70	1084.39
793.02	1084.28
793.35	1079.71
793.67	1080.23
793.99	1080.67
794.32	1077.86
794.64	1076.08
794.96	1080.81
795.29	1084.63
795.61	1084.07
795.93	1080.93
796.26	1080.88
796.58	1079.24
796.91	1079.24
797.23	1079.41
797.55	1084.93
797.87	1086.38
798.20	1084.04
798.52	1083.69
798.84	1087.97
799.17	1084.28
799.49	1082.45
799.81	1083.27
800.14	1080.84
800.46	1076.15
800.78	1075.03
801.10	1075.71
801.43	1073.77
801.75	1074.28
802.07	1074.61
802.40	1077.02
802.72	1075.13
803.04	1076.74
803.36	1076.37
803.69	1076.65
804.01	1079.85
804.33	1083.29
804.65	1084.28
804.97	1083.95
805.30	1083.86
805.62	1081.87
805.94	1081.16
806.26	1081.77
806.58	1080.30
806.91	1078.66
807.23	1078.28
807.55	1076.46
807.87	1076.13
808.19	1078.50
808.52	1082.03
808.84	1082.71
809.16	1084.14
809.48	1082.94
809.80	1084.89
810.12	1083.53
810.44	1084.72
810.77	1085.31
811.09	1086.87
811.41	1084.42
811.73	1082.99
812.05	1081.26
812.37	1080.79
812.69	1078.03
813.01	1077.00
813.33	1077.96
813.66	1079.01
813.98	1078.75
814.30	1082.90
814.62	1084.89
814.94	1085.45
815.26	1083.62
815.58	1084.96
815.90	1083.88
816.22	1081.70
816.54	1079.64
816.86	1078.45
817.18	1078.47
817.50	1078.33
817.82	1081.44
818.14	1082.87
818.46	1078.85
818.78	1078.73
819.10	1078.66
819.42	1076.01
819.74	1075.52
820.06	1081.54
820.38	1080.86
820.70	1081.63
821.02	1081.56
821.34	1080.04
821.66	1078.78
821.98	1079.97
822.30	1080.23
822.62	1084.16
822.94	1086.24
823.26	1084.56
823.58	1082.61
823.90	1080.74
824.22	1076.72
824.54	1078.19
824.86	1079.20
825.18	1081.98
825.50	1081.47
825.81	1081.42
826.13	1082.08
826.45	1084.86
826.77	1086.17
827.09	1085.66
827.41	1086.06
827.73	1081.40
828.05	1079.34
828.36	1077.40
828.68	1078.38
829.00	1078.36
829.32	1078.40
829.64	1078.00
829.96	1076.46
830.28	1077.61
830.59	1081.75
830.91	1086.38
831.23	1086.20
831.55	1085.89
831.87	1083.95
832.19	1079.22
832.50	1077.37
832.82	1077.86
833.14	1078.14
833.46	1076.01
833.78	1078.10
834.09	1079.41
834.41	1082.19
834.73	1081.37
835.05	1084.32
835.36	1084.23
835.68	1084.42
836.00	1081.84
836.32	1084.49
836.63	1082.90
836.95	1081.80
837.27	1081.49
837.59	1081.49
837.90	1080.46
838.22	1081.35
838.54	1082.54
838.85	1078.78
839.17	1079.78
839.49	1079.06
839.80	1078.64
840.12	1079.76
840.44	1079.83
840.76	1079.46
841.07	1079.27
841.39	1078.03
841.71	1078.85
842.02	1082.10
842.34	1079.13
842.65	1078.40
842.97	1080.16
843.29	1074.96
843.60	1071.47
843.92	1075.01
844.24	1078.12
844.55	1080.88
844.87	1084.53
845.18	1088.65
845.50	1087.74
845.82	1086.03
846.13	1081.73
846.45	1082.22
846.76	1081.63
847.08	1081.47
847.40	1081.75
847.71	1084.70
848.03	1082.69
848.34	1080.60
848.66	1081.33
848.97	1081.16
849.29	1079.97
849.60	1082.08
849.92	1084.21
850.24	1083.39
850.55	1086.50
850.87	1085.80
851.18	1084.18
851.50	1080.04
851.81	1079.17
852.13	1074.84
852.44	1075.13
852.76	1075.29
853.07	1078.87
853.39	1080.77
853.70	1082.66
854.01	1081.68
854.33	1081.33
854.64	1079.27
854.96	1074.98
855.27	1072.46
855.59	1073.67
855.90	1075.85
856.22	1076.46
856.53	1081.77
856.84	1083.53
857.16	1086.20
857.47	1083.39
857.79	1083.79
858.10	1082.50
858.41	1081.96
858.73	1078.89
859.04	1081.07
859.36	1079.15
859.67	1077.82
859.98	1078.10
860.30	1078.71
860.61	1078.85
860.92	1079.36
861.24	1082.01
861.55	1082.08
861.87	1081.35
862.18	1078.36
862.49	1081.91
862.81	1081.16
863.12	1081.07
863.43	1081.49
863.74	1081.91
864.06	1079.08
864.37	1079.22
864.68	1077.23
865.00	1077.58
865.31	1079.50
865.62	1079.81
865.94	1080.41
866.25	1082.52
866.56	1082.38
866.87	1080.81
867.19	1084.35
867.50	1085.96
867.81	1084.96
868.12	1084.04
868.44	1087.79
868.75	1086.80
869.06	1085.35
869.37	1089.61
869.68	1090.90
870.00	1088.44
870.31	1085.94
870.62	1086.10
870.93	1081.58
871.24	1082.01
871.56	1081.98
871.87	1082.73
872.18	1078.94
872.49	1080.91
872.80	1079.55
873.12	1075.99
873.43	1074.89
873.74	1076.48
874.05	1073.88
874.36	1074.19
874.67	1077.16
874.98	1076.34
875.29	1078.14
875.61	1079.67
875.92	1080.91
876.23	1082.54
876.54	1084.96
876.85	1083.20
877.16	1082.05
877.47	1081.96
877.78	1080.34
878.09	1079.83
878.40	1079.34
878.72	1079.41
879.03	1077.89
879.34	1078.75
879.65	1079.08
879.96	1079.34
880.27	1081.73
880.58	1081.37
880.89	1079.62
881.20	1080.27
881.51	1080.30
881.82	1080.65
882.13	1078.36
882.44	1075.24
882.75	1074.98
883.06	1075.36
883.37	1077.28
883.68	1082.43
883.99	1087.18
884.30	1084.91
884.61	1083.36
884.92	1079.01
885.23	1077.30
885.54	1078.82
885.85	1082.33
886.16	1081.70
886.47	1082.10
886.78	1082.22
887.08	1082.47
887.39	1080.70
887.70	1083.04
888.01	1082.94
888.32	1081.05
888.63	1077.93
888.94	1078.00
889.25	1076.83
889.56	1075.80
889.87	1077.02
890.17	1076.72
890.48	1076.44
890.79	1079.81
891.10	1082.45
891.41	1081.80
891.72	1083.22
892.03	1085.70
892.34	1084.81
892.64	1084.53
892.95	1086.01
893.26	1086.29
893.57	1086.08
893.88	1083.62
894.18	1082.47
894.49	1082.01
894.80	1081.26
895.11	1078.68
895.42	1080.20
895.72	1080.41
896.03	1081.05
896.34	1079.27
896.65	1078.94
896.96	1077.93
897.26	1076.95
897.57	1076.04
897.88	1076.76
898.19	1077.42
898.49	1079.22
898.80	1082.66
899.11	1085.14
899.41	1085.80
899.72	1089.31
900.03	1085.59
900.34	1085.75
900.64	1080.23
900.95	1079.78
901.26	1077.09
901.56	1077.75
901.87	1073.23
902.18	1077.02
902.48	1078.82
902.79	1075.76
903.10	1077.93
903.40	1079.83
903.71	1078.31
904.02	1077.35
904.32	1079.57
904.63	1080.58
904.94	1081.26
905.24	1081.28
905.55	1079.57
905.85	1079.55
906.16	1077.86
906.47	1076.62
906.77	1077.18
907.08	1079.90
907.38	1078.82
907.69	1079.36
908.00	1083.20
908.30	1083.86
908.61	1083.41
908.91	1085.03
909.22	1087.88
909.52	1086.29
909.83	1083.34
910.14	1082.05
910.44	1079.69
910.75	1076.62
911.05	1073.65
911.36	1076.44
911.66	1077.70
911.97	1081.56
912.27	1081.47
912.58	1082.80
912.88	1082.94
913.19	1081.56
913.49	1079.85
913.80	1079.24
914.10	1079.36
914.41	1079.92
914.71	1079.81
915.01	1076.67
915.32	1079.92
915.62	1081.63
915.93	1082.15
916.23	1084.35
916.54	1087.34
916.84	1084.56
917.15	1082.83
917.45	1080.06
917.75	1078.82
918.06	1078.73
918.36	1078.19
918.67	1078.61
918.97	1083.22
919.27	1082.50
919.58	1084.16
919.88	1086.90
920.18	1089.78
920.49	1088.65
920.79	1088.37
921.10	1087.13
921.40	1087.27
921.70	1084.58
922.01	1081.94
922.31	1081.96
922.61	1081.63
922.92	1079.71
923.22	1079.17
923.52	1077.51
923.82	1075.73
924.13	1073.95
924.43	1070.87
924.73	1070.98
925.04	1075.62
925.34	1078.38
925.64	1080.56
925.94	1083.27
926.25	1080.88
926.55	1077.44
926.85	1076.58
927.15	1074.17
927.46	1073.16
927.76	1078.12
928.06	1080.72
928.36	1082.78
928.67	1085.12
928.97	1087.44
929.27	1086.20
929.57	1086.48
929.87	1085.07
930.18	1082.85
930.48	1080.93
930.78	1082.26
931.08	1079.90
931.38	1080.25
931.69	1083.71
931.99	1085.75
932.29	1083.22
932.59	1083.18
932.89	1080.60
933.19	1077.37
933.49	1078.54
933.80	1079.69
934.10	1079.69
934.40	1081.21
934.70	1083.15
935.00	1080.65
935.30	1082.08
935.60	1081.09
935.90	1081.49
936.20	1082.08
936.50	1083.93
936.81	1081.58
937.11	1086.50
937.41	1087.25
937.71	1084.39
938.01	1082.64
938.31	1081.80
938.61	1076.06
938.91	1077.56
939.21	1077.51
939.51	1079.62
939.81	1081.37
940.11	1082.38
940.41	1082.80
940.71	1084.51
941.01	1084.25
941.31	1083.71
941.61	1087.46
941.91	1082.19
942.21	1080.77
942.51	1081.02
942.81	1082.47
943.11	1079.46
943.41	1085.96
943.71	1087.76
944.01	1084.32
944.31	1082.66
944.61	1083.48
944.90	1080.46
945.20	1079.97
945.50	1079.78
945.80	1078.31
946.10	1077.89
946.40	1081.47
946.70	1082.03
947.00	1082.31
947.30	1085.14
947.60	1086.71
947.89	1084.02
948.19	1086.29
948.49	1089.00
948.79	1089.10
949.09	1090.55
949.39	1087.62
949.69	1084.39
949.98	1081.80
950.28	1079.85
950.58	1076.15
950.88	1076.37
951.18	1076.53
951.48	1074.59
951.77	1077.89
952.07	1080.11
952.37	1080.13
952.67	1079.01
952.97	1079.88
953.26	1075.99
953.56	1075.13
953.86	1076.79
954.16	1078.52
954.45	1082.40
954.75	1080.13
955.05	1081.63
955.35	1082.59
955.64	1083.64
955.94	1082.78
956.24	1085.19
956.54	1084.11
956.83	1085.07
957.13	1084.23
957.43	1083.29
957.72	1083.15
958.02	1084.23
958.32	1081.80
958.61	1080.51
958.91	1076.88
959.21	1078.50
959.50	1076.88
959.80	1078.36
960.10	1079.41
960.39	1085.54
960.69	1082.40
960.99	1081.70
961.28	1081.42
961.58	1080.70
961.87	1080.58
962.17	1080.74
962.47	1082.33
962.76	1079.20
963.06	1079.43
963.36	1078.80
963.65	1079.41
963.95	1076.25
964.24	1078.19
964.54	1077.86
964.83	1074.14
965.13	1073.77
965.42	1072.60
965.72	1073.07
966.02	1071.73
966.31	1074.17
966.61	1075.80
966.90	1078.87
967.20	1078.54
967.49	1079.31
967.79	1078.96
968.08	1078.36
968.38	1077.75
968.67	1078.52
968.97	1079.29
969.26	1076.32
969.56	1074.73
969.85	1073.58
970.15	1073.28
970.44	1073.35
970.74	1075.08
971.03	1077.75
971.32	1079.88
971.62	1079.97
971.91	1078.21
972.21	1078.28
972.50	1079.22
972.80	1080.11
973.09	1079.17
973.38	1079.78
973.68	1082.52
973.97	1077.42
974.27	1079.41
974.56	1079.74
974.85	1078.94
975.15	1077.96
975.44	1081.94
975.73	1080.93
976.03	1082.64
976.32	1087.32
976.61	1087.34
976.91	1086.73
977.20	1086.03
977.49	1082.33
977.79	1079.62
978.08	1076.74
978.37	1076.44
978.67	1076.41
978.96	1080.11
979.25	1080.79
979.55	1084.02
979.84	1087.65
980.13	1086.66
980.42	1083.67
980.72	1080.81
981.01	1080.72
981.30	1078.28
981.59	1078.45
981.89	1080.32
982.18	1081.33
982.47	1080.51
982.76	1080.93
983.06	1080.16
983.35	1078.52
983.64	1078.85
983.93	1078.12
984.22	1077.02
984.52	1077.54
984.81	1077.33
985.10	1074.75
985.39	1077.21
985.68	1078.66
985.97	1077.84
986.27	1080.09
986.56	1083.71
986.85	1081.00
987.14	1078.28
987.43	1080.34
987.72	1079.08
988.01	1075.90
988.31	1079.38
988.60	1079.20
988.89	1077.09
989.18	1075.36
989.47	1076.97
989.76	1072.46
990.05	1071.75
990.34	1071.43
990.63	1071.50
990.92	1073.77
991.21	1074.07
991.51	1077.58
991.80	1076.60
992.09	1080.04
992.38	1081.51
992.67	1081.77
992.96	1078.92
993.25	1079.43
993.54	1078.54
993.83	1079.55
994.12	1079.48
994.41	1078.45
994.70	1080.53
994.99	1082.31
995.28	1077.75
995.57	1082.10
995.86	1084.58
996.15	1080.95
996.44	1078.82
996.73	1080.95
997.02	1074.96
997.31	1075.24
997.59	1079.55
997.88	1078.94
998.17	1077.21
998.46	1078.75
998.75	1077.23
999.04	1077.86
999.33	1078.66
999.62	1077.96
999.91	1079.64
1000.20	1081.66
1000.49	1078.17
1000.77	1077.02
1001.06	1076.81
1001.35	1077.21
1001.64	1074.45
1001.93	1077.21
1002.22	1079.46
1002.51	1081.54
1002.79	1079.57
1003.08	1082.73
1003.37	1081.00
1003.66	1080.60
1003.95	1081.35
1004.23	1085.63
1004.52	1086.45
1004.81	1084.77
1005.10	1084.89
1005.39	1084.00
1005.67	1082.03
1005.96	1079.67
1006.25	1084.23
1006.54	1081.82
1006.83	1079.67
1007.11	1077.84
1007.40	1078.82
1007.69	1079.62
1007.97	1078.68
1008.26	1080.11
1008.55	1081.42
1008.84	1080.91
1009.12	1076.39
1009.41	1079.08
1009.70	1080.63
1009.98	1079.10
1010.27	1079.81
1010.56	1081.87
1010.85	1081.23
1011.13	1079.67
1011.42	1078.45
1011.71	1079.69
1011.99	1080.06
1012.28	1083.13
1012.56	1081.40
1012.85	1083.53
1013.14	1083.86
1013.42	1084.14
1013.71	1081.28
1014.00	1083.43
1014.28	1084.58
1014.57	1082.43
1014.85	1078.85
1015.14	1080.34
1015.43	1083.50
1015.71	1082.03
1016.00	1080.13
1016.28	1081.26
1016.57	1081.51
1016.85	1075.64
1017.14	1075.24
1017.43	1077.75
1017.71	1081.05
1018.00	1080.06
1018.28	1084.56
1018.57	1086.15
1018.85	1087.55
1019.14	1086.41
1019.42	1082.73
1019.71	1081.96
1019.99	1082.08
1020.28	1079.22
1020.56	1078.59
1020.85	1079.97
1021.13	1078.71
1021.42	1078.89
1021.70	1080.79
1021.99	1080.39
1022.27	1086.64
1022.55	1081.09
1022.84	1104.38
>>>>>End Processed Spectral Data<<<<<
