SpectraSuite Data File
++++++++++++++++++++++++++++++++++++
Date: Mon Aug 26 10:26:12 PDT 2019
User: corrico
Dark Spectrum Present: No
Reference Spectrum Present: No
Number of Sampled Component Spectra: 1
Spectrometers: USB2+H06089
Integration Time (usec): 10000 (USB2+H06089)
Spectra Averaged: 20 (USB2+H06089)
Boxcar Smoothing: 2 (USB2+H06089)
Correct for Electrical Dark: No (USB2+H06089)
Strobe/Lamp Enabled: No (USB2+H06089)
Correct for Detector Non-linearity: No (USB2+H06089)
Correct for Stray Light: No (USB2+H06089)
Number of Pixels in Processed Spectrum: 2048
>>>>>Begin Processed Spectral Data<<<<<
339.70	1043.41
340.07	1043.41
340.45	1003.93
340.82	981.11
341.19	954.89
341.57	928.42
341.94	917.96
342.31	911.47
342.69	906.21
343.06	904.69
343.43	902.32
343.81	904.85
344.18	905.20
344.55	909.53
344.93	915.50
345.30	921.14
345.67	927.23
346.04	936.59
346.42	947.07
346.79	954.49
347.16	963.74
347.54	970.39
347.91	979.63
348.28	985.74
348.65	995.78
349.03	1004.77
349.40	1012.61
349.77	1023.47
350.14	1031.59
350.52	1034.75
350.89	1042.33
351.26	1047.93
351.63	1052.42
352.01	1055.44
352.38	1064.97
352.75	1066.02
353.12	1072.74
353.50	1079.57
353.87	1087.32
354.24	1087.86
354.61	1090.41
354.98	1095.79
355.36	1093.80
355.73	1090.62
356.10	1092.52
356.47	1094.18
356.84	1092.37
357.22	1091.27
357.59	1087.81
357.96	1086.03
358.33	1086.73
358.70	1086.08
359.08	1089.38
359.45	1095.37
359.82	1095.49
360.19	1094.39
360.56	1095.46
360.94	1088.89
361.31	1084.77
361.68	1081.56
362.05	1079.99
362.42	1076.53
362.79	1079.03
363.16	1078.40
363.54	1079.99
363.91	1080.25
364.28	1078.87
364.65	1078.10
365.02	1080.46
365.39	1082.76
365.76	1083.13
366.14	1083.64
366.51	1082.92
366.88	1083.81
367.25	1080.48
367.62	1083.97
367.99	1082.52
368.36	1083.41
368.73	1082.17
369.10	1083.08
369.48	1080.81
369.85	1084.67
370.22	1087.02
370.59	1089.00
370.96	1089.14
371.33	1088.21
371.70	1087.69
372.07	1085.10
372.44	1079.29
372.81	1079.78
373.18	1079.46
373.55	1078.80
373.93	1076.83
374.30	1078.57
374.67	1078.54
375.04	1079.53
375.41	1079.31
375.78	1083.18
376.15	1084.37
376.52	1086.80
376.89	1087.11
377.26	1085.21
377.63	1081.12
378.00	1082.71
378.37	1080.81
378.74	1080.25
379.11	1079.60
379.48	1081.26
379.85	1080.39
380.22	1080.77
380.59	1081.84
380.96	1083.13
381.33	1083.15
381.70	1084.37
382.07	1084.39
382.44	1086.92
382.81	1089.71
383.18	1088.33
383.55	1086.10
383.92	1086.43
384.29	1084.58
384.66	1080.77
385.03	1082.87
385.40	1083.88
385.77	1080.53
386.14	1078.45
386.51	1079.60
386.88	1081.75
387.25	1082.66
387.62	1085.40
387.99	1086.76
388.36	1088.44
388.73	1084.96
389.10	1083.79
389.46	1084.35
389.83	1084.49
390.20	1085.89
390.57	1088.63
390.94	1088.58
391.31	1086.80
391.68	1086.22
392.05	1084.74
392.42	1084.18
392.79	1083.22
393.16	1085.87
393.53	1086.17
393.89	1087.46
394.26	1087.76
394.63	1090.34
395.00	1091.42
395.37	1097.24
395.74	1095.75
396.11	1096.12
396.48	1095.70
396.84	1093.59
397.21	1089.00
397.58	1088.79
397.95	1087.51
398.32	1089.22
398.69	1091.02
399.06	1088.75
399.42	1089.47
399.79	1091.27
400.16	1090.99
400.53	1090.62
400.90	1095.07
401.27	1095.16
401.64	1094.60
402.00	1093.78
402.37	1093.10
402.74	1093.90
403.11	1095.75
403.48	1094.32
403.84	1093.69
404.21	1093.64
404.58	1092.98
404.95	1093.92
405.32	1095.79
405.68	1097.64
406.05	1097.29
406.42	1097.92
406.79	1097.99
407.16	1099.82
407.52	1099.63
407.89	1098.83
408.26	1096.99
408.63	1094.88
408.99	1091.32
409.36	1089.38
409.73	1090.32
410.10	1090.60
410.47	1094.22
410.83	1099.54
411.20	1101.36
411.57	1102.09
411.94	1101.53
412.30	1099.93
412.67	1099.42
413.04	1098.51
413.40	1101.81
413.77	1105.90
414.14	1105.22
414.51	1103.73
414.87	1103.77
415.24	1101.34
415.61	1098.67
415.97	1100.99
416.34	1102.63
416.71	1104.57
417.08	1107.07
417.44	1109.25
417.81	1110.07
418.18	1110.79
418.54	1112.11
418.91	1111.24
419.28	1109.18
419.64	1106.79
420.01	1107.89
420.38	1108.71
420.74	1109.32
421.11	1111.10
421.48	1114.73
421.84	1114.63
422.21	1112.67
422.58	1110.37
422.94	1111.36
423.31	1111.78
423.68	1108.74
424.04	1110.51
424.41	1112.27
424.77	1110.63
425.14	1108.03
425.51	1109.44
425.87	1109.18
426.24	1113.25
426.61	1115.20
426.97	1116.39
427.34	1116.83
427.70	1115.20
428.07	1111.68
428.44	1111.54
428.80	1109.34
429.17	1108.31
429.53	1112.36
429.90	1112.11
430.27	1111.45
430.63	1111.73
431.00	1111.36
431.36	1109.46
431.73	1111.61
432.09	1111.92
432.46	1113.02
432.83	1113.72
433.19	1111.45
433.56	1110.23
433.92	1108.31
434.29	1109.16
434.65	1108.29
435.02	1108.95
435.38	1109.55
435.75	1108.41
436.11	1108.45
436.48	1114.68
436.84	1115.52
437.21	1114.73
437.57	1119.76
437.94	1118.99
438.30	1113.81
438.67	1116.53
439.03	1114.42
439.40	1111.80
439.76	1111.54
440.13	1115.22
440.49	1117.04
440.86	1119.57
441.22	1118.68
441.59	1120.91
441.95	1117.23
442.32	1113.88
442.68	1114.45
443.05	1114.42
443.41	1114.56
443.78	1114.02
444.14	1112.18
444.51	1110.44
444.87	1113.07
445.24	1111.68
445.60	1111.26
445.96	1111.38
446.33	1112.11
446.69	1106.89
447.06	1104.57
447.42	1105.48
447.79	1108.55
448.15	1105.62
448.51	1106.21
448.88	1106.46
449.24	1107.66
449.61	1105.20
449.97	1105.27
450.33	1108.76
450.70	1110.05
451.06	1108.66
451.43	1109.98
451.79	1114.84
452.15	1113.98
452.52	1111.57
452.88	1110.94
453.24	1109.27
453.61	1104.78
453.97	1106.46
454.34	1107.52
454.70	1105.46
455.06	1108.48
455.43	1110.23
455.79	1108.38
456.15	1108.99
456.52	1114.05
456.88	1112.90
457.24	1116.27
457.61	1116.41
457.97	1117.54
458.33	1116.74
458.70	1116.06
459.06	1115.12
459.42	1115.38
459.79	1114.80
460.15	1116.93
460.51	1115.43
460.88	1114.07
461.24	1116.25
461.60	1120.86
461.96	1117.82
462.33	1125.07
462.69	1127.23
463.05	1129.82
463.42	1125.61
463.78	1128.82
464.14	1123.13
464.50	1122.15
464.87	1121.51
465.23	1124.21
465.59	1123.50
465.95	1124.96
466.32	1125.89
466.68	1126.29
467.04	1129.26
467.40	1131.32
467.77	1134.83
468.13	1136.56
468.49	1135.82
468.85	1136.35
469.22	1136.99
469.58	1135.53
469.94	1137.57
470.30	1141.95
470.66	1143.38
471.03	1147.59
471.39	1151.15
471.75	1154.82
472.11	1157.47
472.47	1163.20
472.84	1164.11
473.20	1169.71
473.56	1170.53
473.92	1173.17
474.28	1173.38
474.65	1175.14
475.01	1177.20
475.37	1181.92
475.73	1183.59
476.09	1190.75
476.45	1197.37
476.81	1203.32
477.18	1208.54
477.54	1219.84
477.90	1224.12
478.26	1229.60
478.62	1238.54
478.98	1250.57
479.34	1257.73
479.71	1268.08
480.07	1282.92
480.43	1290.22
480.79	1299.84
481.15	1308.92
481.51	1322.00
481.87	1335.06
482.23	1350.61
482.59	1364.79
482.96	1381.76
483.32	1398.12
483.68	1411.86
484.04	1423.89
484.40	1440.79
484.76	1458.15
485.12	1477.93
485.48	1500.33
485.84	1528.23
486.20	1550.51
486.56	1576.58
486.92	1603.71
487.28	1632.80
487.64	1661.97
488.00	1696.23
488.37	1733.75
488.73	1770.76
489.09	1808.32
489.45	1847.22
489.81	1892.28
490.17	1934.22
490.53	1981.19
490.89	2027.68
491.25	2079.61
491.61	2128.79
491.97	2185.05
492.33	2236.50
492.69	2293.61
493.05	2356.08
493.41	2425.40
493.77	2499.65
494.13	2578.97
494.49	2660.35
494.85	2740.95
495.21	2822.92
495.57	2909.50
495.93	3006.16
496.29	3105.61
496.64	3222.43
497.00	3338.31
497.36	3454.44
497.72	3577.51
498.08	3718.48
498.44	3855.80
498.80	4000.02
499.16	4165.90
499.52	4328.66
499.88	4498.39
500.24	4669.72
500.60	4857.55
500.96	5032.25
501.32	5211.72
501.68	5391.66
502.03	5604.04
502.39	5822.85
502.75	6061.07
503.11	6319.40
503.47	6603.38
503.83	6890.58
504.19	7189.45
504.55	7509.09
504.91	7834.24
505.26	8142.49
505.62	8506.09
505.98	8896.96
506.34	9288.25
506.70	9709.22
507.06	10176.51
507.42	10627.41
507.78	11071.32
508.13	11569.78
508.49	12080.82
508.85	12645.45
509.21	13207.57
509.57	13794.60
509.93	14382.62
510.28	15017.16
510.64	15688.19
511.00	16371.84
511.36	17079.38
511.72	17862.64
512.07	18698.26
512.43	19469.65
512.79	20352.76
513.15	21255.08
513.51	22008.64
513.86	22773.37
514.22	23668.78
514.58	24571.25
514.94	25438.11
515.30	26451.33
515.65	27518.73
516.01	28477.42
516.37	29395.14
516.73	30388.72
517.08	31311.48
517.44	32062.91
517.80	32914.37
518.16	33776.39
518.51	34657.37
518.87	35561.91
519.23	36619.51
519.59	37644.29
519.94	38678.78
520.30	39671.43
520.66	40538.94
521.01	41353.52
521.37	42138.68
521.73	42780.78
522.09	43323.78
522.44	43980.14
522.80	44473.60
523.16	44756.19
523.51	45003.49
523.87	45298.47
524.23	45585.40
524.58	45802.93
524.94	46196.56
525.30	46558.29
525.65	46795.34
526.01	46864.17
526.37	47092.37
526.72	47268.83
527.08	47284.95
527.44	47187.03
527.79	47098.02
528.15	46901.32
528.51	46588.81
528.86	46340.97
529.22	46031.57
529.58	45655.26
529.93	45252.43
530.29	44669.99
530.65	44153.78
531.00	43686.82
531.36	43064.24
531.71	42422.12
532.07	41938.19
532.43	41229.89
532.78	40507.25
533.14	39936.70
533.49	39305.81
533.85	38650.79
534.21	38138.61
534.56	37646.89
534.92	37029.05
535.27	36390.49
535.63	35625.04
535.98	34876.09
536.34	34095.61
536.69	33377.75
537.05	32718.75
537.41	32174.10
537.76	31560.56
538.12	30853.76
538.47	30221.58
538.83	29618.03
539.18	28999.21
539.54	28408.84
539.89	27958.35
540.25	27522.66
540.60	27040.23
540.96	26477.54
541.31	25990.83
541.67	25588.98
542.02	25125.46
542.38	24706.81
542.73	24269.58
543.09	23786.12
543.44	23227.99
543.80	22704.53
544.15	22213.93
544.51	21884.59
544.86	21537.91
545.22	21256.39
545.57	20946.51
545.93	20520.76
546.28	20067.14
546.64	19666.98
546.99	19240.61
547.35	18847.84
547.70	18491.92
548.05	18105.10
548.41	17714.95
548.76	17285.42
549.12	16873.55
549.47	16506.42
549.83	16181.20
550.18	15842.69
550.53	15522.43
550.89	15185.37
551.24	14810.28
551.60	14490.23
551.95	14192.45
552.30	13905.45
552.66	13686.66
553.01	13503.77
553.37	13239.85
553.72	12950.28
554.07	12682.52
554.43	12372.70
554.78	12046.60
555.13	11764.82
555.49	11474.76
555.84	11202.69
556.19	10935.80
556.55	10647.07
556.90	10373.63
557.26	10176.44
557.61	9988.28
557.96	9769.12
558.32	9573.21
558.67	9364.79
559.02	9132.58
559.37	8904.38
559.73	8740.66
560.08	8570.69
560.43	8380.26
560.79	8185.84
561.14	7976.29
561.49	7757.92
561.85	7549.37
562.20	7390.71
562.55	7264.46
562.90	7123.07
563.26	6994.78
563.61	6867.76
563.96	6707.72
564.32	6522.65
564.67	6365.70
565.02	6229.73
565.37	6114.20
565.73	5989.64
566.08	5868.92
566.43	5758.23
566.78	5618.69
567.14	5485.35
567.49	5372.07
567.84	5260.99
568.19	5150.51
568.54	5051.04
568.90	4960.41
569.25	4878.54
569.60	4799.81
569.95	4721.54
570.31	4646.76
570.66	4565.14
571.01	4469.86
571.36	4373.22
571.71	4287.35
572.06	4201.92
572.42	4112.60
572.77	4034.26
573.12	3964.24
573.47	3889.83
573.82	3820.50
574.18	3759.32
574.53	3692.12
574.88	3636.89
575.23	3573.60
575.58	3509.24
575.93	3449.41
576.28	3389.77
576.64	3330.72
576.99	3271.46
577.34	3212.88
577.69	3149.61
578.04	3089.55
578.39	3030.43
578.74	2977.56
579.09	2922.65
579.44	2865.49
579.80	2816.90
580.15	2768.03
580.50	2723.05
580.85	2682.49
581.20	2642.14
581.55	2601.83
581.90	2557.53
582.25	2516.36
582.60	2475.33
582.95	2439.89
583.30	2408.25
583.65	2374.71
584.00	2338.45
584.35	2306.62
584.71	2274.91
585.06	2246.19
585.41	2221.38
585.76	2198.16
586.11	2168.18
586.46	2137.63
586.81	2105.50
587.16	2075.14
587.51	2046.03
587.86	2024.28
588.21	2005.44
588.56	1984.75
588.91	1967.59
589.26	1949.78
589.61	1929.72
589.96	1907.65
590.31	1886.75
590.66	1862.65
591.01	1837.46
591.36	1813.68
591.71	1788.66
592.06	1764.76
592.41	1749.64
592.76	1738.55
593.10	1720.50
593.45	1713.11
593.80	1700.84
594.15	1685.07
594.50	1670.04
594.85	1662.62
595.20	1649.19
595.55	1635.38
595.90	1624.61
596.25	1611.37
596.60	1597.18
596.95	1580.87
597.30	1571.72
597.64	1610.01
597.99	1599.69
598.34	1583.37
598.69	1574.95
599.04	1564.34
599.39	1502.74
599.74	1488.60
600.09	1482.17
600.44	1472.85
600.78	1464.68
601.13	1458.53
601.48	1453.00
601.83	1442.52
602.18	1433.70
602.53	1421.43
602.88	1411.83
603.22	1402.92
603.57	1401.02
603.92	1390.65
604.27	1383.63
604.62	1375.91
604.97	1371.58
605.31	1366.19
605.66	1360.23
606.01	1356.93
606.36	1348.94
606.71	1339.11
607.05	1329.47
607.40	1323.95
607.75	1319.48
608.10	1317.09
608.44	1314.70
608.79	1308.90
609.14	1303.91
609.49	1297.41
609.84	1291.98
610.18	1288.98
610.53	1287.65
610.88	1285.19
611.23	1278.87
611.57	1274.98
611.92	1265.97
612.27	1258.76
612.62	1250.99
612.96	1243.85
613.31	1239.38
613.66	1237.37
614.00	1232.67
614.35	1231.22
614.70	1232.78
615.05	1232.67
615.39	1230.68
615.74	1225.01
616.09	1221.85
616.43	1216.31
616.78	1208.63
617.13	1203.20
617.47	1205.82
617.82	1207.79
618.17	1203.55
618.51	1202.12
618.86	1201.91
619.21	1197.09
619.55	1191.85
619.90	1192.01
620.25	1190.30
620.59	1186.37
620.94	1186.14
621.29	1180.89
621.63	1181.71
621.98	1178.51
622.32	1175.72
622.67	1170.60
623.02	1168.91
623.36	1162.15
623.71	1161.84
624.05	1158.10
624.40	1156.13
624.75	1153.06
625.09	1152.41
625.44	1148.85
625.78	1152.41
626.13	1153.04
626.48	1157.42
626.82	1158.00
627.17	1157.44
627.51	1155.08
627.86	1153.23
628.20	1149.48
628.55	1147.47
628.89	1144.01
629.24	1141.03
629.58	1137.55
629.93	1134.13
630.28	1133.47
630.62	1133.87
630.97	1135.86
631.31	1139.16
631.66	1140.29
632.00	1138.60
632.35	1137.55
632.69	1137.50
633.04	1134.04
633.38	1133.12
633.73	1132.44
634.07	1132.73
634.42	1126.20
634.76	1126.29
635.11	1125.59
635.45	1121.65
635.79	1117.72
636.14	1118.94
636.48	1116.95
636.83	1114.40
637.17	1114.70
637.52	1114.21
637.86	1115.57
638.21	1115.41
638.55	1116.90
638.89	1117.16
639.24	1118.89
639.58	1115.66
639.93	1116.30
640.27	1116.44
640.61	1115.64
640.96	1114.52
641.30	1112.83
641.65	1112.85
641.99	1112.22
642.33	1111.15
642.68	1109.58
643.02	1111.89
643.37	1110.07
643.71	1108.74
644.05	1111.68
644.40	1113.21
644.74	1112.22
645.08	1111.80
645.43	1111.15
645.77	1107.54
646.11	1106.44
646.46	1105.62
646.80	1104.92
647.14	1106.02
647.49	1108.17
647.83	1108.43
648.17	1107.75
648.52	1106.30
648.86	1104.38
649.20	1104.26
649.55	1102.93
649.89	1103.19
650.23	1103.12
650.57	1105.25
650.92	1103.47
651.26	1104.22
651.60	1100.64
651.95	1101.67
652.29	1098.95
652.63	1100.66
652.97	1102.21
653.32	1106.28
653.66	1105.88
654.00	1105.69
654.34	1103.84
654.69	1103.42
655.03	1103.47
655.37	1102.49
655.71	1103.87
656.05	1104.24
656.40	1102.70
656.74	1101.74
657.08	1102.56
657.42	1101.46
657.76	1099.98
658.11	1100.57
658.45	1099.63
658.79	1100.99
659.13	1102.53
659.47	1103.38
659.82	1101.25
660.16	1100.08
660.50	1097.15
660.84	1095.30
661.18	1093.85
661.52	1096.03
661.87	1096.21
662.21	1095.79
662.55	1092.47
662.89	1095.37
663.23	1093.15
663.57	1095.11
663.91	1098.65
664.25	1102.65
664.60	1100.15
664.94	1100.85
665.28	1099.14
665.62	1096.78
665.96	1095.39
666.30	1098.81
666.64	1097.43
666.98	1094.55
667.32	1093.45
667.66	1092.42
668.01	1088.23
668.35	1086.94
668.69	1089.52
669.03	1090.83
669.37	1093.22
669.71	1093.36
670.05	1094.48
670.39	1096.42
670.73	1094.95
671.07	1092.66
671.41	1092.59
671.75	1092.45
672.09	1089.80
672.43	1089.99
672.77	1091.13
673.11	1091.51
673.45	1092.42
673.79	1090.97
674.13	1091.06
674.47	1089.78
674.81	1093.24
675.15	1093.03
675.49	1094.67
675.83	1094.93
676.17	1096.14
676.51	1095.51
676.85	1095.30
677.19	1098.06
677.53	1097.59
677.87	1093.76
678.21	1089.33
678.55	1092.12
678.89	1088.07
679.23	1090.85
679.57	1093.94
679.90	1094.48
680.24	1090.53
680.58	1092.28
680.92	1089.54
681.26	1088.09
681.60	1090.13
681.94	1090.17
682.28	1087.65
682.62	1089.78
682.96	1090.06
683.29	1089.12
683.63	1089.31
683.97	1093.36
684.31	1092.56
684.65	1092.94
684.99	1091.32
685.33	1092.30
685.67	1089.61
686.00	1090.57
686.34	1090.71
686.68	1089.85
687.02	1090.29
687.36	1093.62
687.70	1088.96
688.03	1086.73
688.37	1088.04
688.71	1086.17
689.05	1084.84
689.39	1086.90
689.72	1090.43
690.06	1091.27
690.40	1095.96
690.74	1093.73
691.08	1094.08
691.41	1090.97
691.75	1091.86
692.09	1087.27
692.43	1090.36
692.76	1091.58
693.10	1093.22
693.44	1094.79
693.78	1096.28
694.11	1092.37
694.45	1089.71
694.79	1089.14
695.13	1089.26
695.46	1087.25
695.80	1087.51
696.14	1088.00
696.48	1090.22
696.81	1086.01
697.15	1086.55
697.49	1086.85
697.82	1088.72
698.16	1085.68
698.50	1087.97
698.83	1086.27
699.17	1086.38
699.51	1087.02
699.84	1087.81
700.18	1088.16
700.52	1092.26
700.85	1094.93
701.19	1091.88
701.53	1092.75
701.86	1088.02
702.20	1087.74
702.54	1085.28
702.87	1087.79
703.21	1084.56
703.55	1087.53
703.88	1084.67
704.22	1087.51
704.55	1084.44
704.89	1086.94
705.23	1087.37
705.56	1088.72
705.90	1085.12
706.23	1086.64
706.57	1086.64
706.91	1086.90
707.24	1088.72
707.58	1091.81
707.91	1092.14
708.25	1091.23
708.58	1092.28
708.92	1087.46
709.26	1083.64
709.59	1082.31
709.93	1080.06
710.26	1077.61
710.60	1078.47
710.93	1079.78
711.27	1082.69
711.60	1088.54
711.94	1086.48
712.27	1090.22
712.61	1091.42
712.94	1090.88
713.28	1087.62
713.61	1092.28
713.95	1090.41
714.28	1087.62
714.62	1086.31
714.95	1088.14
715.29	1086.08
715.62	1087.60
715.96	1087.30
716.29	1086.71
716.63	1084.77
716.96	1085.49
717.29	1086.90
717.63	1090.22
717.96	1092.47
718.30	1093.99
718.63	1098.34
718.97	1096.92
719.30	1094.86
719.63	1094.60
719.97	1095.86
720.30	1091.63
720.64	1091.65
720.97	1090.41
721.30	1091.09
721.64	1088.68
721.97	1089.03
722.31	1086.27
722.64	1089.59
722.97	1087.55
723.31	1089.00
723.64	1089.57
723.97	1091.74
724.31	1089.45
724.64	1087.41
724.98	1085.77
725.31	1084.93
725.64	1082.69
725.98	1084.30
726.31	1083.46
726.64	1085.31
726.97	1083.48
727.31	1084.91
727.64	1085.70
727.97	1089.82
728.31	1090.88
728.64	1091.72
728.97	1092.42
729.31	1091.04
729.64	1089.45
729.97	1087.11
730.30	1088.42
730.64	1089.19
730.97	1090.29
731.30	1091.02
731.63	1088.47
731.97	1086.10
732.30	1082.10
732.63	1081.66
732.96	1081.40
733.30	1085.07
733.63	1087.25
733.96	1088.19
734.29	1087.58
734.63	1088.93
734.96	1087.86
735.29	1087.09
735.62	1086.94
735.95	1087.23
736.29	1086.83
736.62	1085.84
736.95	1088.61
737.28	1089.22
737.61	1087.23
737.94	1086.08
738.28	1085.66
738.61	1082.99
738.94	1083.83
739.27	1086.48
739.60	1085.45
739.93	1089.05
740.27	1089.89
740.60	1091.16
740.93	1090.83
741.26	1093.10
741.59	1090.85
741.92	1092.59
742.25	1093.45
742.58	1096.70
742.91	1096.19
743.25	1094.86
743.58	1092.66
743.91	1090.48
744.24	1085.17
744.57	1085.89
744.90	1087.79
745.23	1088.33
745.56	1086.99
745.89	1088.23
746.22	1085.75
746.55	1084.14
746.88	1082.31
747.21	1082.29
747.54	1084.30
747.87	1081.56
748.20	1080.18
748.53	1081.23
748.87	1082.78
749.20	1079.38
749.53	1081.61
749.86	1084.35
750.19	1084.67
750.52	1084.11
750.85	1085.84
751.18	1085.89
751.51	1086.66
751.84	1087.34
752.16	1087.16
752.49	1084.79
752.82	1086.43
753.15	1087.79
753.48	1086.13
753.81	1086.94
754.14	1088.02
754.47	1090.76
754.80	1086.66
755.13	1088.12
755.46	1086.59
755.79	1091.37
756.12	1092.21
756.45	1095.07
756.78	1095.25
757.11	1095.98
757.43	1091.95
757.76	1086.69
758.09	1086.90
758.42	1085.68
758.75	1088.98
759.08	1089.19
759.41	1089.54
759.74	1088.23
760.07	1089.26
760.39	1089.64
760.72	1091.79
761.05	1092.35
761.38	1093.03
761.71	1092.54
762.04	1089.47
762.36	1088.07
762.69	1089.87
763.02	1087.93
763.35	1089.29
763.68	1090.83
764.01	1093.10
764.33	1093.80
764.66	1095.98
764.99	1093.85
765.32	1092.33
765.65	1087.25
765.97	1085.24
766.30	1083.55
766.63	1083.97
766.96	1086.20
767.28	1088.91
767.61	1090.43
767.94	1092.35
768.27	1092.70
768.59	1091.25
768.92	1094.13
769.25	1093.43
769.58	1092.28
769.90	1090.95
770.23	1091.93
770.56	1088.82
770.89	1088.77
771.21	1086.80
771.54	1089.45
771.87	1088.37
772.19	1087.86
772.52	1086.92
772.85	1090.81
773.17	1088.26
773.50	1084.28
773.83	1083.95
774.15	1086.55
774.48	1085.17
774.81	1088.04
775.13	1089.05
775.46	1090.22
775.79	1091.09
776.11	1088.33
776.44	1084.63
776.77	1087.74
777.09	1089.78
777.42	1086.22
777.74	1087.32
778.07	1089.85
778.40	1087.09
778.72	1081.35
779.05	1080.79
779.37	1082.66
779.70	1081.19
780.03	1083.86
780.35	1083.15
780.68	1081.77
781.00	1079.83
781.33	1079.55
781.65	1081.21
781.98	1085.49
782.31	1086.13
782.63	1086.15
782.96	1086.66
783.28	1086.01
783.61	1089.47
783.93	1087.95
784.26	1087.86
784.58	1085.73
784.91	1083.93
785.23	1080.60
785.56	1086.38
785.88	1086.45
786.21	1090.50
786.53	1091.37
786.86	1092.96
787.18	1092.12
787.51	1093.62
787.83	1089.26
788.16	1089.92
788.48	1088.42
788.81	1085.80
789.13	1086.08
789.46	1089.19
789.78	1086.94
790.10	1088.84
790.43	1089.75
790.75	1087.37
791.08	1086.50
791.40	1087.20
791.73	1090.17
792.05	1091.20
792.37	1092.28
792.70	1091.79
793.02	1090.53
793.35	1086.20
793.67	1084.67
793.99	1082.52
794.32	1086.90
794.64	1086.99
794.96	1084.86
795.29	1086.78
795.61	1090.17
795.93	1087.53
796.26	1089.31
796.58	1090.46
796.91	1088.09
797.23	1086.85
797.55	1086.85
797.87	1085.84
798.20	1084.58
798.52	1084.70
798.84	1084.09
799.17	1084.60
799.49	1085.12
799.81	1085.66
800.14	1084.93
800.46	1083.90
800.78	1082.92
801.10	1081.98
801.43	1083.22
801.75	1085.21
802.07	1088.04
802.40	1087.97
802.72	1086.43
803.04	1084.42
803.36	1083.53
803.69	1081.91
804.01	1081.28
804.33	1084.28
804.65	1086.57
804.97	1085.63
805.30	1085.00
805.62	1084.84
805.94	1082.12
806.26	1082.85
806.58	1083.01
806.91	1084.00
807.23	1084.39
807.55	1086.76
807.87	1084.14
808.19	1083.60
808.52	1085.14
808.84	1087.76
809.16	1085.38
809.48	1085.77
809.80	1086.83
810.12	1087.69
810.44	1086.43
810.77	1088.89
811.09	1090.15
811.41	1090.83
811.73	1089.03
812.05	1087.58
812.37	1087.79
812.69	1084.18
813.01	1080.60
813.33	1079.69
813.66	1082.64
813.98	1082.24
814.30	1084.98
814.62	1089.07
814.94	1090.97
815.26	1089.68
815.58	1089.68
815.90	1090.10
816.22	1088.79
816.54	1087.60
816.86	1084.04
817.18	1083.88
817.50	1082.40
817.82	1083.69
818.14	1080.60
818.46	1083.29
818.78	1082.03
819.10	1082.33
819.42	1081.30
819.74	1083.18
820.06	1080.77
820.38	1081.16
820.70	1084.79
821.02	1084.42
821.34	1084.60
821.66	1085.84
821.98	1086.22
822.30	1082.33
822.62	1080.81
822.94	1086.08
823.26	1089.47
823.58	1089.80
823.90	1092.80
824.22	1094.90
824.54	1092.37
824.86	1089.12
825.18	1088.04
825.50	1084.23
825.81	1086.36
826.13	1086.76
826.45	1085.56
826.77	1087.16
827.09	1088.12
827.41	1086.55
827.73	1085.54
828.05	1087.55
828.36	1087.51
828.68	1086.55
829.00	1086.69
829.32	1084.84
829.64	1085.07
829.96	1087.11
830.28	1088.56
830.59	1088.19
830.91	1087.69
831.23	1087.53
831.55	1082.87
831.87	1082.83
832.19	1082.17
832.50	1084.70
832.82	1085.00
833.14	1086.31
833.46	1088.02
833.78	1087.97
834.09	1087.34
834.41	1088.23
834.73	1088.61
835.05	1088.21
835.36	1087.53
835.68	1085.54
836.00	1083.13
836.32	1083.08
836.63	1081.98
836.95	1084.23
837.27	1085.87
837.59	1086.45
837.90	1085.00
838.22	1085.38
838.54	1085.54
838.85	1085.17
839.17	1086.73
839.49	1087.93
839.80	1087.53
840.12	1085.24
840.44	1085.31
840.76	1083.06
841.07	1084.30
841.39	1079.97
841.71	1081.35
842.02	1081.61
842.34	1083.13
842.65	1080.91
842.97	1084.18
843.29	1085.17
843.60	1085.61
843.92	1084.44
844.24	1087.72
844.55	1090.06
844.87	1087.02
845.18	1087.30
845.50	1090.41
845.82	1088.04
846.13	1087.39
846.45	1086.08
846.76	1084.25
847.08	1081.47
847.40	1084.93
847.71	1084.65
848.03	1089.45
848.34	1090.06
848.66	1092.54
848.97	1090.29
849.29	1090.17
849.60	1089.57
849.92	1090.13
850.24	1087.72
850.55	1084.70
850.87	1084.07
851.18	1079.78
851.50	1078.85
851.81	1080.18
852.13	1082.85
852.44	1082.97
852.76	1088.65
853.07	1089.82
853.39	1087.74
853.70	1086.66
854.01	1086.34
854.33	1086.31
854.64	1084.77
854.96	1083.81
855.27	1084.21
855.59	1085.75
855.90	1084.14
856.22	1084.02
856.53	1086.24
856.84	1088.37
857.16	1086.66
857.47	1082.10
857.79	1081.98
858.10	1079.41
858.41	1079.20
858.73	1080.13
859.04	1080.84
859.36	1080.16
859.67	1081.47
859.98	1078.73
860.30	1076.97
860.61	1080.06
860.92	1079.99
861.24	1080.79
861.55	1081.26
861.87	1082.73
862.18	1082.12
862.49	1084.25
862.81	1083.67
863.12	1084.49
863.43	1083.32
863.74	1084.09
864.06	1084.32
864.37	1085.42
864.68	1086.36
865.00	1086.27
865.31	1083.60
865.62	1081.94
865.94	1079.74
866.25	1079.06
866.56	1079.36
866.87	1081.80
867.19	1085.00
867.50	1084.60
867.81	1081.58
868.12	1082.47
868.44	1083.69
868.75	1081.77
869.06	1083.53
869.37	1086.78
869.68	1086.94
870.00	1085.77
870.31	1083.48
870.62	1082.52
870.93	1077.93
871.24	1079.88
871.56	1083.01
871.87	1085.28
872.18	1082.50
872.49	1084.58
872.80	1086.01
873.12	1081.26
873.43	1082.99
873.74	1083.53
874.05	1084.77
874.36	1083.11
874.67	1082.90
874.98	1083.32
875.29	1087.39
875.61	1088.79
875.92	1087.20
876.23	1088.35
876.54	1084.35
876.85	1084.91
877.16	1082.31
877.47	1081.80
877.78	1082.66
878.09	1084.70
878.40	1082.61
878.72	1082.59
879.03	1081.28
879.34	1081.47
879.65	1082.52
879.96	1085.89
880.27	1086.43
880.58	1086.83
880.89	1086.06
881.20	1086.29
881.51	1085.31
881.82	1087.90
882.13	1089.54
882.44	1089.03
882.75	1087.51
883.06	1086.85
883.37	1084.30
883.68	1083.76
883.99	1082.47
884.30	1080.39
884.61	1081.75
884.92	1085.14
885.23	1088.16
885.54	1094.39
885.85	1096.61
886.16	1093.52
886.47	1091.06
886.78	1088.30
887.08	1083.53
887.39	1084.96
887.70	1086.80
888.01	1083.74
888.32	1083.90
888.63	1082.52
888.94	1080.93
889.25	1081.21
889.56	1085.31
889.87	1085.19
890.17	1086.62
890.48	1086.71
890.79	1084.58
891.10	1083.76
891.41	1080.81
891.72	1081.40
892.03	1080.18
892.34	1080.81
892.64	1078.92
892.95	1083.20
893.26	1080.13
893.57	1079.50
893.88	1080.11
894.18	1080.44
894.49	1080.27
894.80	1082.36
895.11	1083.88
895.42	1084.18
895.72	1083.62
896.03	1082.57
896.34	1083.90
896.65	1082.71
896.96	1079.99
897.26	1081.02
897.57	1083.01
897.88	1083.25
898.19	1081.40
898.49	1081.58
898.80	1081.21
899.11	1078.31
899.41	1077.11
899.72	1081.44
900.03	1081.51
900.34	1083.60
900.64	1084.67
900.95	1082.57
901.26	1079.03
901.56	1078.68
901.87	1077.51
902.18	1074.19
902.48	1077.37
902.79	1078.45
903.10	1080.06
903.40	1081.87
903.71	1084.30
904.02	1081.56
904.32	1083.93
904.63	1086.50
904.94	1087.39
905.24	1086.45
905.55	1088.77
905.85	1087.30
906.16	1082.57
906.47	1080.72
906.77	1082.83
907.08	1082.99
907.38	1084.58
907.69	1088.93
908.00	1091.44
908.30	1089.68
908.61	1088.26
908.91	1087.74
909.22	1088.21
909.52	1087.86
909.83	1086.17
910.14	1087.02
910.44	1087.41
910.75	1083.97
911.05	1082.94
911.36	1084.84
911.66	1081.58
911.97	1080.93
912.27	1078.96
912.58	1076.58
912.88	1075.52
913.19	1077.51
913.49	1079.22
913.80	1086.29
914.10	1085.91
914.41	1087.86
914.71	1085.35
915.01	1081.09
915.32	1077.44
915.62	1077.35
915.93	1076.67
916.23	1081.89
916.54	1081.94
916.84	1081.09
917.15	1081.33
917.45	1082.54
917.75	1079.55
918.06	1080.60
918.36	1080.04
918.67	1082.26
918.97	1082.61
919.27	1084.42
919.58	1084.23
919.88	1084.81
920.18	1082.33
920.49	1082.78
920.79	1081.98
921.10	1084.53
921.40	1083.46
921.70	1085.82
922.01	1083.93
922.31	1085.12
922.61	1082.26
922.92	1086.24
923.22	1085.70
923.52	1085.03
923.82	1083.41
924.13	1084.09
924.43	1078.82
924.73	1075.31
925.04	1073.77
925.34	1072.25
925.64	1073.81
925.94	1075.62
926.25	1080.88
926.55	1082.94
926.85	1082.90
927.15	1083.41
927.46	1086.31
927.76	1081.37
928.06	1080.51
928.36	1082.76
928.67	1081.68
928.97	1079.34
929.27	1080.32
929.57	1080.48
929.87	1079.69
930.18	1079.24
930.48	1079.55
930.78	1081.56
931.08	1080.09
931.38	1082.73
931.69	1085.73
931.99	1087.37
932.29	1089.05
932.59	1090.85
932.89	1087.51
933.19	1084.63
933.49	1084.98
933.80	1083.32
934.10	1085.68
934.40	1085.10
934.70	1085.75
935.00	1086.22
935.30	1085.12
935.60	1079.38
935.90	1080.13
936.20	1079.08
936.50	1076.83
936.81	1076.53
937.11	1079.38
937.41	1079.92
937.71	1079.36
938.01	1077.82
938.31	1076.08
938.61	1075.94
938.91	1076.11
939.21	1077.70
939.51	1080.25
939.81	1082.80
940.11	1084.65
940.41	1083.36
940.71	1081.87
941.01	1083.57
941.31	1083.06
941.61	1083.29
941.91	1086.45
942.21	1086.48
942.51	1084.58
942.81	1085.38
943.11	1085.38
943.41	1083.25
943.71	1085.00
944.01	1085.80
944.31	1086.94
944.61	1083.32
944.90	1082.90
945.20	1082.64
945.50	1080.91
945.80	1081.56
946.10	1083.86
946.40	1087.44
946.70	1088.14
947.00	1086.99
947.30	1085.42
947.60	1083.97
947.89	1081.66
948.19	1081.05
948.49	1080.60
948.79	1081.87
949.09	1084.00
949.39	1084.28
949.69	1083.48
949.98	1084.81
950.28	1083.55
950.58	1085.33
950.88	1082.97
951.18	1084.16
951.48	1085.47
951.77	1086.50
952.07	1082.59
952.37	1085.56
952.67	1085.40
952.97	1085.54
953.26	1083.04
953.56	1086.85
953.86	1085.28
954.16	1084.30
954.45	1082.01
954.75	1084.79
955.05	1081.33
955.35	1080.60
955.64	1082.43
955.94	1082.47
956.24	1081.21
956.54	1083.34
956.83	1085.12
957.13	1083.90
957.43	1086.10
957.72	1087.97
958.02	1089.85
958.32	1090.24
958.61	1092.40
958.91	1089.07
959.21	1085.21
959.50	1083.69
959.80	1085.80
960.10	1083.04
960.39	1085.73
960.69	1085.31
960.99	1086.64
961.28	1082.92
961.58	1081.58
961.87	1080.65
962.17	1083.79
962.47	1080.91
962.76	1080.51
963.06	1081.61
963.36	1079.78
963.65	1075.08
963.95	1076.41
964.24	1079.90
964.54	1081.68
964.83	1083.46
965.13	1087.72
965.42	1086.34
965.72	1087.23
966.02	1088.26
966.31	1087.74
966.61	1087.23
966.90	1088.00
967.20	1084.89
967.49	1079.74
967.79	1079.62
968.08	1078.45
968.38	1073.91
968.67	1072.20
968.97	1074.84
969.26	1075.83
969.56	1074.84
969.85	1079.76
970.15	1081.54
970.44	1079.41
970.74	1077.28
971.03	1076.81
971.32	1074.26
971.62	1072.41
971.91	1073.49
972.21	1073.56
972.50	1076.37
972.80	1078.33
973.09	1082.26
973.38	1080.93
973.68	1084.16
973.97	1083.48
974.27	1083.79
974.56	1082.15
974.85	1082.22
975.15	1080.98
975.44	1080.16
975.73	1082.59
976.03	1079.24
976.32	1080.53
976.61	1081.07
976.91	1080.72
977.20	1076.83
977.49	1079.88
977.79	1080.25
978.08	1078.68
978.37	1082.24
978.67	1083.48
978.96	1082.80
979.25	1079.57
979.55	1079.88
979.84	1079.71
980.13	1080.53
980.42	1082.64
980.72	1085.70
981.01	1086.94
981.30	1085.80
981.59	1083.20
981.89	1082.97
982.18	1083.76
982.47	1085.63
982.76	1084.89
983.06	1086.55
983.35	1084.32
983.64	1082.90
983.93	1082.54
984.22	1081.21
984.52	1081.77
984.81	1083.90
985.10	1085.00
985.39	1082.76
985.68	1082.26
985.97	1082.26
986.27	1080.41
986.56	1081.30
986.85	1081.28
987.14	1082.36
987.43	1080.74
987.72	1084.11
988.01	1080.95
988.31	1080.81
988.60	1081.84
988.89	1085.99
989.18	1085.49
989.47	1089.54
989.76	1088.28
990.05	1085.17
990.34	1083.04
990.63	1080.32
990.92	1077.63
991.21	1082.15
991.51	1086.87
991.80	1089.00
992.09	1088.86
992.38	1085.91
992.67	1084.21
992.96	1083.90
993.25	1083.11
993.54	1083.55
993.83	1083.81
994.12	1081.89
994.41	1079.88
994.70	1076.62
994.99	1075.85
995.28	1078.66
995.57	1079.41
995.86	1081.12
996.15	1082.08
996.44	1082.52
996.73	1081.02
997.02	1081.94
997.31	1078.21
997.59	1076.93
997.88	1079.20
998.17	1079.76
998.46	1078.94
998.75	1082.38
999.04	1084.67
999.33	1081.82
999.62	1082.73
999.91	1082.97
1000.20	1083.04
1000.49	1079.85
1000.77	1082.31
1001.06	1083.04
1001.35	1083.88
1001.64	1081.51
1001.93	1085.21
1002.22	1085.59
1002.51	1086.45
1002.79	1085.24
1003.08	1087.79
1003.37	1083.32
1003.66	1082.08
1003.95	1080.46
1004.23	1081.12
1004.52	1079.24
1004.81	1083.20
1005.10	1081.82
1005.39	1080.06
1005.67	1082.71
1005.96	1084.28
1006.25	1085.84
1006.54	1086.69
1006.83	1091.98
1007.11	1087.81
1007.40	1084.67
1007.69	1080.77
1007.97	1080.56
1008.26	1077.21
1008.55	1078.59
1008.84	1082.99
1009.12	1084.63
1009.41	1085.63
1009.70	1085.33
1009.98	1086.10
1010.27	1085.49
1010.56	1080.84
1010.85	1079.99
1011.13	1082.08
1011.42	1083.13
1011.71	1082.71
1011.99	1090.53
1012.28	1090.76
1012.56	1087.37
1012.85	1088.61
1013.14	1087.41
1013.42	1080.93
1013.71	1078.45
1014.00	1080.84
1014.28	1078.21
1014.57	1078.61
1014.85	1083.79
1015.14	1082.78
1015.43	1083.36
1015.71	1083.20
1016.00	1084.60
1016.28	1080.48
1016.57	1085.91
1016.85	1086.55
1017.14	1088.26
1017.43	1089.47
1017.71	1092.73
1018.00	1090.85
1018.28	1087.48
1018.57	1086.29
1018.85	1083.06
1019.14	1082.17
1019.42	1080.93
1019.71	1083.13
1019.99	1085.42
1020.28	1083.57
1020.56	1082.10
1020.85	1081.05
1021.13	1080.39
1021.42	1075.90
1021.70	1078.47
1021.99	1079.88
1022.27	1083.34
1022.55	1082.50
1022.84	1090.22
>>>>>End Processed Spectral Data<<<<<
