SpectraSuite Data File
++++++++++++++++++++++++++++++++++++
Date: Mon Aug 26 10:26:02 PDT 2019
User: corrico
Dark Spectrum Present: No
Reference Spectrum Present: No
Number of Sampled Component Spectra: 1
Spectrometers: USB2+H06089
Integration Time (usec): 10000 (USB2+H06089)
Spectra Averaged: 2 (USB2+H06089)
Boxcar Smoothing: 2 (USB2+H06089)
Correct for Electrical Dark: No (USB2+H06089)
Strobe/Lamp Enabled: No (USB2+H06089)
Correct for Detector Non-linearity: No (USB2+H06089)
Correct for Stray Light: No (USB2+H06089)
Number of Pixels in Processed Spectrum: 2048
>>>>>Begin Processed Spectral Data<<<<<
339.70	1026.32
340.07	1026.32
340.45	997.54
340.82	974.13
341.19	949.32
341.57	925.92
341.94	924.28
342.31	905.79
342.69	904.62
343.06	894.55
343.43	890.57
343.81	880.28
344.18	884.72
344.55	892.91
344.93	902.04
345.30	906.02
345.67	913.51
346.04	918.43
346.42	917.02
346.79	938.55
347.16	948.85
347.54	956.11
347.91	972.49
348.28	990.75
348.65	997.54
349.03	1008.07
349.40	1013.69
349.77	1024.69
350.14	1023.52
350.52	1029.84
350.89	1042.71
351.26	1056.28
351.63	1059.79
352.01	1074.54
352.38	1076.88
352.75	1070.80
353.12	1065.41
353.50	1064.71
353.87	1054.41
354.24	1049.26
354.61	1052.77
354.98	1059.09
355.36	1057.92
355.73	1066.82
356.10	1069.39
356.47	1071.50
356.84	1070.09
357.22	1078.75
357.59	1080.39
357.96	1085.31
358.33	1084.84
358.70	1091.63
359.08	1081.33
359.45	1078.28
359.82	1081.56
360.19	1083.90
360.56	1082.03
360.94	1081.80
361.31	1078.99
361.68	1073.84
362.05	1067.99
362.42	1058.62
362.79	1054.65
363.16	1056.05
363.54	1046.69
363.91	1056.52
364.28	1064.01
364.65	1068.22
365.02	1075.48
365.39	1085.31
365.76	1078.75
366.14	1074.07
366.51	1076.65
366.88	1067.75
367.25	1068.45
367.62	1071.97
367.99	1078.05
368.36	1074.54
368.73	1071.73
369.10	1063.77
369.48	1066.11
369.85	1065.18
370.22	1068.92
370.59	1068.69
370.96	1078.99
371.33	1073.14
371.70	1069.62
372.07	1064.71
372.44	1065.41
372.81	1063.07
373.18	1062.84
373.55	1067.52
373.93	1076.65
374.30	1082.73
374.67	1080.16
375.04	1082.03
375.41	1089.99
375.78	1084.84
376.15	1076.65
376.52	1066.11
376.89	1065.41
377.26	1060.50
377.63	1056.05
378.00	1058.39
378.37	1061.67
378.74	1062.84
379.11	1063.07
379.48	1071.26
379.85	1083.90
380.22	1097.01
380.59	1088.58
380.96	1093.03
381.33	1086.71
381.70	1071.73
382.07	1066.11
382.44	1084.14
382.81	1074.07
383.18	1080.86
383.55	1084.14
383.92	1078.28
384.29	1061.90
384.66	1065.41
385.03	1064.01
385.40	1063.54
385.77	1066.58
386.14	1070.80
386.51	1066.11
386.88	1066.82
387.25	1073.60
387.62	1077.35
387.99	1075.48
388.36	1076.18
388.73	1071.26
389.10	1065.41
389.46	1061.43
389.83	1066.82
390.20	1062.60
390.57	1064.48
390.94	1074.77
391.31	1085.77
391.68	1079.69
392.05	1092.56
392.42	1092.80
392.79	1090.22
393.16	1082.97
393.53	1084.14
393.89	1076.41
394.26	1077.11
394.63	1058.16
395.00	1053.94
395.37	1056.75
395.74	1058.62
396.11	1054.18
396.48	1068.45
396.84	1073.37
397.21	1072.20
397.58	1069.16
397.95	1072.20
398.32	1073.37
398.69	1070.33
399.06	1076.41
399.42	1081.56
399.79	1082.97
400.16	1079.22
400.53	1077.58
400.90	1070.33
401.27	1067.99
401.64	1063.07
402.00	1057.45
402.37	1069.16
402.74	1066.82
403.11	1060.73
403.48	1075.71
403.84	1081.33
404.21	1064.24
404.58	1059.09
404.95	1065.41
405.32	1050.67
405.68	1051.13
406.05	1057.92
406.42	1074.54
406.79	1070.09
407.16	1078.28
407.52	1084.84
407.89	1082.50
408.26	1076.88
408.63	1084.84
408.99	1084.60
409.36	1074.31
409.73	1084.14
410.10	1083.90
410.47	1084.60
410.83	1079.22
411.20	1089.05
411.57	1095.37
411.94	1090.46
412.30	1088.82
412.67	1091.16
413.04	1081.80
413.40	1059.79
413.77	1057.45
414.14	1048.56
414.51	1042.94
414.87	1045.28
415.24	1055.82
415.61	1058.86
415.97	1061.90
416.34	1061.90
416.71	1070.09
417.08	1060.96
417.44	1072.43
417.81	1079.46
418.18	1084.60
418.54	1078.05
418.91	1084.84
419.28	1084.60
419.64	1084.60
420.01	1093.73
420.38	1093.26
420.74	1088.12
421.11	1074.54
421.48	1077.11
421.84	1066.11
422.21	1069.86
422.58	1076.88
422.94	1074.54
423.31	1068.22
423.68	1075.24
424.04	1068.22
424.41	1070.80
424.77	1079.46
425.14	1075.01
425.51	1076.88
425.87	1077.11
426.24	1078.52
426.61	1079.69
426.97	1083.43
427.34	1071.26
427.70	1068.22
428.07	1064.24
428.44	1062.37
428.80	1065.88
429.17	1071.97
429.53	1086.24
429.90	1083.20
430.27	1080.86
430.63	1079.69
431.00	1083.90
431.36	1077.82
431.73	1084.84
432.09	1090.69
432.46	1088.12
432.83	1083.43
433.19	1085.07
433.56	1083.67
433.92	1070.33
434.29	1072.43
434.65	1073.14
435.02	1071.26
435.38	1064.71
435.75	1078.52
436.11	1078.28
436.48	1093.26
436.84	1096.78
437.21	1100.99
437.57	1101.46
437.94	1103.33
438.30	1083.43
438.67	1080.86
439.03	1077.82
439.40	1071.03
439.76	1064.24
440.13	1073.37
440.49	1059.56
440.86	1064.48
441.22	1063.77
441.59	1067.05
441.95	1067.52
442.32	1086.48
442.68	1085.54
443.05	1096.78
443.41	1098.65
443.78	1090.92
444.14	1085.31
444.51	1086.24
444.87	1070.80
445.24	1069.39
445.60	1077.11
445.96	1076.65
446.33	1070.80
446.69	1081.56
447.06	1083.67
447.42	1084.37
447.79	1084.84
448.15	1085.77
448.51	1089.29
448.88	1096.78
449.24	1083.20
449.61	1083.67
449.97	1086.24
450.33	1088.82
450.70	1080.63
451.06	1085.77
451.43	1084.37
451.79	1086.01
452.15	1081.56
452.52	1085.31
452.88	1087.88
453.24	1089.75
453.61	1082.73
453.97	1083.67
454.34	1074.07
454.70	1073.37
455.06	1059.79
455.43	1066.11
455.79	1062.60
456.15	1071.26
456.52	1062.37
456.88	1076.88
457.24	1074.31
457.61	1080.63
457.97	1072.43
458.33	1080.16
458.70	1078.52
459.06	1090.22
459.42	1082.97
459.79	1072.43
460.15	1072.20
460.51	1070.33
460.88	1057.69
461.24	1049.73
461.60	1073.84
461.96	1077.58
462.33	1075.71
462.69	1070.33
463.05	1080.86
463.42	1069.39
463.78	1071.73
464.14	1074.77
464.50	1084.84
464.87	1089.99
465.23	1092.80
465.59	1097.71
465.95	1104.50
466.32	1108.48
466.68	1096.78
467.04	1099.35
467.40	1091.16
467.77	1083.90
468.13	1077.82
468.49	1078.28
468.85	1074.77
469.22	1076.41
469.58	1078.99
469.94	1075.71
470.30	1074.77
470.66	1078.99
471.03	1084.14
471.39	1081.09
471.75	1083.43
472.11	1079.22
472.47	1065.41
472.84	1064.24
473.20	1068.69
473.56	1065.88
473.92	1086.24
474.28	1094.90
474.65	1084.84
475.01	1080.86
475.37	1089.05
475.73	1073.60
476.09	1077.11
476.45	1077.58
476.81	1085.07
477.18	1083.90
477.54	1086.24
477.90	1085.77
478.26	1092.09
478.62	1083.67
478.98	1076.41
479.34	1073.37
479.71	1072.20
480.07	1071.03
480.43	1075.48
480.79	1076.88
481.15	1079.92
481.51	1080.39
481.87	1085.07
482.23	1078.28
482.59	1090.69
482.96	1085.54
483.32	1082.50
483.68	1079.46
484.04	1086.94
484.40	1081.33
484.76	1088.12
485.12	1087.41
485.48	1088.35
485.84	1080.63
486.20	1076.18
486.56	1073.84
486.92	1085.54
487.28	1080.39
487.64	1081.56
488.00	1073.14
488.37	1076.65
488.73	1063.31
489.09	1059.79
489.45	1054.88
489.81	1065.41
490.17	1053.71
490.53	1059.33
490.89	1063.31
491.25	1072.90
491.61	1068.69
491.97	1077.11
492.33	1074.54
492.69	1077.58
493.05	1066.82
493.41	1065.65
493.77	1067.28
494.13	1070.33
494.49	1080.16
494.85	1095.14
495.21	1098.41
495.57	1097.48
495.93	1106.37
496.29	1095.84
496.64	1093.26
497.00	1101.92
497.36	1106.14
497.72	1094.67
498.08	1089.05
498.44	1086.48
498.80	1073.37
499.16	1076.18
499.52	1082.50
499.88	1088.58
500.24	1083.67
500.60	1080.39
500.96	1064.71
501.32	1063.77
501.68	1063.07
502.03	1072.90
502.39	1083.20
502.75	1092.80
503.11	1093.03
503.47	1092.56
503.83	1087.41
504.19	1093.97
504.55	1090.46
504.91	1082.26
505.26	1076.18
505.62	1070.56
505.98	1056.52
506.34	1062.60
506.70	1061.67
507.06	1068.22
507.42	1067.05
507.78	1070.33
508.13	1076.65
508.49	1079.69
508.85	1077.82
509.21	1090.22
509.57	1090.69
509.93	1077.82
510.28	1068.45
510.64	1071.03
511.00	1064.71
511.36	1072.90
511.72	1078.28
512.07	1084.37
512.43	1080.63
512.79	1081.56
513.15	1074.77
513.51	1064.71
513.86	1072.20
514.22	1081.80
514.58	1084.37
514.94	1088.35
515.30	1094.20
515.65	1093.97
516.01	1089.52
516.37	1091.63
516.73	1089.52
517.08	1095.37
517.44	1096.54
517.80	1084.14
518.16	1089.05
518.51	1085.07
518.87	1078.05
519.23	1075.94
519.59	1086.01
519.94	1088.35
520.30	1091.86
520.66	1099.82
521.01	1108.01
521.37	1108.01
521.73	1100.29
522.09	1104.97
522.44	1096.78
522.80	1086.94
523.16	1083.90
523.51	1079.69
523.87	1070.56
524.23	1079.69
524.58	1080.16
524.94	1081.09
525.30	1083.20
525.65	1094.43
526.01	1084.37
526.37	1082.97
526.72	1085.54
527.08	1076.41
527.44	1077.35
527.79	1084.84
528.15	1086.24
528.51	1083.20
528.86	1086.48
529.22	1073.84
529.58	1080.86
529.93	1086.71
530.29	1090.69
530.65	1100.05
531.00	1096.78
531.36	1088.35
531.71	1089.99
532.07	1086.94
532.43	1084.60
532.78	1090.46
533.14	1098.88
533.49	1097.01
533.85	1102.63
534.21	1097.01
534.56	1094.67
534.92	1086.24
535.27	1084.84
535.63	1084.84
535.98	1084.14
536.34	1089.75
536.69	1084.60
537.05	1078.28
537.41	1075.71
537.76	1084.60
538.12	1082.50
538.47	1087.88
538.83	1086.48
539.18	1088.82
539.54	1080.63
539.89	1078.75
540.25	1079.69
540.60	1086.01
540.96	1080.39
541.31	1090.46
541.67	1095.37
542.02	1096.54
542.38	1089.99
542.73	1088.35
543.09	1085.54
543.44	1092.09
543.80	1087.18
544.15	1092.56
544.51	1103.33
544.86	1099.12
545.22	1090.69
545.57	1087.65
545.93	1090.22
546.28	1080.63
546.64	1084.84
546.99	1084.37
547.35	1087.41
547.70	1075.01
548.05	1071.97
548.41	1065.18
548.76	1064.71
549.12	1064.24
549.47	1077.58
549.83	1079.92
550.18	1085.77
550.53	1091.16
550.89	1087.88
551.24	1087.65
551.60	1093.97
551.95	1088.58
552.30	1080.86
552.66	1084.60
553.01	1080.16
553.37	1077.82
553.72	1081.33
554.07	1085.54
554.43	1090.46
554.78	1078.75
555.13	1078.99
555.49	1075.48
555.84	1076.41
556.19	1069.16
556.55	1082.97
556.90	1089.29
557.26	1083.90
557.61	1082.50
557.96	1080.63
558.32	1076.18
558.67	1078.28
559.02	1087.18
559.37	1086.48
559.73	1084.84
560.08	1080.39
560.43	1068.69
560.79	1056.52
561.14	1058.86
561.49	1069.86
561.85	1078.75
562.20	1078.75
562.55	1094.20
562.90	1095.14
563.26	1101.22
563.61	1092.80
563.96	1102.86
564.32	1091.39
564.67	1089.29
565.02	1080.86
565.37	1090.92
565.73	1084.60
566.08	1089.75
566.43	1078.52
566.78	1072.67
567.14	1075.48
567.49	1066.58
567.84	1072.43
568.19	1078.28
568.54	1076.18
568.90	1069.39
569.25	1081.80
569.60	1072.67
569.95	1075.94
570.31	1085.77
570.66	1084.37
571.01	1072.90
571.36	1078.28
571.71	1086.48
572.06	1075.94
572.42	1075.94
572.77	1089.29
573.12	1083.90
573.47	1079.92
573.82	1093.97
574.18	1095.84
574.53	1090.69
574.88	1096.78
575.23	1093.50
575.58	1085.77
575.93	1081.33
576.28	1085.77
576.64	1076.65
576.99	1083.20
577.34	1093.03
577.69	1091.39
578.04	1086.01
578.39	1099.12
578.74	1095.14
579.09	1085.31
579.44	1097.48
579.80	1091.16
580.15	1089.99
580.50	1086.01
580.85	1092.80
581.20	1087.18
581.55	1095.14
581.90	1096.31
582.25	1099.82
582.60	1090.69
582.95	1082.26
583.30	1085.07
583.65	1082.03
584.00	1074.54
584.35	1078.05
584.71	1084.60
585.06	1080.39
585.41	1081.09
585.76	1087.41
586.11	1085.54
586.46	1083.90
586.81	1085.31
587.16	1080.63
587.51	1078.28
587.86	1077.35
588.21	1078.75
588.56	1075.24
588.91	1074.07
589.26	1076.88
589.61	1078.52
589.96	1084.84
590.31	1096.07
590.66	1098.88
591.01	1097.01
591.36	1090.69
591.71	1085.77
592.06	1075.01
592.41	1076.88
592.76	1077.35
593.10	1090.92
593.45	1092.33
593.80	1099.12
594.15	1093.50
594.50	1097.01
594.85	1096.54
595.20	1095.37
595.55	1090.69
595.90	1094.20
596.25	1096.31
596.60	1091.16
596.95	1093.26
597.30	1086.94
597.64	1137.03
597.99	1128.14
598.34	1123.46
598.69	1126.27
599.04	1131.88
599.39	1080.86
599.74	1093.03
600.09	1090.22
600.44	1086.71
600.78	1084.84
601.13	1088.12
601.48	1075.94
601.83	1078.52
602.18	1082.73
602.53	1090.69
602.88	1084.37
603.22	1088.82
603.57	1090.92
603.92	1091.16
604.27	1091.63
604.62	1099.82
604.97	1098.88
605.31	1099.35
605.66	1093.73
606.01	1082.97
606.36	1079.92
606.71	1079.46
607.05	1084.14
607.40	1076.41
607.75	1068.45
608.10	1065.41
608.44	1063.07
608.79	1059.09
609.14	1062.37
609.49	1076.18
609.84	1078.99
610.18	1082.26
610.53	1086.94
610.88	1095.14
611.23	1094.43
611.57	1092.80
611.92	1095.37
612.27	1095.37
612.62	1090.22
612.96	1085.77
613.31	1082.97
613.66	1084.37
614.00	1083.67
614.35	1079.46
614.70	1077.35
615.05	1084.14
615.39	1082.50
615.74	1093.50
616.09	1105.44
616.43	1110.58
616.78	1109.88
617.13	1099.82
617.47	1084.14
617.82	1081.56
618.17	1081.09
618.51	1081.80
618.86	1100.52
619.21	1103.33
619.55	1103.80
619.90	1105.90
620.25	1105.67
620.59	1095.14
620.94	1089.75
621.29	1086.94
621.63	1084.60
621.98	1076.41
622.32	1087.88
622.67	1087.65
623.02	1093.03
623.36	1097.01
623.71	1096.78
624.05	1097.71
624.40	1107.54
624.75	1102.16
625.09	1103.56
625.44	1107.78
625.78	1084.14
626.13	1081.56
626.48	1077.35
626.82	1069.39
627.17	1071.97
627.51	1088.58
627.86	1079.92
628.20	1078.75
628.55	1080.16
628.89	1075.01
629.24	1073.60
629.58	1077.58
629.93	1081.33
630.28	1083.43
630.62	1091.39
630.97	1086.48
631.31	1091.39
631.66	1088.82
632.00	1083.20
632.35	1075.01
632.69	1071.26
633.04	1072.67
633.38	1084.84
633.73	1089.52
634.07	1090.46
634.42	1090.92
634.76	1093.97
635.11	1075.24
635.45	1074.54
635.79	1087.65
636.14	1085.07
636.48	1075.71
636.83	1083.67
637.17	1088.35
637.52	1073.37
637.86	1076.65
638.21	1076.88
638.55	1088.35
638.89	1087.65
639.24	1089.29
639.58	1086.48
639.93	1085.54
640.27	1069.86
640.61	1064.01
640.96	1067.52
641.30	1072.90
641.65	1086.24
641.99	1092.09
642.33	1097.71
642.68	1091.39
643.02	1090.69
643.37	1082.97
643.71	1081.56
644.05	1078.52
644.40	1082.73
644.74	1079.69
645.08	1074.07
645.43	1079.69
645.77	1079.22
646.11	1079.69
646.46	1083.20
646.80	1082.50
647.14	1086.01
647.49	1094.90
647.83	1093.97
648.17	1090.22
648.52	1086.94
648.86	1082.03
649.20	1079.69
649.55	1075.24
649.89	1075.71
650.23	1078.05
650.57	1066.58
650.92	1065.88
651.26	1077.58
651.60	1080.63
651.95	1096.31
652.29	1105.20
652.63	1102.39
652.97	1093.97
653.32	1090.92
653.66	1072.90
654.00	1079.69
654.34	1077.82
654.69	1081.33
655.03	1083.67
655.37	1091.86
655.71	1092.80
656.05	1088.82
656.40	1085.77
656.74	1083.67
657.08	1089.75
657.42	1067.52
657.76	1079.46
658.11	1077.35
658.45	1072.20
658.79	1068.45
659.13	1076.65
659.47	1067.28
659.82	1075.48
660.16	1086.01
660.50	1082.50
660.84	1088.58
661.18	1091.16
661.52	1085.31
661.87	1075.71
662.21	1068.92
662.55	1066.35
662.89	1069.16
663.23	1080.86
663.57	1087.65
663.91	1093.50
664.25	1092.09
664.60	1092.80
664.94	1078.05
665.28	1082.73
665.62	1081.56
665.96	1079.22
666.30	1066.82
666.64	1077.82
666.98	1062.37
667.32	1060.26
667.66	1067.28
668.01	1076.41
668.35	1068.69
668.69	1077.82
669.03	1081.33
669.37	1078.28
669.71	1079.69
670.05	1085.77
670.39	1082.73
670.73	1090.22
671.07	1093.26
671.41	1092.09
671.75	1085.77
672.09	1091.86
672.43	1079.46
672.77	1081.33
673.11	1067.75
673.45	1065.18
673.79	1060.73
674.13	1068.22
674.47	1063.77
674.81	1074.54
675.15	1077.11
675.49	1079.22
675.83	1076.65
676.17	1078.52
676.51	1071.03
676.85	1077.58
677.19	1073.14
677.53	1075.94
677.87	1070.09
678.21	1075.24
678.55	1067.28
678.89	1071.50
679.23	1066.82
679.57	1072.90
679.90	1082.73
680.24	1086.94
680.58	1089.75
680.92	1097.01
681.26	1097.95
681.60	1086.71
681.94	1086.71
682.28	1080.39
682.62	1075.48
682.96	1076.65
683.29	1075.48
683.63	1067.28
683.97	1068.69
684.31	1071.73
684.65	1075.24
684.99	1084.60
685.33	1098.88
685.67	1095.37
686.00	1097.01
686.34	1088.12
686.68	1079.22
687.02	1076.65
687.36	1089.52
687.70	1089.05
688.03	1087.65
688.37	1094.67
688.71	1085.77
689.05	1080.63
689.39	1071.26
689.72	1073.37
690.06	1078.05
690.40	1080.63
690.74	1077.82
691.08	1095.37
691.41	1100.05
691.75	1095.60
692.09	1096.31
692.43	1109.18
692.76	1085.31
693.10	1086.01
693.44	1087.65
693.78	1089.52
694.11	1082.50
694.45	1083.43
694.79	1075.71
695.13	1071.73
695.46	1072.67
695.80	1071.03
696.14	1086.01
696.48	1092.33
696.81	1086.94
697.15	1086.48
697.49	1090.46
697.82	1084.84
698.16	1086.24
698.50	1089.29
698.83	1091.16
699.17	1094.67
699.51	1096.07
699.84	1089.29
700.18	1091.39
700.52	1093.03
700.85	1082.50
701.19	1086.01
701.53	1087.41
701.86	1086.71
702.20	1078.52
702.54	1069.86
702.87	1073.84
703.21	1076.65
703.55	1070.56
703.88	1081.33
704.22	1089.05
704.55	1083.67
704.89	1075.94
705.23	1088.35
705.56	1078.52
705.90	1078.99
706.23	1073.14
706.57	1072.90
706.91	1069.39
707.24	1069.86
707.58	1064.24
707.91	1064.01
708.25	1066.11
708.58	1054.41
708.92	1051.84
709.26	1061.43
709.59	1054.41
709.93	1056.28
710.26	1066.11
710.60	1068.45
710.93	1071.97
711.27	1077.82
711.60	1073.37
711.94	1063.54
712.27	1069.16
712.61	1061.43
712.94	1064.94
713.28	1071.03
713.61	1079.69
713.95	1073.84
714.28	1075.94
714.62	1075.01
714.95	1082.26
715.29	1085.54
715.62	1081.56
715.96	1077.11
716.29	1078.05
716.63	1070.56
716.96	1066.11
717.29	1066.11
717.63	1068.92
717.96	1078.28
718.30	1075.48
718.63	1077.35
718.97	1083.43
719.30	1079.69
719.63	1073.84
719.97	1082.26
720.30	1075.48
720.64	1071.03
720.97	1072.20
721.30	1061.67
721.64	1054.88
721.97	1061.20
722.31	1064.71
722.64	1067.52
722.97	1076.41
723.31	1081.80
723.64	1094.20
723.97	1097.48
724.31	1096.31
724.64	1094.90
724.98	1098.41
725.31	1085.77
725.64	1086.94
725.98	1088.35
726.31	1082.03
726.64	1075.24
726.97	1071.03
727.31	1071.97
727.64	1062.37
727.97	1070.56
728.31	1076.41
728.64	1085.07
728.97	1089.75
729.31	1093.73
729.64	1094.20
729.97	1098.65
730.30	1090.46
730.64	1080.86
730.97	1081.33
731.30	1088.35
731.63	1088.35
731.97	1094.43
732.30	1097.71
732.63	1101.22
732.96	1096.78
733.30	1091.16
733.63	1089.75
733.96	1091.16
734.29	1090.22
734.63	1085.07
734.96	1078.28
735.29	1082.97
735.62	1087.65
735.95	1090.92
736.29	1091.86
736.62	1087.41
736.95	1085.31
737.28	1074.31
737.61	1069.39
737.94	1061.67
738.28	1061.67
738.61	1061.67
738.94	1064.48
739.27	1064.24
739.60	1070.33
739.93	1079.92
740.27	1078.52
740.60	1088.58
740.93	1093.73
741.26	1088.58
741.59	1083.90
741.92	1080.63
742.25	1069.39
742.58	1063.77
742.91	1068.92
743.25	1072.20
743.58	1072.20
743.91	1070.56
744.24	1066.58
744.57	1063.07
744.90	1062.60
745.23	1062.37
745.56	1068.45
745.89	1073.37
746.22	1070.56
746.55	1067.52
746.88	1066.58
747.21	1070.33
747.54	1068.92
747.87	1073.84
748.20	1078.28
748.53	1077.82
748.87	1062.14
749.20	1063.07
749.53	1065.65
749.86	1067.99
750.19	1063.31
750.52	1074.07
750.85	1077.82
751.18	1074.31
751.51	1070.56
751.84	1080.16
752.16	1080.16
752.49	1077.35
752.82	1080.39
753.15	1075.01
753.48	1075.48
753.81	1081.56
754.14	1088.82
754.47	1093.26
754.80	1103.80
755.13	1111.52
755.46	1098.65
755.79	1100.52
756.12	1094.90
756.45	1097.95
756.78	1096.07
757.11	1099.82
757.43	1097.95
757.76	1104.73
758.09	1104.03
758.42	1099.12
758.75	1098.88
759.08	1092.09
759.41	1080.39
759.74	1070.33
760.07	1069.62
760.39	1071.50
760.72	1082.73
761.05	1086.24
761.38	1081.56
761.71	1080.16
762.04	1084.37
762.36	1089.05
762.69	1094.90
763.02	1094.20
763.35	1097.95
763.68	1093.97
764.01	1080.86
764.33	1076.18
764.66	1079.92
764.99	1073.60
765.32	1063.77
765.65	1066.58
765.97	1071.26
766.30	1070.33
766.63	1073.60
766.96	1076.41
767.28	1076.65
767.61	1074.31
767.94	1075.01
768.27	1066.35
768.59	1078.05
768.92	1080.63
769.25	1074.77
769.58	1081.56
769.90	1098.88
770.23	1095.60
770.56	1093.26
770.89	1100.52
771.21	1095.37
771.54	1091.86
771.87	1092.56
772.19	1072.43
772.52	1069.39
772.85	1067.28
773.17	1063.54
773.50	1059.33
773.83	1074.77
774.15	1079.22
774.48	1089.75
774.81	1084.14
775.13	1093.03
775.46	1096.07
775.79	1094.90
776.11	1089.52
776.44	1090.22
776.77	1087.18
777.09	1096.31
777.42	1106.14
777.74	1093.97
778.07	1093.50
778.40	1097.95
778.72	1089.52
779.05	1074.77
779.37	1090.69
779.70	1094.20
780.03	1083.20
780.35	1078.75
780.68	1086.24
781.00	1082.73
781.33	1082.50
781.65	1091.39
781.98	1094.67
782.31	1095.37
782.63	1090.69
782.96	1084.14
783.28	1079.46
783.61	1080.16
783.93	1074.07
784.26	1078.28
784.58	1081.56
784.91	1080.86
785.23	1082.73
785.56	1084.60
785.88	1083.43
786.21	1081.33
786.53	1079.92
786.86	1070.80
787.18	1074.54
787.51	1063.77
787.83	1076.18
788.16	1070.33
788.48	1071.03
788.81	1066.58
789.13	1074.77
789.46	1067.28
789.78	1062.14
790.10	1068.69
790.43	1060.50
790.75	1058.16
791.08	1059.56
791.40	1071.50
791.73	1076.65
792.05	1077.58
792.37	1080.16
792.70	1078.99
793.02	1081.56
793.35	1074.54
793.67	1079.22
793.99	1085.77
794.32	1096.78
794.64	1098.18
794.96	1090.46
795.29	1086.24
795.61	1083.43
795.93	1073.60
796.26	1070.56
796.58	1074.54
796.91	1079.22
797.23	1074.07
797.55	1067.28
797.87	1068.69
798.20	1076.65
798.52	1076.88
798.84	1080.39
799.17	1082.50
799.49	1074.07
799.81	1067.99
800.14	1070.80
800.46	1072.20
800.78	1078.99
801.10	1076.41
801.43	1079.92
801.75	1077.82
802.07	1085.31
802.40	1070.33
802.72	1076.65
803.04	1078.99
803.36	1078.52
803.69	1073.37
804.01	1095.60
804.33	1092.09
804.65	1087.41
804.97	1093.50
805.30	1095.37
805.62	1078.75
805.94	1078.28
806.26	1077.11
806.58	1075.94
806.91	1064.01
807.23	1067.05
807.55	1060.50
807.87	1064.94
808.19	1064.94
808.52	1082.03
808.84	1082.03
809.16	1096.31
809.48	1093.97
809.80	1087.18
810.12	1074.77
810.44	1075.24
810.77	1076.18
811.09	1083.67
811.41	1087.41
811.73	1088.35
812.05	1084.60
812.37	1081.09
812.69	1076.18
813.01	1066.11
813.33	1065.18
813.66	1060.96
813.98	1068.69
814.30	1063.07
814.62	1072.43
814.94	1068.92
815.26	1089.05
815.58	1083.20
815.90	1087.88
816.22	1083.90
816.54	1086.01
816.86	1079.92
817.18	1081.33
817.50	1078.28
817.82	1084.84
818.14	1088.12
818.46	1088.58
818.78	1083.43
819.10	1084.14
819.42	1085.07
819.74	1074.77
820.06	1076.18
820.38	1081.09
820.70	1079.69
821.02	1074.31
821.34	1084.37
821.66	1082.03
821.98	1070.80
822.30	1075.94
822.62	1074.07
822.94	1078.28
823.26	1083.43
823.58	1091.16
823.90	1088.35
824.22	1097.48
824.54	1100.52
824.86	1090.69
825.18	1085.31
825.50	1081.09
825.81	1072.43
826.13	1067.05
826.45	1062.84
826.77	1071.50
827.09	1085.54
827.41	1093.50
827.73	1091.86
828.05	1085.07
828.36	1084.37
828.68	1082.73
829.00	1074.31
829.32	1062.84
829.64	1078.28
829.96	1076.65
830.28	1055.35
830.59	1048.79
830.91	1050.20
831.23	1047.86
831.55	1052.30
831.87	1060.50
832.19	1066.35
832.50	1071.73
832.82	1078.05
833.14	1063.77
833.46	1074.31
833.78	1079.46
834.09	1073.14
834.41	1064.48
834.73	1075.71
835.05	1068.22
835.36	1071.50
835.68	1092.80
836.00	1098.88
836.32	1106.37
836.63	1112.46
836.95	1110.35
837.27	1094.43
837.59	1087.41
837.90	1081.33
838.22	1082.50
838.54	1088.12
838.85	1097.95
839.17	1104.50
839.49	1105.90
839.80	1099.35
840.12	1094.90
840.44	1082.26
840.76	1068.45
841.07	1067.05
841.39	1066.58
841.71	1060.73
842.02	1067.75
842.34	1071.50
842.65	1067.99
842.97	1067.75
843.29	1066.58
843.60	1071.50
843.92	1080.16
844.24	1081.33
844.55	1075.48
844.87	1072.43
845.18	1070.33
845.50	1068.92
845.82	1072.90
846.13	1084.84
846.45	1091.39
846.76	1105.20
847.08	1107.07
847.40	1104.03
847.71	1099.35
848.03	1099.58
848.34	1075.48
848.66	1077.35
848.97	1074.07
849.29	1077.82
849.60	1083.43
849.92	1095.37
850.24	1091.39
850.55	1088.58
850.87	1083.67
851.18	1078.99
851.50	1078.05
851.81	1078.28
852.13	1084.14
852.44	1082.97
852.76	1078.99
853.07	1072.90
853.39	1067.75
853.70	1068.22
854.01	1076.18
854.33	1071.97
854.64	1071.97
854.96	1075.94
855.27	1063.31
855.59	1051.13
855.90	1053.24
856.22	1066.35
856.53	1056.28
856.84	1069.62
857.16	1074.07
857.47	1081.09
857.79	1074.54
858.10	1079.92
858.41	1078.75
858.73	1077.11
859.04	1071.26
859.36	1071.03
859.67	1087.18
859.98	1085.54
860.30	1100.52
860.61	1110.82
860.92	1105.90
861.24	1095.14
861.55	1085.54
861.87	1067.75
862.18	1058.16
862.49	1064.48
862.81	1063.07
863.12	1071.50
863.43	1075.24
863.74	1082.50
864.06	1074.54
864.37	1069.86
864.68	1075.48
865.00	1081.80
865.31	1079.22
865.62	1086.71
865.94	1092.09
866.25	1091.16
866.56	1086.24
866.87	1078.52
867.19	1075.48
867.50	1079.92
867.81	1076.18
868.12	1076.65
868.44	1078.99
868.75	1076.65
869.06	1071.50
869.37	1064.71
869.68	1066.11
870.00	1075.94
870.31	1085.31
870.62	1079.69
870.93	1082.50
871.24	1081.09
871.56	1078.99
871.87	1077.35
872.18	1090.46
872.49	1103.80
872.80	1098.65
873.12	1092.33
873.43	1080.39
873.74	1072.67
874.05	1064.01
874.36	1074.07
874.67	1065.41
874.98	1072.20
875.29	1071.50
875.61	1078.05
875.92	1073.14
876.23	1084.60
876.54	1089.05
876.85	1076.65
877.16	1066.82
877.47	1062.37
877.78	1065.41
878.09	1064.24
878.40	1071.97
878.72	1081.09
879.03	1089.52
879.34	1089.52
879.65	1086.94
879.96	1093.26
880.27	1083.90
880.58	1075.94
880.89	1071.50
881.20	1064.24
881.51	1063.31
881.82	1064.71
882.13	1071.97
882.44	1074.31
882.75	1074.54
883.06	1078.99
883.37	1079.92
883.68	1073.60
883.99	1070.80
884.30	1074.77
884.61	1066.11
884.92	1068.45
885.23	1074.31
885.54	1080.86
885.85	1083.43
886.16	1081.80
886.47	1074.77
886.78	1071.73
887.08	1056.28
887.39	1057.92
887.70	1065.41
888.01	1067.05
888.32	1061.67
888.63	1072.43
888.94	1076.65
889.25	1068.22
889.56	1073.60
889.87	1082.50
890.17	1077.11
890.48	1070.80
890.79	1073.14
891.10	1068.92
891.41	1066.82
891.72	1074.77
892.03	1072.90
892.34	1076.88
892.64	1070.56
892.95	1076.65
893.26	1064.24
893.57	1073.14
893.88	1074.77
894.18	1083.43
894.49	1078.75
894.80	1084.37
895.11	1073.60
895.42	1079.69
895.72	1082.73
896.03	1080.86
896.34	1087.88
896.65	1097.01
896.96	1088.82
897.26	1077.82
897.57	1073.14
897.88	1076.88
898.19	1066.82
898.49	1072.43
898.80	1077.11
899.11	1086.24
899.41	1084.84
899.72	1098.18
900.03	1102.63
900.34	1102.63
900.64	1102.86
900.95	1096.07
901.26	1091.39
901.56	1079.69
901.87	1077.35
902.18	1073.84
902.48	1074.07
902.79	1070.33
903.10	1072.20
903.40	1081.80
903.71	1084.84
904.02	1088.35
904.32	1089.29
904.63	1082.26
904.94	1072.43
905.24	1055.35
905.55	1057.69
905.85	1060.50
906.16	1067.52
906.47	1075.48
906.77	1084.14
907.08	1081.09
907.38	1073.84
907.69	1066.82
908.00	1060.26
908.30	1072.67
908.61	1071.97
908.91	1075.94
909.22	1082.50
909.52	1087.18
909.83	1073.60
910.14	1075.48
910.44	1079.92
910.75	1084.14
911.05	1082.97
911.36	1090.46
911.66	1089.99
911.97	1085.07
912.27	1088.35
912.58	1090.22
912.88	1098.65
913.19	1093.73
913.49	1098.65
913.80	1096.78
914.10	1097.24
914.41	1091.63
914.71	1095.37
915.01	1088.12
915.32	1085.54
915.62	1083.20
915.93	1076.65
916.23	1077.35
916.54	1080.16
916.84	1083.20
917.15	1083.20
917.45	1090.22
917.75	1087.88
918.06	1082.26
918.36	1084.84
918.67	1086.24
918.97	1082.97
919.27	1077.58
919.58	1080.39
919.88	1074.54
920.18	1068.92
920.49	1073.37
920.79	1071.50
921.10	1075.94
921.40	1079.69
921.70	1084.60
922.01	1083.90
922.31	1086.94
922.61	1076.65
922.92	1072.20
923.22	1067.99
923.52	1061.20
923.82	1065.65
924.13	1075.71
924.43	1077.11
924.73	1082.26
925.04	1091.39
925.34	1099.35
925.64	1099.82
925.94	1098.18
926.25	1098.18
926.55	1100.29
926.85	1103.09
927.15	1102.16
927.46	1106.37
927.76	1103.56
928.06	1092.33
928.36	1090.69
928.67	1090.69
928.97	1082.73
929.27	1083.90
929.57	1088.35
929.87	1081.09
930.18	1086.48
930.48	1091.39
930.78	1093.73
931.08	1094.43
931.38	1095.84
931.69	1079.92
931.99	1078.52
932.29	1075.01
932.59	1079.46
932.89	1069.62
933.19	1079.22
933.49	1078.52
933.80	1083.43
934.10	1074.54
934.40	1084.14
934.70	1086.24
935.00	1085.31
935.30	1082.50
935.60	1082.50
935.90	1080.39
936.20	1082.97
936.50	1084.37
936.81	1078.75
937.11	1085.31
937.41	1078.28
937.71	1079.22
938.01	1075.71
938.31	1082.26
938.61	1078.05
938.91	1086.24
939.21	1080.39
939.51	1083.90
939.81	1084.37
940.11	1086.71
940.41	1082.26
940.71	1081.33
941.01	1081.80
941.31	1083.20
941.61	1078.52
941.91	1080.63
942.21	1090.22
942.51	1090.92
942.81	1089.75
943.11	1091.86
943.41	1090.46
943.71	1072.43
944.01	1071.97
944.31	1068.69
944.61	1064.94
944.90	1069.16
945.20	1074.07
945.50	1068.92
945.80	1066.35
946.10	1070.56
946.40	1073.84
946.70	1077.35
947.00	1086.01
947.30	1084.14
947.60	1084.60
947.89	1073.84
948.19	1070.09
948.49	1068.45
948.79	1062.14
949.09	1064.01
949.39	1075.24
949.69	1075.24
949.98	1067.28
950.28	1069.62
950.58	1061.20
950.88	1062.84
951.18	1060.73
951.48	1061.43
951.77	1070.80
952.07	1073.37
952.37	1063.54
952.67	1082.97
952.97	1085.54
953.26	1082.26
953.56	1080.16
953.86	1067.05
954.16	1050.20
954.45	1066.11
954.75	1072.20
955.05	1075.71
955.35	1095.14
955.64	1097.48
955.94	1085.31
956.24	1078.99
956.54	1080.16
956.83	1067.05
957.13	1062.37
957.43	1054.65
957.72	1054.41
958.02	1050.43
958.32	1064.24
958.61	1072.43
958.91	1075.24
959.21	1083.67
959.50	1088.58
959.80	1089.75
960.10	1085.07
960.39	1088.12
960.69	1087.18
960.99	1084.84
961.28	1083.90
961.58	1084.14
961.87	1074.31
962.17	1067.75
962.47	1070.09
962.76	1068.45
963.06	1072.90
963.36	1082.97
963.65	1086.94
963.95	1088.82
964.24	1080.86
964.54	1075.48
964.83	1076.65
965.13	1070.80
965.42	1072.20
965.72	1069.16
966.02	1074.54
966.31	1076.88
966.61	1079.22
966.90	1071.97
967.20	1076.18
967.49	1065.88
967.79	1055.58
968.08	1053.94
968.38	1059.09
968.67	1054.65
968.97	1066.11
969.26	1074.77
969.56	1089.99
969.85	1087.65
970.15	1099.12
970.44	1100.52
970.74	1106.61
971.03	1098.88
971.32	1088.58
971.62	1081.80
971.91	1067.52
972.21	1056.75
972.50	1058.62
972.80	1076.65
973.09	1075.24
973.38	1084.14
973.68	1087.18
973.97	1079.69
974.27	1061.67
974.56	1072.20
974.85	1071.97
975.15	1072.90
975.44	1075.01
975.73	1081.80
976.03	1074.31
976.32	1082.26
976.61	1085.54
976.91	1081.80
977.20	1082.50
977.49	1088.12
977.79	1084.60
978.08	1076.41
978.37	1079.92
978.67	1074.77
978.96	1068.69
979.25	1064.94
979.55	1075.24
979.84	1072.43
980.13	1083.67
980.42	1089.99
980.72	1098.18
981.01	1093.03
981.30	1095.84
981.59	1090.22
981.89	1077.35
982.18	1066.35
982.47	1067.52
982.76	1066.11
983.06	1065.88
983.35	1078.28
983.64	1078.05
983.93	1079.22
984.22	1085.77
984.52	1097.48
984.81	1097.01
985.10	1087.65
985.39	1082.50
985.68	1075.48
985.97	1069.39
986.27	1071.03
986.56	1090.22
986.85	1093.26
987.14	1101.92
987.43	1100.75
987.72	1094.43
988.01	1080.16
988.31	1073.14
988.60	1075.71
988.89	1084.37
989.18	1088.82
989.47	1099.82
989.76	1102.63
990.05	1093.50
990.34	1082.73
990.63	1079.92
990.92	1070.56
991.21	1070.80
991.51	1071.03
991.80	1080.63
992.09	1083.90
992.38	1090.22
992.67	1092.56
992.96	1093.97
993.25	1083.43
993.54	1087.18
993.83	1086.48
994.12	1082.97
994.41	1079.92
994.70	1086.48
994.99	1081.09
995.28	1084.84
995.57	1085.77
995.86	1086.71
996.15	1081.80
996.44	1077.35
996.73	1076.18
997.02	1081.56
997.31	1083.90
997.59	1089.52
997.88	1085.77
998.17	1083.67
998.46	1080.16
998.75	1084.14
999.04	1083.20
999.33	1089.29
999.62	1090.22
999.91	1084.60
1000.20	1072.43
1000.49	1066.58
1000.77	1074.54
1001.06	1074.77
1001.35	1077.35
1001.64	1079.69
1001.93	1082.03
1002.22	1069.16
1002.51	1066.82
1002.79	1069.39
1003.08	1075.71
1003.37	1079.92
1003.66	1082.50
1003.95	1093.97
1004.23	1100.52
1004.52	1095.60
1004.81	1090.22
1005.10	1087.88
1005.39	1073.60
1005.67	1076.65
1005.96	1077.35
1006.25	1078.28
1006.54	1078.52
1006.83	1077.82
1007.11	1071.26
1007.40	1072.67
1007.69	1075.48
1007.97	1074.31
1008.26	1080.16
1008.55	1079.69
1008.84	1074.54
1009.12	1063.31
1009.41	1071.03
1009.70	1072.20
1009.98	1073.60
1010.27	1078.52
1010.56	1090.46
1010.85	1096.78
1011.13	1103.33
1011.42	1106.37
1011.71	1114.10
1011.99	1115.97
1012.28	1105.67
1012.56	1097.48
1012.85	1089.52
1013.14	1086.48
1013.42	1082.03
1013.71	1078.05
1014.00	1063.54
1014.28	1065.88
1014.57	1058.16
1014.85	1054.65
1015.14	1064.94
1015.43	1081.09
1015.71	1071.97
1016.00	1077.82
1016.28	1078.75
1016.57	1072.90
1016.85	1074.77
1017.14	1089.52
1017.43	1084.60
1017.71	1084.14
1018.00	1087.65
1018.28	1080.86
1018.57	1075.48
1018.85	1080.39
1019.14	1073.84
1019.42	1066.11
1019.71	1067.52
1019.99	1069.16
1020.28	1066.58
1020.56	1067.52
1020.85	1081.56
1021.13	1082.26
1021.42	1076.88
1021.70	1070.09
1021.99	1076.88
1022.27	1073.37
1022.55	1084.84
1022.84	1103.56
>>>>>End Processed Spectral Data<<<<<
