SpectraSuite Data File
++++++++++++++++++++++++++++++++++++
Date: Mon Aug 26 10:26:01 PDT 2019
User: corrico
Dark Spectrum Present: No
Reference Spectrum Present: No
Number of Sampled Component Spectra: 1
Spectrometers: USB2+H06089
Integration Time (usec): 10000 (USB2+H06089)
Spectra Averaged: 2 (USB2+H06089)
Boxcar Smoothing: 2 (USB2+H06089)
Correct for Electrical Dark: No (USB2+H06089)
Strobe/Lamp Enabled: No (USB2+H06089)
Correct for Detector Non-linearity: No (USB2+H06089)
Correct for Stray Light: No (USB2+H06089)
Number of Pixels in Processed Spectrum: 2048
>>>>>Begin Processed Spectral Data<<<<<
339.70	1077.82
340.07	1077.82
340.45	1004.56
340.82	965.00
341.19	938.55
341.57	899.70
341.94	905.09
342.31	901.57
342.69	906.96
343.06	900.17
343.43	903.68
343.81	896.19
344.18	908.83
344.55	919.60
344.93	922.41
345.30	929.19
345.67	940.66
346.04	940.66
346.42	938.09
346.79	940.90
347.16	944.17
347.54	956.81
347.91	961.26
348.28	976.71
348.65	997.77
349.03	1006.66
349.40	1015.09
349.77	1025.39
350.14	1030.07
350.52	1026.56
350.89	1043.18
351.26	1043.88
351.63	1046.22
352.01	1046.22
352.38	1052.30
352.75	1048.56
353.12	1052.77
353.50	1047.86
353.87	1045.99
354.24	1047.62
354.61	1053.01
354.98	1058.39
355.36	1067.99
355.73	1071.50
356.10	1075.48
356.47	1063.07
356.84	1062.14
357.22	1065.18
357.59	1070.09
357.96	1064.01
358.33	1076.88
358.70	1076.65
359.08	1080.86
359.45	1075.94
359.82	1081.56
360.19	1086.71
360.56	1094.67
360.94	1092.56
361.31	1093.97
361.68	1090.92
362.05	1077.35
362.42	1071.03
362.79	1064.24
363.16	1063.77
363.54	1060.03
363.91	1061.20
364.28	1060.73
364.65	1064.94
365.02	1075.94
365.39	1078.99
365.76	1083.90
366.14	1084.60
366.51	1078.75
366.88	1067.52
367.25	1063.54
367.62	1050.20
367.99	1044.82
368.36	1047.62
368.73	1041.30
369.10	1042.71
369.48	1052.30
369.85	1055.11
370.22	1058.86
370.59	1063.54
370.96	1063.77
371.33	1066.35
371.70	1062.14
372.07	1051.37
372.44	1052.77
372.81	1058.16
373.18	1058.86
373.55	1075.01
373.93	1077.35
374.30	1071.50
374.67	1064.94
375.04	1061.67
375.41	1048.56
375.78	1047.86
376.15	1049.26
376.52	1053.01
376.89	1053.94
377.26	1054.18
377.63	1062.60
378.00	1057.45
378.37	1064.94
378.74	1074.07
379.11	1073.60
379.48	1075.71
379.85	1086.71
380.22	1078.28
380.59	1067.28
380.96	1067.75
381.33	1060.26
381.70	1069.39
382.07	1067.75
382.44	1072.90
382.81	1071.50
383.18	1075.48
383.55	1061.67
383.92	1060.73
384.29	1057.92
384.66	1064.24
385.03	1068.22
385.40	1070.09
385.77	1081.33
386.14	1085.31
386.51	1084.14
386.88	1081.56
387.25	1081.56
387.62	1070.56
387.99	1071.26
388.36	1070.56
388.73	1071.50
389.10	1076.18
389.46	1076.88
389.83	1073.84
390.20	1068.92
390.57	1067.28
390.94	1067.99
391.31	1071.03
391.68	1069.62
392.05	1067.75
392.42	1065.65
392.79	1060.50
393.16	1060.03
393.53	1065.65
393.89	1075.01
394.26	1078.99
394.63	1089.29
395.00	1088.82
395.37	1078.99
395.74	1073.14
396.11	1081.33
396.48	1076.65
396.84	1089.99
397.21	1096.31
397.58	1104.97
397.95	1091.86
398.32	1081.80
398.69	1071.03
399.06	1065.65
399.42	1063.54
399.79	1057.69
400.16	1060.26
400.53	1053.48
400.90	1059.33
401.27	1051.37
401.64	1066.82
402.00	1070.33
402.37	1077.82
402.74	1077.11
403.11	1086.01
403.48	1084.37
403.84	1083.67
404.21	1078.28
404.58	1073.84
404.95	1066.58
405.32	1068.45
405.68	1077.58
406.05	1081.09
406.42	1083.43
406.79	1084.37
407.16	1073.37
407.52	1064.48
407.89	1072.67
408.26	1077.82
408.63	1083.20
408.99	1094.43
409.36	1092.56
409.73	1078.05
410.10	1072.90
410.47	1061.90
410.83	1057.92
411.20	1066.82
411.57	1075.71
411.94	1082.97
412.30	1100.52
412.67	1099.12
413.04	1096.31
413.40	1101.22
413.77	1090.22
414.14	1076.88
414.51	1068.69
414.87	1071.97
415.24	1064.01
415.61	1069.62
415.97	1070.09
416.34	1080.86
416.71	1070.33
417.08	1068.92
417.44	1075.24
417.81	1082.97
418.18	1080.16
418.54	1091.86
418.91	1092.09
419.28	1091.86
419.64	1079.69
420.01	1081.80
420.38	1081.09
420.74	1084.37
421.11	1080.63
421.48	1083.90
421.84	1082.03
422.21	1081.09
422.58	1075.24
422.94	1080.63
423.31	1083.43
423.68	1088.35
424.04	1079.92
424.41	1080.63
424.77	1074.77
425.14	1079.46
425.51	1077.11
425.87	1078.05
426.24	1089.75
426.61	1091.16
426.97	1082.73
427.34	1081.33
427.70	1082.97
428.07	1074.31
428.44	1076.41
428.80	1078.52
429.17	1083.43
429.53	1086.01
429.90	1086.24
430.27	1076.65
430.63	1085.31
431.00	1080.86
431.36	1081.33
431.73	1075.94
432.09	1078.28
432.46	1076.65
432.83	1077.82
433.19	1078.99
433.56	1089.99
433.92	1086.94
434.29	1074.31
434.65	1070.56
435.02	1074.07
435.38	1071.73
435.75	1072.90
436.11	1085.54
436.48	1086.94
436.84	1077.82
437.21	1075.01
437.57	1081.80
437.94	1070.33
438.30	1075.94
438.67	1080.39
439.03	1075.71
439.40	1068.22
439.76	1076.88
440.13	1072.67
440.49	1078.05
440.86	1085.77
441.22	1086.48
441.59	1083.67
441.95	1081.56
442.32	1081.80
442.68	1079.22
443.05	1085.31
443.41	1090.46
443.78	1091.63
444.14	1091.16
444.51	1092.09
444.87	1096.31
445.24	1093.50
445.60	1095.37
445.96	1084.60
446.33	1087.65
446.69	1083.20
447.06	1079.69
447.42	1077.58
447.79	1085.07
448.15	1088.82
448.51	1087.88
448.88	1101.46
449.24	1102.86
449.61	1097.48
449.97	1089.75
450.33	1084.84
450.70	1069.62
451.06	1062.14
451.43	1065.41
451.79	1071.03
452.15	1079.46
452.52	1087.18
452.88	1089.05
453.24	1083.20
453.61	1082.73
453.97	1079.46
454.34	1084.14
454.70	1093.73
455.06	1095.37
455.43	1090.46
455.79	1095.60
456.15	1090.46
456.52	1085.07
456.88	1087.41
457.24	1088.35
457.61	1080.39
457.97	1076.41
458.33	1077.58
458.70	1081.09
459.06	1078.75
459.42	1084.14
459.79	1092.33
460.15	1083.67
460.51	1086.48
460.88	1090.22
461.24	1088.58
461.60	1068.22
461.96	1062.84
462.33	1057.22
462.69	1056.52
463.05	1049.73
463.42	1065.65
463.78	1071.50
464.14	1074.77
464.50	1067.28
464.87	1080.16
465.23	1079.69
465.59	1085.54
465.95	1079.69
466.32	1086.01
466.68	1070.33
467.04	1060.73
467.40	1055.58
467.77	1064.71
468.13	1067.99
468.49	1069.39
468.85	1072.20
469.22	1070.80
469.58	1062.84
469.94	1059.56
470.30	1070.56
470.66	1074.54
471.03	1083.90
471.39	1084.84
471.75	1088.12
472.11	1077.82
472.47	1074.54
472.84	1075.24
473.20	1082.26
473.56	1078.05
473.92	1077.82
474.28	1078.05
474.65	1071.97
475.01	1065.41
475.37	1065.88
475.73	1072.67
476.09	1071.03
476.45	1078.28
476.81	1080.16
477.18	1082.26
477.54	1077.35
477.90	1093.03
478.26	1079.22
478.62	1079.22
478.98	1085.07
479.34	1084.37
479.71	1075.48
480.07	1089.29
480.43	1082.97
480.79	1081.33
481.15	1091.86
481.51	1089.52
481.87	1087.18
482.23	1099.58
482.59	1103.56
482.96	1096.07
483.32	1095.14
483.68	1092.56
484.04	1088.58
484.40	1075.24
484.76	1078.75
485.12	1070.80
485.48	1062.84
485.84	1053.48
486.20	1064.24
486.56	1063.54
486.92	1070.80
487.28	1084.37
487.64	1095.84
488.00	1089.99
488.37	1089.29
488.73	1083.20
489.09	1081.09
489.45	1063.54
489.81	1063.07
490.17	1064.24
490.53	1072.20
490.89	1072.20
491.25	1086.01
491.61	1091.39
491.97	1090.69
492.33	1086.71
492.69	1084.60
493.05	1088.12
493.41	1082.97
493.77	1078.52
494.13	1083.43
494.49	1079.92
494.85	1079.69
495.21	1085.77
495.57	1094.20
495.93	1097.71
496.29	1104.73
496.64	1101.46
497.00	1095.84
497.36	1086.01
497.72	1080.86
498.08	1072.20
498.44	1074.07
498.80	1075.24
499.16	1084.14
499.52	1074.31
499.88	1073.84
500.24	1068.92
500.60	1064.24
500.96	1055.11
501.32	1069.39
501.68	1076.18
502.03	1086.01
502.39	1086.71
502.75	1097.95
503.11	1101.46
503.47	1109.18
503.83	1100.52
504.19	1093.97
504.55	1080.63
504.91	1067.52
505.26	1051.84
505.62	1049.50
505.98	1054.88
506.34	1060.50
506.70	1063.77
507.06	1067.75
507.42	1074.07
507.78	1076.18
508.13	1078.28
508.49	1079.22
508.85	1079.46
509.21	1079.22
509.57	1082.50
509.93	1091.39
510.28	1090.69
510.64	1093.03
511.00	1086.24
511.36	1086.71
511.72	1074.31
512.07	1088.12
512.43	1088.35
512.79	1093.73
513.15	1094.20
513.51	1101.46
513.86	1096.07
514.22	1101.69
514.58	1100.52
514.94	1100.29
515.30	1097.95
515.65	1097.01
516.01	1092.56
516.37	1092.56
516.73	1100.99
517.08	1100.29
517.44	1099.82
517.80	1101.92
518.16	1103.33
518.51	1100.75
518.87	1100.52
519.23	1094.43
519.59	1089.29
519.94	1087.88
520.30	1085.77
520.66	1093.50
521.01	1091.86
521.37	1090.69
521.73	1092.33
522.09	1088.35
522.44	1081.09
522.80	1086.94
523.16	1091.86
523.51	1098.18
523.87	1096.54
524.23	1093.26
524.58	1093.50
524.94	1083.20
525.30	1081.56
525.65	1077.11
526.01	1082.50
526.37	1078.05
526.72	1089.29
527.08	1087.41
527.44	1096.07
527.79	1098.65
528.15	1111.75
528.51	1108.71
528.86	1110.58
529.22	1100.75
529.58	1100.99
529.93	1083.90
530.29	1084.37
530.65	1077.35
531.00	1083.90
531.36	1074.31
531.71	1083.20
532.07	1077.82
532.43	1073.37
532.78	1075.24
533.14	1085.31
533.49	1084.37
533.85	1092.09
534.21	1097.71
534.56	1093.50
534.92	1093.97
535.27	1086.71
535.63	1082.03
535.98	1086.94
536.34	1097.24
536.69	1096.78
537.05	1099.12
537.41	1110.58
537.76	1104.50
538.12	1093.73
538.47	1091.39
538.83	1103.80
539.18	1098.41
539.54	1106.61
539.89	1104.73
540.25	1112.22
540.60	1107.78
540.96	1112.22
541.31	1102.39
541.67	1116.20
542.02	1104.73
542.38	1101.69
542.73	1091.39
543.09	1100.29
543.44	1102.16
543.80	1108.24
544.15	1105.20
544.51	1106.37
544.86	1100.99
545.22	1093.50
545.57	1091.39
545.93	1097.71
546.28	1097.24
546.64	1100.52
546.99	1090.46
547.35	1084.60
547.70	1090.92
548.05	1095.84
548.41	1097.71
548.76	1103.80
549.12	1104.50
549.47	1093.03
549.83	1078.05
550.18	1076.18
550.53	1080.63
550.89	1078.75
551.24	1079.69
551.60	1096.07
551.95	1099.58
552.30	1095.37
552.66	1108.95
553.01	1122.52
553.37	1111.52
553.72	1104.50
554.07	1104.73
554.43	1093.73
554.78	1078.52
555.13	1076.18
555.49	1079.22
555.84	1084.84
556.19	1090.22
556.55	1094.43
556.90	1104.50
557.26	1099.58
557.61	1091.16
557.96	1084.84
558.32	1080.39
558.67	1074.77
559.02	1070.80
559.37	1065.65
559.73	1072.20
560.08	1075.24
560.43	1078.99
560.79	1081.80
561.14	1092.56
561.49	1087.18
561.85	1086.94
562.20	1084.60
562.55	1088.82
562.90	1086.94
563.26	1090.92
563.61	1095.60
563.96	1103.80
564.32	1093.73
564.67	1092.80
565.02	1090.69
565.37	1094.90
565.73	1093.50
566.08	1112.69
566.43	1102.63
566.78	1105.90
567.14	1098.41
567.49	1094.90
567.84	1078.75
568.19	1083.67
568.54	1075.48
568.90	1055.11
569.25	1045.99
569.60	1050.90
569.95	1062.14
570.31	1066.35
570.66	1081.33
571.01	1089.05
571.36	1090.46
571.71	1085.31
572.06	1084.37
572.42	1091.39
572.77	1106.61
573.12	1105.67
573.47	1097.71
573.82	1101.46
574.18	1093.73
574.53	1077.82
574.88	1070.56
575.23	1077.11
575.58	1074.31
575.93	1067.99
576.28	1064.01
576.64	1073.60
576.99	1080.63
577.34	1079.92
577.69	1083.43
578.04	1080.63
578.39	1081.56
578.74	1079.69
579.09	1077.11
579.44	1066.58
579.80	1064.71
580.15	1058.39
580.50	1056.52
580.85	1060.26
581.20	1073.14
581.55	1085.07
581.90	1094.43
582.25	1078.75
582.60	1083.20
582.95	1088.58
583.30	1086.24
583.65	1073.84
584.00	1087.65
584.35	1069.86
584.71	1072.67
585.06	1078.52
585.41	1086.24
585.76	1093.73
586.11	1106.61
586.46	1106.84
586.81	1102.16
587.16	1098.65
587.51	1075.01
587.86	1075.01
588.21	1065.18
588.56	1054.41
588.91	1050.20
589.26	1066.35
589.61	1057.22
589.96	1067.99
590.31	1080.16
590.66	1088.12
591.01	1089.29
591.36	1093.73
591.71	1086.48
592.06	1089.52
592.41	1088.35
592.76	1078.52
593.10	1084.37
593.45	1075.01
593.80	1064.48
594.15	1062.37
594.50	1059.56
594.85	1059.79
595.20	1071.73
595.55	1074.77
595.90	1078.05
596.25	1088.35
596.60	1084.60
596.95	1084.37
597.30	1082.73
597.64	1124.86
597.99	1127.67
598.34	1131.65
598.69	1132.59
599.04	1141.71
599.39	1095.14
599.74	1086.71
600.09	1082.97
600.44	1075.94
600.78	1057.22
601.13	1057.69
601.48	1063.31
601.83	1055.82
602.18	1058.39
602.53	1074.77
602.88	1076.88
603.22	1078.99
603.57	1092.80
603.92	1095.84
604.27	1093.50
604.62	1099.82
604.97	1096.78
605.31	1086.01
605.66	1083.67
606.01	1086.24
606.36	1078.75
606.71	1067.28
607.05	1080.39
607.40	1082.73
607.75	1076.65
608.10	1072.20
608.44	1086.01
608.79	1068.69
609.14	1073.37
609.49	1074.31
609.84	1078.28
610.18	1071.50
610.53	1090.69
610.88	1088.12
611.23	1099.35
611.57	1097.48
611.92	1096.31
612.27	1093.73
612.62	1089.99
612.96	1083.20
613.31	1084.14
613.66	1088.58
614.00	1084.84
614.35	1083.90
614.70	1085.54
615.05	1082.50
615.39	1085.07
615.74	1087.18
616.09	1091.39
616.43	1081.80
616.78	1080.86
617.13	1078.28
617.47	1083.43
617.82	1080.86
618.17	1082.97
618.51	1089.99
618.86	1096.54
619.21	1085.07
619.55	1086.48
619.90	1091.86
620.25	1089.52
620.59	1085.31
620.94	1085.07
621.29	1084.37
621.63	1079.22
621.98	1076.65
622.32	1072.20
622.67	1075.24
623.02	1074.54
623.36	1070.56
623.71	1075.01
624.05	1076.41
624.40	1071.26
624.75	1072.43
625.09	1077.58
625.44	1071.97
625.78	1072.90
626.13	1073.60
626.48	1072.67
626.82	1078.99
627.17	1087.88
627.51	1091.63
627.86	1100.52
628.20	1102.16
628.55	1103.56
628.89	1099.58
629.24	1093.03
629.58	1088.12
629.93	1089.52
630.28	1087.18
630.62	1088.35
630.97	1091.63
631.31	1097.01
631.66	1095.60
632.00	1088.35
632.35	1093.50
632.69	1097.71
633.04	1082.50
633.38	1085.77
633.73	1085.77
634.07	1073.84
634.42	1058.62
634.76	1062.84
635.11	1049.03
635.45	1051.60
635.79	1057.22
636.14	1067.52
636.48	1073.84
636.83	1084.14
637.17	1083.90
637.52	1082.97
637.86	1082.73
638.21	1089.29
638.55	1090.69
638.89	1100.29
639.24	1097.24
639.58	1094.67
639.93	1093.03
640.27	1088.35
640.61	1079.22
640.96	1081.80
641.30	1075.48
641.65	1066.11
641.99	1065.41
642.33	1065.88
642.68	1060.50
643.02	1066.58
643.37	1063.54
643.71	1057.92
644.05	1048.33
644.40	1053.94
644.74	1062.60
645.08	1072.20
645.43	1079.46
645.77	1092.56
646.11	1095.37
646.46	1101.22
646.80	1097.01
647.14	1100.05
647.49	1090.92
647.83	1095.60
648.17	1085.54
648.52	1086.94
648.86	1088.82
649.20	1092.09
649.55	1088.82
649.89	1081.09
650.23	1081.33
650.57	1073.60
650.92	1084.14
651.26	1085.07
651.60	1097.71
651.95	1098.18
652.29	1105.20
652.63	1092.80
652.97	1090.69
653.32	1075.71
653.66	1079.46
654.00	1078.99
654.34	1083.20
654.69	1088.58
655.03	1103.33
655.37	1097.48
655.71	1095.37
656.05	1095.14
656.40	1092.80
656.74	1092.80
657.08	1098.41
657.42	1108.48
657.76	1113.86
658.11	1103.09
658.45	1089.05
658.79	1078.28
659.13	1061.43
659.47	1061.20
659.82	1073.14
660.16	1088.12
660.50	1096.78
660.84	1104.73
661.18	1099.58
661.52	1095.37
661.87	1091.63
662.21	1085.77
662.55	1078.75
662.89	1075.94
663.23	1074.54
663.57	1072.43
663.91	1079.92
664.25	1081.56
664.60	1086.24
664.94	1071.50
665.28	1069.39
665.62	1061.43
665.96	1061.20
666.30	1056.28
666.64	1068.22
666.98	1071.50
667.32	1078.52
667.66	1093.73
668.01	1098.18
668.35	1103.80
668.69	1104.26
669.03	1111.75
669.37	1097.71
669.71	1095.84
670.05	1098.18
670.39	1092.09
670.73	1087.18
671.07	1083.90
671.41	1086.71
671.75	1075.48
672.09	1079.69
672.43	1075.94
672.77	1078.28
673.11	1085.31
673.45	1091.63
673.79	1087.41
674.13	1082.03
674.47	1077.82
674.81	1073.37
675.15	1075.48
675.49	1082.03
675.83	1085.77
676.17	1094.20
676.51	1092.80
676.85	1091.39
677.19	1086.71
677.53	1089.52
677.87	1093.50
678.21	1088.12
678.55	1078.52
678.89	1077.35
679.23	1072.90
679.57	1069.62
679.90	1073.14
680.24	1076.41
680.58	1075.24
680.92	1077.82
681.26	1074.54
681.60	1071.26
681.94	1072.20
682.28	1077.58
682.62	1072.90
682.96	1079.22
683.29	1077.82
683.63	1090.46
683.97	1100.52
684.31	1097.24
684.65	1092.33
684.99	1096.54
685.33	1085.54
685.67	1072.43
686.00	1081.33
686.34	1087.65
686.68	1090.46
687.02	1089.99
687.36	1094.90
687.70	1091.63
688.03	1083.43
688.37	1077.58
688.71	1075.01
689.05	1075.01
689.39	1074.77
689.72	1079.92
690.06	1075.94
690.40	1087.65
690.74	1083.20
691.08	1082.03
691.41	1084.14
691.75	1096.54
692.09	1095.37
692.43	1089.99
692.76	1086.94
693.10	1086.48
693.44	1076.18
693.78	1071.50
694.11	1077.58
694.45	1090.92
694.79	1082.03
695.13	1090.46
695.46	1087.41
695.80	1087.18
696.14	1078.52
696.48	1078.75
696.81	1074.54
697.15	1077.11
697.49	1071.97
697.82	1067.05
698.16	1069.39
698.50	1067.05
698.83	1064.71
699.17	1079.22
699.51	1085.07
699.84	1086.48
700.18	1089.75
700.52	1096.78
700.85	1092.09
701.19	1087.18
701.53	1097.48
701.86	1089.52
702.20	1081.33
702.54	1068.92
702.87	1067.05
703.21	1057.69
703.55	1061.43
703.88	1067.99
704.22	1079.22
704.55	1088.82
704.89	1095.84
705.23	1097.95
705.56	1098.41
705.90	1095.60
706.23	1090.69
706.57	1082.97
706.91	1088.58
707.24	1086.48
707.58	1080.63
707.91	1081.56
708.25	1079.92
708.58	1077.82
708.92	1072.67
709.26	1080.63
709.59	1082.26
709.93	1097.01
710.26	1101.46
710.60	1098.41
710.93	1094.90
711.27	1090.92
711.60	1071.03
711.94	1062.84
712.27	1075.71
712.61	1080.63
712.94	1079.92
713.28	1089.99
713.61	1093.73
713.95	1086.24
714.28	1081.33
714.62	1082.03
714.95	1082.73
715.29	1093.26
715.62	1096.07
715.96	1103.09
716.29	1116.44
716.63	1119.01
716.96	1112.22
717.29	1115.50
717.63	1109.88
717.96	1090.92
718.30	1079.69
718.63	1075.24
718.97	1069.39
719.30	1074.54
719.63	1090.46
719.97	1093.03
720.30	1086.01
720.64	1081.33
720.97	1064.48
721.30	1055.35
721.64	1053.48
721.97	1062.14
722.31	1060.26
722.64	1065.18
722.97	1062.14
723.31	1068.69
723.64	1072.43
723.97	1093.97
724.31	1094.20
724.64	1094.67
724.98	1099.12
725.31	1085.07
725.64	1062.84
725.98	1066.82
726.31	1066.11
726.64	1061.43
726.97	1062.84
727.31	1074.31
727.64	1084.37
727.97	1094.43
728.31	1098.88
728.64	1103.33
728.97	1107.54
729.31	1103.33
729.64	1102.16
729.97	1093.50
730.30	1095.60
730.64	1089.99
730.97	1086.71
731.30	1091.16
731.63	1088.82
731.97	1091.16
732.30	1094.20
732.63	1091.16
732.96	1079.22
733.30	1079.69
733.63	1072.90
733.96	1069.16
734.29	1067.28
734.63	1064.94
734.96	1069.16
735.29	1072.67
735.62	1074.07
735.95	1076.88
736.29	1081.56
736.62	1081.09
736.95	1075.71
737.28	1074.77
737.61	1075.24
737.94	1067.75
738.28	1065.41
738.61	1069.16
738.94	1075.71
739.27	1076.88
739.60	1086.94
739.93	1089.75
740.27	1100.52
740.60	1093.26
740.93	1094.20
741.26	1091.86
741.59	1086.24
741.92	1070.33
742.25	1074.77
742.58	1084.14
742.91	1084.14
743.25	1084.60
743.58	1089.99
743.91	1084.14
744.24	1071.03
744.57	1073.37
744.90	1077.11
745.23	1074.07
745.56	1072.20
745.89	1079.46
746.22	1083.67
746.55	1079.46
746.88	1080.86
747.21	1088.35
747.54	1078.05
747.87	1070.09
748.20	1075.48
748.53	1069.86
748.87	1064.71
749.20	1073.14
749.53	1084.84
749.86	1079.69
750.19	1086.24
750.52	1087.18
750.85	1093.97
751.18	1091.63
751.51	1092.33
751.84	1091.39
752.16	1093.03
752.49	1082.03
752.82	1081.09
753.15	1081.80
753.48	1085.07
753.81	1076.18
754.14	1081.80
754.47	1077.35
754.80	1085.54
755.13	1080.63
755.46	1078.75
755.79	1074.54
756.12	1082.73
756.45	1075.01
756.78	1076.65
757.11	1087.88
757.43	1094.67
757.76	1082.03
758.09	1085.77
758.42	1083.67
758.75	1083.90
759.08	1074.54
759.41	1076.18
759.74	1071.26
760.07	1074.07
760.39	1079.22
760.72	1077.58
761.05	1082.50
761.38	1090.22
761.71	1089.52
762.04	1082.50
762.36	1085.54
762.69	1088.12
763.02	1085.77
763.35	1087.18
763.68	1087.88
764.01	1093.50
764.33	1089.75
764.66	1094.20
764.99	1100.29
765.32	1104.73
765.65	1106.84
765.97	1109.41
766.30	1100.52
766.63	1095.37
766.96	1083.20
767.28	1073.60
767.61	1066.11
767.94	1072.90
768.27	1065.18
768.59	1073.60
768.92	1071.73
769.25	1081.56
769.58	1068.92
769.90	1069.39
770.23	1070.80
770.56	1069.16
770.89	1060.73
771.21	1056.28
771.54	1076.41
771.87	1070.56
772.19	1070.09
772.52	1062.84
772.85	1079.69
773.17	1073.60
773.50	1070.09
773.83	1077.11
774.15	1089.75
774.48	1089.75
774.81	1086.94
775.13	1094.90
775.46	1104.26
775.79	1100.29
776.11	1097.24
776.44	1100.52
776.77	1099.58
777.09	1084.60
777.42	1086.24
777.74	1085.31
778.07	1093.50
778.40	1079.46
778.72	1088.58
779.05	1085.07
779.37	1082.73
779.70	1072.43
780.03	1086.48
780.35	1094.67
780.68	1096.07
781.00	1098.41
781.33	1096.07
781.65	1094.67
781.98	1087.88
782.31	1093.50
782.63	1100.99
782.96	1097.48
783.28	1093.26
783.61	1088.58
783.93	1087.65
784.26	1082.26
784.58	1081.33
784.91	1087.41
785.23	1086.94
785.56	1083.43
785.88	1079.69
786.21	1080.86
786.53	1080.39
786.86	1080.63
787.18	1084.84
787.51	1077.58
787.83	1077.11
788.16	1077.82
788.48	1073.14
788.81	1064.94
789.13	1075.71
789.46	1080.16
789.78	1071.50
790.10	1072.20
790.43	1078.75
790.75	1080.39
791.08	1074.07
791.40	1089.05
791.73	1102.16
792.05	1091.63
792.37	1090.92
792.70	1097.24
793.02	1092.80
793.35	1079.69
793.67	1090.46
793.99	1086.01
794.32	1080.39
794.64	1074.07
794.96	1079.92
795.29	1072.20
795.61	1065.18
795.93	1064.24
796.26	1065.88
796.58	1062.84
796.91	1062.14
797.23	1076.18
797.55	1082.97
797.87	1084.84
798.20	1082.50
798.52	1082.97
798.84	1075.71
799.17	1082.50
799.49	1084.14
799.81	1092.33
800.14	1092.80
800.46	1097.01
800.78	1083.67
801.10	1080.16
801.43	1080.86
801.75	1091.86
802.07	1093.03
802.40	1096.78
802.72	1103.09
803.04	1097.48
803.36	1099.82
803.69	1094.90
804.01	1100.29
804.33	1096.78
804.65	1092.09
804.97	1087.88
805.30	1096.54
805.62	1087.41
805.94	1091.86
806.26	1096.78
806.58	1086.94
806.91	1075.94
807.23	1070.56
807.55	1059.09
807.87	1063.54
808.19	1062.84
808.52	1067.28
808.84	1069.39
809.16	1070.09
809.48	1061.67
809.80	1073.14
810.12	1067.28
810.44	1067.99
810.77	1078.05
811.09	1084.84
811.41	1078.28
811.73	1084.84
812.05	1098.41
812.37	1096.31
812.69	1090.69
813.01	1095.60
813.33	1105.20
813.66	1098.65
813.98	1103.80
814.30	1110.58
814.62	1111.05
814.94	1100.75
815.26	1098.65
815.58	1093.73
815.90	1088.58
816.22	1086.94
816.54	1087.18
816.86	1086.71
817.18	1094.43
817.50	1090.92
817.82	1083.43
818.14	1078.05
818.46	1082.73
818.78	1071.50
819.10	1074.07
819.42	1068.92
819.74	1070.33
820.06	1059.79
820.38	1058.16
820.70	1055.82
821.02	1066.11
821.34	1065.18
821.66	1074.77
821.98	1075.71
822.30	1078.75
822.62	1074.07
822.94	1074.31
823.26	1072.43
823.58	1074.07
823.90	1078.28
824.22	1080.39
824.54	1087.18
824.86	1081.33
825.18	1081.80
825.50	1078.99
825.81	1079.22
826.13	1065.41
826.45	1070.80
826.77	1071.26
827.09	1066.58
827.41	1064.24
827.73	1071.97
828.05	1064.24
828.36	1063.77
828.68	1070.33
829.00	1075.48
829.32	1073.84
829.64	1075.94
829.96	1072.67
830.28	1069.39
830.59	1067.28
830.91	1075.24
831.23	1084.37
831.55	1088.12
831.87	1085.07
832.19	1081.09
832.50	1082.50
832.82	1070.33
833.14	1059.09
833.46	1063.07
833.78	1066.58
834.09	1061.20
834.41	1075.71
834.73	1080.16
835.05	1086.94
835.36	1089.99
835.68	1095.37
836.00	1089.29
836.32	1102.63
836.63	1096.78
836.95	1092.33
837.27	1085.77
837.59	1080.86
837.90	1068.92
838.22	1070.33
838.54	1074.07
838.85	1068.92
839.17	1069.62
839.49	1073.14
839.80	1071.97
840.12	1077.11
840.44	1089.75
840.76	1099.35
841.07	1101.69
841.39	1102.63
841.71	1100.05
842.02	1092.56
842.34	1083.67
842.65	1075.71
842.97	1078.28
843.29	1075.24
843.60	1077.35
843.92	1087.41
844.24	1088.82
844.55	1085.77
844.87	1087.65
845.18	1095.14
845.50	1087.65
845.82	1102.86
846.13	1104.97
846.45	1096.78
846.76	1080.16
847.08	1083.90
847.40	1061.90
847.71	1065.18
848.03	1072.43
848.34	1083.90
848.66	1083.67
848.97	1083.67
849.29	1082.26
849.60	1079.92
849.92	1083.43
850.24	1086.01
850.55	1095.37
850.87	1086.48
851.18	1094.67
851.50	1088.82
851.81	1082.03
852.13	1084.37
852.44	1086.01
852.76	1078.28
853.07	1077.82
853.39	1086.71
853.70	1083.67
854.01	1093.97
854.33	1086.71
854.64	1088.82
854.96	1074.07
855.27	1077.35
855.59	1070.09
855.90	1067.28
856.22	1066.58
856.53	1076.41
856.84	1084.37
857.16	1072.67
857.47	1076.18
857.79	1075.24
858.10	1074.54
858.41	1066.11
858.73	1087.41
859.04	1089.52
859.36	1086.24
859.67	1084.84
859.98	1086.48
860.30	1082.97
860.61	1084.14
860.92	1089.29
861.24	1093.50
861.55	1088.12
861.87	1081.33
862.18	1081.56
862.49	1072.90
862.81	1074.31
863.12	1077.82
863.43	1080.16
863.74	1082.73
864.06	1089.52
864.37	1077.35
864.68	1083.20
865.00	1079.92
865.31	1076.65
865.62	1078.99
865.94	1082.50
866.25	1077.11
866.56	1086.48
866.87	1087.88
867.19	1088.35
867.50	1092.33
867.81	1087.41
868.12	1076.18
868.44	1089.29
868.75	1083.20
869.06	1088.12
869.37	1095.60
869.68	1093.97
870.00	1077.11
870.31	1070.33
870.62	1057.69
870.93	1053.94
871.24	1062.37
871.56	1067.52
871.87	1083.90
872.18	1092.09
872.49	1082.97
872.80	1075.71
873.12	1073.14
873.43	1071.03
873.74	1072.67
874.05	1083.43
874.36	1084.37
874.67	1087.18
874.98	1077.58
875.29	1075.94
875.61	1073.37
875.92	1074.77
876.23	1078.52
876.54	1079.69
876.85	1079.46
877.16	1077.58
877.47	1075.24
877.78	1069.62
878.09	1073.84
878.40	1061.90
878.72	1055.35
879.03	1062.60
879.34	1058.16
879.65	1057.45
879.96	1067.75
880.27	1082.97
880.58	1086.71
880.89	1096.78
881.20	1093.73
881.51	1101.69
881.82	1092.33
882.13	1085.07
882.44	1091.86
882.75	1097.71
883.06	1096.07
883.37	1104.73
883.68	1099.12
883.99	1084.14
884.30	1083.90
884.61	1078.52
884.92	1080.39
885.23	1085.31
885.54	1086.71
885.85	1097.48
886.16	1095.84
886.47	1089.99
886.78	1088.35
887.08	1085.77
887.39	1077.11
887.70	1074.54
888.01	1070.33
888.32	1076.65
888.63	1084.37
888.94	1078.05
889.25	1078.75
889.56	1086.48
889.87	1082.73
890.17	1084.14
890.48	1094.20
890.79	1105.67
891.10	1099.35
891.41	1101.92
891.72	1089.99
892.03	1074.77
892.34	1060.73
892.64	1067.99
892.95	1070.33
893.26	1070.33
893.57	1070.09
893.88	1080.63
894.18	1072.90
894.49	1063.77
894.80	1069.86
895.11	1077.58
895.42	1069.86
895.72	1081.80
896.03	1082.73
896.34	1082.26
896.65	1083.43
896.96	1086.01
897.26	1069.16
897.57	1073.14
897.88	1078.52
898.19	1083.90
898.49	1071.73
898.80	1084.14
899.11	1074.77
899.41	1082.03
899.72	1078.28
900.03	1092.33
900.34	1082.50
900.64	1094.20
900.95	1083.20
901.26	1073.37
901.56	1074.77
901.87	1081.56
902.18	1079.22
902.48	1074.31
902.79	1074.54
903.10	1068.92
903.40	1070.33
903.71	1060.26
904.02	1064.01
904.32	1075.24
904.63	1073.14
904.94	1080.16
905.24	1086.48
905.55	1080.86
905.85	1075.24
906.16	1078.75
906.47	1071.03
906.77	1081.56
907.08	1092.56
907.38	1090.69
907.69	1088.12
908.00	1096.31
908.30	1092.56
908.61	1086.48
908.91	1083.20
909.22	1090.46
909.52	1085.31
909.83	1082.97
910.14	1080.39
910.44	1088.82
910.75	1076.41
911.05	1069.39
911.36	1059.33
911.66	1064.01
911.97	1075.48
912.27	1079.92
912.58	1075.24
912.88	1088.35
913.19	1090.22
913.49	1074.07
913.80	1068.92
914.10	1078.75
914.41	1077.58
914.71	1073.60
915.01	1075.48
915.32	1083.90
915.62	1087.41
915.93	1090.92
916.23	1101.69
916.54	1106.61
916.84	1106.84
917.15	1098.41
917.45	1103.09
917.75	1097.95
918.06	1093.97
918.36	1103.33
918.67	1102.63
918.97	1091.39
919.27	1083.67
919.58	1089.52
919.88	1088.58
920.18	1096.54
920.49	1095.37
920.79	1101.22
921.10	1091.63
921.40	1080.63
921.70	1066.35
922.01	1065.41
922.31	1063.77
922.61	1066.82
922.92	1070.09
923.22	1072.67
923.52	1077.58
923.82	1075.24
924.13	1086.01
924.43	1090.22
924.73	1097.48
925.04	1099.35
925.34	1100.52
925.64	1098.18
925.94	1097.01
926.25	1094.90
926.55	1082.97
926.85	1076.65
927.15	1074.77
927.46	1070.33
927.76	1074.77
928.06	1084.84
928.36	1098.41
928.67	1088.58
928.97	1087.65
929.27	1086.71
929.57	1089.52
929.87	1091.63
930.18	1087.88
930.48	1086.94
930.78	1081.33
931.08	1076.65
931.38	1070.56
931.69	1074.31
931.99	1081.56
932.29	1079.46
932.59	1078.05
932.89	1063.77
933.19	1055.82
933.49	1047.86
933.80	1052.30
934.10	1049.96
934.40	1053.71
934.70	1065.88
935.00	1075.48
935.30	1071.73
935.60	1072.20
935.90	1070.09
936.20	1077.58
936.50	1071.26
936.81	1071.97
937.11	1067.99
937.41	1080.86
937.71	1068.92
938.01	1068.45
938.31	1068.22
938.61	1074.31
938.91	1068.22
939.21	1073.60
939.51	1072.67
939.81	1074.54
940.11	1076.18
940.41	1075.24
940.71	1070.80
941.01	1069.16
941.31	1070.56
941.61	1070.80
941.91	1076.41
942.21	1082.97
942.51	1082.97
942.81	1075.24
943.11	1072.20
943.41	1074.31
943.71	1074.54
944.01	1078.52
944.31	1079.46
944.61	1082.03
944.90	1074.54
945.20	1064.24
945.50	1067.05
945.80	1066.11
946.10	1063.31
946.40	1064.71
946.70	1070.09
947.00	1064.71
947.30	1072.90
947.60	1070.56
947.89	1075.94
948.19	1082.50
948.49	1084.60
948.79	1082.03
949.09	1086.48
949.39	1081.33
949.69	1074.54
949.98	1073.37
950.28	1076.41
950.58	1072.43
950.88	1070.33
951.18	1072.20
951.48	1066.58
951.77	1060.50
952.07	1057.69
952.37	1066.58
952.67	1062.60
952.97	1074.54
953.26	1079.92
953.56	1080.16
953.86	1070.56
954.16	1073.84
954.45	1071.03
954.75	1066.58
955.05	1073.37
955.35	1081.09
955.64	1082.73
955.94	1078.28
956.24	1085.07
956.54	1086.01
956.83	1082.97
957.13	1081.09
957.43	1103.33
957.72	1100.99
958.02	1101.22
958.32	1101.69
958.61	1106.84
958.91	1083.20
959.21	1078.99
959.50	1074.54
959.80	1081.33
960.10	1072.67
960.39	1080.16
960.69	1078.52
960.99	1082.73
961.28	1073.60
961.58	1086.01
961.87	1085.31
962.17	1091.39
962.47	1088.82
962.76	1093.03
963.06	1085.54
963.36	1081.80
963.65	1082.26
963.95	1082.50
964.24	1088.58
964.54	1088.35
964.83	1087.88
965.13	1090.69
965.42	1091.63
965.72	1082.26
966.02	1085.07
966.31	1072.20
966.61	1064.94
966.90	1066.82
967.20	1067.75
967.49	1062.60
967.79	1078.99
968.08	1070.56
968.38	1073.14
968.67	1074.77
968.97	1074.31
969.26	1066.11
969.56	1079.22
969.85	1078.52
970.15	1076.65
970.44	1082.50
970.74	1082.50
971.03	1083.67
971.32	1080.16
971.62	1086.01
971.91	1086.71
972.21	1089.75
972.50	1087.18
972.80	1089.75
973.09	1086.48
973.38	1076.88
973.68	1072.20
973.97	1069.39
974.27	1062.37
974.56	1056.99
974.85	1063.77
975.15	1070.33
975.44	1067.05
975.73	1069.39
976.03	1068.92
976.32	1061.90
976.61	1064.48
976.91	1077.58
977.20	1082.73
977.49	1091.63
977.79	1090.69
978.08	1097.01
978.37	1090.46
978.67	1085.77
978.96	1085.31
979.25	1089.75
979.55	1078.52
979.84	1071.26
980.13	1071.97
980.42	1074.77
980.72	1077.35
981.01	1073.60
981.30	1084.60
981.59	1091.39
981.89	1089.75
982.18	1088.58
982.47	1090.92
982.76	1089.05
983.06	1084.84
983.35	1077.82
983.64	1081.80
983.93	1089.05
984.22	1091.16
984.52	1083.43
984.81	1084.14
985.10	1073.37
985.39	1071.26
985.68	1066.82
985.97	1074.31
986.27	1076.18
986.56	1083.43
986.85	1082.50
987.14	1085.77
987.43	1081.80
987.72	1079.46
988.01	1072.20
988.31	1080.63
988.60	1082.97
988.89	1083.43
989.18	1082.97
989.47	1087.88
989.76	1086.24
990.05	1084.14
990.34	1081.33
990.63	1075.24
990.92	1075.48
991.21	1065.18
991.51	1056.52
991.80	1067.28
992.09	1077.11
992.38	1082.26
992.67	1089.29
992.96	1096.54
993.25	1094.20
993.54	1097.95
993.83	1098.41
994.12	1092.56
994.41	1093.26
994.70	1087.65
994.99	1067.28
995.28	1059.56
995.57	1068.69
995.86	1062.14
996.15	1069.16
996.44	1089.05
996.73	1100.52
997.02	1093.50
997.31	1103.80
997.59	1100.29
997.88	1103.09
998.17	1096.78
998.46	1107.78
998.75	1103.33
999.04	1103.09
999.33	1102.16
999.62	1096.78
999.91	1077.11
1000.20	1084.14
1000.49	1081.09
1000.77	1076.65
1001.06	1076.18
1001.35	1087.18
1001.64	1075.71
1001.93	1075.48
1002.22	1073.14
1002.51	1071.73
1002.79	1054.88
1003.08	1059.56
1003.37	1052.07
1003.66	1058.16
1003.95	1067.05
1004.23	1083.43
1004.52	1075.48
1004.81	1082.26
1005.10	1072.90
1005.39	1063.54
1005.67	1055.58
1005.96	1062.37
1006.25	1066.11
1006.54	1070.56
1006.83	1078.52
1007.11	1083.20
1007.40	1084.60
1007.69	1086.01
1007.97	1090.46
1008.26	1085.54
1008.55	1093.50
1008.84	1079.92
1009.12	1069.39
1009.41	1064.71
1009.70	1075.24
1009.98	1067.99
1010.27	1077.58
1010.56	1082.03
1010.85	1084.84
1011.13	1078.05
1011.42	1072.67
1011.71	1071.50
1011.99	1074.77
1012.28	1071.73
1012.56	1068.22
1012.85	1079.69
1013.14	1087.18
1013.42	1082.26
1013.71	1082.73
1014.00	1083.67
1014.28	1082.03
1014.57	1076.41
1014.85	1077.35
1015.14	1071.50
1015.43	1077.58
1015.71	1071.97
1016.00	1077.11
1016.28	1085.07
1016.57	1098.88
1016.85	1085.07
1017.14	1080.63
1017.43	1078.05
1017.71	1066.58
1018.00	1053.94
1018.28	1060.03
1018.57	1062.60
1018.85	1058.86
1019.14	1073.37
1019.42	1075.71
1019.71	1080.16
1019.99	1078.99
1020.28	1080.86
1020.56	1073.14
1020.85	1077.11
1021.13	1072.20
1021.42	1075.24
1021.70	1071.26
1021.99	1072.67
1022.27	1064.48
1022.55	1087.18
1022.84	1047.39
>>>>>End Processed Spectral Data<<<<<
