SpectraSuite Data File
++++++++++++++++++++++++++++++++++++
Date: Mon Aug 26 10:26:04 PDT 2019
User: corrico
Dark Spectrum Present: No
Reference Spectrum Present: No
Number of Sampled Component Spectra: 1
Spectrometers: USB2+H06089
Integration Time (usec): 10000 (USB2+H06089)
Spectra Averaged: 20 (USB2+H06089)
Boxcar Smoothing: 2 (USB2+H06089)
Correct for Electrical Dark: No (USB2+H06089)
Strobe/Lamp Enabled: No (USB2+H06089)
Correct for Detector Non-linearity: No (USB2+H06089)
Correct for Stray Light: No (USB2+H06089)
Number of Pixels in Processed Spectrum: 2048
>>>>>Begin Processed Spectral Data<<<<<
339.70	1040.13
340.07	1040.13
340.45	1002.99
340.82	981.01
341.19	954.49
341.57	926.69
341.94	914.56
342.31	907.61
342.69	899.73
343.06	898.91
343.43	899.07
343.81	901.50
344.18	901.60
344.55	908.62
344.93	914.00
345.30	923.20
345.67	931.14
346.04	943.26
346.42	950.23
346.79	957.56
347.16	963.27
347.54	972.40
347.91	978.39
348.28	985.30
348.65	992.95
349.03	999.78
349.40	1006.45
349.77	1012.91
350.14	1021.90
350.52	1029.72
350.89	1038.24
351.26	1044.23
351.63	1050.55
352.01	1053.90
352.38	1058.86
352.75	1062.81
353.12	1066.14
353.50	1073.18
353.87	1075.36
354.24	1077.30
354.61	1079.15
354.98	1081.26
355.36	1077.56
355.73	1080.46
356.10	1079.13
356.47	1080.98
356.84	1080.88
357.22	1079.38
357.59	1078.12
357.96	1079.46
358.33	1077.11
358.70	1077.79
359.08	1080.98
359.45	1083.53
359.82	1083.50
360.19	1080.34
360.56	1079.13
360.94	1078.89
361.31	1073.25
361.68	1069.06
362.05	1070.94
362.42	1069.60
362.79	1067.68
363.16	1071.19
363.54	1073.95
363.91	1073.35
364.28	1077.91
364.65	1079.50
365.02	1077.93
365.39	1077.70
365.76	1075.73
366.14	1070.30
366.51	1067.99
366.88	1068.01
367.25	1067.31
367.62	1069.98
367.99	1071.57
368.36	1071.05
368.73	1070.51
369.10	1070.58
369.48	1070.63
369.85	1071.57
370.22	1069.16
370.59	1071.26
370.96	1072.32
371.33	1071.24
371.70	1062.86
372.07	1063.40
372.44	1060.52
372.81	1058.65
373.18	1056.33
373.55	1063.61
373.93	1066.82
374.30	1067.40
374.67	1066.96
375.04	1065.29
375.41	1061.78
375.78	1057.99
376.15	1057.85
376.52	1058.41
376.89	1062.30
377.26	1063.07
377.63	1064.99
378.00	1065.88
378.37	1065.18
378.74	1065.90
379.11	1070.14
379.48	1070.09
379.85	1070.70
380.22	1072.27
380.59	1074.31
380.96	1070.58
381.33	1072.04
381.70	1073.63
382.07	1074.63
382.44	1071.52
382.81	1069.72
383.18	1070.28
383.55	1067.14
383.92	1066.89
384.29	1066.51
384.66	1067.42
385.03	1067.73
385.40	1066.86
385.77	1065.13
386.14	1063.26
386.51	1066.68
386.88	1065.88
387.25	1067.64
387.62	1069.81
387.99	1074.96
388.36	1073.32
388.73	1073.79
389.10	1070.80
389.46	1069.30
389.83	1064.92
390.20	1064.80
390.57	1061.62
390.94	1065.25
391.31	1067.99
391.68	1068.78
392.05	1071.57
392.42	1072.81
392.79	1070.70
393.16	1069.53
393.53	1071.75
393.89	1067.57
394.26	1068.48
394.63	1070.30
395.00	1070.23
395.37	1068.29
395.74	1071.80
396.11	1073.25
396.48	1072.11
396.84	1069.44
397.21	1070.65
397.58	1069.60
397.95	1069.20
398.32	1068.69
398.69	1069.91
399.06	1071.03
399.42	1072.88
399.79	1072.29
400.16	1076.44
400.53	1077.54
400.90	1078.94
401.27	1077.07
401.64	1078.12
402.00	1078.26
402.37	1078.73
402.74	1079.67
403.11	1081.75
403.48	1080.79
403.84	1077.44
404.21	1075.66
404.58	1072.67
404.95	1072.55
405.32	1071.64
405.68	1074.80
406.05	1074.82
406.42	1075.69
406.79	1072.41
407.16	1074.24
407.52	1074.10
407.89	1071.50
408.26	1072.76
408.63	1075.01
408.99	1073.84
409.36	1072.15
409.73	1073.86
410.10	1073.63
410.47	1072.67
410.83	1074.26
411.20	1075.92
411.57	1079.90
411.94	1077.51
412.30	1080.20
412.67	1079.69
413.04	1076.69
413.40	1077.82
413.77	1077.63
414.14	1075.50
414.51	1074.42
414.87	1074.87
415.24	1071.50
415.61	1070.82
415.97	1073.70
416.34	1073.95
416.71	1075.85
417.08	1074.89
417.44	1074.26
417.81	1071.29
418.18	1072.13
418.54	1072.85
418.91	1075.45
419.28	1075.27
419.64	1072.74
420.01	1071.19
420.38	1071.05
420.74	1070.09
421.11	1070.87
421.48	1072.01
421.84	1074.24
422.21	1072.13
422.58	1073.70
422.94	1075.71
423.31	1077.54
423.68	1077.11
424.04	1075.05
424.41	1075.05
424.77	1076.13
425.14	1078.17
425.51	1079.31
425.87	1082.40
426.24	1080.34
426.61	1078.05
426.97	1077.25
427.34	1073.95
427.70	1073.07
428.07	1075.78
428.44	1077.51
428.80	1076.48
429.17	1077.02
429.53	1078.92
429.90	1077.07
430.27	1077.14
430.63	1075.13
431.00	1073.18
431.36	1069.11
431.73	1068.10
432.09	1068.88
432.46	1071.26
432.83	1077.72
433.19	1081.84
433.56	1083.74
433.92	1078.99
434.29	1081.35
434.65	1077.54
435.02	1075.22
435.38	1075.08
435.75	1079.06
436.11	1077.65
436.48	1081.21
436.84	1080.58
437.21	1080.09
437.57	1079.78
437.94	1075.85
438.30	1071.82
438.67	1075.34
439.03	1077.37
439.40	1074.89
439.76	1077.72
440.13	1080.65
440.49	1081.47
440.86	1077.84
441.22	1079.99
441.59	1079.92
441.95	1077.65
442.32	1076.72
442.68	1078.12
443.05	1079.95
443.41	1081.84
443.78	1084.79
444.14	1083.50
444.51	1084.72
444.87	1084.56
445.24	1082.36
445.60	1081.00
445.96	1080.09
446.33	1080.67
446.69	1078.78
447.06	1080.65
447.42	1080.70
447.79	1083.76
448.15	1082.83
448.51	1086.13
448.88	1086.94
449.24	1087.06
449.61	1086.15
449.97	1085.42
450.33	1082.69
450.70	1077.72
451.06	1075.69
451.43	1072.95
451.79	1073.28
452.15	1072.32
452.52	1075.64
452.88	1074.45
453.24	1074.80
453.61	1073.86
453.97	1077.35
454.34	1076.06
454.70	1077.21
455.06	1077.18
455.43	1078.99
455.79	1077.72
456.15	1077.77
456.52	1076.25
456.88	1078.10
457.24	1079.31
457.61	1076.46
457.97	1077.40
458.33	1079.36
458.70	1078.80
459.06	1076.90
459.42	1079.62
459.79	1077.00
460.15	1076.60
460.51	1076.01
460.88	1074.82
461.24	1070.80
461.60	1073.65
461.96	1074.73
462.33	1072.22
462.69	1075.85
463.05	1081.51
463.42	1082.71
463.78	1083.81
464.14	1085.66
464.50	1083.88
464.87	1080.41
465.23	1078.21
465.59	1076.88
465.95	1077.44
466.32	1075.71
466.68	1082.03
467.04	1083.15
467.40	1082.47
467.77	1084.04
468.13	1084.96
468.49	1080.27
468.85	1079.67
469.22	1080.32
469.58	1079.38
469.94	1082.80
470.30	1079.36
470.66	1080.79
471.03	1079.46
471.39	1080.16
471.75	1077.30
472.11	1080.79
472.47	1077.98
472.84	1081.21
473.20	1083.04
473.56	1084.96
473.92	1086.48
474.28	1087.11
474.65	1084.77
475.01	1083.46
475.37	1083.76
475.73	1083.32
476.09	1083.34
476.45	1082.50
476.81	1081.68
477.18	1079.71
477.54	1078.40
477.90	1079.57
478.26	1083.22
478.62	1084.86
478.98	1082.24
479.34	1081.23
479.71	1080.30
480.07	1077.54
480.43	1075.57
480.79	1078.61
481.15	1079.38
481.51	1080.72
481.87	1081.28
482.23	1081.14
482.59	1081.35
482.96	1082.29
483.32	1082.76
483.68	1083.25
484.04	1083.36
484.40	1081.87
484.76	1081.35
485.12	1077.23
485.48	1079.62
485.84	1080.06
486.20	1078.45
486.56	1077.28
486.92	1079.03
487.28	1075.48
487.64	1077.28
488.00	1079.01
488.37	1082.24
488.73	1086.15
489.09	1086.99
489.45	1084.63
489.81	1083.88
490.17	1078.68
490.53	1075.17
490.89	1074.26
491.25	1074.91
491.61	1077.65
491.97	1083.55
492.33	1083.88
492.69	1085.96
493.05	1084.79
493.41	1084.84
493.77	1080.30
494.13	1081.77
494.49	1081.91
494.85	1083.69
495.21	1083.25
495.57	1085.52
495.93	1081.80
496.29	1079.24
496.64	1078.57
497.00	1076.20
497.36	1076.32
497.72	1078.78
498.08	1080.23
498.44	1078.24
498.80	1079.88
499.16	1081.07
499.52	1081.98
499.88	1082.76
500.24	1084.37
500.60	1086.78
500.96	1088.35
501.32	1087.39
501.68	1088.98
502.03	1091.39
502.39	1088.19
502.75	1085.96
503.11	1085.49
503.47	1084.09
503.83	1082.01
504.19	1084.89
504.55	1082.12
504.91	1080.77
505.26	1082.61
505.62	1086.31
505.98	1085.61
506.34	1086.85
506.70	1089.24
507.06	1084.23
507.42	1082.05
507.78	1076.93
508.13	1076.27
508.49	1075.10
508.85	1077.44
509.21	1075.55
509.57	1077.63
509.93	1078.43
510.28	1080.70
510.64	1080.81
511.00	1081.77
511.36	1084.25
511.72	1082.85
512.07	1083.27
512.43	1082.10
512.79	1084.14
513.15	1085.03
513.51	1086.97
513.86	1086.01
514.22	1086.17
514.58	1084.42
514.94	1084.53
515.30	1083.64
515.65	1083.95
516.01	1084.60
516.37	1083.15
516.73	1082.36
517.08	1080.13
517.44	1079.43
517.80	1081.47
518.16	1081.02
518.51	1077.23
518.87	1082.40
519.23	1084.28
519.59	1081.84
519.94	1082.01
520.30	1084.23
520.66	1085.73
521.01	1081.94
521.37	1081.63
521.73	1083.18
522.09	1083.74
522.44	1081.80
522.80	1084.28
523.16	1085.40
523.51	1085.19
523.87	1084.89
524.23	1084.44
524.58	1085.00
524.94	1083.83
525.30	1084.39
525.65	1084.98
526.01	1085.21
526.37	1084.14
526.72	1086.17
527.08	1086.01
527.44	1086.85
527.79	1087.55
528.15	1090.39
528.51	1091.04
528.86	1090.20
529.22	1090.76
529.58	1088.16
529.93	1088.47
530.29	1087.44
530.65	1088.84
531.00	1087.72
531.36	1085.52
531.71	1084.93
532.07	1087.83
532.43	1086.36
532.78	1086.34
533.14	1090.88
533.49	1091.18
533.85	1091.09
534.21	1090.60
534.56	1091.11
534.92	1088.54
535.27	1088.35
535.63	1085.45
535.98	1085.56
536.34	1084.37
536.69	1085.54
537.05	1081.94
537.41	1082.61
537.76	1085.61
538.12	1087.37
538.47	1084.21
538.83	1084.11
539.18	1083.69
539.54	1078.64
539.89	1076.65
540.25	1080.44
540.60	1083.04
540.96	1082.71
541.31	1085.21
541.67	1085.56
542.02	1082.76
542.38	1082.54
542.73	1083.76
543.09	1084.93
543.44	1085.75
543.80	1089.26
544.15	1088.00
544.51	1085.47
544.86	1083.41
545.22	1085.35
545.57	1084.44
545.93	1084.04
546.28	1086.71
546.64	1089.17
546.99	1084.53
547.35	1084.11
547.70	1083.53
548.05	1081.12
548.41	1082.85
548.76	1086.31
549.12	1083.29
549.47	1083.06
549.83	1085.73
550.18	1080.37
550.53	1079.99
550.89	1081.00
551.24	1083.93
551.60	1083.76
551.95	1086.50
552.30	1083.46
552.66	1083.74
553.01	1081.91
553.37	1079.50
553.72	1077.42
554.07	1079.08
554.43	1081.14
554.78	1083.93
555.13	1083.67
555.49	1083.62
555.84	1084.11
556.19	1084.44
556.55	1082.54
556.90	1081.94
557.26	1084.53
557.61	1086.64
557.96	1085.77
558.32	1081.91
558.67	1080.95
559.02	1081.61
559.37	1079.34
559.73	1076.23
560.08	1082.15
560.43	1083.90
560.79	1081.21
561.14	1079.74
561.49	1080.41
561.85	1077.02
562.20	1075.69
562.55	1078.66
562.90	1080.67
563.26	1083.25
563.61	1085.56
563.96	1087.83
564.32	1087.27
564.67	1087.37
565.02	1087.06
565.37	1083.74
565.73	1081.96
566.08	1082.03
566.43	1077.23
566.78	1077.58
567.14	1076.44
567.49	1081.07
567.84	1077.49
568.19	1082.17
568.54	1084.46
568.90	1087.13
569.25	1083.55
569.60	1083.13
569.95	1082.45
570.31	1081.49
570.66	1084.14
571.01	1085.26
571.36	1089.50
571.71	1090.29
572.06	1089.10
572.42	1088.82
572.77	1089.54
573.12	1086.41
573.47	1085.77
573.82	1084.93
574.18	1081.98
574.53	1078.64
574.88	1079.41
575.23	1077.68
575.58	1078.00
575.93	1079.22
576.28	1079.53
576.64	1077.54
576.99	1081.54
577.34	1082.43
577.69	1080.88
578.04	1083.34
578.39	1084.32
578.74	1081.30
579.09	1077.68
579.44	1078.73
579.80	1076.25
580.15	1075.85
580.50	1077.14
580.85	1078.52
581.20	1078.96
581.55	1079.15
581.90	1079.85
582.25	1079.24
582.60	1079.81
582.95	1080.20
583.30	1080.23
583.65	1082.31
584.00	1080.79
584.35	1079.03
584.71	1080.84
585.06	1081.63
585.41	1084.09
585.76	1084.18
586.11	1086.36
586.46	1083.69
586.81	1082.61
587.16	1079.64
587.51	1078.99
587.86	1078.07
588.21	1074.38
588.56	1077.23
588.91	1077.70
589.26	1079.57
589.61	1080.63
589.96	1084.98
590.31	1083.01
590.66	1082.80
591.01	1082.03
591.36	1081.51
591.71	1077.70
592.06	1078.33
592.41	1080.39
592.76	1080.58
593.10	1079.78
593.45	1081.73
593.80	1083.08
594.15	1080.09
594.50	1079.22
594.85	1075.99
595.20	1075.64
595.55	1075.05
595.90	1075.76
596.25	1076.01
596.60	1077.51
596.95	1078.19
597.30	1077.61
597.64	1131.18
597.99	1136.21
598.34	1138.72
598.69	1138.72
599.04	1139.65
599.39	1088.68
599.74	1085.21
600.09	1085.49
600.44	1087.83
600.78	1090.41
601.13	1090.20
601.48	1087.55
601.83	1087.51
602.18	1084.42
602.53	1083.34
602.88	1079.81
603.22	1083.71
603.57	1084.37
603.92	1085.45
604.27	1084.84
604.62	1085.42
604.97	1084.79
605.31	1083.69
605.66	1083.36
606.01	1078.26
606.36	1079.71
606.71	1078.47
607.05	1077.00
607.40	1075.50
607.75	1081.70
608.10	1078.52
608.44	1078.78
608.79	1081.40
609.14	1084.81
609.49	1082.26
609.84	1084.09
610.18	1081.47
610.53	1083.06
610.88	1083.62
611.23	1083.41
611.57	1084.79
611.92	1090.20
612.27	1091.46
612.62	1090.41
612.96	1092.07
613.31	1089.05
613.66	1086.94
614.00	1084.93
614.35	1082.43
614.70	1081.91
615.05	1083.15
615.39	1082.76
615.74	1080.72
616.09	1081.98
616.43	1079.24
616.78	1078.57
617.13	1076.53
617.47	1075.94
617.82	1074.77
618.17	1073.65
618.51	1073.84
618.86	1075.97
619.21	1076.13
619.55	1078.26
619.90	1080.63
620.25	1081.96
620.59	1081.75
620.94	1080.81
621.29	1080.81
621.63	1079.29
621.98	1076.55
622.32	1074.87
622.67	1076.97
623.02	1077.35
623.36	1078.87
623.71	1080.53
624.05	1082.97
624.40	1083.79
624.75	1082.64
625.09	1079.46
625.44	1081.33
625.78	1080.20
626.13	1079.99
626.48	1081.07
626.82	1083.60
627.17	1080.74
627.51	1081.28
627.86	1083.60
628.20	1080.39
628.55	1084.51
628.89	1087.55
629.24	1089.78
629.58	1084.96
629.93	1088.68
630.28	1085.66
630.62	1083.13
630.97	1080.77
631.31	1084.84
631.66	1081.42
632.00	1081.80
632.35	1085.66
632.69	1086.52
633.04	1083.55
633.38	1083.69
633.73	1082.69
634.07	1078.92
634.42	1079.22
634.76	1077.84
635.11	1078.21
635.45	1079.81
635.79	1080.34
636.14	1076.37
636.48	1079.10
636.83	1083.79
637.17	1080.16
637.52	1079.81
637.86	1081.33
638.21	1083.27
638.55	1079.46
638.89	1078.05
639.24	1078.82
639.58	1082.85
639.93	1080.06
640.27	1080.51
640.61	1080.67
640.96	1081.49
641.30	1078.03
641.65	1079.24
641.99	1076.39
642.33	1077.49
642.68	1074.54
643.02	1075.13
643.37	1072.06
643.71	1073.91
644.05	1077.47
644.40	1080.58
644.74	1080.70
645.08	1086.24
645.43	1090.08
645.77	1089.57
646.11	1088.91
646.46	1089.64
646.80	1087.48
647.14	1083.41
647.49	1082.73
647.83	1083.39
648.17	1079.53
648.52	1078.10
648.86	1081.00
649.20	1083.71
649.55	1082.52
649.89	1085.59
650.23	1086.45
650.57	1085.35
650.92	1083.53
651.26	1083.22
651.60	1082.99
651.95	1080.77
652.29	1082.10
652.63	1081.33
652.97	1080.81
653.32	1080.18
653.66	1080.39
654.00	1078.28
654.34	1078.00
654.69	1077.84
655.03	1078.33
655.37	1077.89
655.71	1078.73
656.05	1078.19
656.40	1079.53
656.74	1081.00
657.08	1083.22
657.42	1084.72
657.76	1086.38
658.11	1087.81
658.45	1088.07
658.79	1087.25
659.13	1086.48
659.47	1085.52
659.82	1082.85
660.16	1082.92
660.50	1083.46
660.84	1082.83
661.18	1082.83
661.52	1085.07
661.87	1083.08
662.21	1085.03
662.55	1084.81
662.89	1085.35
663.23	1086.06
663.57	1087.04
663.91	1082.94
664.25	1081.66
664.60	1080.93
664.94	1077.91
665.28	1077.49
665.62	1075.92
665.96	1077.35
666.30	1077.35
666.64	1078.05
666.98	1075.80
667.32	1078.73
667.66	1076.13
668.01	1080.44
668.35	1084.23
668.69	1088.58
669.03	1088.84
669.37	1090.22
669.71	1087.37
670.05	1084.51
670.39	1081.19
670.73	1079.64
671.07	1080.88
671.41	1080.53
671.75	1081.61
672.09	1080.77
672.43	1084.46
672.77	1086.06
673.11	1084.46
673.45	1080.63
673.79	1079.85
674.13	1076.67
674.47	1072.76
674.81	1073.49
675.15	1075.43
675.49	1074.63
675.83	1076.30
676.17	1080.70
676.51	1081.26
676.85	1082.26
677.19	1085.87
677.53	1088.70
677.87	1085.56
678.21	1083.29
678.55	1081.73
678.89	1082.50
679.23	1079.53
679.57	1081.14
679.90	1084.70
680.24	1084.63
680.58	1085.07
680.92	1082.19
681.26	1079.41
681.60	1079.10
681.94	1077.91
682.28	1077.11
682.62	1079.10
682.96	1079.31
683.29	1075.87
683.63	1077.72
683.97	1074.96
684.31	1073.04
684.65	1076.25
684.99	1080.56
685.33	1083.69
685.67	1087.83
686.00	1089.68
686.34	1085.91
686.68	1084.02
687.02	1081.33
687.36	1080.37
687.70	1082.64
688.03	1084.79
688.37	1085.19
688.71	1085.21
689.05	1085.28
689.39	1081.91
689.72	1084.04
690.06	1081.28
690.40	1082.24
690.74	1082.03
691.08	1084.58
691.41	1079.62
691.75	1082.40
692.09	1081.56
692.43	1080.70
692.76	1078.71
693.10	1079.90
693.44	1080.58
693.78	1079.78
694.11	1080.06
694.45	1080.77
694.79	1080.74
695.13	1081.68
695.46	1079.83
695.80	1076.72
696.14	1079.76
696.48	1080.88
696.81	1080.04
697.15	1080.56
697.49	1081.94
697.82	1077.30
698.16	1073.74
698.50	1070.70
698.83	1073.56
699.17	1075.08
699.51	1076.08
699.84	1080.04
700.18	1081.14
700.52	1080.84
700.85	1079.46
701.19	1081.09
701.53	1082.05
701.86	1080.98
702.20	1081.07
702.54	1080.72
702.87	1080.30
703.21	1080.32
703.55	1084.02
703.88	1081.96
704.22	1085.19
704.55	1085.17
704.89	1082.43
705.23	1081.05
705.56	1079.17
705.90	1078.21
706.23	1078.47
706.57	1079.74
706.91	1079.76
707.24	1084.14
707.58	1083.27
707.91	1082.31
708.25	1083.13
708.58	1084.49
708.92	1081.47
709.26	1082.64
709.59	1082.52
709.93	1081.28
710.26	1079.74
710.60	1079.29
710.93	1078.24
711.27	1079.71
711.60	1079.95
711.94	1080.81
712.27	1082.31
712.61	1078.47
712.94	1079.20
713.28	1078.68
713.61	1076.65
713.95	1077.00
714.28	1080.86
714.62	1080.58
714.95	1081.54
715.29	1082.12
715.62	1083.50
715.96	1083.04
716.29	1081.12
716.63	1081.00
716.96	1083.69
717.29	1083.41
717.63	1083.86
717.96	1084.16
718.30	1085.89
718.63	1080.06
718.97	1078.00
719.30	1077.00
719.63	1075.27
719.97	1074.05
720.30	1075.66
720.64	1079.88
720.97	1079.50
721.30	1081.58
721.64	1079.48
721.97	1081.82
722.31	1077.63
722.64	1078.96
722.97	1076.30
723.31	1079.92
723.64	1079.92
723.97	1080.70
724.31	1081.75
724.64	1086.10
724.98	1083.18
725.31	1081.30
725.64	1079.34
725.98	1078.19
726.31	1075.36
726.64	1076.30
726.97	1079.36
727.31	1081.70
727.64	1079.46
727.97	1079.27
728.31	1077.93
728.64	1075.83
728.97	1075.62
729.31	1080.06
729.64	1079.97
729.97	1083.55
730.30	1084.51
730.64	1084.00
730.97	1081.28
731.30	1083.67
731.63	1080.84
731.97	1078.73
732.30	1080.30
732.63	1079.20
732.96	1076.67
733.30	1078.36
733.63	1078.05
733.96	1075.17
734.29	1075.13
734.63	1079.29
734.96	1077.98
735.29	1078.64
735.62	1079.41
735.95	1084.23
736.29	1081.19
736.62	1081.44
736.95	1083.97
737.28	1084.81
737.61	1081.44
737.94	1081.40
738.28	1077.98
738.61	1075.87
738.94	1075.62
739.27	1075.52
739.60	1073.81
739.93	1076.20
740.27	1073.16
740.60	1073.04
740.93	1072.83
741.26	1074.49
741.59	1073.46
741.92	1078.12
742.25	1080.74
742.58	1085.07
742.91	1087.23
743.25	1089.82
743.58	1088.98
743.91	1088.93
744.24	1087.02
744.57	1084.74
744.90	1084.30
745.23	1082.36
745.56	1080.56
745.89	1080.41
746.22	1079.43
746.55	1078.94
746.88	1080.44
747.21	1079.08
747.54	1075.80
747.87	1076.27
748.20	1077.44
748.53	1076.23
748.87	1074.96
749.20	1076.65
749.53	1078.61
749.86	1082.01
750.19	1082.38
750.52	1086.90
750.85	1087.16
751.18	1087.55
751.51	1085.07
751.84	1085.10
752.16	1080.84
752.49	1081.35
752.82	1080.34
753.15	1078.14
753.48	1078.68
753.81	1078.89
754.14	1077.30
754.47	1077.93
754.80	1078.50
755.13	1074.96
755.46	1076.23
755.79	1077.23
756.12	1077.89
756.45	1077.63
756.78	1081.02
757.11	1083.86
757.43	1084.58
757.76	1084.67
758.09	1085.75
758.42	1083.60
758.75	1080.67
759.08	1080.53
759.41	1079.08
759.74	1078.80
760.07	1080.34
760.39	1081.09
760.72	1080.46
761.05	1080.79
761.38	1080.13
761.71	1082.87
762.04	1085.73
762.36	1085.17
762.69	1085.14
763.02	1085.31
763.35	1083.93
763.68	1083.57
764.01	1084.58
764.33	1082.57
764.66	1081.87
764.99	1082.71
765.32	1078.31
765.65	1078.99
765.97	1078.85
766.30	1077.61
766.63	1077.51
766.96	1080.53
767.28	1080.58
767.61	1082.45
767.94	1087.02
768.27	1085.91
768.59	1084.89
768.92	1082.78
769.25	1081.66
769.58	1079.31
769.90	1078.96
770.23	1080.60
770.56	1081.14
770.89	1081.16
771.21	1079.22
771.54	1079.67
771.87	1078.66
772.19	1082.22
772.52	1083.25
772.85	1085.45
773.17	1087.02
773.50	1088.28
773.83	1085.94
774.15	1084.00
774.48	1083.48
774.81	1082.08
775.13	1079.31
775.46	1076.76
775.79	1076.15
776.11	1076.90
776.44	1076.34
776.77	1079.60
777.09	1080.11
777.42	1081.40
777.74	1078.36
778.07	1078.89
778.40	1074.49
778.72	1076.27
779.05	1077.28
779.37	1080.95
779.70	1079.95
780.03	1082.57
780.35	1079.71
780.68	1077.96
781.00	1074.87
781.33	1077.58
781.65	1077.75
781.98	1078.61
782.31	1078.89
782.63	1079.17
782.96	1078.50
783.28	1076.51
783.61	1078.94
783.93	1079.90
784.26	1083.22
784.58	1082.24
784.91	1082.83
785.23	1080.98
785.56	1079.81
785.88	1077.63
786.21	1075.10
786.53	1078.33
786.86	1080.77
787.18	1082.05
787.51	1080.70
787.83	1083.08
788.16	1080.63
788.48	1080.67
788.81	1081.75
789.13	1083.81
789.46	1083.53
789.78	1083.32
790.10	1079.78
790.43	1082.24
790.75	1082.50
791.08	1081.33
791.40	1084.14
791.73	1090.55
792.05	1086.06
792.37	1086.90
792.70	1090.53
793.02	1089.00
793.35	1084.96
793.67	1085.54
793.99	1083.64
794.32	1080.18
794.64	1081.44
794.96	1078.33
795.29	1082.03
795.61	1085.66
795.93	1087.20
796.26	1084.89
796.58	1085.33
796.91	1083.25
797.23	1079.15
797.55	1078.45
797.87	1077.70
798.20	1080.39
798.52	1079.69
798.84	1079.20
799.17	1079.88
799.49	1080.77
799.81	1080.84
800.14	1077.14
800.46	1077.28
800.78	1076.48
801.10	1076.44
801.43	1074.56
801.75	1076.58
802.07	1075.71
802.40	1075.85
802.72	1077.00
803.04	1077.28
803.36	1078.59
803.69	1080.41
804.01	1082.08
804.33	1081.28
804.65	1083.71
804.97	1082.05
805.30	1080.16
805.62	1078.17
805.94	1079.43
806.26	1078.03
806.58	1079.92
806.91	1080.37
807.23	1082.57
807.55	1079.97
807.87	1079.67
808.19	1081.05
808.52	1083.34
808.84	1082.45
809.16	1083.69
809.48	1083.48
809.80	1084.84
810.12	1082.87
810.44	1082.10
810.77	1082.61
811.09	1082.24
811.41	1077.65
811.73	1080.02
812.05	1080.27
812.37	1080.44
812.69	1081.12
813.01	1085.03
813.33	1085.42
813.66	1085.35
813.98	1085.45
814.30	1085.63
814.62	1085.33
814.94	1084.56
815.26	1086.13
815.58	1084.81
815.90	1083.22
816.22	1082.01
816.54	1081.21
816.86	1077.70
817.18	1077.75
817.50	1078.94
817.82	1077.96
818.14	1078.38
818.46	1082.54
818.78	1084.23
819.10	1082.69
819.42	1081.35
819.74	1079.97
820.06	1078.73
820.38	1077.49
820.70	1078.71
821.02	1079.90
821.34	1081.09
821.66	1079.13
821.98	1078.85
822.30	1082.50
822.62	1084.00
822.94	1087.30
823.26	1086.73
823.58	1087.53
823.90	1085.14
824.22	1087.06
824.54	1083.93
824.86	1086.17
825.18	1085.82
825.50	1087.81
825.81	1084.53
826.13	1085.73
826.45	1082.78
826.77	1081.89
827.09	1077.49
827.41	1081.91
827.73	1081.42
828.05	1084.53
828.36	1088.63
828.68	1088.58
829.00	1082.08
829.32	1079.13
829.64	1079.85
829.96	1075.43
830.28	1078.80
830.59	1081.70
830.91	1084.32
831.23	1084.09
831.55	1085.68
831.87	1084.86
832.19	1084.65
832.50	1083.53
832.82	1080.88
833.14	1079.27
833.46	1076.86
833.78	1076.34
834.09	1074.45
834.41	1076.01
834.73	1074.75
835.05	1073.77
835.36	1075.17
835.68	1078.40
836.00	1081.61
836.32	1084.02
836.63	1083.93
836.95	1084.00
837.27	1080.11
837.59	1076.93
837.90	1078.87
838.22	1081.33
838.54	1079.27
838.85	1081.84
839.17	1082.76
839.49	1079.24
839.80	1078.38
840.12	1078.64
840.44	1079.99
840.76	1078.92
841.07	1081.42
841.39	1080.32
841.71	1081.16
842.02	1081.91
842.34	1083.32
842.65	1080.56
842.97	1081.73
843.29	1081.98
843.60	1081.63
843.92	1080.46
844.24	1084.49
844.55	1088.75
844.87	1089.14
845.18	1089.73
845.50	1089.40
845.82	1089.31
846.13	1086.48
846.45	1086.55
846.76	1087.25
847.08	1086.31
847.40	1080.67
847.71	1078.50
848.03	1076.72
848.34	1073.56
848.66	1075.48
848.97	1079.78
849.29	1080.72
849.60	1079.50
849.92	1082.99
850.24	1083.27
850.55	1085.05
850.87	1086.36
851.18	1086.15
851.50	1087.18
851.81	1086.10
852.13	1083.76
852.44	1082.94
852.76	1087.04
853.07	1083.88
853.39	1081.89
853.70	1083.86
854.01	1084.02
854.33	1080.13
854.64	1078.12
854.96	1080.88
855.27	1079.03
855.59	1079.03
855.90	1081.77
856.22	1081.42
856.53	1080.72
856.84	1079.71
857.16	1081.80
857.47	1082.17
857.79	1080.70
858.10	1080.27
858.41	1082.64
858.73	1082.24
859.04	1082.08
859.36	1085.89
859.67	1085.52
859.98	1083.62
860.30	1082.69
860.61	1078.99
860.92	1079.03
861.24	1077.82
861.55	1075.01
861.87	1071.68
862.18	1074.66
862.49	1073.95
862.81	1072.11
863.12	1072.62
863.43	1074.87
863.74	1073.23
864.06	1074.73
864.37	1077.07
864.68	1077.54
865.00	1076.88
865.31	1077.79
865.62	1071.97
865.94	1070.51
866.25	1071.12
866.56	1071.94
866.87	1072.64
867.19	1074.61
867.50	1079.24
867.81	1081.05
868.12	1083.76
868.44	1084.35
868.75	1084.86
869.06	1083.95
869.37	1082.78
869.68	1081.19
870.00	1081.16
870.31	1082.26
870.62	1080.44
870.93	1081.89
871.24	1082.97
871.56	1082.45
871.87	1082.57
872.18	1085.63
872.49	1085.47
872.80	1085.35
873.12	1087.23
873.43	1085.84
873.74	1082.47
874.05	1081.75
874.36	1081.89
874.67	1079.10
874.98	1083.53
875.29	1085.19
875.61	1086.17
875.92	1082.69
876.23	1079.10
876.54	1077.89
876.85	1077.58
877.16	1077.42
877.47	1078.78
877.78	1082.12
878.09	1078.38
878.40	1079.29
878.72	1078.57
879.03	1079.69
879.34	1079.50
879.65	1080.79
879.96	1077.00
880.27	1075.17
880.58	1076.37
880.89	1077.96
881.20	1078.19
881.51	1080.63
881.82	1082.10
882.13	1079.06
882.44	1079.31
882.75	1077.98
883.06	1077.75
883.37	1077.02
883.68	1078.92
883.99	1077.42
884.30	1076.46
884.61	1074.31
884.92	1075.24
885.23	1073.67
885.54	1075.85
885.85	1077.68
886.16	1080.20
886.47	1081.77
886.78	1081.61
887.08	1079.67
887.39	1081.91
887.70	1080.23
888.01	1078.00
888.32	1079.15
888.63	1079.31
888.94	1079.62
889.25	1082.76
889.56	1081.68
889.87	1080.06
890.17	1080.53
890.48	1074.61
890.79	1071.92
891.10	1072.53
891.41	1074.00
891.72	1072.13
892.03	1074.31
892.34	1075.80
892.64	1076.93
892.95	1076.48
893.26	1077.02
893.57	1080.77
893.88	1079.90
894.18	1082.01
894.49	1084.28
894.80	1085.94
895.11	1085.31
895.42	1081.00
895.72	1081.56
896.03	1081.19
896.34	1079.34
896.65	1079.36
896.96	1082.52
897.26	1078.68
897.57	1078.12
897.88	1082.29
898.19	1081.14
898.49	1083.93
898.80	1085.14
899.11	1084.00
899.41	1078.96
899.72	1078.92
900.03	1081.91
900.34	1081.19
900.64	1079.57
900.95	1081.28
901.26	1083.86
901.56	1079.64
901.87	1080.88
902.18	1083.62
902.48	1082.24
902.79	1077.84
903.10	1077.79
903.40	1075.78
903.71	1074.63
904.02	1074.98
904.32	1075.80
904.63	1075.48
904.94	1073.88
905.24	1072.92
905.55	1076.23
905.85	1076.51
906.16	1077.89
906.47	1082.08
906.77	1084.67
907.08	1081.75
907.38	1081.49
907.69	1079.27
908.00	1078.14
908.30	1075.94
908.61	1076.55
908.91	1078.71
909.22	1080.13
909.52	1079.69
909.83	1081.26
910.14	1087.51
910.44	1086.27
910.75	1085.91
911.05	1086.66
911.36	1086.94
911.66	1080.39
911.97	1080.32
912.27	1081.54
912.58	1082.40
912.88	1081.54
913.19	1081.75
913.49	1082.80
913.80	1082.50
914.10	1082.92
914.41	1082.90
914.71	1085.24
915.01	1085.63
915.32	1084.65
915.62	1084.18
915.93	1082.40
916.23	1081.56
916.54	1081.30
916.84	1081.09
917.15	1078.57
917.45	1080.44
917.75	1080.60
918.06	1078.78
918.36	1075.29
918.67	1076.06
918.97	1076.93
919.27	1074.75
919.58	1075.22
919.88	1080.37
920.18	1079.95
920.49	1079.22
920.79	1083.11
921.10	1082.52
921.40	1082.10
921.70	1082.73
922.01	1080.74
922.31	1078.73
922.61	1080.98
922.92	1080.60
923.22	1081.77
923.52	1082.19
923.82	1080.79
924.13	1079.69
924.43	1080.27
924.73	1078.26
925.04	1077.93
925.34	1079.53
925.64	1078.05
925.94	1077.49
926.25	1077.61
926.55	1078.54
926.85	1075.66
927.15	1074.35
927.46	1073.65
927.76	1071.29
928.06	1069.84
928.36	1074.12
928.67	1074.40
928.97	1073.93
929.27	1075.36
929.57	1079.53
929.87	1074.45
930.18	1074.28
930.48	1075.29
930.78	1077.28
931.08	1073.28
931.38	1076.06
931.69	1079.13
931.99	1081.19
932.29	1082.38
932.59	1084.86
932.89	1085.49
933.19	1084.77
933.49	1082.15
933.80	1081.94
934.10	1080.44
934.40	1077.40
934.70	1079.13
935.00	1078.80
935.30	1077.40
935.60	1082.36
935.90	1085.56
936.20	1085.70
936.50	1086.29
936.81	1086.31
937.11	1081.84
937.41	1078.94
937.71	1079.76
938.01	1079.03
938.31	1080.41
938.61	1079.62
938.91	1082.22
939.21	1082.29
939.51	1085.00
939.81	1086.52
940.11	1086.20
940.41	1085.24
940.71	1083.74
941.01	1083.11
941.31	1081.54
941.61	1087.62
941.91	1088.70
942.21	1088.26
942.51	1089.10
942.81	1088.98
943.11	1080.98
943.41	1080.48
943.71	1079.74
944.01	1075.01
944.31	1072.97
944.61	1076.69
944.90	1078.73
945.20	1076.76
945.50	1079.13
945.80	1080.56
946.10	1079.48
946.40	1076.69
946.70	1081.61
947.00	1081.14
947.30	1081.61
947.60	1082.73
947.89	1084.56
948.19	1081.70
948.49	1080.02
948.79	1079.38
949.09	1079.15
949.39	1081.02
949.69	1079.06
949.98	1079.83
950.28	1082.05
950.58	1078.61
950.88	1078.03
951.18	1081.21
951.48	1083.46
951.77	1081.98
952.07	1083.41
952.37	1078.10
952.67	1074.82
952.97	1072.48
953.26	1072.97
953.56	1075.52
953.86	1075.97
954.16	1078.24
954.45	1078.78
954.75	1076.32
955.05	1071.15
955.35	1072.92
955.64	1073.98
955.94	1075.48
956.24	1075.71
956.54	1075.83
956.83	1076.20
957.13	1076.53
957.43	1078.57
957.72	1077.65
958.02	1082.01
958.32	1080.74
958.61	1078.59
958.91	1076.18
959.21	1077.04
959.50	1078.14
959.80	1079.50
960.10	1081.16
960.39	1081.82
960.69	1082.97
960.99	1082.36
961.28	1084.91
961.58	1087.02
961.87	1086.17
962.17	1086.87
962.47	1086.78
962.76	1083.97
963.06	1081.54
963.36	1083.57
963.65	1082.15
963.95	1078.07
964.24	1078.66
964.54	1079.10
964.83	1079.15
965.13	1080.91
965.42	1083.46
965.72	1081.47
966.02	1080.67
966.31	1080.84
966.61	1081.56
966.90	1080.46
967.20	1083.20
967.49	1082.05
967.79	1076.88
968.08	1075.76
968.38	1078.68
968.67	1078.40
968.97	1081.82
969.26	1086.20
969.56	1086.50
969.85	1086.36
970.15	1085.31
970.44	1083.97
970.74	1082.50
971.03	1082.69
971.32	1082.26
971.62	1083.60
971.91	1079.41
972.21	1078.10
972.50	1073.49
972.80	1073.37
973.09	1069.18
973.38	1071.54
973.68	1073.35
973.97	1079.17
974.27	1077.04
974.56	1080.06
974.85	1080.81
975.15	1079.08
975.44	1075.73
975.73	1077.04
976.03	1077.70
976.32	1080.41
976.61	1083.62
976.91	1084.04
977.20	1084.96
977.49	1085.80
977.79	1083.08
978.08	1084.18
978.37	1084.63
978.67	1086.90
978.96	1084.35
979.25	1084.04
979.55	1081.96
979.84	1080.30
980.13	1075.50
980.42	1077.14
980.72	1078.45
981.01	1080.32
981.30	1082.50
981.59	1083.90
981.89	1080.72
982.18	1078.45
982.47	1074.42
982.76	1072.69
983.06	1073.81
983.35	1075.99
983.64	1075.83
983.93	1078.14
984.22	1077.96
984.52	1076.48
984.81	1077.63
985.10	1077.51
985.39	1077.84
985.68	1074.63
985.97	1074.75
986.27	1074.45
986.56	1076.58
986.85	1075.66
987.14	1082.52
987.43	1083.41
987.72	1085.33
988.01	1084.98
988.31	1082.69
988.60	1076.95
988.89	1077.47
989.18	1074.05
989.47	1074.87
989.76	1079.17
990.05	1081.66
990.34	1086.34
990.63	1089.24
990.92	1088.65
991.21	1085.40
991.51	1084.98
991.80	1080.39
992.09	1080.30
992.38	1080.09
992.67	1081.82
992.96	1086.92
993.25	1090.24
993.54	1089.94
993.83	1089.92
994.12	1088.89
994.41	1085.99
994.70	1081.70
994.99	1081.00
995.28	1081.87
995.57	1083.46
995.86	1084.32
996.15	1084.46
996.44	1085.61
996.73	1084.77
997.02	1082.71
997.31	1081.00
997.59	1080.44
997.88	1076.65
998.17	1074.66
998.46	1075.57
998.75	1078.52
999.04	1080.48
999.33	1084.42
999.62	1086.92
999.91	1086.34
1000.20	1084.72
1000.49	1082.92
1000.77	1077.93
1001.06	1077.02
1001.35	1077.00
1001.64	1074.38
1001.93	1074.14
1002.22	1073.44
1002.51	1071.40
1002.79	1075.01
1003.08	1077.89
1003.37	1081.42
1003.66	1083.95
1003.95	1086.55
1004.23	1083.55
1004.52	1081.21
1004.81	1078.68
1005.10	1081.21
1005.39	1081.26
1005.67	1079.57
1005.96	1079.99
1006.25	1082.03
1006.54	1082.69
1006.83	1079.17
1007.11	1081.56
1007.40	1083.34
1007.69	1082.05
1007.97	1078.52
1008.26	1083.13
1008.55	1081.89
1008.84	1083.60
1009.12	1083.83
1009.41	1085.33
1009.70	1083.22
1009.98	1084.89
1010.27	1081.68
1010.56	1079.53
1010.85	1079.83
1011.13	1078.19
1011.42	1077.11
1011.71	1076.34
1011.99	1079.20
1012.28	1077.63
1012.56	1079.69
1012.85	1077.44
1013.14	1076.93
1013.42	1072.60
1013.71	1075.69
1014.00	1076.30
1014.28	1075.29
1014.57	1076.15
1014.85	1078.26
1015.14	1074.84
1015.43	1074.38
1015.71	1078.10
1016.00	1077.54
1016.28	1074.42
1016.57	1075.57
1016.85	1073.23
1017.14	1071.78
1017.43	1073.37
1017.71	1075.34
1018.00	1075.87
1018.28	1078.40
1018.57	1079.99
1018.85	1078.43
1019.14	1080.48
1019.42	1081.37
1019.71	1081.28
1019.99	1078.68
1020.28	1079.38
1020.56	1080.06
1020.85	1078.19
1021.13	1078.10
1021.42	1077.00
1021.70	1077.77
1021.99	1078.03
1022.27	1077.84
1022.55	1087.18
1022.84	1073.14
>>>>>End Processed Spectral Data<<<<<
