SpectraSuite Data File
++++++++++++++++++++++++++++++++++++
Date: Mon Aug 26 10:26:12 PDT 2019
User: corrico
Dark Spectrum Present: No
Reference Spectrum Present: No
Number of Sampled Component Spectra: 1
Spectrometers: USB2+H06089
Integration Time (usec): 10000 (USB2+H06089)
Spectra Averaged: 20 (USB2+H06089)
Boxcar Smoothing: 2 (USB2+H06089)
Correct for Electrical Dark: No (USB2+H06089)
Strobe/Lamp Enabled: No (USB2+H06089)
Correct for Detector Non-linearity: No (USB2+H06089)
Correct for Stray Light: No (USB2+H06089)
Number of Pixels in Processed Spectrum: 2048
>>>>>Begin Processed Spectral Data<<<<<
339.70	1032.64
340.07	1032.64
340.45	998.31
340.82	975.70
341.19	949.27
341.57	927.09
341.94	916.79
342.31	906.75
342.69	902.51
343.06	901.62
343.43	898.48
343.81	901.57
344.18	906.75
344.55	913.58
344.93	916.88
345.30	922.10
345.67	926.01
346.04	932.31
346.42	936.92
346.79	946.72
347.16	954.80
347.54	964.77
347.91	972.54
348.28	983.75
348.65	993.86
349.03	1004.30
349.40	1012.54
349.77	1021.50
350.14	1029.79
350.52	1038.43
350.89	1043.36
351.26	1049.52
351.63	1057.22
352.01	1060.85
352.38	1063.63
352.75	1069.34
353.12	1072.39
353.50	1073.28
353.87	1076.95
354.24	1075.94
354.61	1076.76
354.98	1077.00
355.36	1079.69
355.73	1078.40
356.10	1082.01
356.47	1082.33
356.84	1083.50
357.22	1086.94
357.59	1087.16
357.96	1087.83
358.33	1088.12
358.70	1087.88
359.08	1084.89
359.45	1084.09
359.82	1085.12
360.19	1085.59
360.56	1087.04
360.94	1086.45
361.31	1089.10
361.68	1089.73
362.05	1089.03
362.42	1087.48
362.79	1086.55
363.16	1083.74
363.54	1081.56
363.91	1079.17
364.28	1078.40
364.65	1080.27
365.02	1081.51
365.39	1082.45
365.76	1086.76
366.14	1087.11
366.51	1085.14
366.88	1083.01
367.25	1081.12
367.62	1079.71
367.99	1078.73
368.36	1079.83
368.73	1080.84
369.10	1081.84
369.48	1080.32
369.85	1081.63
370.22	1080.02
370.59	1081.54
370.96	1081.58
371.33	1083.08
371.70	1084.16
372.07	1083.62
372.44	1082.36
372.81	1082.38
373.18	1078.94
373.55	1077.70
373.93	1080.88
374.30	1080.13
374.67	1079.43
375.04	1081.96
375.41	1081.94
375.78	1081.51
376.15	1082.10
376.52	1083.90
376.89	1085.07
377.26	1084.67
377.63	1083.55
378.00	1087.32
378.37	1084.74
378.74	1084.37
379.11	1088.40
379.48	1088.51
379.85	1083.18
380.22	1083.01
380.59	1083.29
380.96	1083.20
381.33	1086.29
381.70	1088.44
382.07	1093.52
382.44	1092.59
382.81	1093.15
383.18	1090.08
383.55	1092.16
383.92	1087.69
384.29	1087.97
384.66	1086.22
385.03	1087.97
385.40	1085.33
385.77	1087.95
386.14	1088.79
386.51	1090.78
386.88	1090.29
387.25	1094.25
387.62	1093.57
387.99	1090.36
388.36	1090.71
388.73	1091.58
389.10	1086.64
389.46	1086.52
389.83	1089.85
390.20	1088.33
390.57	1086.34
390.94	1089.96
391.31	1089.59
391.68	1090.08
392.05	1088.58
392.42	1090.74
392.79	1088.82
393.16	1090.27
393.53	1087.69
393.89	1089.19
394.26	1090.15
394.63	1093.85
395.00	1094.36
395.37	1097.97
395.74	1097.08
396.11	1096.03
396.48	1096.21
396.84	1097.15
397.21	1094.72
397.58	1091.67
397.95	1093.26
398.32	1091.37
398.69	1091.09
399.06	1092.70
399.42	1098.02
399.79	1097.69
400.16	1098.93
400.53	1099.05
400.90	1096.66
401.27	1100.31
401.64	1099.19
402.00	1097.59
402.37	1096.26
402.74	1100.10
403.11	1096.75
403.48	1096.19
403.84	1095.51
404.21	1095.93
404.58	1099.63
404.95	1098.60
405.32	1100.05
405.68	1104.66
406.05	1103.68
406.42	1098.88
406.79	1098.67
407.16	1098.37
407.52	1096.38
407.89	1097.13
408.26	1100.54
408.63	1100.29
408.99	1101.85
409.36	1102.49
409.73	1106.91
410.10	1105.46
410.47	1107.05
410.83	1106.86
411.20	1104.71
411.57	1103.98
411.94	1104.92
412.30	1105.72
412.67	1103.26
413.04	1106.44
413.40	1104.59
413.77	1105.22
414.14	1106.96
414.51	1109.93
414.87	1109.79
415.24	1112.01
415.61	1112.08
415.97	1111.68
416.34	1113.53
416.71	1114.54
417.08	1114.28
417.44	1115.36
417.81	1114.70
418.18	1111.92
418.54	1113.72
418.91	1114.35
419.28	1115.50
419.64	1115.27
420.01	1120.02
420.38	1117.42
420.74	1118.42
421.11	1119.08
421.48	1122.15
421.84	1122.36
422.21	1124.42
422.58	1121.98
422.94	1120.06
423.31	1118.31
423.68	1117.02
424.04	1118.42
424.41	1122.64
424.77	1122.26
425.14	1125.26
425.51	1124.39
425.87	1123.76
426.24	1123.57
426.61	1126.13
426.97	1124.02
427.34	1122.99
427.70	1123.25
428.07	1121.28
428.44	1122.03
428.80	1121.82
429.17	1125.75
429.53	1126.31
429.90	1127.27
430.27	1125.33
430.63	1127.37
431.00	1123.76
431.36	1121.21
431.73	1121.23
432.09	1123.25
432.46	1122.03
432.83	1123.43
433.19	1126.27
433.56	1127.95
433.92	1127.95
434.29	1125.91
434.65	1126.87
435.02	1128.89
435.38	1124.81
435.75	1121.56
436.11	1124.37
436.48	1124.39
436.84	1120.20
437.21	1123.97
437.57	1125.94
437.94	1126.15
438.30	1125.87
438.67	1126.59
439.03	1123.81
439.40	1121.51
439.76	1119.78
440.13	1120.20
440.49	1120.16
440.86	1124.56
441.22	1127.76
441.59	1125.28
441.95	1122.75
442.32	1123.50
442.68	1122.10
443.05	1120.86
443.41	1126.41
443.78	1128.02
444.14	1128.79
444.51	1127.30
444.87	1125.94
445.24	1121.58
445.60	1123.13
445.96	1121.87
446.33	1120.53
446.69	1121.47
447.06	1121.12
447.42	1118.80
447.79	1117.28
448.15	1117.63
448.51	1120.51
448.88	1120.95
449.24	1121.63
449.61	1123.50
449.97	1124.16
450.33	1120.93
450.70	1118.82
451.06	1118.17
451.43	1116.08
451.79	1117.00
452.15	1115.83
452.52	1119.22
452.88	1120.09
453.24	1119.85
453.61	1119.88
453.97	1122.87
454.34	1125.94
454.70	1125.19
455.06	1125.98
455.43	1126.90
455.79	1128.30
456.15	1125.66
456.52	1125.73
456.88	1124.49
457.24	1123.43
457.61	1120.18
457.97	1117.77
458.33	1118.64
458.70	1121.23
459.06	1122.78
459.42	1126.08
459.79	1130.22
460.15	1132.00
460.51	1132.40
460.88	1130.20
461.24	1129.00
461.60	1129.05
461.96	1128.63
462.33	1129.94
462.69	1130.41
463.05	1134.46
463.42	1132.73
463.78	1134.11
464.14	1137.87
464.50	1139.84
464.87	1136.85
465.23	1138.69
465.59	1137.52
465.95	1137.03
466.32	1138.30
466.68	1141.64
467.04	1146.77
467.40	1151.38
467.77	1153.91
468.13	1156.13
468.49	1159.52
468.85	1160.44
469.22	1162.73
469.58	1160.44
469.94	1163.29
470.30	1163.88
470.66	1166.69
471.03	1168.14
471.39	1171.48
471.75	1174.01
472.11	1175.28
472.47	1174.76
472.84	1177.87
473.20	1184.38
473.56	1187.38
473.92	1194.73
474.28	1205.02
474.65	1209.54
475.01	1216.75
475.37	1226.46
475.73	1232.20
476.09	1241.35
476.45	1249.49
476.81	1255.07
477.18	1260.12
477.54	1267.73
477.90	1274.68
478.26	1288.56
478.62	1298.55
478.98	1308.29
479.34	1321.14
479.71	1331.62
480.07	1340.68
480.43	1358.61
480.79	1375.70
481.15	1391.47
481.51	1408.35
481.87	1427.45
482.23	1441.82
482.59	1461.57
482.96	1480.69
483.32	1504.52
483.68	1532.37
484.04	1560.72
484.40	1588.33
484.76	1623.65
485.12	1653.64
485.48	1680.95
485.84	1710.42
486.20	1743.63
486.56	1773.96
486.92	1814.06
487.28	1857.85
487.64	1902.29
488.00	1945.57
488.37	1992.38
488.73	2038.58
489.09	2089.37
489.45	2149.95
489.81	2208.37
490.17	2273.81
490.53	2340.91
490.89	2406.66
491.25	2475.05
491.61	2549.38
491.97	2627.86
492.33	2707.81
492.69	2791.79
493.05	2879.77
493.41	2981.05
493.77	3075.21
494.13	3180.41
494.49	3294.98
494.85	3420.53
495.21	3536.20
495.57	3667.55
495.93	3801.47
496.29	3941.04
496.64	4087.39
497.00	4250.69
497.36	4420.05
497.72	4604.58
498.08	4802.87
498.44	5008.84
498.80	5212.75
499.16	5419.77
499.52	5635.42
499.88	5865.94
500.24	6094.40
500.60	6340.09
500.96	6601.69
501.32	6865.10
501.68	7128.99
502.03	7430.78
502.39	7767.68
502.75	8131.49
503.11	8522.19
503.47	8939.04
503.83	9366.24
504.19	9782.46
504.55	10210.05
504.91	10632.68
505.26	11068.04
505.62	11555.39
505.98	12104.41
506.34	12651.86
506.70	13258.76
507.06	13933.86
507.42	14620.44
507.78	15331.05
508.13	16119.95
508.49	16961.21
508.85	17747.58
509.21	18530.61
509.57	19384.41
509.93	20219.54
510.28	21006.92
510.64	21901.89
511.00	22803.84
511.36	23693.03
511.72	24656.96
512.07	25738.12
512.43	26773.36
512.79	27928.14
513.15	29113.76
513.51	30311.25
513.86	31491.91
514.22	32830.62
514.58	34147.48
514.94	35465.90
515.30	36824.70
515.65	38258.12
516.01	39606.57
516.37	40875.58
516.73	42172.87
517.08	43400.44
517.44	44582.36
517.80	45773.37
518.16	46989.20
518.51	48209.63
518.87	49466.36
519.23	50649.15
519.59	51800.03
519.94	52959.14
520.30	53976.31
520.66	54709.20
521.01	55405.00
521.37	56071.00
521.73	56564.76
522.09	56987.62
522.44	57562.13
522.80	57998.12
523.16	58300.54
523.51	58499.09
523.87	58700.00
524.23	58882.45
524.58	59023.07
524.94	59154.35
525.30	59340.30
525.65	59470.95
526.01	59539.67
526.37	59669.48
526.72	59814.08
527.08	59927.19
527.44	59955.09
527.79	59941.52
528.15	59837.08
528.51	59693.40
528.86	59603.38
529.22	59367.50
529.58	59074.86
529.93	58805.84
530.29	58345.44
530.65	57755.55
531.00	57353.17
531.36	56825.21
531.71	56237.29
532.07	55706.90
532.43	55009.42
532.78	54125.54
533.14	53372.38
533.49	52677.36
533.85	52115.49
534.21	51656.00
534.56	51216.14
534.92	50587.80
535.27	49831.74
535.63	48836.96
535.98	47797.16
536.34	46739.05
536.69	45788.79
537.05	44880.08
537.41	44141.01
537.76	43464.64
538.12	42677.12
538.47	41761.90
538.83	40969.63
539.18	40132.96
539.54	39228.95
539.89	38577.44
540.25	38121.08
540.60	37528.80
540.96	36725.37
541.31	36069.06
541.67	35443.74
542.02	34689.01
542.38	33991.67
542.73	33331.45
543.09	32597.76
543.44	31810.97
543.80	31165.03
544.15	30508.72
544.51	30042.53
544.86	29574.71
545.22	29141.19
545.57	28645.82
545.93	28063.19
546.28	27467.38
546.64	26966.72
546.99	26424.09
547.35	25884.92
547.70	25359.82
548.05	24808.37
548.41	24251.16
548.76	23630.73
549.12	23049.74
549.47	22527.07
549.83	22125.86
550.18	21675.98
550.53	21272.87
550.89	20860.94
551.24	20439.97
551.60	19970.60
551.95	19541.55
552.30	19154.78
552.66	18763.21
553.01	18386.50
553.37	17983.06
553.72	17557.06
554.07	17140.00
554.43	16739.93
554.78	16372.37
555.13	16005.00
555.49	15593.73
555.84	15205.90
556.19	14801.22
556.55	14338.10
556.90	13907.95
557.26	13617.99
557.61	13309.85
557.96	12995.71
558.32	12732.37
558.67	12451.09
559.02	12102.37
559.37	11787.48
559.73	11526.41
560.08	11270.12
560.43	11012.57
560.79	10780.65
561.14	10537.89
561.49	10304.16
561.85	10073.08
562.20	9850.61
562.55	9657.96
562.90	9450.36
563.26	9247.04
563.61	9046.33
563.96	8831.19
564.32	8582.72
564.67	8354.92
565.02	8146.33
565.37	7980.74
565.73	7809.22
566.08	7639.16
566.43	7471.88
566.78	7282.83
567.14	7103.36
567.49	6976.65
567.84	6838.74
568.19	6695.10
568.54	6554.39
568.90	6405.18
569.25	6245.37
569.60	6110.27
569.95	5999.82
570.31	5896.35
570.66	5778.55
571.01	5671.54
571.36	5574.43
571.71	5463.21
572.06	5358.87
572.42	5264.03
572.77	5152.29
573.12	5055.32
573.47	4962.17
573.82	4879.39
574.18	4799.17
574.53	4723.60
574.88	4636.88
575.23	4550.75
575.58	4447.91
575.93	4349.63
576.28	4251.54
576.64	4147.50
576.99	4052.61
577.34	3961.10
577.69	3871.39
578.04	3788.74
578.39	3718.90
578.74	3647.82
579.09	3592.82
579.44	3522.20
579.80	3462.38
580.15	3405.06
580.50	3353.10
580.85	3294.87
581.20	3246.98
581.55	3193.61
581.90	3143.29
582.25	3087.54
582.60	3033.85
582.95	2986.71
583.30	2936.30
583.65	2882.72
584.00	2827.93
584.35	2773.23
584.71	2720.92
585.06	2678.67
585.41	2641.76
585.76	2608.81
586.11	2572.69
586.46	2530.40
586.81	2483.36
587.16	2441.30
587.51	2406.82
587.86	2380.91
588.21	2354.86
588.56	2329.84
588.91	2299.06
589.26	2266.08
589.61	2232.52
589.96	2203.12
590.31	2171.17
590.66	2145.66
591.01	2121.60
591.36	2099.84
591.71	2075.54
592.06	2054.69
592.41	2027.51
592.76	2003.62
593.10	1976.30
593.45	1957.86
593.80	1938.64
594.15	1920.83
594.50	1902.34
594.85	1881.46
595.20	1863.04
595.55	1842.14
595.90	1818.95
596.25	1796.95
596.60	1777.31
596.95	1756.85
597.30	1739.72
597.64	1780.45
597.99	1772.16
598.34	1765.47
598.69	1752.22
599.04	1739.49
599.39	1673.83
599.74	1650.85
600.09	1631.21
600.44	1615.55
600.78	1602.42
601.13	1589.74
601.48	1584.78
601.83	1573.35
602.18	1559.94
602.53	1546.84
602.88	1532.04
603.22	1518.24
603.57	1509.22
603.92	1498.32
604.27	1492.21
604.62	1486.03
604.97	1476.25
605.31	1470.16
605.66	1467.38
606.01	1457.22
606.36	1446.36
606.71	1436.20
607.05	1423.30
607.40	1410.99
607.75	1402.61
608.10	1395.54
608.44	1388.57
608.79	1380.31
609.14	1374.39
609.49	1365.52
609.84	1361.28
610.18	1354.77
610.53	1351.94
610.88	1348.43
611.23	1346.44
611.57	1343.54
611.92	1339.65
612.27	1332.58
612.62	1320.41
612.96	1310.51
613.31	1301.74
613.66	1293.75
614.00	1288.96
614.35	1287.83
614.70	1283.06
615.05	1278.42
615.39	1276.29
615.74	1271.61
616.09	1267.87
616.43	1266.49
616.78	1259.44
617.13	1257.13
617.47	1252.54
617.82	1248.18
618.17	1241.68
618.51	1238.96
618.86	1235.94
619.21	1230.16
619.55	1225.95
619.90	1225.57
620.25	1220.52
620.59	1215.44
620.94	1217.01
621.29	1214.93
621.63	1210.10
621.98	1207.27
622.32	1202.47
622.67	1197.11
623.02	1192.53
623.36	1187.40
623.71	1189.46
624.05	1189.69
624.40	1191.05
624.75	1189.65
625.09	1191.61
625.44	1190.79
625.78	1187.35
626.13	1181.76
626.48	1181.43
626.82	1177.01
627.17	1174.15
627.51	1172.82
627.86	1172.26
628.20	1170.15
628.55	1171.46
628.89	1167.13
629.24	1164.98
629.58	1161.33
629.93	1158.14
630.28	1154.31
630.62	1149.88
630.97	1148.31
631.31	1150.23
631.66	1149.67
632.00	1148.92
632.35	1148.66
632.69	1148.45
633.04	1145.65
633.38	1142.11
633.73	1139.68
634.07	1139.42
634.42	1134.88
634.76	1129.21
635.11	1130.36
635.45	1128.70
635.79	1127.93
636.14	1128.33
636.48	1132.40
636.83	1129.68
637.17	1130.99
637.52	1131.44
637.86	1131.98
638.21	1128.21
638.55	1127.95
638.89	1125.03
639.24	1123.27
639.58	1122.71
639.93	1125.68
640.27	1125.68
640.61	1125.96
640.96	1124.14
641.30	1123.29
641.65	1119.06
641.99	1120.70
642.33	1118.00
642.68	1117.98
643.02	1119.78
643.37	1121.65
643.71	1117.35
644.05	1121.30
644.40	1120.58
644.74	1120.44
645.08	1121.89
645.43	1120.02
645.77	1118.47
646.11	1119.41
646.46	1115.05
646.80	1114.10
647.14	1116.83
647.49	1114.96
647.83	1111.66
648.17	1109.84
648.52	1108.13
648.86	1109.77
649.20	1109.58
649.55	1112.78
649.89	1116.34
650.23	1116.01
650.57	1113.25
650.92	1113.65
651.26	1109.72
651.60	1106.54
651.95	1105.62
652.29	1105.51
652.63	1103.33
652.97	1105.46
653.32	1106.37
653.66	1106.42
654.00	1108.17
654.34	1108.66
654.69	1107.45
655.03	1108.97
655.37	1106.86
655.71	1103.31
656.05	1103.66
656.40	1102.84
656.74	1100.26
657.08	1100.00
657.42	1102.93
657.76	1100.59
658.11	1096.40
658.45	1096.56
658.79	1096.31
659.13	1093.36
659.47	1094.55
659.82	1101.15
660.16	1101.74
660.50	1105.83
660.84	1104.31
661.18	1103.82
661.52	1101.41
661.87	1103.28
662.21	1097.88
662.55	1098.93
662.89	1100.22
663.23	1102.02
663.57	1098.74
663.91	1100.66
664.25	1099.98
664.60	1096.59
664.94	1096.49
665.28	1095.70
665.62	1095.51
665.96	1095.89
666.30	1097.71
666.64	1094.65
666.98	1090.76
667.32	1090.95
667.66	1092.75
668.01	1093.29
668.35	1093.12
668.69	1094.95
669.03	1095.25
669.37	1092.56
669.71	1090.48
670.05	1092.26
670.39	1091.74
670.73	1089.45
671.07	1091.04
671.41	1090.83
671.75	1092.16
672.09	1094.79
672.43	1095.56
672.77	1095.91
673.11	1097.10
673.45	1096.19
673.79	1096.42
674.13	1094.13
674.47	1093.66
674.81	1093.62
675.15	1090.20
675.49	1090.60
675.83	1091.81
676.17	1089.73
676.51	1088.79
676.85	1090.48
677.19	1087.39
677.53	1089.22
677.87	1085.52
678.21	1084.28
678.55	1084.58
678.89	1084.60
679.23	1086.22
679.57	1090.83
679.90	1089.59
680.24	1089.71
680.58	1092.56
680.92	1091.13
681.26	1092.89
681.60	1094.95
681.94	1091.77
682.28	1090.67
682.62	1087.65
682.96	1085.24
683.29	1084.02
683.63	1087.34
683.97	1085.84
684.31	1089.31
684.65	1090.60
684.99	1092.91
685.33	1090.92
685.67	1093.17
686.00	1096.14
686.34	1096.21
686.68	1097.73
687.02	1100.66
687.36	1102.44
687.70	1096.31
688.03	1094.83
688.37	1093.45
688.71	1092.66
689.05	1088.12
689.39	1088.98
689.72	1090.39
690.06	1090.22
690.40	1088.09
690.74	1086.52
691.08	1086.01
691.41	1085.87
691.75	1088.98
692.09	1093.08
692.43	1097.20
692.76	1100.59
693.10	1099.51
693.44	1099.86
693.78	1098.16
694.11	1095.96
694.45	1092.75
694.79	1093.03
695.13	1090.08
695.46	1090.27
695.80	1091.58
696.14	1092.47
696.48	1093.01
696.81	1091.70
697.15	1090.74
697.49	1091.63
697.82	1089.29
698.16	1090.20
698.50	1091.56
698.83	1090.15
699.17	1089.22
699.51	1088.35
699.84	1087.41
700.18	1086.94
700.52	1087.72
700.85	1088.12
701.19	1091.13
701.53	1088.93
701.86	1089.05
702.20	1090.81
702.54	1091.81
702.87	1090.81
703.21	1092.66
703.55	1090.97
703.88	1092.19
704.22	1092.47
704.55	1089.89
704.89	1089.24
705.23	1091.02
705.56	1088.47
705.90	1088.21
706.23	1092.05
706.57	1093.50
706.91	1094.74
707.24	1097.10
707.58	1099.21
707.91	1099.84
708.25	1098.25
708.58	1094.34
708.92	1090.55
709.26	1086.69
709.59	1087.86
709.93	1089.85
710.26	1094.43
710.60	1096.00
710.93	1094.50
711.27	1092.54
711.60	1089.73
711.94	1087.62
712.27	1086.36
712.61	1089.12
712.94	1088.58
713.28	1091.06
713.61	1091.34
713.95	1091.34
714.28	1089.87
714.62	1091.74
714.95	1089.64
715.29	1086.80
715.62	1088.21
715.96	1090.22
716.29	1089.24
716.63	1088.63
716.96	1092.14
717.29	1090.22
717.63	1088.00
717.96	1089.31
718.30	1090.55
718.63	1087.11
718.97	1090.15
719.30	1089.50
719.63	1083.46
719.97	1086.85
720.30	1088.21
720.64	1089.22
720.97	1091.11
721.30	1097.15
721.64	1093.22
721.97	1091.23
722.31	1086.38
722.64	1086.52
722.97	1084.39
723.31	1084.56
723.64	1087.25
723.97	1088.49
724.31	1088.00
724.64	1089.85
724.98	1093.22
725.31	1093.76
725.64	1096.45
725.98	1097.92
726.31	1097.95
726.64	1097.88
726.97	1097.90
727.31	1091.20
727.64	1086.83
727.97	1083.04
728.31	1080.13
728.64	1079.38
728.97	1081.75
729.31	1085.10
729.64	1088.54
729.97	1088.21
730.30	1086.83
730.64	1086.03
730.97	1083.88
731.30	1083.81
731.63	1084.39
731.97	1085.42
732.30	1090.01
732.63	1089.89
732.96	1085.82
733.30	1086.41
733.63	1085.33
733.96	1084.02
734.29	1085.84
734.63	1087.93
734.96	1086.50
735.29	1088.84
735.62	1088.47
735.95	1086.34
736.29	1088.02
736.62	1089.33
736.95	1087.20
737.28	1088.98
737.61	1088.68
737.94	1086.29
738.28	1083.97
738.61	1086.29
738.94	1084.44
739.27	1086.99
739.60	1088.44
739.93	1091.37
740.27	1087.97
740.60	1091.77
740.93	1089.80
741.26	1090.99
741.59	1089.36
741.92	1089.96
742.25	1088.26
742.58	1090.10
742.91	1088.30
743.25	1084.14
743.58	1083.43
743.91	1084.04
744.24	1083.36
744.57	1083.15
744.90	1088.19
745.23	1089.94
745.56	1087.58
745.89	1087.37
746.22	1086.73
746.55	1086.13
746.88	1084.98
747.21	1084.07
747.54	1085.10
747.87	1084.98
748.20	1081.40
748.53	1082.12
748.87	1080.34
749.20	1081.28
749.53	1085.52
749.86	1087.86
750.19	1090.88
750.52	1091.70
750.85	1086.90
751.18	1082.76
751.51	1083.53
751.84	1079.67
752.16	1079.46
752.49	1083.62
752.82	1084.09
753.15	1084.60
753.48	1083.57
753.81	1085.35
754.14	1085.19
754.47	1086.03
754.80	1086.94
755.13	1091.56
755.46	1092.87
755.79	1093.08
756.12	1096.59
756.45	1095.02
756.78	1091.91
757.11	1091.18
757.43	1089.57
757.76	1085.52
758.09	1085.91
758.42	1085.84
758.75	1086.73
759.08	1086.85
759.41	1088.00
759.74	1088.37
760.07	1092.07
760.39	1091.60
760.72	1091.46
761.05	1090.69
761.38	1092.00
761.71	1087.90
762.04	1084.74
762.36	1084.53
762.69	1085.21
763.02	1085.45
763.35	1089.12
763.68	1090.83
764.01	1092.19
764.33	1092.68
764.66	1091.74
764.99	1091.49
765.32	1089.45
765.65	1087.72
765.97	1085.54
766.30	1085.56
766.63	1083.36
766.96	1084.11
767.28	1087.72
767.61	1089.61
767.94	1087.13
768.27	1089.71
768.59	1088.75
768.92	1083.64
769.25	1083.95
769.58	1085.14
769.90	1081.89
770.23	1085.70
770.56	1087.09
770.89	1088.02
771.21	1086.52
771.54	1085.56
771.87	1084.63
772.19	1088.19
772.52	1087.48
772.85	1087.97
773.17	1091.04
773.50	1090.48
773.83	1087.32
774.15	1084.28
774.48	1084.53
774.81	1081.96
775.13	1082.03
775.46	1081.51
775.79	1081.12
776.11	1085.52
776.44	1087.13
776.77	1086.62
777.09	1088.35
777.42	1089.59
777.74	1085.54
778.07	1087.81
778.40	1087.46
778.72	1084.23
779.05	1081.75
779.37	1081.07
779.70	1081.58
780.03	1082.47
780.35	1085.77
780.68	1086.80
781.00	1089.80
781.33	1085.00
781.65	1083.97
781.98	1084.70
782.31	1088.00
782.63	1087.53
782.96	1088.23
783.28	1088.00
783.61	1087.32
783.93	1084.46
784.26	1081.89
784.58	1082.08
784.91	1085.99
785.23	1083.62
785.56	1084.56
785.88	1087.53
786.21	1089.05
786.53	1082.38
786.86	1085.96
787.18	1088.77
787.51	1085.61
787.83	1085.94
788.16	1088.30
788.48	1085.26
788.81	1080.06
789.13	1081.44
789.46	1078.21
789.78	1082.15
790.10	1085.05
790.43	1086.36
790.75	1083.41
791.08	1084.89
791.40	1083.15
791.73	1085.56
792.05	1090.15
792.37	1089.45
792.70	1087.30
793.02	1086.71
793.35	1084.93
793.67	1081.77
793.99	1083.81
794.32	1086.01
794.64	1086.01
794.96	1083.18
795.29	1085.59
795.61	1089.12
795.93	1091.23
796.26	1090.41
796.58	1088.77
796.91	1087.39
797.23	1084.51
797.55	1086.03
797.87	1086.92
798.20	1090.43
798.52	1087.58
798.84	1089.00
799.17	1084.58
799.49	1085.80
799.81	1083.48
800.14	1086.66
800.46	1085.47
800.78	1085.31
801.10	1084.25
801.43	1081.68
801.75	1079.74
802.07	1077.89
802.40	1079.08
802.72	1081.33
803.04	1083.53
803.36	1083.76
803.69	1086.29
804.01	1085.99
804.33	1084.25
804.65	1084.67
804.97	1083.13
805.30	1083.18
805.62	1084.56
805.94	1085.61
806.26	1086.41
806.58	1088.40
806.91	1089.24
807.23	1089.66
807.55	1089.00
807.87	1089.64
808.19	1089.43
808.52	1086.38
808.84	1084.46
809.16	1083.88
809.48	1084.30
809.80	1082.85
810.12	1084.25
810.44	1085.12
810.77	1084.32
811.09	1082.61
811.41	1082.92
811.73	1082.38
812.05	1079.34
812.37	1077.40
812.69	1076.97
813.01	1077.91
813.33	1079.10
813.66	1079.34
813.98	1080.09
814.30	1080.70
814.62	1080.27
814.94	1082.22
815.26	1081.28
815.58	1084.51
815.90	1086.34
816.22	1086.83
816.54	1085.96
816.86	1089.57
817.18	1087.95
817.50	1084.96
817.82	1085.77
818.14	1086.17
818.46	1084.96
818.78	1086.36
819.10	1087.88
819.42	1086.48
819.74	1083.67
820.06	1087.23
820.38	1084.70
820.70	1086.64
821.02	1089.29
821.34	1090.41
821.66	1086.69
821.98	1085.24
822.30	1079.99
822.62	1077.51
822.94	1077.11
823.26	1081.42
823.58	1085.47
823.90	1091.25
824.22	1092.49
824.54	1092.56
824.86	1089.19
825.18	1089.68
825.50	1087.06
825.81	1086.85
826.13	1087.32
826.45	1085.99
826.77	1082.05
827.09	1080.44
827.41	1079.17
827.73	1077.37
828.05	1075.50
828.36	1078.05
828.68	1078.40
829.00	1078.00
829.32	1080.60
829.64	1081.28
829.96	1080.02
830.28	1079.20
830.59	1080.27
830.91	1080.86
831.23	1085.24
831.55	1084.74
831.87	1087.62
832.19	1090.69
832.50	1088.63
832.82	1088.14
833.14	1087.02
833.46	1087.44
833.78	1088.12
834.09	1089.40
834.41	1087.74
834.73	1090.15
835.05	1089.64
835.36	1086.97
835.68	1088.61
836.00	1090.74
836.32	1090.13
836.63	1089.68
836.95	1089.45
837.27	1088.12
837.59	1087.60
837.90	1087.86
838.22	1087.16
838.54	1086.45
838.85	1086.31
839.17	1087.11
839.49	1085.96
839.80	1084.02
840.12	1083.18
840.44	1081.02
840.76	1078.61
841.07	1078.50
841.39	1079.76
841.71	1080.67
842.02	1078.96
842.34	1080.93
842.65	1082.43
842.97	1084.44
843.29	1081.37
843.60	1085.77
843.92	1085.05
844.24	1082.85
844.55	1080.65
844.87	1085.12
845.18	1081.35
845.50	1081.82
845.82	1084.02
846.13	1085.10
846.45	1084.72
846.76	1086.01
847.08	1084.89
847.40	1083.95
847.71	1081.80
848.03	1081.70
848.34	1081.35
848.66	1080.93
848.97	1083.57
849.29	1086.13
849.60	1084.81
849.92	1085.66
850.24	1084.04
850.55	1081.73
850.87	1081.89
851.18	1083.60
851.50	1082.85
851.81	1085.61
852.13	1086.87
852.44	1086.55
852.76	1087.55
853.07	1088.89
853.39	1088.07
853.70	1087.11
854.01	1086.15
854.33	1085.00
854.64	1084.32
854.96	1082.92
855.27	1085.75
855.59	1085.05
855.90	1083.76
856.22	1081.56
856.53	1084.04
856.84	1082.69
857.16	1084.91
857.47	1086.99
857.79	1090.01
858.10	1088.37
858.41	1085.84
858.73	1084.39
859.04	1083.71
859.36	1082.78
859.67	1082.12
859.98	1079.76
860.30	1080.37
860.61	1077.04
860.92	1077.72
861.24	1078.12
861.55	1081.40
861.87	1082.64
862.18	1085.42
862.49	1083.76
862.81	1087.04
863.12	1086.03
863.43	1085.87
863.74	1085.17
864.06	1090.53
864.37	1087.67
864.68	1087.46
865.00	1085.00
865.31	1086.08
865.62	1081.77
865.94	1080.06
866.25	1082.01
866.56	1082.19
866.87	1082.26
867.19	1084.02
867.50	1088.33
867.81	1085.82
868.12	1085.96
868.44	1085.12
868.75	1082.61
869.06	1079.64
869.37	1081.66
869.68	1086.57
870.00	1083.34
870.31	1083.39
870.62	1083.50
870.93	1086.01
871.24	1085.87
871.56	1086.71
871.87	1087.90
872.18	1088.79
872.49	1084.46
872.80	1081.35
873.12	1082.12
873.43	1081.91
873.74	1083.04
874.05	1086.50
874.36	1086.94
874.67	1086.66
874.98	1085.45
875.29	1083.90
875.61	1083.60
875.92	1079.76
876.23	1084.65
876.54	1087.95
876.85	1087.18
877.16	1086.69
877.47	1090.10
877.78	1086.17
878.09	1083.74
878.40	1084.63
878.72	1086.87
879.03	1085.77
879.34	1086.87
879.65	1090.08
879.96	1088.82
880.27	1087.48
880.58	1089.89
880.89	1085.40
881.20	1085.28
881.51	1084.00
881.82	1082.26
882.13	1081.98
882.44	1087.48
882.75	1084.04
883.06	1085.05
883.37	1085.03
883.68	1083.67
883.99	1081.96
884.30	1081.58
884.61	1081.51
884.92	1079.85
885.23	1078.19
885.54	1078.00
885.85	1079.50
886.16	1081.66
886.47	1081.58
886.78	1081.12
887.08	1082.31
887.39	1082.15
887.70	1078.40
888.01	1080.39
888.32	1082.97
888.63	1084.18
888.94	1084.42
889.25	1086.83
889.56	1086.50
889.87	1086.29
890.17	1083.01
890.48	1083.46
890.79	1083.88
891.10	1083.67
891.41	1083.95
891.72	1083.57
892.03	1082.78
892.34	1080.20
892.64	1084.98
892.95	1081.80
893.26	1079.81
893.57	1080.79
893.88	1081.09
894.18	1076.65
894.49	1078.03
894.80	1080.11
895.11	1076.06
895.42	1080.04
895.72	1081.23
896.03	1079.15
896.34	1083.25
896.65	1087.41
896.96	1085.89
897.26	1084.30
897.57	1086.90
897.88	1085.73
898.19	1083.60
898.49	1085.05
898.80	1084.25
899.11	1082.15
899.41	1080.72
899.72	1081.30
900.03	1079.08
900.34	1077.16
900.64	1077.84
900.95	1079.55
901.26	1079.50
901.56	1080.65
901.87	1082.33
902.18	1081.94
902.48	1078.47
902.79	1081.35
903.10	1081.68
903.40	1082.47
903.71	1084.51
904.02	1088.70
904.32	1085.89
904.63	1086.62
904.94	1085.38
905.24	1084.63
905.55	1084.65
905.85	1085.89
906.16	1083.97
906.47	1085.75
906.77	1088.93
907.08	1084.07
907.38	1083.88
907.69	1085.12
908.00	1087.62
908.30	1086.06
908.61	1088.21
908.91	1087.16
909.22	1085.80
909.52	1083.95
909.83	1080.11
910.14	1079.31
910.44	1076.51
910.75	1075.17
911.05	1071.90
911.36	1075.83
911.66	1078.03
911.97	1079.62
912.27	1079.88
912.58	1079.34
912.88	1077.25
913.19	1074.68
913.49	1074.00
913.80	1075.85
914.10	1077.93
914.41	1078.87
914.71	1077.40
915.01	1084.02
915.32	1082.71
915.62	1082.22
915.93	1080.23
916.23	1082.52
916.54	1077.51
916.84	1079.01
917.15	1081.96
917.45	1083.36
917.75	1082.87
918.06	1084.02
918.36	1083.86
918.67	1082.03
918.97	1081.80
919.27	1084.46
919.58	1084.02
919.88	1084.89
920.18	1084.53
920.49	1083.06
920.79	1081.63
921.10	1081.75
921.40	1076.86
921.70	1078.00
922.01	1079.76
922.31	1076.76
922.61	1077.54
922.92	1082.03
923.22	1080.86
923.52	1082.92
923.82	1084.28
924.13	1084.11
924.43	1082.69
924.73	1081.14
925.04	1079.29
925.34	1081.56
925.64	1078.92
925.94	1078.21
926.25	1077.23
926.55	1075.31
926.85	1075.85
927.15	1080.37
927.46	1081.14
927.76	1086.69
928.06	1090.17
928.36	1089.14
928.67	1085.82
928.97	1086.01
929.27	1082.24
929.57	1083.06
929.87	1084.14
930.18	1084.32
930.48	1085.99
930.78	1085.35
931.08	1086.22
931.38	1083.15
931.69	1082.22
931.99	1079.41
932.29	1079.13
932.59	1077.14
932.89	1078.07
933.19	1080.11
933.49	1082.05
933.80	1084.51
934.10	1084.91
934.40	1084.32
934.70	1083.60
935.00	1082.57
935.30	1083.36
935.60	1084.79
935.90	1086.90
936.20	1085.75
936.50	1087.39
936.81	1086.92
937.11	1086.87
937.41	1083.43
937.71	1088.58
938.01	1088.82
938.31	1089.59
938.61	1085.82
938.91	1090.24
939.21	1082.66
939.51	1080.98
939.81	1078.80
940.11	1079.46
940.41	1076.60
940.71	1079.97
941.01	1080.39
941.31	1082.19
941.61	1085.80
941.91	1086.80
942.21	1087.13
942.51	1084.11
942.81	1083.60
943.11	1082.17
943.41	1080.88
943.71	1082.03
944.01	1086.41
944.31	1087.95
944.61	1086.20
944.90	1086.03
945.20	1085.59
945.50	1084.37
945.80	1083.29
946.10	1081.42
946.40	1081.02
946.70	1079.88
947.00	1078.68
947.30	1077.21
947.60	1079.55
947.89	1079.60
948.19	1079.81
948.49	1081.09
948.79	1079.15
949.09	1078.07
949.39	1078.92
949.69	1078.38
949.98	1076.95
950.28	1075.97
950.58	1074.19
950.88	1074.07
951.18	1073.67
951.48	1076.81
951.77	1078.92
952.07	1082.76
952.37	1083.29
952.67	1085.87
952.97	1082.19
953.26	1083.34
953.56	1080.74
953.86	1081.94
954.16	1081.30
954.45	1083.81
954.75	1078.68
955.05	1078.12
955.35	1076.76
955.64	1075.10
955.94	1073.42
956.24	1077.54
956.54	1079.06
956.83	1078.66
957.13	1078.31
957.43	1078.33
957.72	1076.86
958.02	1075.57
958.32	1075.94
958.61	1075.50
958.91	1075.66
959.21	1076.86
959.50	1079.50
959.80	1079.69
960.10	1081.89
960.39	1081.12
960.69	1083.60
960.99	1082.08
961.28	1083.29
961.58	1085.35
961.87	1087.97
962.17	1085.70
962.47	1085.35
962.76	1082.80
963.06	1082.10
963.36	1083.39
963.65	1081.80
963.95	1083.39
964.24	1087.02
964.54	1084.74
964.83	1081.19
965.13	1084.14
965.42	1080.86
965.72	1079.03
966.02	1081.19
966.31	1082.24
966.61	1081.19
966.90	1086.17
967.20	1084.14
967.49	1081.96
967.79	1078.28
968.08	1078.40
968.38	1073.51
968.67	1075.01
968.97	1075.90
969.26	1080.23
969.56	1079.85
969.85	1078.03
970.15	1077.84
970.44	1078.43
970.74	1076.51
971.03	1076.30
971.32	1082.10
971.62	1084.00
971.91	1083.20
972.21	1086.69
972.50	1086.31
972.80	1085.45
973.09	1083.71
973.38	1083.90
973.68	1079.81
973.97	1081.30
974.27	1078.85
974.56	1077.44
974.85	1074.87
975.15	1078.45
975.44	1079.69
975.73	1080.25
976.03	1082.90
976.32	1084.81
976.61	1085.66
976.91	1085.07
977.20	1088.14
977.49	1085.87
977.79	1085.28
978.08	1079.17
978.37	1080.84
978.67	1078.71
978.96	1079.53
979.25	1079.08
979.55	1082.10
979.84	1079.60
980.13	1077.72
980.42	1075.71
980.72	1078.99
981.01	1079.38
981.30	1080.65
981.59	1081.02
981.89	1081.35
982.18	1077.42
982.47	1075.71
982.76	1072.88
983.06	1075.94
983.35	1081.26
983.64	1085.14
983.93	1082.61
984.22	1087.23
984.52	1084.74
984.81	1076.90
985.10	1075.69
985.39	1080.81
985.68	1081.51
985.97	1082.83
986.27	1088.51
986.56	1087.39
986.85	1084.98
987.14	1080.39
987.43	1080.86
987.72	1079.85
988.01	1080.93
988.31	1079.69
988.60	1083.01
988.89	1083.88
989.18	1085.00
989.47	1084.93
989.76	1087.76
990.05	1087.58
990.34	1087.30
990.63	1084.00
990.92	1079.74
991.21	1076.39
991.51	1074.12
991.80	1073.16
992.09	1073.02
992.38	1076.76
992.67	1081.09
992.96	1083.71
993.25	1085.07
993.54	1089.19
993.83	1089.24
994.12	1088.44
994.41	1083.67
994.70	1079.29
994.99	1078.57
995.28	1076.15
995.57	1073.88
995.86	1075.59
996.15	1081.98
996.44	1083.43
996.73	1085.70
997.02	1088.07
997.31	1089.64
997.59	1086.66
997.88	1081.75
998.17	1079.69
998.46	1077.89
998.75	1076.93
999.04	1074.40
999.33	1077.09
999.62	1076.88
999.91	1077.28
1000.20	1077.51
1000.49	1077.07
1000.77	1074.89
1001.06	1078.85
1001.35	1079.76
1001.64	1079.13
1001.93	1081.54
1002.22	1083.13
1002.51	1082.50
1002.79	1083.48
1003.08	1082.10
1003.37	1082.12
1003.66	1082.15
1003.95	1080.93
1004.23	1076.97
1004.52	1079.36
1004.81	1078.71
1005.10	1079.55
1005.39	1078.31
1005.67	1080.27
1005.96	1078.99
1006.25	1079.71
1006.54	1079.60
1006.83	1080.91
1007.11	1080.51
1007.40	1080.09
1007.69	1077.70
1007.97	1078.52
1008.26	1080.16
1008.55	1081.82
1008.84	1080.79
1009.12	1082.01
1009.41	1083.88
1009.70	1081.19
1009.98	1079.60
1010.27	1078.26
1010.56	1077.56
1010.85	1073.91
1011.13	1072.29
1011.42	1073.91
1011.71	1079.53
1011.99	1081.19
1012.28	1080.48
1012.56	1081.89
1012.85	1080.39
1013.14	1077.58
1013.42	1074.40
1013.71	1074.54
1014.00	1075.36
1014.28	1078.00
1014.57	1078.94
1014.85	1083.34
1015.14	1083.15
1015.43	1081.19
1015.71	1079.88
1016.00	1080.65
1016.28	1080.02
1016.57	1080.74
1016.85	1079.60
1017.14	1080.98
1017.43	1079.31
1017.71	1079.85
1018.00	1083.20
1018.28	1086.34
1018.57	1081.89
1018.85	1078.24
1019.14	1077.09
1019.42	1073.93
1019.71	1072.64
1019.99	1071.87
1020.28	1076.08
1020.56	1075.01
1020.85	1075.38
1021.13	1079.50
1021.42	1084.96
1021.70	1085.33
1021.99	1086.29
1022.27	1086.01
1022.55	1082.03
1022.84	1080.39
>>>>>End Processed Spectral Data<<<<<
