SpectraSuite Data File
++++++++++++++++++++++++++++++++++++
Date: Mon Aug 26 10:26:02 PDT 2019
User: corrico
Dark Spectrum Present: No
Reference Spectrum Present: No
Number of Sampled Component Spectra: 1
Spectrometers: USB2+H06089
Integration Time (usec): 10000 (USB2+H06089)
Spectra Averaged: 2 (USB2+H06089)
Boxcar Smoothing: 2 (USB2+H06089)
Correct for Electrical Dark: No (USB2+H06089)
Strobe/Lamp Enabled: No (USB2+H06089)
Correct for Detector Non-linearity: No (USB2+H06089)
Correct for Stray Light: No (USB2+H06089)
Number of Pixels in Processed Spectrum: 2048
>>>>>Begin Processed Spectral Data<<<<<
339.70	1029.84
340.07	1029.84
340.45	990.75
340.82	972.73
341.19	940.43
341.57	918.89
341.94	899.70
342.31	905.55
342.69	895.25
343.06	899.94
343.43	899.70
343.81	908.83
344.18	905.32
344.55	904.62
344.93	912.57
345.30	917.26
345.67	923.34
346.04	931.07
346.42	945.11
346.79	958.92
347.16	965.00
347.54	977.64
347.91	988.88
348.28	999.64
348.65	997.54
349.03	1010.64
349.40	1016.49
349.77	1026.09
350.14	1030.07
350.52	1043.88
350.89	1041.54
351.26	1042.24
351.63	1039.90
352.01	1050.90
352.38	1049.03
352.75	1052.77
353.12	1054.88
353.50	1059.09
353.87	1057.22
354.24	1062.84
354.61	1065.18
354.98	1072.67
355.36	1081.80
355.73	1081.56
356.10	1084.84
356.47	1088.82
356.84	1090.92
357.22	1088.82
357.59	1097.24
357.96	1097.48
358.33	1101.69
358.70	1091.63
359.08	1091.63
359.45	1077.58
359.82	1064.94
360.19	1057.22
360.56	1061.67
360.94	1055.35
361.31	1067.52
361.68	1071.50
362.05	1076.65
362.42	1082.26
362.79	1094.20
363.16	1081.56
363.54	1082.97
363.91	1083.20
364.28	1088.12
364.65	1079.69
365.02	1089.29
365.39	1095.60
365.76	1094.90
366.14	1075.94
366.51	1066.58
366.88	1058.39
367.25	1054.88
367.62	1054.88
367.99	1064.24
368.36	1067.52
368.73	1060.96
369.10	1053.71
369.48	1053.48
369.85	1043.18
370.22	1052.07
370.59	1063.54
370.96	1062.60
371.33	1051.13
371.70	1058.16
372.07	1055.82
372.44	1046.45
372.81	1051.84
373.18	1055.35
373.55	1053.24
373.93	1055.58
374.30	1068.92
374.67	1074.77
375.04	1075.94
375.41	1069.86
375.78	1059.79
376.15	1049.03
376.52	1038.50
376.89	1042.47
377.26	1050.90
377.63	1052.30
378.00	1045.52
378.37	1049.26
378.74	1051.60
379.11	1044.35
379.48	1053.24
379.85	1065.88
380.22	1062.37
380.59	1064.48
380.96	1070.80
381.33	1056.99
381.70	1057.22
382.07	1070.09
382.44	1065.88
382.81	1067.28
383.18	1075.24
383.55	1074.54
383.92	1081.09
384.29	1086.24
384.66	1077.35
385.03	1074.07
385.40	1083.67
385.77	1071.50
386.14	1063.07
386.51	1073.84
386.88	1066.35
387.25	1054.41
387.62	1054.88
387.99	1054.88
388.36	1047.62
388.73	1064.71
389.10	1063.31
389.46	1065.65
389.83	1072.90
390.20	1079.46
390.57	1071.50
390.94	1077.58
391.31	1071.50
391.68	1066.35
392.05	1069.86
392.42	1075.94
392.79	1075.71
393.16	1081.80
393.53	1075.01
393.89	1069.86
394.26	1063.77
394.63	1060.50
395.00	1060.96
395.37	1075.94
395.74	1077.82
396.11	1073.84
396.48	1080.86
396.84	1078.05
397.21	1062.84
397.58	1067.52
397.95	1073.84
398.32	1056.75
398.69	1053.24
399.06	1064.71
399.42	1054.65
399.79	1054.41
400.16	1062.37
400.53	1064.24
400.90	1055.58
401.27	1058.39
401.64	1055.11
402.00	1063.54
402.37	1066.35
402.74	1078.75
403.11	1088.82
403.48	1093.50
403.84	1088.58
404.21	1085.31
404.58	1079.22
404.95	1066.11
405.32	1060.96
405.68	1062.84
406.05	1064.01
406.42	1066.82
406.79	1071.50
407.16	1072.43
407.52	1073.60
407.89	1074.07
408.26	1071.73
408.63	1076.65
408.99	1076.18
409.36	1078.28
409.73	1082.50
410.10	1078.28
410.47	1067.52
410.83	1071.97
411.20	1074.31
411.57	1065.65
411.94	1075.01
412.30	1075.94
412.67	1074.07
413.04	1070.80
413.40	1069.62
413.77	1069.16
414.14	1075.94
414.51	1075.01
414.87	1063.31
415.24	1076.65
415.61	1075.48
415.97	1079.46
416.34	1079.92
416.71	1090.92
417.08	1079.22
417.44	1079.46
417.81	1075.71
418.18	1080.16
418.54	1078.05
418.91	1090.69
419.28	1081.09
419.64	1088.35
420.01	1086.24
420.38	1090.69
420.74	1083.90
421.11	1087.41
421.48	1082.97
421.84	1082.50
422.21	1080.16
422.58	1078.99
422.94	1080.16
423.31	1076.18
423.68	1080.63
424.04	1087.88
424.41	1089.99
424.77	1092.09
425.14	1080.39
425.51	1078.75
425.87	1074.31
426.24	1070.80
426.61	1060.96
426.97	1071.03
427.34	1066.58
427.70	1063.07
428.07	1066.35
428.44	1072.20
428.80	1072.20
429.17	1075.94
429.53	1077.82
429.90	1074.77
430.27	1078.75
430.63	1089.05
431.00	1093.03
431.36	1094.43
431.73	1089.75
432.09	1077.82
432.46	1070.33
432.83	1061.90
433.19	1058.39
433.56	1062.84
433.92	1067.99
434.29	1079.69
434.65	1084.60
435.02	1078.99
435.38	1080.86
435.75	1083.20
436.11	1067.52
436.48	1075.24
436.84	1081.80
437.21	1073.60
437.57	1077.35
437.94	1083.20
438.30	1081.56
438.67	1084.37
439.03	1086.48
439.40	1089.75
439.76	1091.16
440.13	1089.05
440.49	1078.99
440.86	1082.73
441.22	1078.28
441.59	1075.48
441.95	1070.33
442.32	1073.14
442.68	1074.77
443.05	1077.82
443.41	1086.94
443.78	1085.31
444.14	1094.90
444.51	1087.41
444.87	1083.20
445.24	1070.33
445.60	1075.24
445.96	1063.31
446.33	1058.62
446.69	1066.58
447.06	1075.48
447.42	1078.05
447.79	1080.63
448.15	1093.97
448.51	1082.26
448.88	1074.77
449.24	1059.56
449.61	1058.86
449.97	1057.45
450.33	1060.50
450.70	1061.90
451.06	1068.69
451.43	1079.92
451.79	1076.88
452.15	1079.69
452.52	1080.16
452.88	1086.24
453.24	1090.46
453.61	1086.94
453.97	1097.01
454.34	1109.41
454.70	1105.67
455.06	1090.92
455.43	1104.97
455.79	1099.35
456.15	1088.35
456.52	1098.41
456.88	1105.67
457.24	1108.01
457.61	1098.41
457.97	1096.31
458.33	1090.69
458.70	1085.31
459.06	1082.50
459.42	1094.20
459.79	1086.01
460.15	1077.58
460.51	1073.60
460.88	1057.69
461.24	1046.69
461.60	1057.45
461.96	1072.43
462.33	1075.94
462.69	1087.41
463.05	1098.41
463.42	1104.73
463.78	1091.39
464.14	1097.95
464.50	1100.05
464.87	1095.60
465.23	1085.54
465.59	1090.92
465.95	1079.22
466.32	1085.54
466.68	1082.97
467.04	1082.50
467.40	1073.60
467.77	1082.03
468.13	1074.77
468.49	1075.71
468.85	1078.52
469.22	1078.28
469.58	1070.56
469.94	1070.09
470.30	1067.99
470.66	1072.43
471.03	1077.82
471.39	1077.58
471.75	1083.20
472.11	1089.05
472.47	1075.71
472.84	1071.97
473.20	1076.41
473.56	1075.24
473.92	1069.62
474.28	1075.48
474.65	1088.35
475.01	1088.35
475.37	1077.11
475.73	1078.52
476.09	1088.35
476.45	1081.80
476.81	1091.16
477.18	1089.52
477.54	1086.24
477.90	1084.14
478.26	1081.80
478.62	1066.35
478.98	1071.50
479.34	1072.20
479.71	1066.35
480.07	1063.77
480.43	1071.26
480.79	1070.56
481.15	1078.28
481.51	1076.18
481.87	1075.71
482.23	1074.54
482.59	1079.22
482.96	1080.63
483.32	1087.41
483.68	1094.43
484.04	1089.75
484.40	1093.73
484.76	1081.33
485.12	1078.75
485.48	1075.48
485.84	1088.82
486.20	1084.14
486.56	1083.90
486.92	1089.52
487.28	1090.22
487.64	1078.28
488.00	1070.33
488.37	1073.60
488.73	1068.22
489.09	1067.52
489.45	1068.22
489.81	1065.18
490.17	1071.03
490.53	1071.50
490.89	1069.62
491.25	1074.07
491.61	1087.18
491.97	1088.58
492.33	1092.33
492.69	1091.86
493.05	1090.46
493.41	1087.65
493.77	1086.94
494.13	1079.69
494.49	1086.01
494.85	1091.63
495.21	1090.69
495.57	1089.05
495.93	1091.86
496.29	1090.22
496.64	1081.09
497.00	1073.37
497.36	1075.48
497.72	1078.75
498.08	1074.31
498.44	1069.39
498.80	1071.97
499.16	1065.41
499.52	1063.54
499.88	1063.77
500.24	1078.52
500.60	1082.97
500.96	1076.65
501.32	1077.35
501.68	1075.94
502.03	1068.22
502.39	1068.69
502.75	1077.82
503.11	1072.90
503.47	1074.07
503.83	1075.48
504.19	1070.56
504.55	1067.05
504.91	1064.01
505.26	1061.67
505.62	1060.03
505.98	1063.07
506.34	1061.67
506.70	1068.45
507.06	1077.82
507.42	1082.50
507.78	1086.71
508.13	1101.46
508.49	1111.05
508.85	1101.46
509.21	1098.41
509.57	1089.75
509.93	1082.50
510.28	1073.37
510.64	1084.84
511.00	1090.22
511.36	1100.99
511.72	1096.31
512.07	1093.26
512.43	1089.99
512.79	1082.26
513.15	1074.77
513.51	1077.58
513.86	1087.41
514.22	1087.41
514.58	1091.63
514.94	1100.05
515.30	1092.33
515.65	1092.56
516.01	1083.67
516.37	1081.09
516.73	1074.77
517.08	1082.50
517.44	1077.11
517.80	1088.82
518.16	1096.07
518.51	1091.16
518.87	1097.48
519.23	1101.69
519.59	1099.82
519.94	1095.60
520.30	1109.88
520.66	1096.54
521.01	1087.18
521.37	1084.37
521.73	1077.58
522.09	1076.18
522.44	1086.24
522.80	1084.60
523.16	1088.12
523.51	1092.56
523.87	1080.39
524.23	1080.63
524.58	1089.05
524.94	1086.71
525.30	1095.14
525.65	1103.09
526.01	1109.88
526.37	1106.14
526.72	1093.50
527.08	1090.92
527.44	1083.20
527.79	1069.86
528.15	1068.22
528.51	1080.16
528.86	1079.92
529.22	1080.86
529.58	1080.16
529.93	1084.14
530.29	1086.71
530.65	1087.41
531.00	1097.01
531.36	1095.14
531.71	1101.69
532.07	1096.54
532.43	1091.16
532.78	1097.95
533.14	1106.84
533.49	1093.73
533.85	1099.82
534.21	1103.09
534.56	1096.78
534.92	1088.82
535.27	1086.01
535.63	1084.60
535.98	1084.84
536.34	1079.92
536.69	1082.97
537.05	1096.31
537.41	1093.50
537.76	1099.35
538.12	1104.73
538.47	1111.05
538.83	1101.69
539.18	1098.41
539.54	1090.22
539.89	1090.22
540.25	1085.07
540.60	1086.71
540.96	1084.60
541.31	1082.50
541.67	1082.26
542.02	1084.37
542.38	1091.86
542.73	1095.14
543.09	1099.58
543.44	1095.60
543.80	1103.33
544.15	1095.14
544.51	1099.12
544.86	1097.48
545.22	1096.31
545.57	1084.37
545.93	1092.33
546.28	1090.69
546.64	1096.54
546.99	1099.35
547.35	1102.16
547.70	1096.07
548.05	1098.18
548.41	1081.33
548.76	1079.92
549.12	1088.82
549.47	1093.73
549.83	1099.35
550.18	1114.56
550.53	1106.61
550.89	1096.31
551.24	1094.90
551.60	1088.82
551.95	1093.50
552.30	1102.39
552.66	1101.22
553.01	1094.90
553.37	1083.90
553.72	1078.28
554.07	1078.52
554.43	1080.86
554.78	1077.82
555.13	1085.31
555.49	1079.46
555.84	1064.24
556.19	1064.94
556.55	1068.69
556.90	1068.45
557.26	1064.24
557.61	1079.22
557.96	1075.01
558.32	1077.58
558.67	1080.63
559.02	1080.16
559.37	1073.14
559.73	1075.48
560.08	1074.77
560.43	1062.84
560.79	1071.03
561.14	1076.65
561.49	1068.22
561.85	1070.56
562.20	1080.39
562.55	1072.20
562.90	1071.03
563.26	1082.26
563.61	1079.22
563.96	1077.82
564.32	1079.69
564.67	1080.63
565.02	1078.05
565.37	1079.22
565.73	1084.14
566.08	1089.75
566.43	1090.69
566.78	1091.16
567.14	1100.52
567.49	1104.03
567.84	1103.80
568.19	1104.03
568.54	1108.24
568.90	1095.60
569.25	1091.39
569.60	1084.14
569.95	1068.92
570.31	1073.60
570.66	1071.97
571.01	1073.37
571.36	1076.88
571.71	1089.99
572.06	1068.22
572.42	1072.90
572.77	1071.50
573.12	1079.69
573.47	1073.60
573.82	1078.99
574.18	1073.60
574.53	1073.37
574.88	1075.48
575.23	1079.46
575.58	1091.63
575.93	1089.52
576.28	1082.03
576.64	1071.03
576.99	1079.46
577.34	1067.28
577.69	1071.73
578.04	1072.20
578.39	1085.77
578.74	1078.99
579.09	1089.05
579.44	1082.26
579.80	1081.33
580.15	1066.82
580.50	1071.50
580.85	1080.16
581.20	1084.84
581.55	1088.12
581.90	1085.07
582.25	1082.03
582.60	1071.73
582.95	1086.24
583.30	1100.05
583.65	1109.41
584.00	1111.05
584.35	1108.95
584.71	1100.52
585.06	1086.94
585.41	1081.80
585.76	1079.46
586.11	1076.18
586.46	1067.28
586.81	1069.62
587.16	1075.24
587.51	1075.01
587.86	1085.31
588.21	1096.54
588.56	1091.39
588.91	1086.01
589.26	1085.31
589.61	1071.50
589.96	1060.03
590.31	1064.71
590.66	1071.50
591.01	1077.11
591.36	1088.35
591.71	1095.60
592.06	1092.09
592.41	1090.22
592.76	1082.97
593.10	1078.05
593.45	1074.77
593.80	1076.65
594.15	1079.46
594.50	1080.16
594.85	1080.63
595.20	1089.05
595.55	1089.05
595.90	1082.50
596.25	1083.67
596.60	1092.33
596.95	1089.52
597.30	1083.67
597.64	1139.84
597.99	1145.22
598.34	1143.59
598.69	1146.39
599.04	1155.99
599.39	1099.12
599.74	1097.71
600.09	1084.60
600.44	1081.09
600.78	1078.99
601.13	1077.11
601.48	1066.11
601.83	1067.28
602.18	1061.90
602.53	1059.79
602.88	1071.03
603.22	1078.05
603.57	1083.43
603.92	1086.71
604.27	1085.54
604.62	1072.43
604.97	1070.33
605.31	1073.14
605.66	1070.56
606.01	1074.77
606.36	1080.86
606.71	1081.56
607.05	1086.24
607.40	1089.75
607.75	1088.35
608.10	1086.01
608.44	1093.26
608.79	1085.31
609.14	1083.20
609.49	1087.41
609.84	1097.48
610.18	1089.29
610.53	1088.35
610.88	1095.37
611.23	1093.73
611.57	1086.01
611.92	1089.99
612.27	1093.03
612.62	1088.35
612.96	1082.26
613.31	1082.26
613.66	1079.69
614.00	1081.80
614.35	1080.16
614.70	1078.75
615.05	1089.29
615.39	1091.16
615.74	1084.37
616.09	1090.22
616.43	1095.84
616.78	1080.16
617.13	1079.46
617.47	1073.84
617.82	1064.24
618.17	1071.03
618.51	1076.88
618.86	1074.07
619.21	1079.22
619.55	1082.97
619.90	1081.09
620.25	1073.14
620.59	1079.92
620.94	1075.94
621.29	1079.22
621.63	1069.62
621.98	1077.35
622.32	1072.67
622.67	1080.63
623.02	1071.03
623.36	1073.84
623.71	1069.16
624.05	1070.33
624.40	1069.16
624.75	1073.14
625.09	1084.37
625.44	1090.69
625.78	1092.56
626.13	1089.99
626.48	1092.09
626.82	1081.80
627.17	1071.73
627.51	1075.01
627.86	1078.75
628.20	1077.58
628.55	1075.71
628.89	1085.77
629.24	1079.92
629.58	1081.33
629.93	1075.94
630.28	1072.20
630.62	1070.80
630.97	1069.39
631.31	1072.43
631.66	1075.71
632.00	1078.99
632.35	1084.14
632.69	1070.09
633.04	1070.56
633.38	1075.71
633.73	1074.77
634.07	1071.26
634.42	1094.90
634.76	1093.97
635.11	1098.65
635.45	1105.67
635.79	1095.60
636.14	1084.37
636.48	1083.20
636.83	1074.77
637.17	1069.16
637.52	1073.84
637.86	1074.07
638.21	1080.63
638.55	1082.73
638.89	1089.05
639.24	1091.63
639.58	1097.48
639.93	1086.71
640.27	1089.99
640.61	1080.63
640.96	1092.33
641.30	1087.88
641.65	1091.39
641.99	1080.63
642.33	1083.67
642.68	1068.92
643.02	1068.92
643.37	1079.46
643.71	1086.71
644.05	1086.71
644.40	1091.86
644.74	1090.46
645.08	1068.69
645.43	1071.03
645.77	1075.24
646.11	1070.09
646.46	1074.54
646.80	1082.03
647.14	1078.05
647.49	1070.56
647.83	1071.03
648.17	1065.65
648.52	1064.24
648.86	1060.96
649.20	1067.99
649.55	1076.65
649.89	1080.16
650.23	1086.01
650.57	1088.12
650.92	1086.48
651.26	1087.65
651.60	1086.94
651.95	1086.94
652.29	1097.01
652.63	1090.22
652.97	1087.65
653.32	1089.75
653.66	1086.48
654.00	1084.60
654.34	1092.09
654.69	1091.39
655.03	1092.56
655.37	1092.80
655.71	1084.37
656.05	1084.84
656.40	1074.77
656.74	1074.31
657.08	1071.03
657.42	1070.56
657.76	1072.20
658.11	1075.94
658.45	1073.60
658.79	1079.69
659.13	1076.65
659.47	1066.82
659.82	1068.92
660.16	1067.28
660.50	1060.73
660.84	1058.16
661.18	1063.07
661.52	1059.79
661.87	1055.35
662.21	1054.41
662.55	1060.03
662.89	1050.43
663.23	1048.79
663.57	1061.90
663.91	1067.75
664.25	1069.39
664.60	1084.60
664.94	1084.14
665.28	1075.48
665.62	1071.03
665.96	1064.24
666.30	1068.92
666.64	1082.73
666.98	1090.46
667.32	1097.48
667.66	1108.95
668.01	1097.95
668.35	1092.80
668.69	1084.37
669.03	1083.43
669.37	1080.63
669.71	1083.43
670.05	1074.54
670.39	1079.92
670.73	1079.92
671.07	1077.82
671.41	1072.43
671.75	1062.37
672.09	1064.48
672.43	1064.71
672.77	1065.41
673.11	1071.26
673.45	1084.14
673.79	1070.09
674.13	1069.62
674.47	1061.67
674.81	1059.09
675.15	1065.41
675.49	1075.48
675.83	1064.94
676.17	1086.48
676.51	1089.29
676.85	1077.82
677.19	1075.01
677.53	1076.88
677.87	1064.24
678.21	1058.16
678.55	1061.20
678.89	1053.71
679.23	1059.33
679.57	1064.71
679.90	1064.01
680.24	1062.14
680.58	1074.54
680.92	1075.24
681.26	1075.71
681.60	1083.20
681.94	1075.48
682.28	1070.80
682.62	1081.56
682.96	1087.65
683.29	1073.84
683.63	1092.80
683.97	1090.22
684.31	1083.20
684.65	1068.69
684.99	1085.77
685.33	1078.99
685.67	1079.92
686.00	1068.45
686.34	1074.54
686.68	1073.37
687.02	1073.14
687.36	1078.05
687.70	1082.73
688.03	1085.54
688.37	1082.50
688.71	1084.60
689.05	1080.16
689.39	1082.50
689.72	1077.82
690.06	1089.29
690.40	1089.52
690.74	1089.99
691.08	1096.54
691.41	1096.31
691.75	1081.09
692.09	1083.43
692.43	1081.80
692.76	1076.65
693.10	1069.62
693.44	1069.86
693.78	1061.20
694.11	1062.14
694.45	1064.48
694.79	1069.62
695.13	1069.62
695.46	1080.86
695.80	1078.05
696.14	1074.77
696.48	1071.73
696.81	1071.73
697.15	1072.67
697.49	1070.56
697.82	1066.58
698.16	1068.92
698.50	1070.80
698.83	1063.31
699.17	1066.58
699.51	1071.26
699.84	1066.82
700.18	1073.60
700.52	1086.24
700.85	1086.71
701.19	1091.63
701.53	1092.80
701.86	1092.09
702.20	1083.20
702.54	1082.73
702.87	1081.09
703.21	1083.67
703.55	1078.52
703.88	1082.50
704.22	1087.65
704.55	1088.82
704.89	1093.97
705.23	1094.90
705.56	1088.82
705.90	1083.90
706.23	1089.52
706.57	1086.71
706.91	1095.14
707.24	1100.52
707.58	1104.50
707.91	1097.01
708.25	1099.58
708.58	1089.05
708.92	1078.52
709.26	1078.99
709.59	1082.26
709.93	1082.97
710.26	1077.58
710.60	1083.67
710.93	1087.18
711.27	1078.75
711.60	1065.65
711.94	1074.31
712.27	1068.22
712.61	1062.14
712.94	1068.22
713.28	1076.65
713.61	1074.54
713.95	1077.58
714.28	1077.35
714.62	1064.71
714.95	1062.84
715.29	1061.67
715.62	1056.05
715.96	1058.86
716.29	1075.24
716.63	1083.67
716.96	1088.12
717.29	1101.46
717.63	1101.92
717.96	1093.26
718.30	1091.86
718.63	1078.99
718.97	1073.60
719.30	1072.20
719.63	1073.84
719.97	1080.16
720.30	1082.50
720.64	1085.07
720.97	1082.73
721.30	1079.46
721.64	1072.43
721.97	1077.35
722.31	1072.20
722.64	1063.31
722.97	1069.16
723.31	1071.50
723.64	1062.84
723.97	1066.58
724.31	1081.33
724.64	1071.26
724.98	1054.18
725.31	1058.86
725.64	1067.52
725.98	1071.97
726.31	1078.99
726.64	1091.16
726.97	1093.26
727.31	1083.90
727.64	1076.18
727.97	1077.58
728.31	1083.43
728.64	1085.31
728.97	1087.65
729.31	1088.12
729.64	1080.39
729.97	1076.65
730.30	1078.75
730.64	1062.84
730.97	1064.94
731.30	1081.56
731.63	1082.73
731.97	1081.56
732.30	1099.35
732.63	1096.78
732.96	1089.75
733.30	1081.80
733.63	1082.73
733.96	1071.50
734.29	1066.11
734.63	1069.86
734.96	1071.26
735.29	1076.41
735.62	1075.94
735.95	1079.92
736.29	1079.46
736.62	1084.84
736.95	1075.94
737.28	1076.65
737.61	1079.46
737.94	1067.75
738.28	1071.26
738.61	1071.50
738.94	1079.22
739.27	1076.41
739.60	1085.31
739.93	1075.48
740.27	1079.46
740.60	1074.07
740.93	1076.65
741.26	1075.71
741.59	1078.28
741.92	1078.75
742.25	1077.35
742.58	1070.56
742.91	1069.39
743.25	1063.31
743.58	1061.20
743.91	1064.24
744.24	1071.73
744.57	1071.97
744.90	1078.75
745.23	1083.67
745.56	1093.73
745.89	1088.35
746.22	1083.43
746.55	1079.92
746.88	1082.97
747.21	1065.41
747.54	1077.11
747.87	1090.69
748.20	1091.86
748.53	1077.35
748.87	1093.97
749.20	1082.97
749.53	1077.35
749.86	1083.67
750.19	1093.73
750.52	1089.75
750.85	1099.12
751.18	1091.39
751.51	1089.75
751.84	1087.18
752.16	1091.39
752.49	1085.77
752.82	1092.33
753.15	1094.67
753.48	1100.99
753.81	1102.63
754.14	1103.09
754.47	1099.82
754.80	1094.43
755.13	1083.43
755.46	1079.69
755.79	1073.60
756.12	1075.01
756.45	1076.41
756.78	1083.90
757.11	1083.43
757.43	1083.67
757.76	1079.46
758.09	1080.39
758.42	1084.84
758.75	1084.60
759.08	1093.50
759.41	1102.86
759.74	1103.56
760.07	1095.14
760.39	1085.77
760.72	1079.22
761.05	1071.73
761.38	1070.56
761.71	1063.77
762.04	1062.60
762.36	1069.86
762.69	1066.58
763.02	1064.71
763.35	1066.58
763.68	1079.22
764.01	1069.39
764.33	1079.22
764.66	1078.99
764.99	1090.22
765.32	1081.33
765.65	1084.84
765.97	1076.88
766.30	1080.39
766.63	1071.97
766.96	1079.46
767.28	1086.94
767.61	1083.67
767.94	1079.69
768.27	1080.63
768.59	1077.82
768.92	1070.33
769.25	1066.35
769.58	1076.18
769.90	1068.92
770.23	1067.05
770.56	1070.09
770.89	1076.88
771.21	1072.20
771.54	1085.54
771.87	1086.24
772.19	1090.69
772.52	1087.18
772.85	1087.18
773.17	1086.01
773.50	1085.54
773.83	1084.14
774.15	1087.18
774.48	1085.31
774.81	1084.14
775.13	1086.24
775.46	1074.31
775.79	1073.84
776.11	1084.60
776.44	1086.71
776.77	1081.33
777.09	1091.39
777.42	1087.88
777.74	1076.41
778.07	1076.88
778.40	1076.41
778.72	1078.75
779.05	1083.43
779.37	1084.37
779.70	1088.12
780.03	1090.46
780.35	1089.75
780.68	1096.07
781.00	1097.48
781.33	1099.58
781.65	1104.73
781.98	1100.29
782.31	1095.37
782.63	1096.54
782.96	1097.01
783.28	1095.14
783.61	1091.86
783.93	1100.75
784.26	1103.56
784.58	1094.90
784.91	1095.60
785.23	1100.52
785.56	1088.82
785.88	1088.58
786.21	1085.31
786.53	1086.71
786.86	1079.69
787.18	1084.14
787.51	1080.86
787.83	1087.65
788.16	1093.26
788.48	1093.73
788.81	1096.78
789.13	1090.22
789.46	1092.33
789.78	1075.01
790.10	1078.75
790.43	1068.92
790.75	1064.71
791.08	1065.65
791.40	1064.01
791.73	1064.94
792.05	1071.03
792.37	1081.80
792.70	1082.50
793.02	1098.41
793.35	1106.84
793.67	1104.73
793.99	1099.35
794.32	1095.37
794.64	1092.09
794.96	1078.05
795.29	1080.39
795.61	1081.33
795.93	1081.33
796.26	1073.60
796.58	1082.73
796.91	1077.35
797.23	1079.69
797.55	1070.80
797.87	1075.48
798.20	1076.41
798.52	1085.77
798.84	1088.35
799.17	1103.09
799.49	1105.67
799.81	1104.73
800.14	1100.75
800.46	1088.82
800.78	1073.84
801.10	1059.33
801.43	1054.18
801.75	1051.37
802.07	1064.48
802.40	1069.62
802.72	1092.80
803.04	1094.20
803.36	1097.24
803.69	1096.07
804.01	1102.86
804.33	1087.65
804.65	1081.33
804.97	1078.75
805.30	1073.37
805.62	1074.31
805.94	1080.63
806.26	1092.80
806.58	1094.67
806.91	1090.69
807.23	1080.63
807.55	1073.37
807.87	1073.84
808.19	1070.80
808.52	1073.37
808.84	1076.88
809.16	1089.52
809.48	1089.75
809.80	1094.90
810.12	1092.80
810.44	1094.20
810.77	1084.60
811.09	1086.24
811.41	1089.05
811.73	1094.20
812.05	1092.56
812.37	1086.71
812.69	1082.50
813.01	1083.20
813.33	1084.37
813.66	1079.46
813.98	1094.67
814.30	1092.80
814.62	1087.88
814.94	1084.60
815.26	1090.92
815.58	1085.31
815.90	1090.46
816.22	1089.29
816.54	1094.67
816.86	1087.18
817.18	1088.35
817.50	1086.94
817.82	1082.26
818.14	1074.31
818.46	1077.82
818.78	1072.43
819.10	1076.88
819.42	1086.71
819.74	1100.99
820.06	1107.54
820.38	1113.39
820.70	1105.44
821.02	1104.50
821.34	1091.63
821.66	1076.88
821.98	1073.84
822.30	1077.82
822.62	1069.86
822.94	1076.41
823.26	1081.80
823.58	1081.56
823.90	1071.03
824.22	1066.82
824.54	1059.09
824.86	1064.48
825.18	1065.41
825.50	1066.58
825.81	1069.86
826.13	1075.01
826.45	1077.82
826.77	1075.24
827.09	1076.88
827.41	1082.50
827.73	1083.90
828.05	1080.86
828.36	1084.37
828.68	1082.73
829.00	1083.20
829.32	1073.37
829.64	1071.73
829.96	1072.67
830.28	1072.20
830.59	1074.77
830.91	1082.73
831.23	1090.69
831.55	1091.63
831.87	1083.43
832.19	1078.99
832.50	1077.58
832.82	1065.18
833.14	1061.67
833.46	1069.86
833.78	1082.26
834.09	1095.37
834.41	1097.71
834.73	1098.41
835.05	1106.14
835.36	1093.03
835.68	1074.07
836.00	1089.05
836.32	1092.33
836.63	1090.46
836.95	1095.60
837.27	1097.71
837.59	1085.54
837.90	1075.01
838.22	1071.03
838.54	1065.88
838.85	1068.92
839.17	1064.48
839.49	1066.58
839.80	1067.99
840.12	1077.82
840.44	1081.56
840.76	1086.71
841.07	1098.41
841.39	1103.09
841.71	1091.63
842.02	1092.09
842.34	1092.56
842.65	1085.31
842.97	1086.01
843.29	1092.33
843.60	1089.75
843.92	1083.20
844.24	1093.73
844.55	1090.22
844.87	1085.31
845.18	1085.31
845.50	1096.31
845.82	1083.67
846.13	1082.03
846.45	1080.16
846.76	1083.20
847.08	1074.54
847.40	1075.01
847.71	1069.62
848.03	1074.07
848.34	1081.56
848.66	1091.16
848.97	1094.20
849.29	1105.44
849.60	1107.07
849.92	1101.69
850.24	1102.63
850.55	1103.56
850.87	1099.12
851.18	1091.86
851.50	1087.88
851.81	1088.58
852.13	1075.48
852.44	1083.67
852.76	1089.29
853.07	1082.97
853.39	1079.69
853.70	1098.41
854.01	1083.90
854.33	1082.97
854.64	1093.97
854.96	1099.82
855.27	1088.58
855.59	1096.54
855.90	1087.18
856.22	1086.71
856.53	1078.99
856.84	1080.39
857.16	1073.60
857.47	1078.99
857.79	1073.84
858.10	1063.07
858.41	1053.01
858.73	1057.69
859.04	1064.94
859.36	1060.03
859.67	1059.09
859.98	1073.37
860.30	1068.92
860.61	1063.31
860.92	1071.50
861.24	1084.14
861.55	1079.92
861.87	1077.35
862.18	1081.56
862.49	1072.90
862.81	1063.07
863.12	1059.56
863.43	1063.77
863.74	1066.58
864.06	1065.88
864.37	1075.01
864.68	1082.97
865.00	1084.60
865.31	1082.73
865.62	1084.37
865.94	1076.88
866.25	1074.31
866.56	1076.88
866.87	1069.39
867.19	1081.80
867.50	1086.71
867.81	1083.43
868.12	1081.80
868.44	1070.09
868.75	1059.79
869.06	1059.56
869.37	1055.35
869.68	1048.56
870.00	1065.88
870.31	1062.60
870.62	1055.58
870.93	1062.60
871.24	1070.33
871.56	1066.11
871.87	1074.07
872.18	1082.03
872.49	1078.75
872.80	1082.26
873.12	1092.33
873.43	1094.20
873.74	1093.97
874.05	1094.20
874.36	1084.37
874.67	1077.35
874.98	1076.41
875.29	1076.88
875.61	1072.43
875.92	1076.65
876.23	1068.45
876.54	1064.24
876.85	1064.01
877.16	1072.20
877.47	1080.16
877.78	1092.56
878.09	1094.43
878.40	1090.69
878.72	1094.90
879.03	1089.99
879.34	1092.80
879.65	1094.20
879.96	1099.12
880.27	1094.90
880.58	1091.16
880.89	1085.31
881.20	1079.46
881.51	1069.16
881.82	1066.35
882.13	1066.35
882.44	1063.77
882.75	1068.45
883.06	1078.05
883.37	1081.33
883.68	1087.18
883.99	1096.54
884.30	1099.58
884.61	1098.41
884.92	1106.61
885.23	1105.90
885.54	1097.01
885.85	1081.09
886.16	1076.65
886.47	1069.16
886.78	1063.54
887.08	1076.88
887.39	1089.29
887.70	1097.71
888.01	1095.37
888.32	1101.69
888.63	1089.75
888.94	1098.18
889.25	1087.88
889.56	1085.77
889.87	1079.69
890.17	1075.48
890.48	1060.50
890.79	1064.71
891.10	1067.99
891.41	1064.71
891.72	1071.26
892.03	1075.94
892.34	1067.28
892.64	1066.82
892.95	1077.35
893.26	1079.22
893.57	1081.80
893.88	1097.24
894.18	1097.71
894.49	1099.82
894.80	1100.05
895.11	1101.22
895.42	1089.52
895.72	1085.07
896.03	1076.65
896.34	1069.86
896.65	1075.94
896.96	1079.69
897.26	1085.77
897.57	1088.82
897.88	1078.05
898.19	1072.20
898.49	1072.43
898.80	1072.20
899.11	1071.50
899.41	1090.22
899.72	1083.90
900.03	1094.90
900.34	1085.54
900.64	1081.09
900.95	1078.52
901.26	1079.69
901.56	1071.73
901.87	1077.58
902.18	1083.43
902.48	1086.71
902.79	1087.88
903.10	1075.71
903.40	1067.99
903.71	1068.69
904.02	1054.41
904.32	1059.56
904.63	1063.77
904.94	1065.88
905.24	1064.48
905.55	1069.62
905.85	1062.37
906.16	1080.39
906.47	1082.50
906.77	1075.01
907.08	1079.22
907.38	1081.56
907.69	1078.75
908.00	1086.71
908.30	1095.84
908.61	1091.39
908.91	1095.14
909.22	1096.07
909.52	1093.73
909.83	1090.69
910.14	1100.29
910.44	1097.01
910.75	1084.84
911.05	1082.50
911.36	1075.01
911.66	1067.05
911.97	1065.41
912.27	1070.09
912.58	1068.92
912.88	1073.60
913.19	1072.90
913.49	1069.62
913.80	1064.01
914.10	1060.26
914.41	1061.90
914.71	1064.71
915.01	1063.77
915.32	1056.75
915.62	1060.03
915.93	1058.62
916.23	1059.56
916.54	1068.45
916.84	1078.99
917.15	1082.97
917.45	1084.14
917.75	1088.35
918.06	1087.65
918.36	1077.58
918.67	1079.22
918.97	1085.31
919.27	1072.90
919.58	1073.37
919.88	1087.18
920.18	1077.82
920.49	1072.20
920.79	1071.50
921.10	1067.99
921.40	1077.35
921.70	1085.07
922.01	1082.73
922.31	1086.24
922.61	1085.07
922.92	1078.28
923.22	1078.52
923.52	1081.56
923.82	1085.54
924.13	1091.16
924.43	1085.77
924.73	1086.94
925.04	1084.37
925.34	1080.63
925.64	1067.99
925.94	1070.56
926.25	1056.75
926.55	1063.54
926.85	1070.80
927.15	1085.54
927.46	1079.46
927.76	1094.90
928.06	1090.69
928.36	1089.05
928.67	1080.63
928.97	1086.94
929.27	1088.58
929.57	1095.37
929.87	1085.77
930.18	1096.54
930.48	1102.16
930.78	1092.09
931.08	1084.14
931.38	1093.03
931.69	1082.26
931.99	1074.77
932.29	1082.26
932.59	1086.71
932.89	1084.37
933.19	1081.09
933.49	1081.33
933.80	1079.69
934.10	1072.67
934.40	1068.69
934.70	1074.31
935.00	1080.39
935.30	1074.54
935.60	1076.41
935.90	1077.82
936.20	1084.84
936.50	1070.80
936.81	1070.09
937.11	1071.03
937.41	1077.11
937.71	1072.90
938.01	1074.54
938.31	1084.14
938.61	1087.18
938.91	1082.26
939.21	1083.90
939.51	1089.99
939.81	1097.95
940.11	1089.52
940.41	1092.33
940.71	1094.43
941.01	1088.35
941.31	1080.16
941.61	1080.16
941.91	1080.39
942.21	1070.33
942.51	1069.62
942.81	1067.99
943.11	1076.65
943.41	1080.86
943.71	1074.54
944.01	1084.37
944.31	1081.80
944.61	1087.65
944.90	1080.86
945.20	1095.84
945.50	1092.80
945.80	1102.16
946.10	1092.33
946.40	1097.48
946.70	1091.63
947.00	1092.80
947.30	1077.11
947.60	1067.05
947.89	1057.45
948.19	1059.09
948.49	1060.50
948.79	1071.26
949.09	1086.71
949.39	1091.63
949.69	1088.35
949.98	1091.39
950.28	1083.43
950.58	1068.45
950.88	1069.86
951.18	1066.11
951.48	1062.84
951.77	1064.01
952.07	1073.14
952.37	1074.07
952.67	1080.16
952.97	1068.22
953.26	1066.58
953.56	1078.52
953.86	1082.03
954.16	1084.14
954.45	1081.56
954.75	1086.94
955.05	1079.92
955.35	1079.22
955.64	1079.92
955.94	1101.46
956.24	1098.18
956.54	1094.90
956.83	1089.29
957.13	1083.67
957.43	1069.16
957.72	1065.65
958.02	1064.71
958.32	1064.71
958.61	1060.26
958.91	1069.86
959.21	1078.28
959.50	1083.90
959.80	1086.48
960.10	1100.99
960.39	1097.01
960.69	1086.71
960.99	1081.56
961.28	1084.60
961.58	1078.99
961.87	1072.20
962.17	1073.60
962.47	1069.86
962.76	1064.48
963.06	1064.48
963.36	1059.79
963.65	1063.54
963.95	1069.16
964.24	1068.45
964.54	1064.01
964.83	1074.07
965.13	1070.56
965.42	1065.18
965.72	1075.48
966.02	1083.20
966.31	1079.22
966.61	1082.97
966.90	1082.50
967.20	1073.84
967.49	1059.56
967.79	1055.58
968.08	1057.69
968.38	1065.88
968.67	1066.58
968.97	1080.39
969.26	1086.48
969.56	1083.20
969.85	1081.33
970.15	1086.01
970.44	1086.94
970.74	1093.73
971.03	1099.35
971.32	1096.07
971.62	1089.99
971.91	1078.52
972.21	1066.58
972.50	1060.26
972.80	1062.14
973.09	1059.56
973.38	1062.14
973.68	1071.73
973.97	1073.14
974.27	1076.88
974.56	1076.88
974.85	1078.05
975.15	1074.31
975.44	1076.41
975.73	1074.54
976.03	1073.37
976.32	1083.20
976.61	1087.65
976.91	1089.05
977.20	1088.58
977.49	1094.43
977.79	1082.03
978.08	1078.05
978.37	1083.67
978.67	1087.88
978.96	1094.43
979.25	1089.29
979.55	1092.80
979.84	1082.50
980.13	1070.56
980.42	1065.18
980.72	1075.01
981.01	1068.92
981.30	1071.50
981.59	1079.22
981.89	1079.92
982.18	1080.16
982.47	1079.69
982.76	1088.58
983.06	1087.41
983.35	1077.82
983.64	1076.41
983.93	1077.35
984.22	1066.82
984.52	1056.75
984.81	1065.41
985.10	1066.11
985.39	1074.31
985.68	1074.31
985.97	1076.18
986.27	1071.26
986.56	1087.18
986.85	1085.07
987.14	1083.67
987.43	1092.33
987.72	1091.63
988.01	1081.09
988.31	1077.58
988.60	1082.50
988.89	1083.43
989.18	1085.07
989.47	1082.97
989.76	1078.28
990.05	1079.92
990.34	1089.52
990.63	1086.01
990.92	1081.33
991.21	1087.18
991.51	1083.90
991.80	1072.67
992.09	1082.50
992.38	1087.65
992.67	1079.46
992.96	1091.16
993.25	1089.52
993.54	1087.88
993.83	1087.88
994.12	1098.88
994.41	1089.75
994.70	1096.78
994.99	1091.86
995.28	1086.71
995.57	1078.99
995.86	1070.80
996.15	1061.20
996.44	1063.77
996.73	1056.99
997.02	1067.05
997.31	1077.58
997.59	1086.01
997.88	1086.01
998.17	1100.05
998.46	1091.86
998.75	1090.92
999.04	1089.29
999.33	1090.69
999.62	1087.65
999.91	1095.14
1000.20	1089.99
1000.49	1087.88
1000.77	1090.46
1001.06	1091.63
1001.35	1085.77
1001.64	1091.39
1001.93	1083.20
1002.22	1072.67
1002.51	1070.80
1002.79	1079.69
1003.08	1075.24
1003.37	1081.80
1003.66	1088.12
1003.95	1089.99
1004.23	1080.16
1004.52	1087.18
1004.81	1095.14
1005.10	1090.69
1005.39	1081.09
1005.67	1086.94
1005.96	1087.65
1006.25	1087.18
1006.54	1097.01
1006.83	1100.52
1007.11	1089.05
1007.40	1082.03
1007.69	1080.63
1007.97	1072.90
1008.26	1069.16
1008.55	1071.26
1008.84	1075.24
1009.12	1070.09
1009.41	1076.65
1009.70	1083.43
1009.98	1085.07
1010.27	1074.31
1010.56	1067.28
1010.85	1063.31
1011.13	1066.11
1011.42	1066.35
1011.71	1078.52
1011.99	1075.24
1012.28	1075.71
1012.56	1070.56
1012.85	1075.71
1013.14	1073.37
1013.42	1076.18
1013.71	1083.67
1014.00	1092.80
1014.28	1096.07
1014.57	1103.33
1014.85	1104.73
1015.14	1099.12
1015.43	1096.54
1015.71	1100.29
1016.00	1095.60
1016.28	1111.29
1016.57	1101.69
1016.85	1095.84
1017.14	1080.63
1017.43	1084.37
1017.71	1076.65
1018.00	1093.03
1018.28	1097.48
1018.57	1112.92
1018.85	1102.63
1019.14	1104.03
1019.42	1102.16
1019.71	1099.12
1019.99	1080.39
1020.28	1075.01
1020.56	1065.41
1020.85	1059.33
1021.13	1057.69
1021.42	1071.03
1021.70	1069.62
1021.99	1079.22
1022.27	1076.41
1022.55	1098.88
1022.84	1071.97
>>>>>End Processed Spectral Data<<<<<
