SpectraSuite Data File
++++++++++++++++++++++++++++++++++++
Date: Mon Aug 26 10:26:16 PDT 2019
User: corrico
Dark Spectrum Present: No
Reference Spectrum Present: No
Number of Sampled Component Spectra: 1
Spectrometers: USB2+H06089
Integration Time (usec): 10000 (USB2+H06089)
Spectra Averaged: 20 (USB2+H06089)
Boxcar Smoothing: 2 (USB2+H06089)
Correct for Electrical Dark: No (USB2+H06089)
Strobe/Lamp Enabled: No (USB2+H06089)
Correct for Detector Non-linearity: No (USB2+H06089)
Correct for Stray Light: No (USB2+H06089)
Number of Pixels in Processed Spectrum: 2048
>>>>>Begin Processed Spectral Data<<<<<
339.70	1047.62
340.07	1047.62
340.45	1007.04
340.82	984.05
341.19	960.39
341.57	933.29
341.94	923.90
342.31	916.46
342.69	910.82
343.06	903.87
343.43	902.28
343.81	902.37
344.18	903.03
344.55	905.04
344.93	911.40
345.30	918.36
345.67	925.80
346.04	933.76
346.42	943.28
346.79	952.83
347.16	959.76
347.54	969.89
347.91	980.61
348.28	989.98
348.65	1001.09
349.03	1010.25
349.40	1019.91
349.77	1028.06
350.14	1037.18
350.52	1039.60
350.89	1047.37
351.26	1050.97
351.63	1056.12
352.01	1056.24
352.38	1062.65
352.75	1066.72
353.12	1069.91
353.50	1073.14
353.87	1081.91
354.24	1083.29
354.61	1086.57
354.98	1092.12
355.36	1096.68
355.73	1095.89
356.10	1096.92
356.47	1097.62
356.84	1097.01
357.22	1093.36
357.59	1089.45
357.96	1088.51
358.33	1085.17
358.70	1085.70
359.08	1084.65
359.45	1085.59
359.82	1086.97
360.19	1089.07
360.56	1086.43
360.94	1088.72
361.31	1090.50
361.68	1092.12
362.05	1088.79
362.42	1092.42
362.79	1089.96
363.16	1089.07
363.54	1086.52
363.91	1086.62
364.28	1081.56
364.65	1080.60
365.02	1079.31
365.39	1080.70
365.76	1083.90
366.14	1085.87
366.51	1088.98
366.88	1089.26
367.25	1087.41
367.62	1084.89
367.99	1083.06
368.36	1080.34
368.73	1079.81
369.10	1080.74
369.48	1080.74
369.85	1081.87
370.22	1084.04
370.59	1085.96
370.96	1084.77
371.33	1082.87
371.70	1082.90
372.07	1082.59
372.44	1083.41
372.81	1084.89
373.18	1087.27
373.55	1084.49
373.93	1086.17
374.30	1084.21
374.67	1083.60
375.04	1083.90
375.41	1088.00
375.78	1085.38
376.15	1084.44
376.52	1085.70
376.89	1086.03
377.26	1081.54
377.63	1084.51
378.00	1085.49
378.37	1085.70
378.74	1083.90
379.11	1086.62
379.48	1082.73
379.85	1085.26
380.22	1084.32
380.59	1086.48
380.96	1086.36
381.33	1086.78
381.70	1088.54
382.07	1088.28
382.44	1087.30
382.81	1090.27
383.18	1092.33
383.55	1084.96
383.92	1084.91
384.29	1088.16
384.66	1083.90
385.03	1084.60
385.40	1088.68
385.77	1090.24
386.14	1085.73
386.51	1089.96
386.88	1088.04
387.25	1086.64
387.62	1087.11
387.99	1090.81
388.36	1088.82
388.73	1087.97
389.10	1090.69
389.46	1087.39
389.83	1085.14
390.20	1083.06
390.57	1085.38
390.94	1084.09
391.31	1085.45
391.68	1084.44
392.05	1085.80
392.42	1086.80
392.79	1087.81
393.16	1086.97
393.53	1088.19
393.89	1089.45
394.26	1087.37
394.63	1086.17
395.00	1088.07
395.37	1088.07
395.74	1089.26
396.11	1090.74
396.48	1093.03
396.84	1092.91
397.21	1091.53
397.58	1088.82
397.95	1089.87
398.32	1088.44
398.69	1091.13
399.06	1093.97
399.42	1097.57
399.79	1099.51
400.16	1101.01
400.53	1096.78
400.90	1095.00
401.27	1092.70
401.64	1088.02
402.00	1086.69
402.37	1089.80
402.74	1091.65
403.11	1095.00
403.48	1097.43
403.84	1101.62
404.21	1102.44
404.58	1101.95
404.95	1097.10
405.32	1096.28
405.68	1093.78
406.05	1091.09
406.42	1093.22
406.79	1092.98
407.16	1094.25
407.52	1095.96
407.89	1096.73
408.26	1094.97
408.63	1098.13
408.99	1098.37
409.36	1097.06
409.73	1098.48
410.10	1101.18
410.47	1100.43
410.83	1099.09
411.20	1096.10
411.57	1097.83
411.94	1097.80
412.30	1101.88
412.67	1100.38
413.04	1103.98
413.40	1104.19
413.77	1105.22
414.14	1104.64
414.51	1108.06
414.87	1110.70
415.24	1109.67
415.61	1107.17
415.97	1107.38
416.34	1110.23
416.71	1106.25
417.08	1107.68
417.44	1109.48
417.81	1110.49
418.18	1108.03
418.54	1110.94
418.91	1110.35
419.28	1111.50
419.64	1111.97
420.01	1113.39
420.38	1115.01
420.74	1116.58
421.11	1114.98
421.48	1112.69
421.84	1111.59
422.21	1107.92
422.58	1108.62
422.94	1111.19
423.31	1111.17
423.68	1110.51
424.04	1112.76
424.41	1113.56
424.77	1116.13
425.14	1118.42
425.51	1118.82
425.87	1121.12
426.24	1121.75
426.61	1120.46
426.97	1122.15
427.34	1123.71
427.70	1120.86
428.07	1118.61
428.44	1117.04
428.80	1111.24
429.17	1112.32
429.53	1116.83
429.90	1118.38
430.27	1117.58
430.63	1120.77
431.00	1119.62
431.36	1119.08
431.73	1118.73
432.09	1117.16
432.46	1117.35
432.83	1117.84
433.19	1118.05
433.56	1118.17
433.92	1119.43
434.29	1121.68
434.65	1123.57
435.02	1120.91
435.38	1121.09
435.75	1123.71
436.11	1120.63
436.48	1120.25
436.84	1120.58
437.21	1118.52
437.57	1120.27
437.94	1121.19
438.30	1121.75
438.67	1123.34
439.03	1124.32
439.40	1122.94
439.76	1119.83
440.13	1115.29
440.49	1116.25
440.86	1115.08
441.22	1114.66
441.59	1118.99
441.95	1124.56
442.32	1118.73
442.68	1121.70
443.05	1117.86
443.41	1116.41
443.78	1115.01
444.14	1118.45
444.51	1115.92
444.87	1119.06
445.24	1116.01
445.60	1111.99
445.96	1111.05
446.33	1112.22
446.69	1113.91
447.06	1117.18
447.42	1115.76
447.79	1115.69
448.15	1116.13
448.51	1117.21
448.88	1119.53
449.24	1122.99
449.61	1121.63
449.97	1120.91
450.33	1120.86
450.70	1119.83
451.06	1121.09
451.43	1126.50
451.79	1125.45
452.15	1121.63
452.52	1121.35
452.88	1119.03
453.24	1116.69
453.61	1116.32
453.97	1117.96
454.34	1116.79
454.70	1118.52
455.06	1116.44
455.43	1120.09
455.79	1119.36
456.15	1119.69
456.52	1121.54
456.88	1121.58
457.24	1117.68
457.61	1116.74
457.97	1117.75
458.33	1114.63
458.70	1119.06
459.06	1119.31
459.42	1122.71
459.79	1124.00
460.15	1126.45
460.51	1126.57
460.88	1129.36
461.24	1125.91
461.60	1125.94
461.96	1126.50
462.33	1124.46
462.69	1121.77
463.05	1123.67
463.42	1123.41
463.78	1122.75
464.14	1123.55
464.50	1128.30
464.87	1128.58
465.23	1133.03
465.59	1133.38
465.95	1133.80
466.32	1134.04
466.68	1132.82
467.04	1132.73
467.40	1133.64
467.77	1135.00
468.13	1138.67
468.49	1143.35
468.85	1144.64
469.22	1148.17
469.58	1152.46
469.94	1151.50
470.30	1155.52
470.66	1153.88
471.03	1155.97
471.39	1157.11
471.75	1160.72
472.11	1164.16
472.47	1171.02
472.84	1175.70
473.20	1184.90
473.56	1186.30
473.92	1189.13
474.28	1192.18
474.65	1192.60
475.01	1191.59
475.37	1202.61
475.73	1207.27
476.09	1209.99
476.45	1218.58
476.81	1224.38
477.18	1227.33
477.54	1236.43
477.90	1246.71
478.26	1254.22
478.62	1262.09
478.98	1270.86
479.34	1278.28
479.71	1290.83
480.07	1301.78
480.43	1314.91
480.79	1327.74
481.15	1339.96
481.51	1348.41
481.87	1362.45
482.23	1376.49
482.59	1390.02
482.96	1405.77
483.32	1426.23
483.68	1446.85
484.04	1467.77
484.40	1491.34
484.76	1519.01
485.12	1541.90
485.48	1566.24
485.84	1589.69
486.20	1613.19
486.56	1638.96
486.92	1669.57
487.28	1701.62
487.64	1734.24
488.00	1776.00
488.37	1814.59
488.73	1856.61
489.09	1899.84
489.45	1951.98
489.81	1995.12
490.17	2046.42
490.53	2099.84
490.89	2151.72
491.25	2202.40
491.61	2264.63
491.97	2328.74
492.33	2391.82
492.69	2456.81
493.05	2534.50
493.41	2615.95
493.77	2697.14
494.13	2782.31
494.49	2876.52
494.85	2968.22
495.21	3060.60
495.57	3165.74
495.93	3277.73
496.29	3391.55
496.64	3517.87
497.00	3645.27
497.36	3769.92
497.72	3911.74
498.08	4066.31
498.44	4225.79
498.80	4391.38
499.16	4579.16
499.52	4760.49
499.88	4953.49
500.24	5149.01
500.60	5361.89
500.96	5567.85
501.32	5766.99
501.68	5978.36
502.03	6212.23
502.39	6467.51
502.75	6745.78
503.11	7068.77
503.47	7391.04
503.83	7728.85
504.19	8062.79
504.55	8414.62
504.91	8769.17
505.26	9123.13
505.62	9534.62
505.98	9976.86
506.34	10409.84
506.70	10867.27
507.06	11399.16
507.42	11911.13
507.78	12437.84
508.13	13036.76
508.49	13645.63
508.85	14261.63
509.21	14896.53
509.57	15571.33
509.93	16242.62
510.28	16930.55
510.64	17707.14
511.00	18468.58
511.36	19257.20
511.72	20099.44
512.07	21047.29
512.43	21930.96
512.79	22924.00
513.15	23950.26
513.51	24874.21
513.86	25746.92
514.22	26788.41
514.58	27813.57
514.94	28790.95
515.30	29928.66
515.65	31168.98
516.01	32263.28
516.37	33344.07
516.73	34497.60
517.08	35535.58
517.44	36431.59
517.80	37387.83
518.16	38355.97
518.51	39294.04
518.87	40299.04
519.23	41401.17
519.59	42468.01
519.94	43548.03
520.30	44628.75
520.66	45496.67
521.01	46317.75
521.37	47176.96
521.73	47870.70
522.09	48464.44
522.44	49244.17
522.80	49842.11
523.16	50189.86
523.51	50509.53
523.87	50868.15
524.23	51233.65
524.58	51513.65
524.94	51881.60
525.30	52191.86
525.65	52346.03
526.01	52308.70
526.37	52496.04
526.72	52662.26
527.08	52716.31
527.44	52661.54
527.79	52568.03
528.15	52322.68
528.51	52004.67
528.86	51774.73
529.22	51440.41
529.58	51035.83
529.93	50592.04
530.29	49989.26
530.65	49427.60
531.00	48971.24
531.36	48350.18
531.71	47704.87
532.07	47198.59
532.43	46401.14
532.78	45517.69
533.14	44841.93
533.49	44107.65
533.85	43341.22
534.21	42772.00
534.56	42303.01
534.92	41627.20
535.27	40922.91
535.63	40116.52
535.98	39277.86
536.34	38384.29
536.69	37596.98
537.05	36877.50
537.41	36236.03
537.76	35580.17
538.12	34795.60
538.47	34081.15
538.83	33452.90
539.18	32802.73
539.54	32125.73
539.89	31639.24
540.25	31179.56
540.60	30619.87
540.96	29956.59
541.31	29399.56
541.67	28940.47
542.02	28419.44
542.38	27913.30
542.73	27454.06
543.09	26933.46
543.44	26316.75
543.80	25753.29
544.15	25219.69
544.51	24808.41
544.86	24391.12
545.22	24030.70
545.57	23603.13
545.93	23099.80
546.28	22582.64
546.64	22155.23
546.99	21680.99
547.35	21263.56
547.70	20871.40
548.05	20448.56
548.41	20012.42
548.76	19527.30
549.12	19066.80
549.47	18672.28
549.83	18321.53
550.18	17931.87
550.53	17569.84
550.89	17177.75
551.24	16751.52
551.60	16358.05
551.95	16002.87
552.30	15711.69
552.66	15447.61
553.01	15197.54
553.37	14888.64
553.72	14565.11
554.07	14220.67
554.43	13875.16
554.78	13532.60
555.13	13226.41
555.49	12890.62
555.84	12582.37
556.19	12280.93
556.55	11960.28
556.90	11643.11
557.26	11408.89
557.61	11187.39
557.96	10955.72
558.32	10735.99
558.67	10495.43
559.02	10232.71
559.37	9964.88
559.73	9745.01
560.08	9538.06
560.43	9336.44
560.79	9133.85
561.14	8921.35
561.49	8680.56
561.85	8464.38
562.20	8286.64
562.55	8128.07
562.90	7952.74
563.26	7812.45
563.61	7655.21
563.96	7463.52
564.32	7257.07
564.67	7081.78
565.02	6924.22
565.37	6794.13
565.73	6652.34
566.08	6518.98
566.43	6382.73
566.78	6223.39
567.14	6067.37
567.49	5946.04
567.84	5820.58
568.19	5699.70
568.54	5588.82
568.90	5483.95
569.25	5383.63
569.60	5289.80
569.95	5201.54
570.31	5115.26
570.66	5020.12
571.01	4919.78
571.36	4817.57
571.71	4727.02
572.06	4631.34
572.42	4535.82
572.77	4441.07
573.12	4359.81
573.47	4271.92
573.82	4202.17
574.18	4134.39
574.53	4067.62
574.88	4003.30
575.23	3925.80
575.58	3842.88
575.93	3770.51
576.28	3694.86
576.64	3626.87
576.99	3566.27
577.34	3505.28
577.69	3434.15
578.04	3366.49
578.39	3292.57
578.74	3227.43
579.09	3164.12
579.44	3105.42
579.80	3052.41
580.15	3006.44
580.50	2952.40
580.85	2905.96
581.20	2863.20
581.55	2814.94
581.90	2765.39
582.25	2725.93
582.60	2675.70
582.95	2627.72
583.30	2591.04
583.65	2550.74
584.00	2514.16
584.35	2479.35
584.71	2446.14
585.06	2410.03
585.41	2381.45
585.76	2349.38
586.11	2316.69
586.46	2278.21
586.81	2245.74
587.16	2212.74
587.51	2183.13
587.86	2162.61
588.21	2144.26
588.56	2120.88
588.91	2099.11
589.26	2076.08
589.61	2047.52
589.96	2023.46
590.31	1996.87
590.66	1969.70
591.01	1948.45
591.36	1928.98
591.71	1896.93
592.06	1874.16
592.41	1856.51
592.76	1833.95
593.10	1809.77
593.45	1799.26
593.80	1787.40
594.15	1771.43
594.50	1759.26
594.85	1747.12
595.20	1735.27
595.55	1717.13
595.90	1698.74
596.25	1679.03
596.60	1664.31
596.95	1646.33
597.30	1634.05
597.64	1676.24
597.99	1668.83
598.34	1655.77
598.69	1640.55
599.04	1626.46
599.39	1559.31
599.74	1544.24
600.09	1533.03
600.44	1525.54
600.78	1517.49
601.13	1513.34
601.48	1504.80
601.83	1497.54
602.18	1485.82
602.53	1474.72
602.88	1459.82
603.22	1451.37
603.57	1439.45
603.92	1432.95
604.27	1422.93
604.62	1414.29
604.97	1403.74
605.31	1398.19
605.66	1390.98
606.01	1387.35
606.36	1382.60
606.71	1378.13
607.05	1372.28
607.40	1365.68
607.75	1356.39
608.10	1350.00
608.44	1341.97
608.79	1333.89
609.14	1329.45
609.49	1326.26
609.84	1321.47
610.18	1317.42
610.53	1310.79
610.88	1307.21
611.23	1301.57
611.57	1298.90
611.92	1294.60
612.27	1291.39
612.62	1284.81
612.96	1278.80
613.31	1272.81
613.66	1268.78
614.00	1262.60
614.35	1258.97
614.70	1256.54
615.05	1256.70
615.39	1251.81
615.74	1249.03
616.09	1247.01
616.43	1244.60
616.78	1236.60
617.13	1235.08
617.47	1232.13
617.82	1226.67
618.17	1219.54
618.51	1214.29
618.86	1208.00
619.21	1205.59
619.55	1204.39
619.90	1203.97
620.25	1202.87
620.59	1201.63
620.94	1199.76
621.29	1199.10
621.63	1197.21
621.98	1198.64
622.32	1197.39
622.67	1194.23
623.02	1190.98
623.36	1188.08
623.71	1183.59
624.05	1178.95
624.40	1178.95
624.75	1176.17
625.09	1175.02
625.44	1173.64
625.78	1172.00
626.13	1172.12
626.48	1172.09
626.82	1169.64
627.17	1164.95
627.51	1166.13
627.86	1164.07
628.20	1160.25
628.55	1158.19
628.89	1156.72
629.24	1154.96
629.58	1149.81
629.93	1148.92
630.28	1150.30
630.62	1146.46
630.97	1141.99
631.31	1141.41
631.66	1139.05
632.00	1134.20
632.35	1136.19
632.69	1138.37
633.04	1137.85
633.38	1138.09
633.73	1139.40
634.07	1142.49
634.42	1138.58
634.76	1139.26
635.11	1137.20
635.45	1137.13
635.79	1134.69
636.14	1131.93
636.48	1130.36
636.83	1128.35
637.17	1125.84
637.52	1123.36
637.86	1124.81
638.21	1122.12
638.55	1120.60
638.89	1120.51
639.24	1121.35
639.58	1124.67
639.93	1123.93
640.27	1122.36
640.61	1121.37
640.96	1115.43
641.30	1111.73
641.65	1110.54
641.99	1110.21
642.33	1108.69
642.68	1113.44
643.02	1114.77
643.37	1115.36
643.71	1118.47
644.05	1117.14
644.40	1116.30
644.74	1117.07
645.08	1114.17
645.43	1114.59
645.77	1113.46
646.11	1113.02
646.46	1110.05
646.80	1113.49
647.14	1111.36
647.49	1111.87
647.83	1110.05
648.17	1109.60
648.52	1108.62
648.86	1108.50
649.20	1110.05
649.55	1107.28
649.89	1107.75
650.23	1107.03
650.57	1106.28
650.92	1104.78
651.26	1106.11
651.60	1101.90
651.95	1103.45
652.29	1105.29
652.63	1103.96
652.97	1103.02
653.32	1104.80
653.66	1102.72
654.00	1102.18
654.34	1101.92
654.69	1100.47
655.03	1101.43
655.37	1102.88
655.71	1099.96
656.05	1100.52
656.40	1101.32
656.74	1099.33
657.08	1093.08
657.42	1091.51
657.76	1093.50
658.11	1093.69
658.45	1094.36
658.79	1100.87
659.13	1103.42
659.47	1103.28
659.82	1102.18
660.16	1099.84
660.50	1096.26
660.84	1096.78
661.18	1095.70
661.52	1096.92
661.87	1098.98
662.21	1100.66
662.55	1100.17
662.89	1097.43
663.23	1097.66
663.57	1100.99
663.91	1103.91
664.25	1103.80
664.60	1106.82
664.94	1108.15
665.28	1106.82
665.62	1101.85
665.96	1102.35
666.30	1100.87
666.64	1096.59
666.98	1094.86
667.32	1095.46
667.66	1096.21
668.01	1098.95
668.35	1101.46
668.69	1101.90
669.03	1105.18
669.37	1100.26
669.71	1099.33
670.05	1101.29
670.39	1097.66
670.73	1093.43
671.07	1094.67
671.41	1094.41
671.75	1092.40
672.09	1095.82
672.43	1098.25
672.77	1098.76
673.11	1097.95
673.45	1098.72
673.79	1097.29
674.13	1092.37
674.47	1092.02
674.81	1091.72
675.15	1089.26
675.49	1088.70
675.83	1092.16
676.17	1091.88
676.51	1091.98
676.85	1092.12
677.19	1093.87
677.53	1094.36
677.87	1096.87
678.21	1098.79
678.55	1097.52
678.89	1096.70
679.23	1092.00
679.57	1087.62
679.90	1086.38
680.24	1085.91
680.58	1084.70
680.92	1086.50
681.26	1088.82
681.60	1086.36
681.94	1088.02
682.28	1090.99
682.62	1093.47
682.96	1092.26
683.29	1094.39
683.63	1096.17
683.97	1092.68
684.31	1093.10
684.65	1093.83
684.99	1093.31
685.33	1093.22
685.67	1095.23
686.00	1094.50
686.34	1092.47
686.68	1092.80
687.02	1092.47
687.36	1092.37
687.70	1091.34
688.03	1093.87
688.37	1093.22
688.71	1089.22
689.05	1088.77
689.39	1089.82
689.72	1090.62
690.06	1089.52
690.40	1092.49
690.74	1093.78
691.08	1091.18
691.41	1090.27
691.75	1093.52
692.09	1092.07
692.43	1092.89
692.76	1095.46
693.10	1094.67
693.44	1093.71
693.78	1096.40
694.11	1096.70
694.45	1096.40
694.79	1095.14
695.13	1092.52
695.46	1089.96
695.80	1085.28
696.14	1084.81
696.48	1089.26
696.81	1089.87
697.15	1091.93
697.49	1094.76
697.82	1097.41
698.16	1097.17
698.50	1093.24
698.83	1092.91
699.17	1092.94
699.51	1089.80
699.84	1089.92
700.18	1090.55
700.52	1092.26
700.85	1091.53
701.19	1092.54
701.53	1088.84
701.86	1092.61
702.20	1090.32
702.54	1092.42
702.87	1092.37
703.21	1091.84
703.55	1092.73
703.88	1089.71
704.22	1087.62
704.55	1087.18
704.89	1090.03
705.23	1089.54
705.56	1092.40
705.90	1091.72
706.23	1091.70
706.57	1091.30
706.91	1090.20
707.24	1088.84
707.58	1089.52
707.91	1089.54
708.25	1088.42
708.58	1088.42
708.92	1089.07
709.26	1087.25
709.59	1087.23
709.93	1086.94
710.26	1086.99
710.60	1087.79
710.93	1089.50
711.27	1090.46
711.60	1092.45
711.94	1093.62
712.27	1096.31
712.61	1096.52
712.94	1094.81
713.28	1093.73
713.61	1093.64
713.95	1090.10
714.28	1090.57
714.62	1092.73
714.95	1093.29
715.29	1093.01
715.62	1092.16
715.96	1093.73
716.29	1093.52
716.63	1092.98
716.96	1093.12
717.29	1094.90
717.63	1094.88
717.96	1092.47
718.30	1093.69
718.63	1094.06
718.97	1097.15
719.30	1095.44
719.63	1096.87
719.97	1098.90
720.30	1100.66
720.64	1095.09
720.97	1092.89
721.30	1094.01
721.64	1089.24
721.97	1085.45
722.31	1088.14
722.64	1086.94
722.97	1085.61
723.31	1085.38
723.64	1087.69
723.97	1086.20
724.31	1088.16
724.64	1090.24
724.98	1091.86
725.31	1091.77
725.64	1093.90
725.98	1096.70
726.31	1092.98
726.64	1092.47
726.97	1090.55
727.31	1089.52
727.64	1083.71
727.97	1089.33
728.31	1088.44
728.64	1089.14
728.97	1088.26
729.31	1090.32
729.64	1086.78
729.97	1088.49
730.30	1088.40
730.64	1090.39
730.97	1092.84
731.30	1091.63
731.63	1090.48
731.97	1089.75
732.30	1088.09
732.63	1087.88
732.96	1085.77
733.30	1084.79
733.63	1086.92
733.96	1093.01
734.29	1094.01
734.63	1093.19
734.96	1091.88
735.29	1090.15
735.62	1083.90
735.95	1083.01
736.29	1090.55
736.62	1091.11
736.95	1090.88
737.28	1091.13
737.61	1091.49
737.94	1085.56
738.28	1086.29
738.61	1085.47
738.94	1084.51
739.27	1081.42
739.60	1084.79
739.93	1086.22
740.27	1087.62
740.60	1091.23
740.93	1094.06
741.26	1091.79
741.59	1090.46
741.92	1089.92
742.25	1089.40
742.58	1090.57
742.91	1092.23
743.25	1096.66
743.58	1097.34
743.91	1094.04
744.24	1091.56
744.57	1091.44
744.90	1087.86
745.23	1089.07
745.56	1088.72
745.89	1087.34
746.22	1087.67
746.55	1086.48
746.88	1082.03
747.21	1083.34
747.54	1083.43
747.87	1084.98
748.20	1086.69
748.53	1091.95
748.87	1090.57
749.20	1096.05
749.53	1097.90
749.86	1100.08
750.19	1095.65
750.52	1096.05
750.85	1095.96
751.18	1093.12
751.51	1090.57
751.84	1090.88
752.16	1093.47
752.49	1091.06
752.82	1089.38
753.15	1085.91
753.48	1088.16
753.81	1087.53
754.14	1085.82
754.47	1085.21
754.80	1089.80
755.13	1088.02
755.46	1088.82
755.79	1090.13
756.12	1095.07
756.45	1092.80
756.78	1094.86
757.11	1095.84
757.43	1095.77
757.76	1091.30
758.09	1095.07
758.42	1095.28
758.75	1094.22
759.08	1091.11
759.41	1090.85
759.74	1088.04
760.07	1087.13
760.39	1086.87
760.72	1086.52
761.05	1086.66
761.38	1087.58
761.71	1087.09
762.04	1091.79
762.36	1091.65
762.69	1092.89
763.02	1089.61
763.35	1090.64
763.68	1085.45
764.01	1087.20
764.33	1089.45
764.66	1093.57
764.99	1091.72
765.32	1090.99
765.65	1092.82
765.97	1092.35
766.30	1090.03
766.63	1090.39
766.96	1088.12
767.28	1088.86
767.61	1085.28
767.94	1083.39
768.27	1085.82
768.59	1086.83
768.92	1085.28
769.25	1085.21
769.58	1087.86
769.90	1085.82
770.23	1086.80
770.56	1088.72
770.89	1087.58
771.21	1088.75
771.54	1089.26
771.87	1091.27
772.19	1089.64
772.52	1094.18
772.85	1090.74
773.17	1088.04
773.50	1088.07
773.83	1087.39
774.15	1086.55
774.48	1089.54
774.81	1090.90
775.13	1087.32
775.46	1088.16
775.79	1084.96
776.11	1087.34
776.44	1088.65
776.77	1091.16
777.09	1087.23
777.42	1087.55
777.74	1083.39
778.07	1081.21
778.40	1081.80
778.72	1082.50
779.05	1082.92
779.37	1082.99
779.70	1085.99
780.03	1082.08
780.35	1085.96
780.68	1087.39
781.00	1088.54
781.33	1086.34
781.65	1086.87
781.98	1084.53
782.31	1084.65
782.63	1087.23
782.96	1089.64
783.28	1093.36
783.61	1095.44
783.93	1093.71
784.26	1091.63
784.58	1092.02
784.91	1087.06
785.23	1083.13
785.56	1083.13
785.88	1083.22
786.21	1082.03
786.53	1086.08
786.86	1086.55
787.18	1088.75
787.51	1089.17
787.83	1090.01
788.16	1089.29
788.48	1089.43
788.81	1085.03
789.13	1086.59
789.46	1084.46
789.78	1081.51
790.10	1082.78
790.43	1083.64
790.75	1079.22
791.08	1079.10
791.40	1083.18
791.73	1088.21
792.05	1092.33
792.37	1094.08
792.70	1094.53
793.02	1093.83
793.35	1088.30
793.67	1084.81
793.99	1084.35
794.32	1083.86
794.64	1082.73
794.96	1084.60
795.29	1081.98
795.61	1083.74
795.93	1083.25
796.26	1083.50
796.58	1081.51
796.91	1085.77
797.23	1082.97
797.55	1084.44
797.87	1081.33
798.20	1083.79
798.52	1083.27
798.84	1083.67
799.17	1084.67
799.49	1090.46
799.81	1087.04
800.14	1086.97
800.46	1086.48
800.78	1084.44
801.10	1080.77
801.43	1082.38
801.75	1081.87
802.07	1084.63
802.40	1086.13
802.72	1090.01
803.04	1089.96
803.36	1090.60
803.69	1091.39
804.01	1088.51
804.33	1086.57
804.65	1088.35
804.97	1087.53
805.30	1085.17
805.62	1086.73
805.94	1087.86
806.26	1088.91
806.58	1089.26
806.91	1090.17
807.23	1093.19
807.55	1094.72
807.87	1092.59
808.19	1093.62
808.52	1092.02
808.84	1091.16
809.16	1089.00
809.48	1084.96
809.80	1084.14
810.12	1084.28
810.44	1083.32
810.77	1083.34
811.09	1086.71
811.41	1086.50
811.73	1088.44
812.05	1087.37
812.37	1084.46
812.69	1085.54
813.01	1085.33
813.33	1082.87
813.66	1084.53
813.98	1084.79
814.30	1084.46
814.62	1081.96
814.94	1083.41
815.26	1082.50
815.58	1083.50
815.90	1082.01
816.22	1083.15
816.54	1083.76
816.86	1084.46
817.18	1085.45
817.50	1088.75
817.82	1090.13
818.14	1089.99
818.46	1089.33
818.78	1087.18
819.10	1085.52
819.42	1083.01
819.74	1079.64
820.06	1081.05
820.38	1083.20
820.70	1081.19
821.02	1083.20
821.34	1083.76
821.66	1083.22
821.98	1082.83
822.30	1083.64
822.62	1085.73
822.94	1089.47
823.26	1089.31
823.58	1090.36
823.90	1089.80
824.22	1089.87
824.54	1087.97
824.86	1088.37
825.18	1087.83
825.50	1089.10
825.81	1088.42
826.13	1090.81
826.45	1092.30
826.77	1095.49
827.09	1096.21
827.41	1097.59
827.73	1098.04
828.05	1094.90
828.36	1092.73
828.68	1092.59
829.00	1089.82
829.32	1088.84
829.64	1088.68
829.96	1087.58
830.28	1088.35
830.59	1088.30
830.91	1087.34
831.23	1087.25
831.55	1084.25
831.87	1080.18
832.19	1082.43
832.50	1080.77
832.82	1083.97
833.14	1085.42
833.46	1089.94
833.78	1087.65
834.09	1087.34
834.41	1085.03
834.73	1086.73
835.05	1081.96
835.36	1084.11
835.68	1084.18
836.00	1084.86
836.32	1085.12
836.63	1087.79
836.95	1086.48
837.27	1088.04
837.59	1089.24
837.90	1089.96
838.22	1089.92
838.54	1090.29
838.85	1090.27
839.17	1085.17
839.49	1084.70
839.80	1083.88
840.12	1084.49
840.44	1083.46
840.76	1083.93
841.07	1080.25
841.39	1077.49
841.71	1078.96
842.02	1079.57
842.34	1083.95
842.65	1087.76
842.97	1090.34
843.29	1087.04
843.60	1084.28
843.92	1083.93
844.24	1082.92
844.55	1082.71
844.87	1083.90
845.18	1089.05
845.50	1087.34
845.82	1084.60
846.13	1089.43
846.45	1090.55
846.76	1091.27
847.08	1090.97
847.40	1094.48
847.71	1091.65
848.03	1091.18
848.34	1086.45
848.66	1086.62
848.97	1087.72
849.29	1089.82
849.60	1087.90
849.92	1089.24
850.24	1089.94
850.55	1088.00
850.87	1086.59
851.18	1088.23
851.50	1086.76
851.81	1087.90
852.13	1088.00
852.44	1085.77
852.76	1086.17
853.07	1088.33
853.39	1085.19
853.70	1087.34
854.01	1088.54
854.33	1088.56
854.64	1087.93
854.96	1086.24
855.27	1084.72
855.59	1083.27
855.90	1081.44
856.22	1081.00
856.53	1085.14
856.84	1084.51
857.16	1082.36
857.47	1084.42
857.79	1085.14
858.10	1082.78
858.41	1082.05
858.73	1085.70
859.04	1087.32
859.36	1087.20
859.67	1088.37
859.98	1090.08
860.30	1088.58
860.61	1086.80
860.92	1084.53
861.24	1086.29
861.55	1083.46
861.87	1085.54
862.18	1084.25
862.49	1087.83
862.81	1085.00
863.12	1087.48
863.43	1083.15
863.74	1083.67
864.06	1082.59
864.37	1083.50
864.68	1080.53
865.00	1084.25
865.31	1082.17
865.62	1081.42
865.94	1078.28
866.25	1081.12
866.56	1081.51
866.87	1085.12
867.19	1084.04
867.50	1085.54
867.81	1086.34
868.12	1084.42
868.44	1083.53
868.75	1084.93
869.06	1087.34
869.37	1088.63
869.68	1090.13
870.00	1088.35
870.31	1089.26
870.62	1089.33
870.93	1083.39
871.24	1083.50
871.56	1083.81
871.87	1080.53
872.18	1078.24
872.49	1079.95
872.80	1078.75
873.12	1077.25
873.43	1080.72
873.74	1081.40
874.05	1084.98
874.36	1086.90
874.67	1091.32
874.98	1091.51
875.29	1090.69
875.61	1088.14
875.92	1089.19
876.23	1087.62
876.54	1088.00
876.85	1090.50
877.16	1091.79
877.47	1090.71
877.78	1089.82
878.09	1088.09
878.40	1088.68
878.72	1087.76
879.03	1084.60
879.34	1086.27
879.65	1082.92
879.96	1080.09
880.27	1081.07
880.58	1087.23
880.89	1087.81
881.20	1091.70
881.51	1093.73
881.82	1090.08
882.13	1085.03
882.44	1083.04
882.75	1084.44
883.06	1081.42
883.37	1083.60
883.68	1083.97
883.99	1088.68
884.30	1085.96
884.61	1088.51
884.92	1088.56
885.23	1087.27
885.54	1082.64
885.85	1081.75
886.16	1083.25
886.47	1080.93
886.78	1087.13
887.08	1085.00
887.39	1088.47
887.70	1085.52
888.01	1087.83
888.32	1084.04
888.63	1088.07
888.94	1086.27
889.25	1086.10
889.56	1083.79
889.87	1085.03
890.17	1081.44
890.48	1078.82
890.79	1078.50
891.10	1079.83
891.41	1077.58
891.72	1077.47
892.03	1082.24
892.34	1083.93
892.64	1086.41
892.95	1084.14
893.26	1083.97
893.57	1079.83
893.88	1081.80
894.18	1082.52
894.49	1086.41
894.80	1088.98
895.11	1092.52
895.42	1091.32
895.72	1092.45
896.03	1088.04
896.34	1087.02
896.65	1084.11
896.96	1083.25
897.26	1079.43
897.57	1079.29
897.88	1079.95
898.19	1082.71
898.49	1080.11
898.80	1081.07
899.11	1086.22
899.41	1086.76
899.72	1086.41
900.03	1086.45
900.34	1082.57
900.64	1078.47
900.95	1076.04
901.26	1074.91
901.56	1076.90
901.87	1077.56
902.18	1078.12
902.48	1078.59
902.79	1078.31
903.10	1078.28
903.40	1081.56
903.71	1083.32
904.02	1083.90
904.32	1085.91
904.63	1087.95
904.94	1088.12
905.24	1087.04
905.55	1088.51
905.85	1086.34
906.16	1086.94
906.47	1088.28
906.77	1090.85
907.08	1088.16
907.38	1087.09
907.69	1085.99
908.00	1082.66
908.30	1082.29
908.61	1083.11
908.91	1084.46
909.22	1083.04
909.52	1082.22
909.83	1079.41
910.14	1081.87
910.44	1082.80
910.75	1082.61
911.05	1086.31
911.36	1090.13
911.66	1088.14
911.97	1087.11
912.27	1086.99
912.58	1082.69
912.88	1079.78
913.19	1079.85
913.49	1079.34
913.80	1080.84
914.10	1083.01
914.41	1084.53
914.71	1085.99
915.01	1086.36
915.32	1085.28
915.62	1084.04
915.93	1082.47
916.23	1080.13
916.54	1080.02
916.84	1078.87
917.15	1081.42
917.45	1080.11
917.75	1082.19
918.06	1080.16
918.36	1077.98
918.67	1077.14
918.97	1077.04
919.27	1077.68
919.58	1082.10
919.88	1087.39
920.18	1087.39
920.49	1090.10
920.79	1087.95
921.10	1084.96
921.40	1084.53
921.70	1082.80
922.01	1083.22
922.31	1083.27
922.61	1085.03
922.92	1084.84
923.22	1089.73
923.52	1088.86
923.82	1088.93
924.13	1087.58
924.43	1086.90
924.73	1085.47
925.04	1084.79
925.34	1087.67
925.64	1089.75
925.94	1088.44
926.25	1088.04
926.55	1089.52
926.85	1085.14
927.15	1083.69
927.46	1082.83
927.76	1082.97
928.06	1081.89
928.36	1082.92
928.67	1082.43
928.97	1082.94
929.27	1081.21
929.57	1081.87
929.87	1084.04
930.18	1085.21
930.48	1085.56
930.78	1085.00
931.08	1086.10
931.38	1081.89
931.69	1079.83
931.99	1077.42
932.29	1076.46
932.59	1075.01
932.89	1079.95
933.19	1083.88
933.49	1086.31
933.80	1087.09
934.10	1090.55
934.40	1090.10
934.70	1087.04
935.00	1087.81
935.30	1088.07
935.60	1085.03
935.90	1083.79
936.20	1083.25
936.50	1085.24
936.81	1085.05
937.11	1085.10
937.41	1084.04
937.71	1085.63
938.01	1083.46
938.31	1084.58
938.61	1083.69
938.91	1083.88
939.21	1083.81
939.51	1082.71
939.81	1082.78
940.11	1083.04
940.41	1078.80
940.71	1078.40
941.01	1078.40
941.31	1077.09
941.61	1079.74
941.91	1085.66
942.21	1085.94
942.51	1086.55
942.81	1090.29
943.11	1086.64
943.41	1089.80
943.71	1088.19
944.01	1090.60
944.31	1087.88
944.61	1091.51
944.90	1086.24
945.20	1086.87
945.50	1084.60
945.80	1081.84
946.10	1079.74
946.40	1079.53
946.70	1077.68
947.00	1080.25
947.30	1084.32
947.60	1086.36
947.89	1087.90
948.19	1092.09
948.49	1089.22
948.79	1088.65
949.09	1086.85
949.39	1088.40
949.69	1087.13
949.98	1089.26
950.28	1087.23
950.58	1088.04
950.88	1085.00
951.18	1086.71
951.48	1086.71
951.77	1089.03
952.07	1085.59
952.37	1086.78
952.67	1085.61
952.97	1083.41
953.26	1080.74
953.56	1084.14
953.86	1081.21
954.16	1078.96
954.45	1079.88
954.75	1079.48
955.05	1078.19
955.35	1080.95
955.64	1084.39
955.94	1086.69
956.24	1089.59
956.54	1086.73
956.83	1085.80
957.13	1086.01
957.43	1083.32
957.72	1085.05
958.02	1084.98
958.32	1086.90
958.61	1083.83
958.91	1084.18
959.21	1081.05
959.50	1081.96
959.80	1077.37
960.10	1078.50
960.39	1078.61
960.69	1078.28
960.99	1081.66
961.28	1085.49
961.58	1085.73
961.87	1086.27
962.17	1088.30
962.47	1086.85
962.76	1085.63
963.06	1085.77
963.36	1082.97
963.65	1079.76
963.95	1078.26
964.24	1080.93
964.54	1079.41
964.83	1082.17
965.13	1085.82
965.42	1087.32
965.72	1081.07
966.02	1082.01
966.31	1083.13
966.61	1081.14
966.90	1080.11
967.20	1084.67
967.49	1084.86
967.79	1084.04
968.08	1084.67
968.38	1087.06
968.67	1086.13
968.97	1086.03
969.26	1086.06
969.56	1085.80
969.85	1081.21
970.15	1082.85
970.44	1081.98
970.74	1082.78
971.03	1084.56
971.32	1087.93
971.62	1086.43
971.91	1086.55
972.21	1087.20
972.50	1083.97
972.80	1083.95
973.09	1084.21
973.38	1085.17
973.68	1082.59
973.97	1083.81
974.27	1083.01
974.56	1079.50
974.85	1076.95
975.15	1076.44
975.44	1075.20
975.73	1075.64
976.03	1078.45
976.32	1080.16
976.61	1082.43
976.91	1082.31
977.20	1081.70
977.49	1081.21
977.79	1083.13
978.08	1081.00
978.37	1081.42
978.67	1081.96
978.96	1085.35
979.25	1079.95
979.55	1079.95
979.84	1080.51
980.13	1081.82
980.42	1077.42
980.72	1080.84
981.01	1082.24
981.30	1084.51
981.59	1085.96
981.89	1090.24
982.18	1087.67
982.47	1084.49
982.76	1082.01
983.06	1079.08
983.35	1076.86
983.64	1080.20
983.93	1083.48
984.22	1086.08
984.52	1085.54
984.81	1084.42
985.10	1084.56
985.39	1082.52
985.68	1081.33
985.97	1083.60
986.27	1084.89
986.56	1083.95
986.85	1083.29
987.14	1082.36
987.43	1081.28
987.72	1081.28
988.01	1081.14
988.31	1084.77
988.60	1085.80
988.89	1083.60
989.18	1081.66
989.47	1080.34
989.76	1077.51
990.05	1076.41
990.34	1077.89
990.63	1079.67
990.92	1080.60
991.21	1078.78
991.51	1079.27
991.80	1080.06
992.09	1081.16
992.38	1082.01
992.67	1083.83
992.96	1086.15
993.25	1084.70
993.54	1087.23
993.83	1085.68
994.12	1085.73
994.41	1085.68
994.70	1083.22
994.99	1080.91
995.28	1084.07
995.57	1084.91
995.86	1083.43
996.15	1084.00
996.44	1084.65
996.73	1082.33
997.02	1082.83
997.31	1082.99
997.59	1086.27
997.88	1081.28
998.17	1080.13
998.46	1077.72
998.75	1076.30
999.04	1077.33
999.33	1081.44
999.62	1084.72
999.91	1085.59
1000.20	1086.50
1000.49	1085.82
1000.77	1087.09
1001.06	1085.00
1001.35	1086.41
1001.64	1087.18
1001.93	1085.82
1002.22	1084.02
1002.51	1086.03
1002.79	1083.57
1003.08	1080.95
1003.37	1079.27
1003.66	1079.76
1003.95	1077.30
1004.23	1083.15
1004.52	1084.32
1004.81	1087.41
1005.10	1088.12
1005.39	1088.65
1005.67	1086.27
1005.96	1089.61
1006.25	1088.63
1006.54	1087.74
1006.83	1086.69
1007.11	1086.66
1007.40	1083.88
1007.69	1081.47
1007.97	1082.05
1008.26	1081.09
1008.55	1078.71
1008.84	1076.95
1009.12	1080.11
1009.41	1079.01
1009.70	1081.30
1009.98	1081.89
1010.27	1081.28
1010.56	1080.39
1010.85	1082.45
1011.13	1082.10
1011.42	1082.40
1011.71	1088.16
1011.99	1089.07
1012.28	1087.74
1012.56	1090.55
1012.85	1088.21
1013.14	1084.91
1013.42	1086.73
1013.71	1087.79
1014.00	1086.45
1014.28	1088.96
1014.57	1089.71
1014.85	1086.13
1015.14	1084.84
1015.43	1084.72
1015.71	1086.15
1016.00	1086.92
1016.28	1087.48
1016.57	1088.33
1016.85	1084.79
1017.14	1084.77
1017.43	1081.63
1017.71	1080.37
1018.00	1078.33
1018.28	1081.28
1018.57	1078.31
1018.85	1076.25
1019.14	1078.52
1019.42	1078.36
1019.71	1076.25
1019.99	1077.33
1020.28	1078.61
1020.56	1080.72
1020.85	1082.24
1021.13	1083.79
1021.42	1084.46
1021.70	1086.29
1021.99	1083.71
1022.27	1083.27
1022.55	1084.37
1022.84	1084.25
>>>>>End Processed Spectral Data<<<<<
