SpectraSuite Data File
++++++++++++++++++++++++++++++++++++
Date: Mon Aug 26 10:26:20 PDT 2019
User: corrico
Dark Spectrum Present: No
Reference Spectrum Present: No
Number of Sampled Component Spectra: 1
Spectrometers: USB2+H06089
Integration Time (usec): 10000 (USB2+H06089)
Spectra Averaged: 20 (USB2+H06089)
Boxcar Smoothing: 2 (USB2+H06089)
Correct for Electrical Dark: No (USB2+H06089)
Strobe/Lamp Enabled: No (USB2+H06089)
Correct for Detector Non-linearity: No (USB2+H06089)
Correct for Stray Light: No (USB2+H06089)
Number of Pixels in Processed Spectrum: 2048
>>>>>Begin Processed Spectral Data<<<<<
339.70	1040.95
340.07	1040.95
340.45	1000.72
340.82	974.51
341.19	949.44
341.57	920.79
341.94	910.61
342.31	905.67
342.69	904.31
343.06	900.38
343.43	900.90
343.81	902.56
344.18	905.30
344.55	909.58
344.93	916.74
345.30	925.24
345.67	931.21
346.04	937.10
346.42	942.58
346.79	951.99
347.16	959.25
347.54	970.34
347.91	978.86
348.28	991.08
348.65	999.03
349.03	1006.55
349.40	1014.06
349.77	1026.07
350.14	1032.97
350.52	1041.26
350.89	1047.60
351.26	1055.07
351.63	1057.69
352.01	1061.90
352.38	1065.04
352.75	1071.08
353.12	1070.84
353.50	1074.75
353.87	1078.40
354.24	1079.92
354.61	1079.60
354.98	1082.97
355.36	1081.30
355.73	1080.74
356.10	1079.71
356.47	1082.12
356.84	1081.94
357.22	1083.22
357.59	1085.24
357.96	1088.70
358.33	1089.43
358.70	1087.53
359.08	1088.23
359.45	1082.92
359.82	1080.81
360.19	1083.86
360.56	1088.19
360.94	1089.22
361.31	1089.89
361.68	1089.94
362.05	1083.15
362.42	1080.93
362.79	1079.95
363.16	1082.83
363.54	1083.32
363.91	1088.33
364.28	1088.65
364.65	1089.03
365.02	1087.81
365.39	1082.66
365.76	1080.70
366.14	1081.77
366.51	1078.99
366.88	1079.74
367.25	1081.33
367.62	1080.27
367.99	1075.57
368.36	1076.25
368.73	1075.64
369.10	1079.03
369.48	1078.85
369.85	1082.40
370.22	1081.84
370.59	1082.05
370.96	1080.46
371.33	1081.77
371.70	1083.32
372.07	1082.36
372.44	1082.87
372.81	1082.94
373.18	1081.66
373.55	1079.55
373.93	1083.76
374.30	1083.83
374.67	1084.46
375.04	1083.32
375.41	1085.47
375.78	1082.54
376.15	1086.50
376.52	1087.13
376.89	1090.27
377.26	1089.78
377.63	1093.50
378.00	1089.96
378.37	1088.44
378.74	1088.19
379.11	1088.44
379.48	1086.34
379.85	1085.52
380.22	1090.62
380.59	1086.64
380.96	1084.21
381.33	1081.51
381.70	1082.90
382.07	1082.08
382.44	1086.97
382.81	1090.60
383.18	1090.90
383.55	1091.81
383.92	1088.42
384.29	1084.35
384.66	1085.73
385.03	1087.95
385.40	1085.19
385.77	1086.31
386.14	1087.46
386.51	1085.56
386.88	1084.44
387.25	1087.06
387.62	1088.40
387.99	1086.27
388.36	1085.77
388.73	1087.46
389.10	1089.03
389.46	1087.53
389.83	1090.46
390.20	1089.85
390.57	1091.93
390.94	1090.55
391.31	1091.34
391.68	1091.95
392.05	1093.08
392.42	1090.34
392.79	1090.92
393.16	1090.81
393.53	1089.43
393.89	1088.68
394.26	1087.02
394.63	1087.69
395.00	1087.83
395.37	1091.06
395.74	1093.10
396.11	1096.14
396.48	1093.17
396.84	1092.75
397.21	1093.26
397.58	1093.85
397.95	1095.67
398.32	1096.52
398.69	1096.24
399.06	1092.02
399.42	1091.70
399.79	1091.84
400.16	1093.19
400.53	1093.24
400.90	1097.34
401.27	1097.24
401.64	1096.07
402.00	1094.08
402.37	1095.56
402.74	1093.69
403.11	1092.87
403.48	1092.47
403.84	1095.37
404.21	1095.44
404.58	1096.21
404.95	1092.82
405.32	1093.47
405.68	1090.71
406.05	1091.04
406.42	1088.86
406.79	1090.46
407.16	1093.57
407.52	1098.04
407.89	1099.63
408.26	1103.19
408.63	1102.95
408.99	1098.72
409.36	1097.71
409.73	1098.86
410.10	1097.57
410.47	1100.78
410.83	1106.11
411.20	1105.58
411.57	1103.91
411.94	1104.64
412.30	1104.12
412.67	1100.80
413.04	1098.79
413.40	1097.34
413.77	1094.74
414.14	1095.32
414.51	1096.87
414.87	1100.87
415.24	1102.81
415.61	1105.36
415.97	1105.88
416.34	1106.32
416.71	1104.03
417.08	1101.97
417.44	1103.07
417.81	1104.36
418.18	1104.90
418.54	1107.71
418.91	1111.66
419.28	1111.71
419.64	1111.85
420.01	1114.47
420.38	1115.83
420.74	1115.85
421.11	1117.07
421.48	1116.83
421.84	1114.12
422.21	1111.59
422.58	1112.32
422.94	1110.33
423.31	1111.87
423.68	1112.74
424.04	1114.00
424.41	1113.67
424.77	1114.94
425.14	1113.77
425.51	1114.52
425.87	1115.55
426.24	1115.29
426.61	1117.84
426.97	1121.02
427.34	1120.98
427.70	1116.81
428.07	1117.82
428.44	1116.06
428.80	1113.37
429.17	1112.69
429.53	1116.46
429.90	1116.01
430.27	1116.18
430.63	1114.12
431.00	1111.64
431.36	1111.87
431.73	1114.33
432.09	1116.65
432.46	1122.75
432.83	1125.66
433.19	1125.07
433.56	1123.74
433.92	1121.96
434.29	1115.43
434.65	1118.05
435.02	1120.09
435.38	1118.61
435.75	1120.27
436.11	1123.06
436.48	1123.62
436.84	1118.94
437.21	1119.03
437.57	1117.77
437.94	1118.35
438.30	1113.88
438.67	1117.23
439.03	1115.15
439.40	1112.32
439.76	1110.05
440.13	1111.36
440.49	1112.29
440.86	1113.79
441.22	1116.39
441.59	1118.07
441.95	1117.75
442.32	1115.62
442.68	1114.47
443.05	1114.84
443.41	1116.32
443.78	1114.45
444.14	1115.22
444.51	1113.58
444.87	1113.88
445.24	1112.67
445.60	1115.97
445.96	1113.58
446.33	1118.07
446.69	1117.70
447.06	1113.91
447.42	1113.65
447.79	1117.07
448.15	1114.91
448.51	1114.42
448.88	1121.42
449.24	1118.50
449.61	1116.48
449.97	1119.22
450.33	1117.70
450.70	1112.64
451.06	1110.79
451.43	1107.45
451.79	1105.83
452.15	1105.74
452.52	1107.64
452.88	1110.05
453.24	1112.62
453.61	1112.06
453.97	1111.38
454.34	1111.97
454.70	1116.32
455.06	1116.27
455.43	1117.93
455.79	1120.46
456.15	1120.70
456.52	1116.58
456.88	1118.28
457.24	1118.00
457.61	1119.41
457.97	1115.27
458.33	1113.77
458.70	1120.20
459.06	1118.75
459.42	1120.46
459.79	1123.04
460.15	1126.38
460.51	1122.38
460.88	1122.75
461.24	1120.20
461.60	1123.81
461.96	1124.98
462.33	1125.05
462.69	1126.15
463.05	1127.93
463.42	1128.96
463.78	1129.03
464.14	1131.44
464.50	1131.41
464.87	1133.12
465.23	1133.03
465.59	1132.28
465.95	1131.74
466.32	1135.67
466.68	1137.22
467.04	1133.29
467.40	1135.46
467.77	1135.14
468.13	1135.98
468.49	1136.45
468.85	1142.70
469.22	1146.58
469.58	1148.99
469.94	1150.84
470.30	1156.25
470.66	1159.99
471.03	1162.59
471.39	1163.43
471.75	1162.22
472.11	1161.84
472.47	1161.49
472.84	1164.25
473.20	1169.07
473.56	1172.26
473.92	1172.73
474.28	1179.30
474.65	1180.87
475.01	1183.96
475.37	1188.64
475.73	1196.18
476.09	1198.82
476.45	1201.33
476.81	1206.17
477.18	1214.27
477.54	1216.40
477.90	1224.57
478.26	1234.45
478.62	1243.55
478.98	1253.29
479.34	1266.07
479.71	1273.18
480.07	1285.07
480.43	1295.58
480.79	1304.99
481.15	1313.93
481.51	1328.07
481.87	1339.96
482.23	1351.24
482.59	1368.07
482.96	1386.46
483.32	1399.66
483.68	1418.11
484.04	1439.20
484.40	1455.13
484.76	1473.06
485.12	1495.16
485.48	1519.24
485.84	1541.10
486.20	1567.48
486.56	1595.00
486.92	1621.92
487.28	1646.43
487.64	1676.78
488.00	1710.11
488.37	1748.33
488.73	1785.81
489.09	1829.20
489.45	1875.14
489.81	1918.00
490.17	1960.97
490.53	2012.06
490.89	2061.92
491.25	2108.66
491.61	2165.93
491.97	2221.87
492.33	2278.84
492.69	2334.24
493.05	2401.72
493.41	2472.28
493.77	2547.58
494.13	2630.74
494.49	2712.59
494.85	2799.05
495.21	2887.12
495.57	2978.43
495.93	3077.20
496.29	3178.21
496.64	3299.01
497.00	3415.40
497.36	3541.00
497.72	3670.03
498.08	3819.85
498.44	3956.91
498.80	4112.79
499.16	4274.73
499.52	4449.05
499.88	4623.56
500.24	4808.14
500.60	4988.50
500.96	5180.05
501.32	5367.67
501.68	5560.11
502.03	5772.28
502.39	6001.13
502.75	6244.15
503.11	6510.06
503.47	6797.48
503.83	7091.40
504.19	7388.04
504.55	7728.05
504.91	8058.75
505.26	8383.54
505.62	8770.27
505.98	9197.37
506.34	9587.09
506.70	10020.40
507.06	10516.28
507.42	10975.10
507.78	11441.94
508.13	11974.02
508.49	12515.08
508.85	13075.80
509.21	13658.15
509.57	14245.83
509.93	14856.46
510.28	15503.05
510.64	16206.85
511.00	16901.38
511.36	17647.69
511.72	18446.25
512.07	19286.25
512.43	20093.69
512.79	21021.80
513.15	21929.16
513.51	22714.71
513.86	23531.30
514.22	24451.39
514.58	25368.86
514.94	26281.41
515.30	27360.82
515.65	28477.32
516.01	29488.27
516.37	30441.01
516.73	31464.20
517.08	32360.71
517.44	33140.79
517.80	34003.21
518.16	34958.80
518.51	35919.87
518.87	36866.97
519.23	37915.51
519.59	38925.54
519.94	39897.12
520.30	40830.04
520.66	41678.22
521.01	42494.46
521.37	43309.06
521.73	43952.92
522.09	44529.39
522.44	45283.00
522.80	45845.10
523.16	46187.08
523.51	46535.94
523.87	46912.34
524.23	47209.07
524.58	47465.29
524.94	47860.16
525.30	48168.69
525.65	48300.02
526.01	48258.43
526.37	48416.02
526.72	48515.98
527.08	48501.68
527.44	48404.20
527.79	48316.66
528.15	48116.31
528.51	47790.30
528.86	47539.63
529.22	47211.18
529.58	46861.78
529.93	46405.85
530.29	45870.57
530.65	45379.73
531.00	44968.55
531.36	44355.02
531.71	43766.45
532.07	43321.75
532.43	42594.24
532.78	41820.79
533.14	41214.31
533.49	40543.65
533.85	39772.07
534.21	39234.92
534.56	38715.78
534.92	38082.01
535.27	37412.18
535.63	36625.71
535.98	35832.34
536.34	35052.24
536.69	34303.13
537.05	33593.59
537.41	33029.69
537.76	32399.71
538.12	31673.86
538.47	31078.38
538.83	30536.13
539.18	29931.22
539.54	29362.35
539.89	28908.78
540.25	28409.17
540.60	27858.62
540.96	27275.04
541.31	26749.33
541.67	26319.98
542.02	25843.45
542.38	25397.20
542.73	24940.33
543.09	24457.47
543.44	23922.94
543.80	23454.09
544.15	22948.32
544.51	22597.29
544.86	22195.35
545.22	21839.52
545.57	21460.09
545.93	21039.66
546.28	20589.20
546.64	20220.08
546.99	19808.28
547.35	19411.54
547.70	19070.54
548.05	18693.13
548.41	18279.26
548.76	17830.72
549.12	17409.68
549.47	17033.34
549.83	16694.39
550.18	16332.33
550.53	15972.92
550.89	15596.25
551.24	15201.83
551.60	14856.88
551.95	14561.29
552.30	14296.69
552.66	14068.07
553.01	13854.17
553.37	13598.93
553.72	13319.90
554.07	13039.12
554.43	12749.02
554.78	12424.48
555.13	12118.87
555.49	11796.79
555.84	11519.63
556.19	11238.13
556.55	10960.40
556.90	10677.99
557.26	10472.68
557.61	10257.54
557.96	10023.81
558.32	9823.04
558.67	9611.69
559.02	9377.54
559.37	9169.45
559.73	9003.95
560.08	8813.03
560.43	8616.45
560.79	8423.59
561.14	8205.38
561.49	7977.51
561.85	7776.43
562.20	7612.08
562.55	7464.39
562.90	7314.24
563.26	7172.81
563.61	7034.97
563.96	6866.92
564.32	6690.68
564.67	6540.53
565.02	6415.92
565.37	6293.30
565.73	6157.69
566.08	6031.94
566.43	5912.64
566.78	5768.02
567.14	5623.02
567.49	5515.57
567.84	5402.94
568.19	5281.33
568.54	5177.01
568.90	5081.58
569.25	4997.72
569.60	4908.92
569.95	4833.49
570.31	4755.99
570.66	4676.25
571.01	4569.10
571.36	4476.44
571.71	4387.38
572.06	4302.35
572.42	4208.12
572.77	4127.18
573.12	4055.00
573.47	3978.11
573.82	3911.50
574.18	3849.60
574.53	3785.14
574.88	3719.46
575.23	3651.75
575.58	3573.32
575.93	3504.37
576.28	3443.93
576.64	3386.15
576.99	3325.97
577.34	3271.48
577.69	3215.10
578.04	3154.74
578.39	3096.58
578.74	3033.03
579.09	2971.05
579.44	2914.72
579.80	2868.21
580.15	2816.98
580.50	2777.96
580.85	2734.12
581.20	2692.34
581.55	2649.93
581.90	2607.87
582.25	2567.01
582.60	2525.48
582.95	2489.72
583.30	2453.16
583.65	2420.54
584.00	2382.99
584.35	2352.78
584.71	2315.87
585.06	2288.51
585.41	2256.58
585.76	2232.82
586.11	2203.54
586.46	2177.66
586.81	2142.25
587.16	2111.87
587.51	2081.49
587.86	2061.68
588.21	2040.46
588.56	2017.17
588.91	2000.32
589.26	1975.93
589.61	1949.06
589.96	1925.68
590.31	1903.84
590.66	1876.01
591.01	1861.55
591.36	1839.59
591.71	1813.75
592.06	1794.28
592.41	1780.42
592.76	1758.66
593.10	1742.55
593.45	1727.48
593.80	1712.13
594.15	1695.81
594.50	1686.03
594.85	1675.92
595.20	1666.98
595.55	1654.50
595.90	1638.12
596.25	1620.49
596.60	1603.31
596.95	1587.14
597.30	1573.71
597.64	1619.60
597.99	1614.41
598.34	1605.16
598.69	1595.00
599.04	1585.24
599.39	1519.05
599.74	1501.06
600.09	1489.45
600.44	1477.58
600.78	1469.36
601.13	1464.10
601.48	1460.03
601.83	1453.64
602.18	1446.83
602.53	1434.61
602.88	1424.33
603.22	1411.44
603.57	1404.32
603.92	1396.13
604.27	1392.01
604.62	1387.61
604.97	1384.99
605.31	1377.24
605.66	1373.94
606.01	1369.00
606.36	1361.04
606.71	1355.36
607.05	1345.46
607.40	1336.09
607.75	1327.79
608.10	1320.86
608.44	1312.17
608.79	1309.04
609.14	1302.04
609.49	1297.85
609.84	1293.57
610.18	1292.30
610.53	1287.25
610.88	1285.33
611.23	1281.61
611.57	1276.79
611.92	1270.82
612.27	1270.28
612.62	1262.58
612.96	1257.78
613.31	1251.44
613.66	1247.81
614.00	1244.84
614.35	1244.63
614.70	1241.28
615.05	1241.58
615.39	1234.89
615.74	1227.61
616.09	1224.50
616.43	1218.81
616.78	1214.11
617.13	1211.60
617.47	1209.52
617.82	1206.17
618.17	1204.84
618.51	1199.31
618.86	1198.99
619.21	1198.38
619.55	1195.26
619.90	1195.15
620.25	1193.18
620.59	1190.63
620.94	1187.82
621.29	1186.56
621.63	1183.23
621.98	1183.87
622.32	1179.68
622.67	1173.40
623.02	1172.12
623.36	1166.15
623.71	1164.21
624.05	1165.33
624.40	1166.45
624.75	1162.54
625.09	1163.71
625.44	1159.31
625.78	1158.92
626.13	1159.03
626.48	1158.05
626.82	1158.75
627.17	1160.23
627.51	1152.69
627.86	1147.45
628.20	1144.73
628.55	1141.85
628.89	1135.82
629.24	1135.77
629.58	1138.88
629.93	1137.59
630.28	1137.41
630.62	1142.79
630.97	1146.09
631.31	1142.53
631.66	1144.05
632.00	1147.63
632.35	1144.05
632.69	1141.69
633.04	1139.40
633.38	1137.01
633.73	1131.58
634.07	1131.67
634.42	1131.11
634.76	1131.16
635.11	1129.85
635.45	1128.96
635.79	1125.80
636.14	1127.72
636.48	1127.13
636.83	1128.16
637.17	1124.39
637.52	1124.14
637.86	1121.82
638.21	1120.32
638.55	1116.53
638.89	1119.90
639.24	1122.01
639.58	1120.58
639.93	1120.67
640.27	1123.55
640.61	1121.77
640.96	1121.96
641.30	1122.83
641.65	1123.36
641.99	1121.00
642.33	1117.02
642.68	1110.09
643.02	1109.09
643.37	1108.10
643.71	1105.18
644.05	1108.22
644.40	1112.78
644.74	1111.38
645.08	1111.12
645.43	1111.26
645.77	1108.83
646.11	1106.72
646.46	1104.85
646.80	1102.25
647.14	1104.33
647.49	1103.82
647.83	1104.90
648.17	1106.42
648.52	1110.89
648.86	1110.33
649.20	1112.27
649.55	1110.40
649.89	1107.80
650.23	1102.63
650.57	1104.03
650.92	1100.66
651.26	1102.63
651.60	1102.35
651.95	1103.63
652.29	1101.67
652.63	1106.28
652.97	1105.60
653.32	1106.98
653.66	1105.46
654.00	1106.11
654.34	1102.58
654.69	1100.12
655.03	1099.02
655.37	1099.58
655.71	1099.16
656.05	1101.76
656.40	1100.73
656.74	1099.96
657.08	1097.36
657.42	1098.65
657.76	1097.15
658.11	1098.11
658.45	1099.35
658.79	1101.20
659.13	1101.06
659.47	1100.71
659.82	1100.94
660.16	1099.16
660.50	1100.45
660.84	1098.86
661.18	1098.02
661.52	1098.90
661.87	1100.24
662.21	1099.33
662.55	1098.67
662.89	1097.69
663.23	1097.36
663.57	1095.44
663.91	1097.20
664.25	1097.10
664.60	1096.89
664.94	1093.99
665.28	1096.82
665.62	1093.78
665.96	1096.99
666.30	1097.31
666.64	1101.64
666.98	1101.60
667.32	1102.23
667.66	1098.74
668.01	1098.58
668.35	1096.28
668.69	1095.75
669.03	1095.39
669.37	1095.11
669.71	1097.13
670.05	1096.33
670.39	1097.99
670.73	1096.99
671.07	1097.03
671.41	1092.91
671.75	1095.98
672.09	1092.77
672.43	1093.45
672.77	1093.97
673.11	1094.01
673.45	1090.06
673.79	1088.96
674.13	1087.11
674.47	1087.30
674.81	1086.76
675.15	1088.37
675.49	1089.82
675.83	1092.68
676.17	1092.56
676.51	1097.59
676.85	1097.34
677.19	1095.11
677.53	1098.65
677.87	1099.77
678.21	1099.65
678.55	1098.93
678.89	1098.34
679.23	1094.95
679.57	1094.74
679.90	1090.41
680.24	1092.21
680.58	1092.28
680.92	1090.71
681.26	1085.77
681.60	1088.65
681.94	1088.23
682.28	1092.00
682.62	1094.41
682.96	1094.76
683.29	1096.17
683.63	1093.94
683.97	1089.43
684.31	1089.61
684.65	1092.63
684.99	1089.87
685.33	1091.93
685.67	1094.39
686.00	1094.41
686.34	1094.81
686.68	1093.38
687.02	1092.37
687.36	1091.91
687.70	1094.08
688.03	1090.06
688.37	1090.27
688.71	1089.52
689.05	1088.47
689.39	1085.94
689.72	1090.60
690.06	1094.88
690.40	1096.80
690.74	1095.58
691.08	1094.20
691.41	1090.90
691.75	1088.14
692.09	1087.55
692.43	1089.64
692.76	1089.05
693.10	1093.03
693.44	1092.45
693.78	1093.85
694.11	1096.21
694.45	1095.60
694.79	1093.55
695.13	1094.41
695.46	1092.12
695.80	1090.01
696.14	1091.93
696.48	1091.88
696.81	1092.05
697.15	1095.56
697.49	1096.26
697.82	1091.79
698.16	1094.01
698.50	1093.80
698.83	1090.46
699.17	1086.80
699.51	1092.52
699.84	1088.91
700.18	1087.25
700.52	1088.35
700.85	1091.30
701.19	1087.90
701.53	1090.36
701.86	1090.27
702.20	1085.00
702.54	1084.72
702.87	1085.31
703.21	1085.96
703.55	1089.00
703.88	1091.37
704.22	1091.88
704.55	1092.45
704.89	1090.32
705.23	1088.89
705.56	1089.99
705.90	1092.02
706.23	1091.39
706.57	1087.69
706.91	1088.65
707.24	1089.89
707.58	1089.12
707.91	1086.99
708.25	1090.36
708.58	1087.34
708.92	1084.28
709.26	1082.17
709.59	1085.89
709.93	1087.60
710.26	1090.39
710.60	1092.96
710.93	1094.36
711.27	1093.31
711.60	1091.98
711.94	1088.72
712.27	1088.75
712.61	1086.87
712.94	1087.79
713.28	1088.82
713.61	1091.53
713.95	1089.87
714.28	1089.73
714.62	1089.29
714.95	1084.63
715.29	1081.84
715.62	1085.05
715.96	1088.14
716.29	1089.29
716.63	1094.67
716.96	1096.05
717.29	1095.28
717.63	1092.75
717.96	1091.88
718.30	1088.86
718.63	1088.54
718.97	1088.30
719.30	1090.08
719.63	1091.27
719.97	1089.92
720.30	1089.94
720.64	1089.24
720.97	1087.23
721.30	1086.17
721.64	1089.47
721.97	1092.40
722.31	1093.90
722.64	1095.82
722.97	1095.28
723.31	1097.24
723.64	1093.33
723.97	1091.13
724.31	1091.34
724.64	1088.09
724.98	1083.46
725.31	1084.44
725.64	1083.76
725.98	1082.15
726.31	1082.03
726.64	1083.18
726.97	1084.72
727.31	1086.73
727.64	1086.76
727.97	1090.92
728.31	1095.53
728.64	1095.72
728.97	1094.67
729.31	1092.37
729.64	1091.39
729.97	1087.76
730.30	1086.29
730.64	1084.81
730.97	1085.84
731.30	1086.01
731.63	1084.77
731.97	1085.19
732.30	1087.93
732.63	1089.99
732.96	1089.71
733.30	1091.86
733.63	1089.36
733.96	1088.56
734.29	1086.36
734.63	1086.38
734.96	1086.92
735.29	1089.03
735.62	1090.01
735.95	1091.23
736.29	1092.28
736.62	1090.99
736.95	1087.48
737.28	1083.90
737.61	1083.93
737.94	1084.60
738.28	1083.27
738.61	1087.86
738.94	1094.55
739.27	1094.01
739.60	1088.30
739.93	1088.84
740.27	1087.20
740.60	1084.02
740.93	1081.70
741.26	1089.12
741.59	1087.90
741.92	1091.53
742.25	1089.64
742.58	1093.45
742.91	1089.78
743.25	1091.53
743.58	1090.17
743.91	1090.97
744.24	1092.05
744.57	1093.12
744.90	1091.93
745.23	1091.11
745.56	1090.48
745.89	1092.45
746.22	1093.62
746.55	1093.40
746.88	1094.69
747.21	1093.85
747.54	1089.03
747.87	1084.25
748.20	1082.33
748.53	1081.80
748.87	1082.87
749.20	1083.48
749.53	1085.47
749.86	1087.76
750.19	1084.72
750.52	1083.79
750.85	1082.17
751.18	1080.91
751.51	1081.12
751.84	1078.38
752.16	1079.20
752.49	1080.30
752.82	1081.23
753.15	1083.41
753.48	1086.41
753.81	1087.27
754.14	1085.75
754.47	1087.06
754.80	1084.42
755.13	1088.07
755.46	1087.62
755.79	1089.36
756.12	1092.84
756.45	1091.13
756.78	1087.06
757.11	1086.15
757.43	1087.04
757.76	1082.05
758.09	1083.64
758.42	1084.96
758.75	1084.07
759.08	1084.16
759.41	1083.15
759.74	1086.03
760.07	1085.42
760.39	1087.20
760.72	1082.83
761.05	1083.86
761.38	1080.27
761.71	1084.00
762.04	1083.36
762.36	1088.16
762.69	1088.21
763.02	1089.07
763.35	1087.25
763.68	1089.29
764.01	1092.40
764.33	1092.37
764.66	1088.09
764.99	1087.04
765.32	1086.90
765.65	1082.97
765.97	1080.09
766.30	1085.14
766.63	1084.23
766.96	1081.30
767.28	1082.29
767.61	1086.50
767.94	1087.20
768.27	1088.72
768.59	1090.39
768.92	1089.29
769.25	1089.40
769.58	1088.09
769.90	1088.40
770.23	1086.97
770.56	1088.65
770.89	1085.91
771.21	1084.65
771.54	1082.94
771.87	1081.87
772.19	1079.41
772.52	1081.61
772.85	1087.72
773.17	1087.13
773.50	1089.07
773.83	1089.80
774.15	1089.73
774.48	1085.05
774.81	1087.04
775.13	1088.82
775.46	1090.74
775.79	1091.58
776.11	1092.37
776.44	1090.29
776.77	1086.99
777.09	1084.16
777.42	1083.67
777.74	1083.04
778.07	1085.38
778.40	1087.37
778.72	1089.05
779.05	1087.97
779.37	1089.03
779.70	1088.82
780.03	1089.19
780.35	1087.44
780.68	1089.24
781.00	1088.96
781.33	1089.50
781.65	1089.26
781.98	1090.74
782.31	1087.93
782.63	1087.62
782.96	1084.28
783.28	1084.77
783.61	1083.57
783.93	1084.70
784.26	1085.82
784.58	1089.29
784.91	1086.43
785.23	1085.68
785.56	1087.37
785.88	1087.02
786.21	1084.46
786.53	1087.18
786.86	1088.61
787.18	1090.13
787.51	1090.36
787.83	1093.05
788.16	1094.55
788.48	1095.96
788.81	1092.77
789.13	1091.27
789.46	1087.74
789.78	1082.43
790.10	1078.85
790.43	1079.85
790.75	1081.96
791.08	1085.84
791.40	1087.79
791.73	1094.22
792.05	1094.53
792.37	1091.84
792.70	1086.48
793.02	1087.25
793.35	1083.71
793.67	1081.12
793.99	1079.97
794.32	1083.01
794.64	1082.90
794.96	1081.94
795.29	1084.02
795.61	1085.31
795.93	1086.06
796.26	1086.03
796.58	1086.01
796.91	1085.52
797.23	1088.19
797.55	1089.92
797.87	1091.02
798.20	1092.12
798.52	1091.84
798.84	1088.89
799.17	1087.18
799.49	1086.17
799.81	1086.92
800.14	1086.29
800.46	1084.77
800.78	1083.64
801.10	1084.72
801.43	1082.12
801.75	1084.93
802.07	1085.45
802.40	1086.69
802.72	1083.76
803.04	1084.74
803.36	1080.09
803.69	1082.03
804.01	1079.97
804.33	1085.42
804.65	1086.43
804.97	1088.14
805.30	1087.23
805.62	1086.76
805.94	1086.97
806.26	1083.39
806.58	1086.13
806.91	1084.98
807.23	1088.98
807.55	1085.87
807.87	1088.70
808.19	1086.99
808.52	1087.27
808.84	1086.57
809.16	1084.72
809.48	1086.66
809.80	1088.65
810.12	1091.67
810.44	1089.64
810.77	1090.69
811.09	1088.91
811.41	1085.35
811.73	1084.37
812.05	1083.04
812.37	1083.25
812.69	1085.70
813.01	1090.48
813.33	1090.03
813.66	1091.74
813.98	1093.33
814.30	1089.19
814.62	1088.23
814.94	1089.14
815.26	1089.14
815.58	1088.33
815.90	1089.22
816.22	1084.07
816.54	1080.46
816.86	1082.59
817.18	1083.71
817.50	1081.33
817.82	1084.91
818.14	1088.47
818.46	1086.52
818.78	1084.21
819.10	1087.79
819.42	1087.53
819.74	1084.09
820.06	1081.80
820.38	1081.75
820.70	1078.33
821.02	1075.92
821.34	1077.30
821.66	1080.46
821.98	1081.87
822.30	1081.30
822.62	1081.44
822.94	1081.75
823.26	1080.41
823.58	1078.43
823.90	1085.28
824.22	1086.22
824.54	1088.42
824.86	1086.38
825.18	1088.33
825.50	1086.15
825.81	1089.57
826.13	1088.37
826.45	1090.34
826.77	1089.26
827.09	1086.76
827.41	1083.81
827.73	1082.08
828.05	1083.57
828.36	1085.63
828.68	1087.97
829.00	1087.46
829.32	1088.65
829.64	1086.36
829.96	1084.91
830.28	1085.17
830.59	1089.71
830.91	1093.26
831.23	1093.71
831.55	1092.35
831.87	1090.41
832.19	1087.23
832.50	1086.03
832.82	1087.93
833.14	1089.59
833.46	1090.36
833.78	1090.36
834.09	1087.79
834.41	1086.22
834.73	1085.05
835.05	1084.51
835.36	1082.83
835.68	1083.95
836.00	1080.95
836.32	1081.82
836.63	1082.50
836.95	1086.08
837.27	1084.65
837.59	1088.07
837.90	1088.68
838.22	1087.83
838.54	1086.78
838.85	1086.36
839.17	1086.08
839.49	1083.55
839.80	1083.97
840.12	1082.03
840.44	1084.04
840.76	1083.08
841.07	1082.73
841.39	1082.33
841.71	1083.25
842.02	1083.90
842.34	1084.51
842.65	1084.44
842.97	1086.90
843.29	1087.02
843.60	1085.68
843.92	1085.63
844.24	1087.81
844.55	1084.37
844.87	1082.94
845.18	1082.64
845.50	1082.90
845.82	1084.21
846.13	1087.60
846.45	1090.53
846.76	1091.25
847.08	1091.65
847.40	1091.20
847.71	1089.26
848.03	1086.90
848.34	1085.03
848.66	1085.82
848.97	1083.90
849.29	1081.68
849.60	1082.36
849.92	1089.03
850.24	1088.30
850.55	1086.01
850.87	1085.45
851.18	1083.39
851.50	1076.25
851.81	1074.42
852.13	1077.00
852.44	1081.00
852.76	1082.26
853.07	1082.31
853.39	1081.68
853.70	1081.09
854.01	1080.81
854.33	1077.75
854.64	1077.58
854.96	1076.72
855.27	1074.80
855.59	1074.31
855.90	1078.05
856.22	1079.88
856.53	1081.21
856.84	1082.78
857.16	1084.25
857.47	1086.36
857.79	1087.11
858.10	1090.03
858.41	1092.80
858.73	1091.34
859.04	1086.87
859.36	1084.63
859.67	1081.89
859.98	1079.50
860.30	1078.89
860.61	1079.92
860.92	1081.54
861.24	1080.32
861.55	1082.47
861.87	1082.52
862.18	1081.58
862.49	1083.55
862.81	1087.58
863.12	1086.76
863.43	1085.24
863.74	1085.94
864.06	1084.86
864.37	1087.02
864.68	1085.70
865.00	1086.57
865.31	1087.02
865.62	1082.92
865.94	1081.42
866.25	1083.22
866.56	1084.16
866.87	1084.53
867.19	1085.66
867.50	1081.58
867.81	1080.20
868.12	1078.03
868.44	1077.84
868.75	1080.48
869.06	1080.91
869.37	1081.54
869.68	1082.99
870.00	1081.61
870.31	1080.46
870.62	1082.78
870.93	1083.93
871.24	1082.69
871.56	1086.01
871.87	1088.19
872.18	1087.30
872.49	1083.22
872.80	1084.63
873.12	1083.88
873.43	1081.14
873.74	1081.89
874.05	1084.04
874.36	1084.74
874.67	1086.20
874.98	1088.51
875.29	1091.04
875.61	1095.00
875.92	1095.04
876.23	1090.53
876.54	1085.59
876.85	1081.94
877.16	1076.86
877.47	1073.98
877.78	1076.46
878.09	1079.36
878.40	1081.33
878.72	1081.82
879.03	1086.69
879.34	1086.52
879.65	1085.91
879.96	1085.10
880.27	1081.44
880.58	1081.42
880.89	1080.74
881.20	1081.44
881.51	1081.00
881.82	1082.99
882.13	1075.73
882.44	1076.01
882.75	1075.73
883.06	1076.06
883.37	1078.19
883.68	1083.41
883.99	1083.53
884.30	1084.60
884.61	1082.29
884.92	1081.70
885.23	1078.73
885.54	1078.52
885.85	1075.34
886.16	1078.54
886.47	1079.15
886.78	1080.56
887.08	1079.81
887.39	1083.25
887.70	1083.88
888.01	1085.70
888.32	1084.86
888.63	1082.33
888.94	1079.36
889.25	1076.88
889.56	1075.97
889.87	1077.93
890.17	1081.12
890.48	1084.46
890.79	1086.83
891.10	1085.52
891.41	1082.69
891.72	1083.74
892.03	1087.37
892.34	1084.58
892.64	1088.51
892.95	1091.93
893.26	1089.24
893.57	1085.70
893.88	1086.38
894.18	1081.40
894.49	1081.44
894.80	1085.24
895.11	1085.99
895.42	1087.18
895.72	1089.47
896.03	1089.73
896.34	1089.36
896.65	1087.02
896.96	1085.87
897.26	1086.66
897.57	1082.78
897.88	1081.61
898.19	1081.63
898.49	1079.57
898.80	1079.10
899.11	1080.88
899.41	1080.46
899.72	1078.66
900.03	1084.07
900.34	1083.18
900.64	1085.47
900.95	1084.18
901.26	1087.11
901.56	1085.63
901.87	1082.94
902.18	1079.43
902.48	1082.80
902.79	1084.30
903.10	1080.88
903.40	1083.01
903.71	1084.07
904.02	1081.91
904.32	1078.64
904.63	1080.93
904.94	1081.82
905.24	1083.18
905.55	1084.32
905.85	1085.77
906.16	1086.20
906.47	1085.00
906.77	1085.68
907.08	1086.15
907.38	1083.41
907.69	1084.49
908.00	1087.97
908.30	1090.67
908.61	1088.23
908.91	1086.57
909.22	1086.80
909.52	1084.04
909.83	1080.67
910.14	1082.73
910.44	1084.60
910.75	1084.56
911.05	1082.17
911.36	1082.03
911.66	1082.43
911.97	1085.54
912.27	1082.40
912.58	1085.91
912.88	1086.97
913.19	1086.64
913.49	1087.09
913.80	1087.72
914.10	1088.19
914.41	1088.33
914.71	1087.02
915.01	1085.31
915.32	1086.38
915.62	1084.49
915.93	1082.10
916.23	1083.55
916.54	1081.87
916.84	1080.37
917.15	1081.37
917.45	1083.64
917.75	1081.75
918.06	1083.34
918.36	1082.61
918.67	1082.59
918.97	1081.35
919.27	1083.15
919.58	1086.03
919.88	1085.84
920.18	1086.10
920.49	1086.15
920.79	1084.37
921.10	1081.61
921.40	1083.29
921.70	1081.19
922.01	1082.12
922.31	1081.44
922.61	1081.44
922.92	1081.89
923.22	1084.16
923.52	1082.26
923.82	1084.98
924.13	1088.70
924.43	1089.07
924.73	1087.97
925.04	1089.26
925.34	1089.89
925.64	1086.03
925.94	1085.10
926.25	1086.80
926.55	1085.61
926.85	1083.71
927.15	1085.77
927.46	1085.12
927.76	1083.27
928.06	1084.39
928.36	1084.46
928.67	1082.29
928.97	1081.12
929.27	1080.84
929.57	1076.83
929.87	1075.73
930.18	1075.17
930.48	1077.16
930.78	1077.21
931.08	1083.08
931.38	1085.12
931.69	1087.81
931.99	1089.03
932.29	1090.69
932.59	1087.18
932.89	1084.16
933.19	1081.68
933.49	1082.83
933.80	1080.56
934.10	1082.52
934.40	1086.08
934.70	1087.90
935.00	1085.63
935.30	1087.02
935.60	1086.76
935.90	1086.59
936.20	1085.21
936.50	1084.79
936.81	1085.17
937.11	1084.46
937.41	1083.22
937.71	1081.58
938.01	1081.28
938.31	1080.86
938.61	1077.70
938.91	1075.62
939.21	1077.16
939.51	1077.23
939.81	1079.10
940.11	1077.56
940.41	1079.81
940.71	1079.29
941.01	1079.78
941.31	1078.40
941.61	1083.74
941.91	1080.46
942.21	1081.40
942.51	1082.12
942.81	1084.00
943.11	1086.73
943.41	1092.63
943.71	1094.32
944.01	1092.59
944.31	1090.27
944.61	1087.37
944.90	1082.97
945.20	1078.89
945.50	1080.39
945.80	1079.60
946.10	1077.40
946.40	1081.73
946.70	1086.03
947.00	1086.64
947.30	1085.66
947.60	1084.91
947.89	1082.94
948.19	1082.40
948.49	1080.63
948.79	1081.77
949.09	1081.28
949.39	1076.97
949.69	1074.17
949.98	1075.90
950.28	1080.20
950.58	1085.31
950.88	1089.47
951.18	1092.02
951.48	1089.45
951.77	1087.27
952.07	1086.90
952.37	1084.51
952.67	1085.45
952.97	1088.40
953.26	1088.07
953.56	1088.00
953.86	1088.98
954.16	1088.93
954.45	1089.73
954.75	1087.69
955.05	1087.16
955.35	1086.59
955.64	1081.70
955.94	1077.96
956.24	1081.56
956.54	1081.87
956.83	1084.91
957.13	1087.06
957.43	1089.94
957.72	1084.28
958.02	1083.46
958.32	1083.41
958.61	1084.49
958.91	1081.44
959.21	1082.71
959.50	1085.42
959.80	1083.08
960.10	1081.47
960.39	1081.47
960.69	1083.34
960.99	1080.95
961.28	1083.15
961.58	1086.83
961.87	1089.61
962.17	1090.69
962.47	1086.24
962.76	1083.04
963.06	1084.30
963.36	1083.71
963.65	1083.55
963.95	1086.48
964.24	1089.45
964.54	1086.13
964.83	1084.32
965.13	1083.36
965.42	1082.57
965.72	1081.82
966.02	1079.24
966.31	1079.36
966.61	1079.69
966.90	1079.81
967.20	1079.22
967.49	1080.34
967.79	1079.88
968.08	1079.48
968.38	1080.32
968.67	1076.97
968.97	1077.54
969.26	1077.09
969.56	1072.41
969.85	1072.29
970.15	1076.67
970.44	1077.70
970.74	1077.61
971.03	1083.27
971.32	1084.37
971.62	1081.68
971.91	1081.87
972.21	1085.12
972.50	1083.41
972.80	1082.54
973.09	1084.42
973.38	1087.86
973.68	1087.34
973.97	1087.30
974.27	1087.48
974.56	1086.83
974.85	1081.98
975.15	1080.93
975.44	1081.68
975.73	1082.64
976.03	1084.28
976.32	1085.70
976.61	1086.83
976.91	1085.52
977.20	1083.57
977.49	1080.13
977.79	1081.07
978.08	1078.85
978.37	1081.35
978.67	1081.51
978.96	1081.07
979.25	1079.53
979.55	1080.32
979.84	1079.38
980.13	1079.78
980.42	1080.27
980.72	1080.88
981.01	1082.66
981.30	1080.06
981.59	1081.47
981.89	1084.07
982.18	1084.32
982.47	1084.63
982.76	1089.47
983.06	1090.15
983.35	1089.10
983.64	1089.47
983.93	1088.33
984.22	1085.24
984.52	1083.57
984.81	1083.32
985.10	1082.05
985.39	1080.11
985.68	1083.36
985.97	1084.56
986.27	1086.45
986.56	1086.29
986.85	1083.13
987.14	1080.56
987.43	1076.39
987.72	1074.14
988.01	1074.33
988.31	1078.38
988.60	1078.03
988.89	1079.17
989.18	1077.72
989.47	1076.01
989.76	1076.79
990.05	1077.63
990.34	1080.93
990.63	1085.24
990.92	1086.10
991.21	1084.46
991.51	1082.87
991.80	1080.86
992.09	1081.09
992.38	1082.08
992.67	1083.53
992.96	1084.30
993.25	1085.75
993.54	1082.90
993.83	1082.10
994.12	1082.03
994.41	1082.01
994.70	1082.85
994.99	1083.83
995.28	1084.58
995.57	1085.70
995.86	1086.31
996.15	1083.62
996.44	1085.70
996.73	1086.17
997.02	1085.52
997.31	1083.95
997.59	1086.69
997.88	1081.09
998.17	1079.29
998.46	1078.61
998.75	1083.79
999.04	1082.17
999.33	1085.54
999.62	1087.55
999.91	1088.33
1000.20	1085.24
1000.49	1086.15
1000.77	1083.18
1001.06	1083.69
1001.35	1081.56
1001.64	1081.77
1001.93	1080.53
1002.22	1081.61
1002.51	1079.08
1002.79	1081.30
1003.08	1076.72
1003.37	1075.34
1003.66	1076.44
1003.95	1078.43
1004.23	1079.53
1004.52	1081.49
1004.81	1081.44
1005.10	1084.25
1005.39	1082.43
1005.67	1083.62
1005.96	1085.75
1006.25	1084.79
1006.54	1082.26
1006.83	1083.86
1007.11	1081.28
1007.40	1081.49
1007.69	1080.81
1007.97	1079.62
1008.26	1077.42
1008.55	1074.98
1008.84	1074.59
1009.12	1074.17
1009.41	1074.12
1009.70	1075.55
1009.98	1077.75
1010.27	1079.83
1010.56	1085.82
1010.85	1087.95
1011.13	1084.49
1011.42	1083.18
1011.71	1081.84
1011.99	1078.94
1012.28	1077.28
1012.56	1080.53
1012.85	1077.82
1013.14	1076.06
1013.42	1076.48
1013.71	1075.90
1014.00	1074.73
1014.28	1080.44
1014.57	1081.70
1014.85	1083.29
1015.14	1083.67
1015.43	1085.24
1015.71	1082.38
1016.00	1078.54
1016.28	1079.31
1016.57	1078.45
1016.85	1078.03
1017.14	1081.21
1017.43	1085.10
1017.71	1083.48
1018.00	1085.59
1018.28	1088.37
1018.57	1086.17
1018.85	1086.20
1019.14	1085.07
1019.42	1084.37
1019.71	1083.76
1019.99	1083.46
1020.28	1082.24
1020.56	1083.48
1020.85	1086.69
1021.13	1082.45
1021.42	1081.87
1021.70	1085.33
1021.99	1083.62
1022.27	1081.58
1022.55	1077.70
1022.84	1084.37
>>>>>End Processed Spectral Data<<<<<
