SpectraSuite Data File
++++++++++++++++++++++++++++++++++++
Date: Mon Aug 26 10:26:39 PDT 2019
User: corrico
Dark Spectrum Present: No
Reference Spectrum Present: No
Number of Sampled Component Spectra: 1
Spectrometers: USB2+H06089
Integration Time (usec): 10000 (USB2+H06089)
Spectra Averaged: 20 (USB2+H06089)
Boxcar Smoothing: 2 (USB2+H06089)
Correct for Electrical Dark: No (USB2+H06089)
Strobe/Lamp Enabled: No (USB2+H06089)
Correct for Detector Non-linearity: No (USB2+H06089)
Correct for Stray Light: No (USB2+H06089)
Number of Pixels in Processed Spectrum: 2048
>>>>>Begin Processed Spectral Data<<<<<
339.70	1028.31
340.07	1028.31
340.45	998.61
340.82	978.91
341.19	957.19
341.57	935.02
341.94	924.77
342.31	913.93
342.69	909.18
343.06	905.90
343.43	903.73
343.81	905.30
344.18	910.30
344.55	913.89
344.93	920.21
345.30	925.00
345.67	932.91
346.04	936.64
346.42	943.87
346.79	951.17
347.16	962.31
347.54	969.54
347.91	978.98
348.28	989.23
348.65	1000.13
349.03	1006.73
349.40	1016.49
349.77	1025.62
350.14	1030.73
350.52	1036.67
350.89	1043.95
351.26	1051.02
351.63	1058.34
352.01	1063.21
352.38	1063.42
352.75	1069.30
353.12	1072.55
353.50	1073.60
353.87	1077.00
354.24	1083.79
354.61	1083.04
354.98	1085.52
355.36	1086.27
355.73	1088.91
356.10	1088.75
356.47	1091.98
356.84	1090.81
357.22	1093.45
357.59	1093.59
357.96	1095.02
358.33	1090.92
358.70	1086.22
359.08	1083.20
359.45	1082.69
359.82	1081.07
360.19	1086.17
360.56	1091.49
360.94	1090.81
361.31	1090.95
361.68	1087.69
362.05	1084.04
362.42	1083.25
362.79	1085.80
363.16	1084.37
363.54	1084.49
363.91	1088.33
364.28	1083.90
364.65	1083.50
365.02	1084.51
365.39	1085.12
365.76	1079.83
366.14	1082.15
366.51	1080.67
366.88	1075.94
367.25	1073.70
367.62	1073.02
367.99	1074.40
368.36	1075.24
368.73	1078.33
369.10	1083.41
369.48	1087.39
369.85	1083.64
370.22	1078.07
370.59	1079.08
370.96	1078.12
371.33	1077.44
371.70	1078.92
372.07	1082.54
372.44	1081.35
372.81	1075.80
373.18	1074.12
373.55	1077.96
373.93	1078.54
374.30	1083.93
374.67	1089.00
375.04	1089.38
375.41	1086.90
375.78	1088.49
376.15	1088.44
376.52	1089.54
376.89	1091.42
377.26	1091.39
377.63	1088.37
378.00	1083.04
378.37	1084.28
378.74	1082.50
379.11	1082.33
379.48	1085.56
379.85	1089.10
380.22	1088.86
380.59	1088.35
380.96	1087.60
381.33	1087.58
381.70	1084.74
382.07	1084.04
382.44	1087.09
382.81	1086.43
383.18	1083.43
383.55	1084.42
383.92	1086.08
384.29	1080.65
384.66	1082.57
385.03	1085.96
385.40	1086.64
385.77	1082.97
386.14	1086.27
386.51	1087.65
386.88	1085.42
387.25	1084.72
387.62	1086.17
387.99	1085.38
388.36	1081.37
388.73	1086.48
389.10	1088.58
389.46	1088.40
389.83	1087.83
390.20	1089.33
390.57	1085.54
390.94	1082.43
391.31	1085.05
391.68	1088.58
392.05	1091.58
392.42	1092.45
392.79	1093.47
393.16	1090.32
393.53	1087.62
393.89	1087.16
394.26	1085.75
394.63	1087.13
395.00	1091.98
395.37	1092.37
395.74	1087.97
396.11	1088.09
396.48	1085.73
396.84	1081.77
397.21	1081.42
397.58	1087.83
397.95	1087.81
398.32	1089.94
398.69	1091.30
399.06	1089.80
399.42	1089.03
399.79	1089.59
400.16	1087.69
400.53	1087.20
400.90	1092.52
401.27	1091.60
401.64	1094.15
402.00	1094.50
402.37	1095.70
402.74	1094.93
403.11	1094.32
403.48	1091.84
403.84	1092.98
404.21	1092.98
404.58	1092.96
404.95	1095.63
405.32	1099.30
405.68	1101.78
406.05	1101.97
406.42	1103.42
406.79	1103.94
407.16	1100.38
407.52	1099.77
407.89	1097.80
408.26	1097.43
408.63	1097.59
408.99	1099.16
409.36	1097.99
409.73	1098.18
410.10	1098.37
410.47	1100.43
410.83	1100.33
411.20	1103.87
411.57	1106.75
411.94	1104.87
412.30	1102.44
412.67	1101.57
413.04	1099.75
413.40	1101.36
413.77	1106.54
414.14	1104.31
414.51	1110.61
414.87	1113.35
415.24	1108.52
415.61	1105.08
415.97	1106.14
416.34	1105.11
416.71	1101.18
417.08	1105.51
417.44	1106.23
417.81	1107.52
418.18	1107.40
418.54	1108.95
418.91	1108.66
419.28	1107.17
419.64	1108.06
420.01	1109.67
420.38	1110.02
420.74	1107.45
421.11	1111.47
421.48	1113.14
421.84	1109.02
422.21	1110.96
422.58	1111.57
422.94	1110.56
423.31	1109.81
423.68	1112.11
424.04	1110.40
424.41	1111.19
424.77	1107.52
425.14	1107.96
425.51	1110.40
425.87	1110.51
426.24	1112.76
426.61	1114.54
426.97	1116.62
427.34	1111.82
427.70	1109.86
428.07	1106.96
428.44	1107.92
428.80	1105.93
429.17	1109.48
429.53	1113.67
429.90	1117.28
430.27	1115.97
430.63	1111.71
431.00	1108.55
431.36	1106.46
431.73	1106.96
432.09	1107.80
432.46	1110.19
432.83	1112.34
433.19	1112.57
433.56	1111.57
433.92	1113.11
434.29	1115.69
434.65	1115.12
435.02	1116.86
435.38	1118.87
435.75	1119.24
436.11	1117.28
436.48	1117.49
436.84	1116.62
437.21	1115.24
437.57	1114.14
437.94	1112.32
438.30	1111.24
438.67	1109.67
439.03	1106.46
439.40	1107.33
439.76	1109.65
440.13	1107.92
440.49	1108.97
440.86	1109.81
441.22	1109.16
441.59	1109.69
441.95	1112.62
442.32	1108.24
442.68	1109.67
443.05	1112.83
443.41	1111.89
443.78	1110.68
444.14	1113.49
444.51	1113.91
444.87	1109.81
445.24	1110.72
445.60	1111.82
445.96	1111.85
446.33	1112.57
446.69	1115.71
447.06	1116.55
447.42	1114.87
447.79	1116.86
448.15	1117.35
448.51	1115.38
448.88	1113.81
449.24	1111.47
449.61	1110.82
449.97	1109.62
450.33	1109.53
450.70	1111.85
451.06	1118.00
451.43	1119.13
451.79	1119.48
452.15	1117.44
452.52	1115.64
452.88	1112.15
453.24	1109.60
453.61	1108.43
453.97	1111.54
454.34	1112.67
454.70	1112.83
455.06	1114.38
455.43	1115.48
455.79	1113.72
456.15	1113.25
456.52	1112.62
456.88	1113.44
457.24	1111.87
457.61	1111.66
457.97	1109.98
458.33	1111.36
458.70	1109.58
459.06	1108.31
459.42	1111.22
459.79	1113.32
460.15	1114.47
460.51	1114.70
460.88	1118.89
461.24	1117.00
461.60	1120.98
461.96	1121.56
462.33	1125.14
462.69	1122.94
463.05	1125.26
463.42	1121.37
463.78	1121.37
464.14	1119.90
464.50	1123.18
464.87	1122.90
465.23	1125.80
465.59	1126.29
465.95	1127.20
466.32	1126.92
466.68	1125.49
467.04	1124.16
467.40	1124.25
467.77	1122.68
468.13	1124.91
468.49	1128.91
468.85	1130.39
469.22	1131.95
469.58	1137.45
469.94	1135.02
470.30	1137.76
470.66	1142.63
471.03	1144.45
471.39	1144.15
471.75	1150.09
472.11	1151.38
472.47	1151.33
472.84	1153.65
473.20	1157.44
473.56	1159.57
473.92	1163.08
474.28	1165.87
474.65	1173.50
475.01	1176.96
475.37	1182.11
475.73	1183.80
476.09	1186.91
476.45	1190.72
476.81	1195.73
477.18	1199.24
477.54	1206.59
477.90	1211.93
478.26	1215.84
478.62	1224.40
478.98	1231.26
479.34	1236.74
479.71	1245.73
480.07	1252.58
480.43	1260.78
480.79	1269.97
481.15	1283.11
481.51	1293.47
481.87	1305.25
482.23	1313.51
482.59	1324.93
482.96	1334.32
483.32	1347.31
483.68	1362.85
484.04	1380.03
484.40	1393.84
484.76	1411.83
485.12	1428.64
485.48	1448.77
485.84	1470.02
486.20	1494.50
486.56	1518.77
486.92	1545.99
487.28	1568.67
487.64	1593.83
488.00	1621.29
488.37	1646.15
488.73	1676.62
489.09	1710.16
489.45	1744.96
489.81	1782.39
490.17	1824.68
490.53	1859.32
490.89	1898.08
491.25	1940.44
491.61	1985.08
491.97	2030.04
492.33	2087.27
492.69	2140.63
493.05	2192.82
493.41	2248.79
493.77	2312.66
494.13	2375.85
494.49	2443.82
494.85	2515.61
495.21	2591.65
495.57	2668.02
495.93	2747.79
496.29	2830.92
496.64	2927.57
497.00	3020.27
497.36	3118.44
497.72	3222.24
498.08	3331.47
498.44	3444.71
498.80	3567.16
499.16	3695.57
499.52	3836.47
499.88	3987.59
500.24	4143.45
500.60	4294.56
500.96	4459.26
501.32	4628.08
501.68	4806.92
502.03	4992.01
502.39	5212.77
502.75	5423.56
503.11	5649.66
503.47	5881.13
503.83	6115.07
504.19	6358.60
504.55	6633.13
504.91	6910.36
505.26	7186.73
505.62	7497.93
505.98	7814.30
506.34	8140.22
506.70	8504.24
507.06	8892.37
507.42	9296.21
507.78	9705.99
508.13	10129.35
508.49	10553.99
508.85	11016.95
509.21	11491.12
509.57	12019.40
509.93	12585.79
510.28	13183.42
510.64	13807.90
511.00	14423.34
511.36	14999.21
511.72	15574.18
512.07	16201.59
512.43	16789.13
512.79	17440.83
513.15	18178.50
513.51	18934.35
513.86	19668.93
514.22	20519.59
514.58	21329.33
514.94	22157.36
515.30	22992.16
515.65	23808.40
516.01	24631.99
516.37	25493.96
516.73	26259.99
517.08	27123.09
517.44	27957.14
517.80	28750.63
518.16	29578.38
518.51	30404.94
518.87	31154.00
519.23	32039.66
519.59	32923.26
519.94	33743.74
520.30	34619.31
520.66	35394.77
521.01	36179.04
521.37	36849.72
521.73	37466.38
522.09	38053.67
522.44	38692.22
522.80	39094.97
523.16	39443.41
523.51	39720.34
523.87	40025.22
524.23	40291.46
524.58	40571.24
524.94	40986.81
525.30	41339.74
525.65	41535.03
526.01	41568.17
526.37	41543.20
526.72	41441.27
527.08	41300.51
527.44	41117.60
527.79	40971.15
528.15	40886.37
528.51	40664.12
528.86	40436.76
529.22	40202.82
529.58	39929.68
529.93	39529.96
530.29	39089.64
530.65	38747.26
531.00	38402.50
531.36	37955.20
531.71	37496.60
532.07	37018.92
532.43	36407.97
532.78	35725.52
533.14	35174.25
533.49	34610.51
533.85	33994.67
534.21	33385.78
534.56	32835.49
534.92	32230.37
535.27	31604.02
535.63	31017.43
535.98	30411.66
536.34	29787.34
536.69	29135.76
537.05	28541.55
537.41	28027.38
537.76	27526.29
538.12	26979.80
538.47	26505.44
538.83	26048.17
539.18	25561.93
539.54	25076.99
539.89	24616.35
540.25	24102.95
540.60	23628.64
540.96	23135.14
541.31	22675.06
541.67	22249.65
542.02	21850.31
542.38	21407.78
542.73	20960.32
543.09	20555.68
543.44	20194.38
543.80	19851.07
544.15	19450.34
544.51	19112.23
544.86	18794.17
545.22	18425.05
545.57	18043.33
545.93	17691.15
546.28	17377.71
546.64	17043.99
546.99	16717.30
547.35	16396.15
547.70	16100.36
548.05	15784.27
548.41	15484.91
548.76	15172.97
549.12	14895.78
549.47	14625.33
549.83	14371.36
550.18	14049.44
550.53	13732.11
550.89	13450.59
551.24	13170.05
551.60	12851.88
551.95	12591.94
552.30	12368.63
552.66	12116.37
553.01	11858.98
553.37	11603.35
553.72	11334.21
554.07	11070.83
554.43	10789.92
554.78	10522.72
555.13	10266.27
555.49	10051.29
555.84	9858.06
556.19	9680.43
556.55	9494.31
556.90	9307.58
557.26	9092.40
557.61	8863.73
557.96	8616.12
558.32	8404.18
558.67	8193.30
559.02	7988.04
559.37	7803.39
559.73	7663.22
560.08	7509.09
560.43	7352.77
560.79	7227.69
561.14	7078.90
561.49	6914.25
561.85	6761.08
562.20	6611.97
562.55	6468.98
562.90	6336.16
563.26	6217.66
563.61	6093.12
563.96	5990.55
564.32	5876.22
564.67	5754.09
565.02	5617.43
565.37	5510.30
565.73	5394.40
566.08	5277.35
566.43	5173.38
566.78	5074.38
567.14	4963.85
567.49	4862.79
567.84	4761.49
568.19	4661.15
568.54	4575.49
568.90	4488.84
569.25	4403.48
569.60	4332.45
569.95	4257.04
570.31	4176.17
570.66	4096.52
571.01	4014.60
571.36	3922.22
571.71	3845.48
572.06	3774.82
572.42	3711.36
572.77	3651.89
573.12	3599.23
573.47	3539.29
573.82	3477.29
574.18	3407.98
574.53	3353.47
574.88	3300.81
575.23	3252.01
575.58	3205.41
575.93	3160.10
576.28	3102.24
576.64	3041.81
576.99	2977.21
577.34	2920.99
577.69	2860.77
578.04	2805.34
578.39	2757.22
578.74	2720.78
579.09	2679.77
579.44	2642.89
579.80	2609.02
580.15	2567.40
580.50	2525.23
580.85	2488.76
581.20	2457.35
581.55	2427.53
581.90	2405.86
582.25	2378.38
582.60	2343.74
582.95	2305.73
583.30	2267.00
583.65	2229.99
584.00	2192.85
584.35	2159.54
584.71	2127.36
585.06	2098.41
585.41	2067.16
585.76	2040.36
586.11	2018.92
586.46	1999.52
586.81	1975.34
587.16	1954.25
587.51	1933.17
587.86	1911.02
588.21	1891.53
588.56	1876.38
588.91	1858.01
589.26	1839.78
589.61	1818.25
589.96	1796.24
590.31	1775.51
590.66	1758.07
591.01	1744.47
591.36	1729.73
591.71	1713.95
592.06	1695.27
592.41	1678.80
592.76	1665.24
593.10	1652.61
593.45	1639.69
593.80	1626.37
594.15	1612.70
594.50	1597.53
594.85	1580.26
595.20	1568.91
595.55	1556.13
595.90	1544.33
596.25	1531.37
596.60	1521.51
596.95	1510.11
597.30	1501.45
597.64	1545.76
597.99	1540.56
598.34	1531.67
598.69	1523.50
599.04	1517.07
599.39	1451.32
599.74	1439.50
600.09	1433.60
600.44	1422.84
600.78	1411.76
601.13	1407.86
601.48	1402.26
601.83	1395.64
602.18	1392.53
602.53	1386.21
602.88	1379.32
603.22	1370.43
603.57	1360.72
603.92	1348.99
604.27	1342.77
604.62	1336.21
604.97	1328.02
605.31	1323.85
605.66	1321.37
606.01	1316.74
606.36	1311.99
606.71	1308.71
607.05	1301.90
607.40	1295.37
607.75	1292.05
608.10	1285.12
608.44	1279.03
608.79	1277.72
609.14	1275.76
609.49	1272.39
609.84	1270.93
610.18	1268.36
610.53	1267.52
610.88	1262.27
611.23	1260.33
611.57	1257.36
611.92	1254.22
612.27	1245.96
612.62	1242.03
612.96	1238.07
613.31	1229.69
613.66	1226.49
614.00	1224.57
614.35	1222.56
614.70	1216.91
615.05	1215.98
615.39	1213.78
615.74	1207.51
616.09	1205.59
616.43	1204.09
616.78	1202.22
617.13	1199.43
617.47	1198.35
617.82	1194.35
618.17	1192.48
618.51	1188.24
618.86	1186.37
619.21	1185.48
619.55	1181.97
619.90	1177.57
620.25	1175.79
620.59	1174.69
620.94	1170.85
621.29	1171.77
621.63	1169.87
621.98	1168.16
622.32	1163.71
622.67	1164.98
623.02	1163.90
623.36	1158.05
623.71	1157.16
624.05	1155.52
624.40	1150.82
624.75	1147.73
625.09	1147.61
625.44	1145.76
625.78	1143.91
626.13	1141.43
626.48	1139.30
626.82	1140.33
627.17	1138.88
627.51	1135.70
627.86	1137.57
628.20	1136.19
628.55	1133.17
628.89	1131.30
629.24	1132.42
629.58	1130.15
629.93	1129.99
630.28	1132.33
630.62	1132.82
630.97	1134.15
631.31	1132.23
631.66	1132.75
632.00	1129.87
632.35	1128.51
632.69	1128.61
633.04	1127.97
633.38	1128.44
633.73	1130.22
634.07	1131.88
634.42	1128.04
634.76	1126.85
635.11	1123.25
635.45	1116.34
635.79	1111.78
636.14	1113.77
636.48	1117.54
636.83	1118.68
637.17	1121.49
637.52	1124.11
637.86	1120.34
638.21	1119.57
638.55	1117.11
638.89	1119.31
639.24	1116.93
639.58	1116.55
639.93	1114.19
640.27	1115.83
640.61	1115.62
640.96	1112.48
641.30	1113.16
641.65	1110.87
641.99	1107.78
642.33	1104.26
642.68	1107.14
643.02	1108.38
643.37	1109.51
643.71	1109.04
644.05	1108.71
644.40	1106.65
644.74	1105.32
645.08	1105.69
645.43	1108.22
645.77	1107.75
646.11	1109.13
646.46	1106.37
646.80	1104.38
647.14	1098.39
647.49	1102.04
647.83	1104.29
648.17	1106.18
648.52	1109.91
648.86	1114.98
649.20	1116.27
649.55	1113.51
649.89	1111.50
650.23	1107.12
650.57	1103.59
650.92	1097.90
651.26	1098.23
651.60	1099.65
651.95	1099.89
652.29	1103.52
652.63	1103.56
652.97	1104.33
653.32	1101.97
653.66	1104.24
654.00	1104.85
654.34	1105.74
654.69	1105.58
655.03	1107.49
655.37	1103.68
655.71	1101.62
656.05	1102.46
656.40	1101.95
656.74	1101.76
657.08	1103.02
657.42	1099.77
657.76	1095.60
658.11	1092.68
658.45	1089.03
658.79	1088.72
659.13	1094.06
659.47	1097.62
659.82	1102.28
660.16	1104.94
660.50	1102.09
660.84	1097.45
661.18	1096.28
661.52	1093.03
661.87	1094.39
662.21	1098.32
662.55	1098.23
662.89	1094.41
663.23	1095.09
663.57	1094.90
663.91	1090.74
664.25	1088.91
664.60	1088.96
664.94	1087.37
665.28	1083.79
665.62	1085.84
665.96	1087.55
666.30	1091.63
666.64	1093.47
666.98	1097.92
667.32	1097.38
667.66	1099.16
668.01	1099.79
668.35	1098.60
668.69	1095.18
669.03	1094.69
669.37	1094.60
669.71	1094.01
670.05	1091.70
670.39	1092.54
670.73	1094.39
671.07	1093.85
671.41	1094.86
671.75	1095.51
672.09	1094.29
672.43	1094.62
672.77	1092.42
673.11	1089.59
673.45	1090.27
673.79	1089.85
674.13	1089.71
674.47	1091.46
674.81	1089.66
675.15	1092.14
675.49	1089.68
675.83	1086.20
676.17	1089.61
676.51	1094.27
676.85	1094.90
677.19	1096.75
677.53	1098.81
677.87	1094.50
678.21	1093.12
678.55	1089.96
678.89	1091.20
679.23	1090.88
679.57	1088.82
679.90	1084.09
680.24	1087.93
680.58	1086.36
680.92	1089.07
681.26	1090.34
681.60	1095.09
681.94	1093.80
682.28	1095.04
682.62	1090.32
682.96	1092.00
683.29	1090.71
683.63	1089.36
683.97	1088.86
684.31	1091.65
684.65	1091.23
684.99	1090.67
685.33	1087.30
685.67	1091.70
686.00	1093.76
686.34	1094.79
686.68	1095.91
687.02	1099.79
687.36	1098.09
687.70	1095.96
688.03	1095.00
688.37	1094.93
688.71	1093.69
689.05	1091.44
689.39	1090.55
689.72	1091.16
690.06	1091.63
690.40	1093.73
690.74	1094.06
691.08	1096.33
691.41	1095.72
691.75	1095.96
692.09	1093.78
692.43	1092.70
692.76	1092.37
693.10	1093.78
693.44	1092.05
693.78	1094.18
694.11	1096.92
694.45	1097.31
694.79	1095.51
695.13	1096.87
695.46	1093.73
695.80	1092.87
696.14	1090.76
696.48	1091.98
696.81	1092.61
697.15	1092.23
697.49	1091.51
697.82	1093.17
698.16	1093.10
698.50	1091.51
698.83	1093.92
699.17	1094.39
699.51	1093.47
699.84	1094.60
700.18	1095.63
700.52	1096.52
700.85	1095.07
701.19	1094.46
701.53	1088.56
701.86	1085.73
702.20	1084.60
702.54	1084.65
702.87	1084.04
703.21	1087.06
703.55	1089.75
703.88	1089.66
704.22	1090.81
704.55	1092.91
704.89	1095.49
705.23	1093.40
705.56	1094.08
705.90	1094.95
706.23	1093.71
706.57	1092.77
706.91	1094.08
707.24	1090.90
707.58	1089.59
707.91	1092.52
708.25	1093.24
708.58	1092.47
708.92	1091.18
709.26	1090.88
709.59	1087.44
709.93	1084.81
710.26	1087.16
710.60	1090.78
710.93	1095.58
711.27	1094.27
711.60	1092.66
711.94	1092.14
712.27	1089.29
712.61	1087.32
712.94	1089.36
713.28	1093.47
713.61	1092.61
713.95	1094.55
714.28	1090.36
714.62	1091.42
714.95	1088.65
715.29	1089.05
715.62	1088.00
715.96	1090.64
716.29	1088.40
716.63	1090.69
716.96	1090.81
717.29	1090.74
717.63	1091.67
717.96	1092.80
718.30	1089.52
718.63	1089.24
718.97	1089.43
719.30	1088.98
719.63	1091.44
719.97	1095.23
720.30	1096.07
720.64	1099.54
720.97	1097.22
721.30	1097.03
721.64	1096.10
721.97	1095.49
722.31	1090.27
722.64	1090.92
722.97	1089.73
723.31	1088.63
723.64	1087.39
723.97	1090.08
724.31	1091.18
724.64	1090.20
724.98	1088.82
725.31	1088.51
725.64	1089.94
725.98	1088.07
726.31	1085.66
726.64	1086.45
726.97	1085.82
727.31	1082.33
727.64	1082.76
727.97	1084.44
728.31	1085.47
728.64	1085.59
728.97	1087.69
729.31	1087.86
729.64	1086.59
729.97	1085.35
730.30	1088.07
730.64	1090.41
730.97	1090.85
731.30	1090.64
731.63	1092.28
731.97	1088.54
732.30	1088.65
732.63	1089.57
732.96	1092.56
733.30	1090.41
733.63	1093.12
733.96	1092.02
734.29	1091.18
734.63	1089.78
734.96	1091.25
735.29	1092.37
735.62	1090.39
735.95	1085.77
736.29	1086.76
736.62	1085.19
736.95	1081.61
737.28	1083.06
737.61	1089.96
737.94	1088.07
738.28	1087.74
738.61	1088.96
738.94	1088.33
739.27	1084.11
739.60	1085.33
739.93	1086.01
740.27	1084.23
740.60	1084.44
740.93	1087.09
741.26	1088.16
741.59	1088.42
741.92	1093.03
742.25	1094.13
742.58	1091.81
742.91	1090.34
743.25	1091.72
743.58	1088.75
743.91	1087.11
744.24	1088.47
744.57	1089.87
744.90	1086.87
745.23	1087.88
745.56	1088.54
745.89	1089.64
746.22	1086.78
746.55	1089.24
746.88	1088.96
747.21	1088.35
747.54	1086.22
747.87	1084.70
748.20	1083.90
748.53	1087.18
748.87	1085.35
749.20	1091.53
749.53	1094.50
749.86	1096.35
750.19	1089.64
750.52	1087.93
750.85	1084.32
751.18	1085.45
751.51	1083.36
751.84	1087.72
752.16	1092.66
752.49	1088.14
752.82	1088.26
753.15	1088.30
753.48	1089.94
753.81	1087.02
754.14	1090.13
754.47	1090.15
754.80	1089.47
755.13	1087.44
755.46	1088.79
755.79	1087.32
756.12	1090.13
756.45	1089.80
756.78	1089.07
757.11	1089.03
757.43	1092.91
757.76	1092.40
758.09	1093.59
758.42	1094.62
758.75	1093.80
759.08	1092.09
759.41	1089.85
759.74	1090.22
760.07	1089.99
760.39	1091.77
760.72	1092.02
761.05	1091.11
761.38	1090.39
761.71	1088.47
762.04	1086.03
762.36	1083.29
762.69	1082.69
763.02	1083.95
763.35	1087.27
763.68	1089.52
764.01	1091.27
764.33	1094.22
764.66	1091.72
764.99	1088.70
765.32	1088.82
765.65	1088.93
765.97	1088.82
766.30	1092.49
766.63	1095.30
766.96	1092.00
767.28	1087.86
767.61	1084.44
767.94	1082.19
768.27	1078.87
768.59	1081.21
768.92	1087.06
769.25	1088.35
769.58	1086.52
769.90	1088.58
770.23	1091.72
770.56	1091.67
770.89	1091.06
771.21	1093.80
771.54	1093.33
771.87	1090.57
772.19	1088.58
772.52	1090.50
772.85	1089.26
773.17	1087.34
773.50	1087.27
773.83	1087.95
774.15	1083.20
774.48	1082.59
774.81	1085.45
775.13	1085.45
775.46	1083.88
775.79	1087.27
776.11	1089.00
776.44	1088.28
776.77	1088.28
777.09	1090.15
777.42	1089.38
777.74	1086.80
778.07	1085.87
778.40	1087.79
778.72	1087.53
779.05	1086.87
779.37	1089.07
779.70	1089.82
780.03	1087.95
780.35	1086.55
780.68	1087.62
781.00	1089.03
781.33	1087.65
781.65	1089.78
781.98	1089.68
782.31	1090.15
782.63	1091.18
782.96	1094.95
783.28	1093.73
783.61	1093.03
783.93	1090.76
784.26	1087.25
784.58	1086.13
784.91	1084.02
785.23	1086.43
785.56	1090.36
785.88	1090.95
786.21	1087.55
786.53	1090.48
786.86	1092.89
787.18	1089.82
787.51	1088.89
787.83	1090.29
788.16	1088.77
788.48	1084.58
788.81	1085.21
789.13	1087.18
789.46	1085.56
789.78	1084.77
790.10	1084.02
790.43	1086.34
790.75	1086.78
791.08	1088.70
791.40	1089.47
791.73	1096.05
792.05	1093.80
792.37	1092.91
792.70	1094.76
793.02	1098.46
793.35	1095.93
793.67	1097.76
793.99	1099.07
794.32	1098.88
794.64	1095.58
794.96	1095.28
795.29	1092.45
795.61	1092.84
795.93	1090.88
796.26	1091.42
796.58	1087.20
796.91	1087.37
797.23	1085.80
797.55	1082.43
797.87	1080.88
798.20	1082.87
798.52	1084.04
798.84	1082.73
799.17	1084.74
799.49	1085.70
799.81	1087.02
800.14	1087.46
800.46	1089.05
800.78	1091.20
801.10	1090.03
801.43	1086.50
801.75	1084.30
802.07	1082.05
802.40	1081.19
802.72	1082.31
803.04	1083.39
803.36	1085.91
803.69	1085.33
804.01	1085.56
804.33	1084.37
804.65	1085.75
804.97	1084.28
805.30	1085.84
805.62	1088.00
805.94	1087.74
806.26	1086.27
806.58	1087.95
806.91	1088.33
807.23	1087.79
807.55	1086.87
807.87	1087.72
808.19	1087.90
808.52	1088.70
808.84	1088.96
809.16	1089.92
809.48	1089.38
809.80	1086.80
810.12	1087.20
810.44	1084.23
810.77	1084.37
811.09	1084.44
811.41	1088.14
811.73	1085.28
812.05	1084.18
812.37	1084.93
812.69	1081.96
813.01	1079.53
813.33	1081.54
813.66	1085.12
813.98	1081.23
814.30	1085.70
814.62	1085.14
814.94	1086.31
815.26	1085.89
815.58	1088.96
815.90	1090.24
816.22	1090.50
816.54	1091.18
816.86	1092.42
817.18	1090.64
817.50	1087.83
817.82	1089.57
818.14	1088.23
818.46	1087.30
818.78	1089.33
819.10	1089.19
819.42	1086.15
819.74	1084.72
820.06	1085.17
820.38	1082.59
820.70	1084.70
821.02	1087.97
821.34	1088.70
821.66	1086.34
821.98	1089.36
822.30	1089.50
822.62	1085.66
822.94	1085.84
823.26	1088.04
823.58	1089.64
823.90	1087.72
824.22	1090.55
824.54	1089.80
824.86	1089.10
825.18	1088.28
825.50	1087.67
825.81	1086.97
826.13	1088.02
826.45	1085.73
826.77	1086.15
827.09	1086.48
827.41	1086.50
827.73	1084.70
828.05	1085.21
828.36	1081.77
828.68	1082.01
829.00	1080.09
829.32	1081.84
829.64	1083.53
829.96	1085.49
830.28	1085.75
830.59	1083.95
830.91	1086.03
831.23	1084.16
831.55	1084.77
831.87	1085.66
832.19	1089.89
832.50	1086.17
832.82	1085.77
833.14	1083.08
833.46	1081.00
833.78	1083.90
834.09	1084.11
834.41	1086.66
834.73	1092.21
835.05	1090.67
835.36	1086.24
835.68	1087.44
836.00	1088.23
836.32	1084.02
836.63	1088.44
836.95	1089.40
837.27	1088.56
837.59	1086.52
837.90	1086.62
838.22	1083.64
838.54	1083.62
838.85	1081.96
839.17	1083.18
839.49	1084.84
839.80	1087.04
840.12	1086.69
840.44	1087.62
840.76	1086.57
841.07	1083.60
841.39	1082.57
841.71	1082.29
842.02	1085.87
842.34	1083.32
842.65	1085.54
842.97	1083.57
843.29	1083.36
843.60	1082.29
843.92	1087.39
844.24	1089.45
844.55	1090.10
844.87	1090.71
845.18	1088.51
845.50	1087.58
845.82	1084.84
846.13	1088.09
846.45	1086.80
846.76	1090.60
847.08	1087.93
847.40	1086.71
847.71	1085.07
848.03	1085.05
848.34	1082.08
848.66	1081.73
848.97	1080.88
849.29	1082.08
849.60	1085.52
849.92	1087.46
850.24	1087.25
850.55	1090.41
850.87	1088.44
851.18	1088.09
851.50	1089.19
851.81	1089.89
852.13	1086.99
852.44	1090.01
852.76	1086.73
853.07	1086.55
853.39	1087.60
853.70	1089.12
854.01	1084.89
854.33	1087.37
854.64	1084.23
854.96	1083.86
855.27	1086.73
855.59	1091.09
855.90	1091.18
856.22	1089.22
856.53	1087.60
856.84	1086.43
857.16	1081.19
857.47	1078.61
857.79	1079.50
858.10	1081.40
858.41	1079.95
858.73	1078.71
859.04	1080.74
859.36	1080.88
859.67	1080.51
859.98	1083.18
860.30	1087.83
860.61	1087.20
860.92	1088.72
861.24	1088.91
861.55	1086.66
861.87	1085.59
862.18	1085.31
862.49	1084.07
862.81	1082.54
863.12	1079.74
863.43	1078.80
863.74	1075.34
864.06	1076.69
864.37	1079.38
864.68	1080.95
865.00	1083.60
865.31	1084.37
865.62	1085.26
865.94	1085.12
866.25	1084.74
866.56	1084.70
866.87	1087.02
867.19	1085.33
867.50	1082.76
867.81	1084.65
868.12	1085.33
868.44	1084.84
868.75	1089.82
869.06	1091.93
869.37	1088.42
869.68	1085.96
870.00	1083.93
870.31	1077.28
870.62	1079.27
870.93	1082.64
871.24	1083.36
871.56	1085.49
871.87	1087.86
872.18	1086.06
872.49	1082.22
872.80	1081.42
873.12	1080.25
873.43	1081.75
873.74	1081.96
874.05	1085.49
874.36	1083.90
874.67	1085.17
874.98	1085.35
875.29	1084.67
875.61	1087.48
875.92	1090.01
876.23	1090.10
876.54	1087.32
876.85	1086.13
877.16	1082.47
877.47	1082.52
877.78	1083.13
878.09	1085.96
878.40	1087.02
878.72	1088.37
879.03	1083.88
879.34	1084.79
879.65	1084.70
879.96	1083.27
880.27	1081.96
880.58	1087.34
880.89	1089.29
881.20	1090.64
881.51	1091.60
881.82	1091.09
882.13	1087.06
882.44	1081.89
882.75	1075.43
883.06	1075.31
883.37	1076.74
883.68	1077.00
883.99	1078.82
884.30	1083.62
884.61	1083.83
884.92	1084.67
885.23	1085.89
885.54	1086.15
885.85	1081.96
886.16	1079.67
886.47	1077.35
886.78	1079.85
887.08	1079.97
887.39	1083.64
887.70	1087.48
888.01	1087.72
888.32	1084.44
888.63	1085.63
888.94	1082.47
889.25	1081.68
889.56	1084.23
889.87	1087.55
890.17	1086.31
890.48	1088.49
890.79	1088.91
891.10	1088.19
891.41	1086.27
891.72	1089.38
892.03	1089.61
892.34	1086.59
892.64	1084.86
892.95	1084.58
893.26	1080.04
893.57	1078.71
893.88	1080.30
894.18	1081.33
894.49	1082.10
894.80	1082.94
895.11	1081.37
895.42	1083.13
895.72	1084.74
896.03	1085.40
896.34	1085.75
896.65	1089.61
896.96	1088.04
897.26	1083.83
897.57	1084.23
897.88	1083.50
898.19	1082.12
898.49	1082.83
898.80	1086.62
899.11	1085.17
899.41	1084.00
899.72	1084.93
900.03	1083.69
900.34	1082.73
900.64	1084.23
900.95	1086.48
901.26	1085.10
901.56	1084.56
901.87	1084.51
902.18	1083.62
902.48	1082.33
902.79	1081.94
903.10	1080.67
903.40	1081.84
903.71	1079.27
904.02	1080.34
904.32	1078.36
904.63	1078.85
904.94	1075.64
905.24	1077.93
905.55	1079.43
905.85	1080.44
906.16	1085.68
906.47	1089.17
906.77	1088.33
907.08	1089.03
907.38	1090.62
907.69	1088.07
908.00	1086.38
908.30	1087.55
908.61	1082.52
908.91	1080.91
909.22	1078.19
909.52	1079.76
909.83	1080.04
910.14	1081.56
910.44	1082.26
910.75	1084.00
911.05	1084.91
911.36	1085.31
911.66	1085.99
911.97	1087.72
912.27	1091.32
912.58	1088.84
912.88	1088.07
913.19	1089.52
913.49	1088.86
913.80	1087.39
914.10	1082.64
914.41	1082.10
914.71	1081.42
915.01	1082.87
915.32	1082.19
915.62	1085.99
915.93	1087.20
916.23	1086.17
916.54	1083.55
916.84	1083.29
917.15	1087.48
917.45	1084.60
917.75	1089.64
918.06	1092.89
918.36	1090.78
918.67	1085.59
918.97	1089.92
919.27	1085.31
919.58	1082.97
919.88	1084.91
920.18	1087.88
920.49	1084.02
920.79	1087.65
921.10	1089.54
921.40	1088.63
921.70	1086.71
922.01	1088.28
922.31	1085.66
922.61	1082.80
922.92	1081.58
923.22	1083.86
923.52	1082.08
923.82	1080.93
924.13	1084.72
924.43	1085.56
924.73	1084.18
925.04	1085.80
925.34	1088.21
925.64	1085.45
925.94	1082.57
926.25	1085.40
926.55	1085.84
926.85	1084.84
927.15	1086.43
927.46	1089.47
927.76	1087.69
928.06	1086.03
928.36	1085.17
928.67	1082.52
928.97	1084.63
929.27	1085.42
929.57	1086.62
929.87	1086.90
930.18	1089.92
930.48	1085.45
930.78	1083.76
931.08	1086.66
931.38	1088.96
931.69	1086.85
931.99	1090.81
932.29	1090.36
932.59	1089.59
932.89	1088.26
933.19	1088.63
933.49	1086.01
933.80	1083.97
934.10	1082.12
934.40	1083.34
934.70	1081.40
935.00	1080.86
935.30	1082.36
935.60	1083.50
935.90	1080.98
936.20	1082.52
936.50	1081.91
936.81	1081.28
937.11	1077.54
937.41	1075.80
937.71	1075.99
938.01	1077.68
938.31	1079.81
938.61	1084.07
938.91	1087.18
939.21	1088.04
939.51	1089.45
939.81	1089.94
940.11	1087.83
940.41	1087.23
940.71	1083.39
941.01	1083.57
941.31	1081.37
941.61	1082.40
941.91	1082.01
942.21	1083.71
942.51	1083.64
942.81	1086.27
943.11	1085.14
943.41	1086.36
943.71	1087.53
944.01	1087.16
944.31	1084.09
944.61	1083.06
944.90	1081.70
945.20	1080.98
945.50	1080.74
945.80	1081.02
946.10	1079.60
946.40	1080.65
946.70	1084.53
947.00	1084.79
947.30	1086.55
947.60	1089.80
947.89	1091.63
948.19	1090.95
948.49	1093.50
948.79	1091.13
949.09	1088.77
949.39	1086.03
949.69	1081.44
949.98	1080.46
950.28	1080.44
950.58	1080.30
950.88	1080.02
951.18	1083.41
951.48	1081.56
951.77	1083.18
952.07	1084.23
952.37	1085.82
952.67	1085.61
952.97	1087.37
953.26	1086.90
953.56	1086.45
953.86	1085.19
954.16	1088.02
954.45	1085.84
954.75	1085.31
955.05	1083.36
955.35	1083.57
955.64	1079.92
955.94	1079.10
956.24	1078.94
956.54	1083.27
956.83	1084.30
957.13	1085.19
957.43	1088.79
957.72	1089.31
958.02	1087.09
958.32	1087.46
958.61	1085.33
958.91	1082.54
959.21	1081.75
959.50	1085.24
959.80	1082.87
960.10	1078.71
960.39	1078.00
960.69	1080.88
960.99	1075.20
961.28	1074.03
961.58	1077.98
961.87	1077.79
962.17	1076.25
962.47	1079.95
962.76	1083.88
963.06	1087.18
963.36	1086.48
963.65	1084.77
963.95	1082.12
964.24	1079.97
964.54	1077.11
964.83	1077.54
965.13	1078.05
965.42	1080.70
965.72	1081.61
966.02	1082.78
966.31	1082.08
966.61	1083.13
966.90	1083.90
967.20	1084.35
967.49	1084.56
967.79	1085.70
968.08	1085.80
968.38	1084.39
968.67	1083.01
968.97	1081.28
969.26	1081.16
969.56	1083.53
969.85	1080.67
970.15	1078.50
970.44	1078.33
970.74	1079.48
971.03	1076.37
971.32	1079.46
971.62	1082.80
971.91	1081.84
972.21	1079.64
972.50	1081.14
972.80	1083.11
973.09	1082.45
973.38	1084.81
973.68	1088.56
973.97	1087.37
974.27	1083.79
974.56	1080.74
974.85	1079.20
975.15	1076.20
975.44	1078.28
975.73	1079.38
976.03	1082.69
976.32	1085.31
976.61	1085.52
976.91	1081.63
977.20	1078.57
977.49	1078.31
977.79	1076.04
978.08	1079.10
978.37	1079.69
978.67	1086.03
978.96	1083.69
979.25	1081.98
979.55	1080.46
979.84	1082.40
980.13	1077.96
980.42	1078.89
980.72	1081.75
981.01	1081.23
981.30	1078.59
981.59	1078.64
981.89	1083.36
982.18	1082.94
982.47	1084.77
982.76	1083.46
983.06	1087.62
983.35	1083.15
983.64	1083.74
983.93	1081.28
984.22	1084.70
984.52	1080.58
984.81	1080.09
985.10	1081.00
985.39	1082.47
985.68	1081.37
985.97	1083.55
986.27	1084.93
986.56	1084.96
986.85	1084.02
987.14	1082.61
987.43	1078.61
987.72	1079.36
988.01	1079.17
988.31	1076.81
988.60	1078.52
988.89	1080.20
989.18	1077.61
989.47	1078.03
989.76	1080.51
990.05	1078.71
990.34	1079.20
990.63	1080.32
990.92	1080.18
991.21	1080.27
991.51	1083.20
991.80	1081.56
992.09	1083.04
992.38	1082.40
992.67	1080.93
992.96	1080.88
993.25	1085.47
993.54	1085.00
993.83	1084.86
994.12	1087.76
994.41	1087.13
994.70	1084.70
994.99	1085.35
995.28	1085.59
995.57	1082.29
995.86	1081.73
996.15	1079.92
996.44	1076.69
996.73	1076.62
997.02	1078.89
997.31	1082.31
997.59	1083.13
997.88	1084.72
998.17	1083.11
998.46	1081.44
998.75	1079.41
999.04	1083.15
999.33	1084.30
999.62	1084.65
999.91	1083.41
1000.20	1086.06
1000.49	1085.75
1000.77	1085.89
1001.06	1086.08
1001.35	1087.90
1001.64	1085.61
1001.93	1081.89
1002.22	1081.07
1002.51	1081.40
1002.79	1083.34
1003.08	1081.47
1003.37	1085.24
1003.66	1086.24
1003.95	1087.02
1004.23	1086.34
1004.52	1090.01
1004.81	1086.13
1005.10	1084.32
1005.39	1083.50
1005.67	1083.34
1005.96	1081.94
1006.25	1081.82
1006.54	1083.36
1006.83	1082.29
1007.11	1082.85
1007.40	1081.82
1007.69	1081.61
1007.97	1078.57
1008.26	1080.44
1008.55	1077.02
1008.84	1076.97
1009.12	1079.10
1009.41	1083.27
1009.70	1080.65
1009.98	1084.09
1010.27	1083.15
1010.56	1084.74
1010.85	1082.64
1011.13	1087.37
1011.42	1086.73
1011.71	1087.46
1011.99	1083.39
1012.28	1083.74
1012.56	1080.56
1012.85	1079.17
1013.14	1079.67
1013.42	1082.66
1013.71	1079.53
1014.00	1078.59
1014.28	1078.10
1014.57	1075.64
1014.85	1076.15
1015.14	1081.07
1015.43	1083.36
1015.71	1083.20
1016.00	1084.84
1016.28	1082.97
1016.57	1080.30
1016.85	1079.10
1017.14	1082.12
1017.43	1084.18
1017.71	1085.49
1018.00	1084.93
1018.28	1083.04
1018.57	1079.99
1018.85	1077.84
1019.14	1076.13
1019.42	1077.07
1019.71	1079.41
1019.99	1082.69
1020.28	1086.10
1020.56	1087.37
1020.85	1089.29
1021.13	1091.65
1021.42	1090.92
1021.70	1088.35
1021.99	1091.04
1022.27	1089.24
1022.55	1096.07
1022.84	1081.80
>>>>>End Processed Spectral Data<<<<<
