SpectraSuite Data File
++++++++++++++++++++++++++++++++++++
Date: Mon Aug 26 10:26:34 PDT 2019
User: corrico
Dark Spectrum Present: No
Reference Spectrum Present: No
Number of Sampled Component Spectra: 1
Spectrometers: USB2+H06089
Integration Time (usec): 10000 (USB2+H06089)
Spectra Averaged: 20 (USB2+H06089)
Boxcar Smoothing: 2 (USB2+H06089)
Correct for Electrical Dark: No (USB2+H06089)
Strobe/Lamp Enabled: No (USB2+H06089)
Correct for Detector Non-linearity: No (USB2+H06089)
Correct for Stray Light: No (USB2+H06089)
Number of Pixels in Processed Spectrum: 2048
>>>>>Begin Processed Spectral Data<<<<<
339.70	1026.09
340.07	1026.09
340.45	993.70
340.82	973.15
341.19	953.67
341.57	928.51
341.94	916.74
342.31	908.81
342.69	906.19
343.06	899.77
343.43	898.84
343.81	899.84
344.18	902.09
344.55	903.33
344.93	908.71
345.30	917.96
345.67	927.76
346.04	938.11
346.42	950.14
346.79	961.54
347.16	968.65
347.54	977.71
347.91	986.37
348.28	996.41
348.65	1003.72
349.03	1014.25
349.40	1018.11
349.77	1023.21
350.14	1024.38
350.52	1031.29
350.89	1033.42
351.26	1041.89
351.63	1049.59
352.01	1057.48
352.38	1061.11
352.75	1065.81
353.12	1067.26
353.50	1074.17
353.87	1076.37
354.24	1078.68
354.61	1080.81
354.98	1085.89
355.36	1086.17
355.73	1087.81
356.10	1086.41
356.47	1090.03
356.84	1089.24
357.22	1088.16
357.59	1086.85
357.96	1089.87
358.33	1088.63
358.70	1088.04
359.08	1086.90
359.45	1086.15
359.82	1085.75
360.19	1085.10
360.56	1085.56
360.94	1082.73
361.31	1082.43
361.68	1082.64
362.05	1083.95
362.42	1082.22
362.79	1084.35
363.16	1081.73
363.54	1079.85
363.91	1076.88
364.28	1075.76
364.65	1076.62
365.02	1081.28
365.39	1079.74
365.76	1081.44
366.14	1082.17
366.51	1079.78
366.88	1079.17
367.25	1080.37
367.62	1079.69
367.99	1079.57
368.36	1081.26
368.73	1079.31
369.10	1076.53
369.48	1076.44
369.85	1075.87
370.22	1073.95
370.59	1075.52
370.96	1080.27
371.33	1080.18
371.70	1084.04
372.07	1083.71
372.44	1085.31
372.81	1085.54
373.18	1083.74
373.55	1081.61
373.93	1083.62
374.30	1078.87
374.67	1077.58
375.04	1080.09
375.41	1077.21
375.78	1077.82
376.15	1077.79
376.52	1076.37
376.89	1077.58
377.26	1082.08
377.63	1081.49
378.00	1082.47
378.37	1082.26
378.74	1082.87
379.11	1080.70
379.48	1079.62
379.85	1083.55
380.22	1087.34
380.59	1085.05
380.96	1084.16
381.33	1086.76
381.70	1084.56
382.07	1081.49
382.44	1081.84
382.81	1079.95
383.18	1080.70
383.55	1081.07
383.92	1084.14
384.29	1086.29
384.66	1087.72
385.03	1083.64
385.40	1082.36
385.77	1076.53
386.14	1075.97
386.51	1077.51
386.88	1082.15
387.25	1085.56
387.62	1092.35
387.99	1089.19
388.36	1090.67
388.73	1090.90
389.10	1090.57
389.46	1087.60
389.83	1089.99
390.20	1090.06
390.57	1086.52
390.94	1087.76
391.31	1089.10
391.68	1089.26
392.05	1089.78
392.42	1089.82
392.79	1086.73
393.16	1086.64
393.53	1088.61
393.89	1086.57
394.26	1088.44
394.63	1089.10
395.00	1090.62
395.37	1091.56
395.74	1092.70
396.11	1090.53
396.48	1092.33
396.84	1090.55
397.21	1086.29
397.58	1086.45
397.95	1088.09
398.32	1084.58
398.69	1083.97
399.06	1086.41
399.42	1084.67
399.79	1087.58
400.16	1091.49
400.53	1095.86
400.90	1093.92
401.27	1096.99
401.64	1097.15
402.00	1097.43
402.37	1096.54
402.74	1098.04
403.11	1096.14
403.48	1096.31
403.84	1095.18
404.21	1093.94
404.58	1093.64
404.95	1094.34
405.32	1092.80
405.68	1092.80
406.05	1091.95
406.42	1093.87
406.79	1094.43
407.16	1092.12
407.52	1094.53
407.89	1093.62
408.26	1091.27
408.63	1093.03
408.99	1096.54
409.36	1094.65
409.73	1096.61
410.10	1097.24
410.47	1097.59
410.83	1098.39
411.20	1099.16
411.57	1100.73
411.94	1100.75
412.30	1101.97
412.67	1101.22
413.04	1099.42
413.40	1097.20
413.77	1097.76
414.14	1094.18
414.51	1094.76
414.87	1099.16
415.24	1103.23
415.61	1105.95
415.97	1108.57
416.34	1106.11
416.71	1103.49
417.08	1101.69
417.44	1102.11
417.81	1104.71
418.18	1109.67
418.54	1110.30
418.91	1110.96
419.28	1112.39
419.64	1107.73
420.01	1102.67
420.38	1104.05
420.74	1103.09
421.11	1102.60
421.48	1103.49
421.84	1104.99
422.21	1105.62
422.58	1109.18
422.94	1108.01
423.31	1108.62
423.68	1111.17
424.04	1107.54
424.41	1106.82
424.77	1108.92
425.14	1115.76
425.51	1113.63
425.87	1117.54
426.24	1117.86
426.61	1114.98
426.97	1110.28
427.34	1115.69
427.70	1113.65
428.07	1115.22
428.44	1114.91
428.80	1112.97
429.17	1107.68
429.53	1108.34
429.90	1103.89
430.27	1109.37
430.63	1110.98
431.00	1111.54
431.36	1113.21
431.73	1117.72
432.09	1114.54
432.46	1114.80
432.83	1118.05
433.19	1118.54
433.56	1117.82
433.92	1113.91
434.29	1114.12
434.65	1112.69
435.02	1109.69
435.38	1107.05
435.75	1112.57
436.11	1110.68
436.48	1113.53
436.84	1115.05
437.21	1115.97
437.57	1114.24
437.94	1114.77
438.30	1111.10
438.67	1109.27
439.03	1108.01
439.40	1107.54
439.76	1108.52
440.13	1106.46
440.49	1108.17
440.86	1106.51
441.22	1107.12
441.59	1107.17
441.95	1110.44
442.32	1112.48
442.68	1112.64
443.05	1110.84
443.41	1110.19
443.78	1108.36
444.14	1104.15
444.51	1104.62
444.87	1105.04
445.24	1105.04
445.60	1106.61
445.96	1108.57
446.33	1109.60
446.69	1112.57
447.06	1112.18
447.42	1110.54
447.79	1111.78
448.15	1110.23
448.51	1103.80
448.88	1104.05
449.24	1103.63
449.61	1104.19
449.97	1104.52
450.33	1109.67
450.70	1109.41
451.06	1111.31
451.43	1108.62
451.79	1108.95
452.15	1108.85
452.52	1110.68
452.88	1109.67
453.24	1110.42
453.61	1112.04
453.97	1112.11
454.34	1111.92
454.70	1113.09
455.06	1111.50
455.43	1112.41
455.79	1112.06
456.15	1111.17
456.52	1112.53
456.88	1115.73
457.24	1116.67
457.61	1117.70
457.97	1119.15
458.33	1116.53
458.70	1114.40
459.06	1112.57
459.42	1111.33
459.79	1112.25
460.15	1113.63
460.51	1118.33
460.88	1119.92
461.24	1123.55
461.60	1123.29
461.96	1122.31
462.33	1119.92
462.69	1119.22
463.05	1114.96
463.42	1114.94
463.78	1119.76
464.14	1122.47
464.50	1125.28
464.87	1129.26
465.23	1128.37
465.59	1126.01
465.95	1124.46
466.32	1123.93
466.68	1122.59
467.04	1124.81
467.40	1123.93
467.77	1125.31
468.13	1122.94
468.49	1123.69
468.85	1125.59
469.22	1128.54
469.58	1131.04
469.94	1136.77
470.30	1136.26
470.66	1138.74
471.03	1141.22
471.39	1141.88
471.75	1144.19
472.11	1149.25
472.47	1151.24
472.84	1153.18
473.20	1155.92
473.56	1156.97
473.92	1161.54
474.28	1161.37
474.65	1163.71
475.01	1170.53
475.37	1175.89
475.73	1179.79
476.09	1186.82
476.45	1192.92
476.81	1193.18
477.18	1196.41
477.54	1200.98
477.90	1205.54
478.26	1211.18
478.62	1219.09
478.98	1224.85
479.34	1232.08
479.71	1241.14
480.07	1249.73
480.43	1258.93
480.79	1269.93
481.15	1279.52
481.51	1289.80
481.87	1299.77
482.23	1310.04
482.59	1320.02
482.96	1333.73
483.32	1349.16
483.68	1366.03
484.04	1383.54
484.40	1401.16
484.76	1415.16
485.12	1431.47
485.48	1448.35
485.84	1466.21
486.20	1487.34
486.56	1512.74
486.92	1537.59
487.28	1564.32
487.64	1589.53
488.00	1618.76
488.37	1647.01
488.73	1676.92
489.09	1709.41
489.45	1746.02
489.81	1780.47
490.17	1822.46
490.53	1862.43
490.89	1902.04
491.25	1940.49
491.61	1986.46
491.97	2029.74
492.33	2082.30
492.69	2134.73
493.05	2194.35
493.41	2254.59
493.77	2320.59
494.13	2384.23
494.49	2452.16
494.85	2527.19
495.21	2598.58
495.57	2676.47
495.93	2756.99
496.29	2844.57
496.64	2932.81
497.00	3025.84
497.36	3121.57
497.72	3227.32
498.08	3341.44
498.44	3465.89
498.80	3599.98
499.16	3736.64
499.52	3881.68
499.88	4033.26
500.24	4190.03
500.60	4336.19
500.96	4500.03
501.32	4667.99
501.68	4832.32
502.03	5014.20
502.39	5231.35
502.75	5439.17
503.11	5669.74
503.47	5909.67
503.83	6152.45
504.19	6410.19
504.55	6679.16
504.91	6950.85
505.26	7233.64
505.62	7533.65
505.98	7845.05
506.34	8188.57
506.70	8558.85
507.06	8954.30
507.42	9364.53
507.78	9771.08
508.13	10185.47
508.49	10610.51
508.85	11068.14
509.21	11548.30
509.57	12088.12
509.93	12648.63
510.28	13256.26
510.64	13889.28
511.00	14496.55
511.36	15081.05
511.72	15677.24
512.07	16317.14
512.43	16922.54
512.79	17605.09
513.15	18333.72
513.51	19084.05
513.86	19816.29
514.22	20646.47
514.58	21450.40
514.94	22288.69
515.30	23142.54
515.65	23969.22
516.01	24813.33
516.37	25683.12
516.73	26472.04
517.08	27342.86
517.44	28184.64
517.80	28996.08
518.16	29852.60
518.51	30670.26
518.87	31407.06
519.23	32279.76
519.59	33166.16
519.94	33982.03
520.30	34868.86
520.66	35657.83
521.01	36449.98
521.37	37121.46
521.73	37737.98
522.09	38365.92
522.44	39025.27
522.80	39435.90
523.16	39812.37
523.51	40077.11
523.87	40348.14
524.23	40607.73
524.58	40889.65
524.94	41280.22
525.30	41656.39
525.65	41855.82
526.01	41892.31
526.37	41886.65
526.72	41796.37
527.08	41651.05
527.44	41470.90
527.79	41312.66
528.15	41222.45
528.51	40989.64
528.86	40761.27
529.22	40498.01
529.58	40254.43
529.93	39833.69
530.29	39399.52
530.65	39017.88
531.00	38676.65
531.36	38236.79
531.71	37824.63
532.07	37343.93
532.43	36758.56
532.78	36082.56
533.14	35480.63
533.49	34871.45
533.85	34257.79
534.21	33655.64
534.56	33092.30
534.92	32491.97
535.27	31876.20
535.63	31266.02
535.98	30634.03
536.34	30019.24
536.69	29360.66
537.05	28719.87
537.41	28185.43
537.76	27692.56
538.12	27136.15
538.47	26652.08
538.83	26210.26
539.18	25740.60
539.54	25260.44
539.89	24793.01
540.25	24273.93
540.60	23792.74
540.96	23282.74
541.31	22792.37
541.67	22378.77
542.02	21986.27
542.38	21544.33
542.73	21092.16
543.09	20692.02
543.44	20324.35
543.80	19976.92
544.15	19591.29
544.51	19261.13
544.86	18944.76
545.22	18571.87
545.57	18187.60
545.93	17823.58
546.28	17506.88
546.64	17171.01
546.99	16821.76
547.35	16507.17
547.70	16203.18
548.05	15887.91
548.41	15586.19
548.76	15310.54
549.12	15015.71
549.47	14740.60
549.83	14484.36
550.18	14156.96
550.53	13825.59
550.89	13565.98
551.24	13300.47
551.60	12986.04
551.95	12733.47
552.30	12498.32
552.66	12242.83
553.01	11980.66
553.37	11713.26
553.72	11436.68
554.07	11161.97
554.43	10870.59
554.78	10592.23
555.13	10326.00
555.49	10094.47
555.84	9901.59
556.19	9702.71
556.55	9500.89
556.90	9319.01
557.26	9122.73
557.61	8896.73
557.96	8662.56
558.32	8456.57
558.67	8242.64
559.02	8018.14
559.37	7831.27
559.73	7678.78
560.08	7526.58
560.43	7377.88
560.79	7259.50
561.14	7097.16
561.49	6934.59
561.85	6780.09
562.20	6624.82
562.55	6479.66
562.90	6359.02
563.26	6236.12
563.61	6109.36
563.96	5995.75
564.32	5871.28
564.67	5749.08
565.02	5626.81
565.37	5513.74
565.73	5403.43
566.08	5302.37
566.43	5193.23
566.78	5089.49
567.14	4980.82
567.49	4872.62
567.84	4760.51
568.19	4656.52
568.54	4568.40
568.90	4483.20
569.25	4406.90
569.60	4339.17
569.95	4266.96
570.31	4184.01
570.66	4104.60
571.01	4016.45
571.36	3922.50
571.71	3850.95
572.06	3781.09
572.42	3722.15
572.77	3666.99
573.12	3614.33
573.47	3551.88
573.82	3485.69
574.18	3416.22
574.53	3354.81
574.88	3304.77
575.23	3256.13
575.58	3210.98
575.93	3160.36
576.28	3105.52
576.64	3042.74
576.99	2979.48
577.34	2921.69
577.69	2864.91
578.04	2812.76
578.39	2762.72
578.74	2719.16
579.09	2680.48
579.44	2643.24
579.80	2605.79
580.15	2565.53
580.50	2531.55
580.85	2496.93
581.20	2465.94
581.55	2435.21
581.90	2409.93
582.25	2374.52
582.60	2337.47
582.95	2298.08
583.30	2257.24
583.65	2220.51
584.00	2190.95
584.35	2160.99
584.71	2136.30
585.06	2111.80
585.41	2075.28
585.76	2043.43
586.11	2018.17
586.46	1992.17
586.81	1964.55
587.16	1950.63
587.51	1930.82
587.86	1910.63
588.21	1887.88
588.56	1873.79
588.91	1855.58
589.26	1831.33
589.61	1808.34
589.96	1792.90
590.31	1773.99
590.66	1755.33
591.01	1748.10
591.36	1733.21
591.71	1716.97
592.06	1700.96
592.41	1682.26
592.76	1660.49
593.10	1646.03
593.45	1630.93
593.80	1614.55
594.15	1603.50
594.50	1590.96
594.85	1579.81
595.20	1567.46
595.55	1549.62
595.90	1536.00
596.25	1527.90
596.60	1514.42
596.95	1501.27
597.30	1496.84
597.64	1538.20
597.99	1529.98
598.34	1519.76
598.69	1509.72
599.04	1500.05
599.39	1441.86
599.74	1431.57
600.09	1425.88
600.44	1421.71
600.78	1416.38
601.13	1408.77
601.48	1404.77
601.83	1397.09
602.18	1388.62
602.53	1383.14
602.88	1377.92
603.22	1367.65
603.57	1361.98
603.92	1355.12
604.27	1343.47
604.62	1335.81
604.97	1331.23
605.31	1327.13
605.66	1319.52
606.01	1315.05
606.36	1310.47
606.71	1304.68
607.05	1298.01
607.40	1294.69
607.75	1291.72
608.10	1288.56
608.44	1280.86
608.79	1278.19
609.14	1277.79
609.49	1275.71
609.84	1270.61
610.18	1270.49
610.53	1265.53
610.88	1259.02
611.23	1254.41
611.57	1250.69
611.92	1246.29
612.27	1244.65
612.62	1238.05
612.96	1233.02
613.31	1226.65
613.66	1222.58
614.00	1212.73
614.35	1212.12
614.70	1210.69
615.05	1209.80
615.39	1205.70
615.74	1208.63
616.09	1206.22
616.43	1200.55
616.78	1199.48
617.13	1196.36
617.47	1195.10
617.82	1193.88
618.17	1193.95
618.51	1191.87
618.86	1191.22
619.21	1182.88
619.55	1180.99
619.90	1178.69
620.25	1176.89
620.59	1172.21
620.94	1174.34
621.29	1172.23
621.63	1169.85
621.98	1165.82
622.32	1165.75
622.67	1163.55
623.02	1160.32
623.36	1161.98
623.71	1159.69
624.05	1155.34
624.40	1155.31
624.75	1154.47
625.09	1149.41
625.44	1150.79
625.78	1151.52
626.13	1143.63
626.48	1140.43
626.82	1141.22
627.17	1139.37
627.51	1139.63
627.86	1139.84
628.20	1139.21
628.55	1133.05
628.89	1129.57
629.24	1125.80
629.58	1127.39
629.93	1125.59
630.28	1130.67
630.62	1130.41
630.97	1129.66
631.31	1128.04
631.66	1130.55
632.00	1129.87
632.35	1128.44
632.69	1130.48
633.04	1130.29
633.38	1128.14
633.73	1122.26
634.07	1122.99
634.42	1122.15
634.76	1121.70
635.11	1120.63
635.45	1122.52
635.79	1122.10
636.14	1120.93
636.48	1120.44
636.83	1118.85
637.17	1118.59
637.52	1118.78
637.86	1119.27
638.21	1120.65
638.55	1121.02
638.89	1117.51
639.24	1115.85
639.58	1113.56
639.93	1108.97
640.27	1108.20
640.61	1110.33
640.96	1108.95
641.30	1105.65
641.65	1106.04
641.99	1103.75
642.33	1104.12
642.68	1103.52
643.02	1107.59
643.37	1107.49
643.71	1107.78
644.05	1103.66
644.40	1104.36
644.74	1106.00
645.08	1107.59
645.43	1111.26
645.77	1112.88
646.11	1109.77
646.46	1105.08
646.80	1100.26
647.14	1096.00
647.49	1098.32
647.83	1101.03
648.17	1103.33
648.52	1105.97
648.86	1108.38
649.20	1107.59
649.55	1107.75
649.89	1104.01
650.23	1101.03
650.57	1100.22
650.92	1098.46
651.26	1097.95
651.60	1097.36
651.95	1099.28
652.29	1100.19
652.63	1099.91
652.97	1097.64
653.32	1100.00
653.66	1101.32
654.00	1098.90
654.34	1097.13
654.69	1098.23
655.03	1096.73
655.37	1096.47
655.71	1095.39
656.05	1097.69
656.40	1097.15
656.74	1100.36
657.08	1097.31
657.42	1099.30
657.76	1099.51
658.11	1102.49
658.45	1100.36
658.79	1102.49
659.13	1101.53
659.47	1102.63
659.82	1098.32
660.16	1098.58
660.50	1095.72
660.84	1095.18
661.18	1094.95
661.52	1095.35
661.87	1092.96
662.21	1092.23
662.55	1092.45
662.89	1090.97
663.23	1092.94
663.57	1094.32
663.91	1097.50
664.25	1096.63
664.60	1095.53
664.94	1095.04
665.28	1094.97
665.62	1095.32
665.96	1098.27
666.30	1096.45
666.64	1095.28
666.98	1093.87
667.32	1092.09
667.66	1091.06
668.01	1089.96
668.35	1089.19
668.69	1085.61
669.03	1086.15
669.37	1083.53
669.71	1088.37
670.05	1089.33
670.39	1092.63
670.73	1092.35
671.07	1093.59
671.41	1089.29
671.75	1087.39
672.09	1085.07
672.43	1084.84
672.77	1085.68
673.11	1087.37
673.45	1090.43
673.79	1093.08
674.13	1092.02
674.47	1089.99
674.81	1090.55
675.15	1087.74
675.49	1087.95
675.83	1087.97
676.17	1088.19
676.51	1087.72
676.85	1089.52
677.19	1090.03
677.53	1090.13
677.87	1088.23
678.21	1089.89
678.55	1089.00
678.89	1089.94
679.23	1090.99
679.57	1092.96
679.90	1093.55
680.24	1091.79
680.58	1086.55
680.92	1085.99
681.26	1085.47
681.60	1081.89
681.94	1080.25
682.28	1086.94
682.62	1085.12
682.96	1083.15
683.29	1084.18
683.63	1086.80
683.97	1082.52
684.31	1084.04
684.65	1086.03
684.99	1086.20
685.33	1088.44
685.67	1088.47
686.00	1089.05
686.34	1088.44
686.68	1085.84
687.02	1084.58
687.36	1085.54
687.70	1087.65
688.03	1088.35
688.37	1089.24
688.71	1089.50
689.05	1092.35
689.39	1093.55
689.72	1093.64
690.06	1093.66
690.40	1093.78
690.74	1093.94
691.08	1090.20
691.41	1090.97
691.75	1093.43
692.09	1094.90
692.43	1092.35
692.76	1094.90
693.10	1093.62
693.44	1092.42
693.78	1092.14
694.11	1092.21
694.45	1088.91
694.79	1090.41
695.13	1090.17
695.46	1087.48
695.80	1089.66
696.14	1088.58
696.48	1088.37
696.81	1087.30
697.15	1086.06
697.49	1087.06
697.82	1089.31
698.16	1090.20
698.50	1088.93
698.83	1091.20
699.17	1088.77
699.51	1089.96
699.84	1086.99
700.18	1090.53
700.52	1089.50
700.85	1088.30
701.19	1087.58
701.53	1087.02
701.86	1083.88
702.20	1082.92
702.54	1081.68
702.87	1083.48
703.21	1083.32
703.55	1088.70
703.88	1091.91
704.22	1095.32
704.55	1093.38
704.89	1094.50
705.23	1089.64
705.56	1089.03
705.90	1089.43
706.23	1090.36
706.57	1090.20
706.91	1092.68
707.24	1092.70
707.58	1090.74
707.91	1088.30
708.25	1088.63
708.58	1088.00
708.92	1085.87
709.26	1084.60
709.59	1085.61
709.93	1088.14
710.26	1086.38
710.60	1087.55
710.93	1090.69
711.27	1091.25
711.60	1089.52
711.94	1092.33
712.27	1091.81
712.61	1090.08
712.94	1087.51
713.28	1087.60
713.61	1087.16
713.95	1086.80
714.28	1085.56
714.62	1087.60
714.95	1086.97
715.29	1086.78
715.62	1086.94
715.96	1087.74
716.29	1087.79
716.63	1087.53
716.96	1086.83
717.29	1084.53
717.63	1083.55
717.96	1088.54
718.30	1087.88
718.63	1086.06
718.97	1089.40
719.30	1088.70
719.63	1084.02
719.97	1082.47
720.30	1086.66
720.64	1086.01
720.97	1088.75
721.30	1089.96
721.64	1092.77
721.97	1091.56
722.31	1092.14
722.64	1092.09
722.97	1089.66
723.31	1090.95
723.64	1087.48
723.97	1088.75
724.31	1087.76
724.64	1088.33
724.98	1085.12
725.31	1086.87
725.64	1084.96
725.98	1085.54
726.31	1085.35
726.64	1088.68
726.97	1089.75
727.31	1091.51
727.64	1088.33
727.97	1088.54
728.31	1086.57
728.64	1085.89
728.97	1086.27
729.31	1088.35
729.64	1089.03
729.97	1089.43
730.30	1088.70
730.64	1085.49
730.97	1086.41
731.30	1088.00
731.63	1091.13
731.97	1093.83
732.30	1095.11
732.63	1093.26
732.96	1090.32
733.30	1086.52
733.63	1084.42
733.96	1083.64
734.29	1084.32
734.63	1085.52
734.96	1086.22
735.29	1085.75
735.62	1085.21
735.95	1084.00
736.29	1084.30
736.62	1084.65
736.95	1085.33
737.28	1088.65
737.61	1091.44
737.94	1092.42
738.28	1092.16
738.61	1091.13
738.94	1088.68
739.27	1088.02
739.60	1086.08
739.93	1084.46
740.27	1085.35
740.60	1083.53
740.93	1081.51
741.26	1083.57
741.59	1085.33
741.92	1083.11
742.25	1085.75
742.58	1084.91
742.91	1082.26
743.25	1083.27
743.58	1086.55
743.91	1085.26
744.24	1085.54
744.57	1086.57
744.90	1086.03
745.23	1085.07
745.56	1087.09
745.89	1091.25
746.22	1091.18
746.55	1090.41
746.88	1091.98
747.21	1089.89
747.54	1088.26
747.87	1090.55
748.20	1089.68
748.53	1090.48
748.87	1092.75
749.20	1094.88
749.53	1093.66
749.86	1092.94
750.19	1091.63
750.52	1088.37
750.85	1088.93
751.18	1087.62
751.51	1088.47
751.84	1087.58
752.16	1090.92
752.49	1089.47
752.82	1088.49
753.15	1090.17
753.48	1089.71
753.81	1087.25
754.14	1085.87
754.47	1090.27
754.80	1087.76
755.13	1086.59
755.46	1087.79
755.79	1084.42
756.12	1085.17
756.45	1086.99
756.78	1087.60
757.11	1086.10
757.43	1089.31
757.76	1084.51
758.09	1084.21
758.42	1085.10
758.75	1087.11
759.08	1089.52
759.41	1090.08
759.74	1089.52
760.07	1088.91
760.39	1085.73
760.72	1084.16
761.05	1082.52
761.38	1084.00
761.71	1081.44
762.04	1081.33
762.36	1080.25
762.69	1083.79
763.02	1082.22
763.35	1083.74
763.68	1086.71
764.01	1084.89
764.33	1081.14
764.66	1081.89
764.99	1084.44
765.32	1083.69
765.65	1086.48
765.97	1087.60
766.30	1089.99
766.63	1090.27
766.96	1091.74
767.28	1088.56
767.61	1090.29
767.94	1086.73
768.27	1085.54
768.59	1083.86
768.92	1085.70
769.25	1085.24
769.58	1083.43
769.90	1084.67
770.23	1083.11
770.56	1083.18
770.89	1082.61
771.21	1085.75
771.54	1081.35
771.87	1084.21
772.19	1085.24
772.52	1089.61
772.85	1090.17
773.17	1093.62
773.50	1093.83
773.83	1094.48
774.15	1093.03
774.48	1092.98
774.81	1093.12
775.13	1091.04
775.46	1088.44
775.79	1084.86
776.11	1082.69
776.44	1078.26
776.77	1078.50
777.09	1078.80
777.42	1079.41
777.74	1079.17
778.07	1078.24
778.40	1083.11
778.72	1083.60
779.05	1085.68
779.37	1087.34
779.70	1091.77
780.03	1088.04
780.35	1090.39
780.68	1089.33
781.00	1088.04
781.33	1087.32
781.65	1084.86
781.98	1079.48
782.31	1077.04
782.63	1077.96
782.96	1078.96
783.28	1079.92
783.61	1084.16
783.93	1082.92
784.26	1085.14
784.58	1085.03
784.91	1085.99
785.23	1084.65
785.56	1084.49
785.88	1082.57
786.21	1081.89
786.53	1081.07
786.86	1081.66
787.18	1088.37
787.51	1086.57
787.83	1083.60
788.16	1083.62
788.48	1081.19
788.81	1077.51
789.13	1080.74
789.46	1084.07
789.78	1084.51
790.10	1088.42
790.43	1085.82
790.75	1084.67
791.08	1082.36
791.40	1081.19
791.73	1086.80
792.05	1089.05
792.37	1086.73
792.70	1087.62
793.02	1089.03
793.35	1080.77
793.67	1081.77
793.99	1082.69
794.32	1084.81
794.64	1086.41
794.96	1088.65
795.29	1087.23
795.61	1089.45
795.93	1086.78
796.26	1084.30
796.58	1082.99
796.91	1085.07
797.23	1083.39
797.55	1084.23
797.87	1086.38
798.20	1085.07
798.52	1083.22
798.84	1081.91
799.17	1082.03
799.49	1083.27
799.81	1085.14
800.14	1086.62
800.46	1088.28
800.78	1090.90
801.10	1085.28
801.43	1083.55
801.75	1080.46
802.07	1079.10
802.40	1077.00
802.72	1081.02
803.04	1082.47
803.36	1084.67
803.69	1086.34
804.01	1085.10
804.33	1084.60
804.65	1084.60
804.97	1084.84
805.30	1082.43
805.62	1083.32
805.94	1082.31
806.26	1082.54
806.58	1082.52
806.91	1082.73
807.23	1084.51
807.55	1087.09
807.87	1087.55
808.19	1085.99
808.52	1088.93
808.84	1089.05
809.16	1091.53
809.48	1090.83
809.80	1094.86
810.12	1094.48
810.44	1093.62
810.77	1090.69
811.09	1094.22
811.41	1088.82
811.73	1086.97
812.05	1089.22
812.37	1087.90
812.69	1080.74
813.01	1087.20
813.33	1088.63
813.66	1087.76
813.98	1086.48
814.30	1091.98
814.62	1087.65
814.94	1088.47
815.26	1087.04
815.58	1087.69
815.90	1086.06
816.22	1087.20
816.54	1085.99
816.86	1087.02
817.18	1088.86
817.50	1088.42
817.82	1089.61
818.14	1087.27
818.46	1086.29
818.78	1084.91
819.10	1086.38
819.42	1083.83
819.74	1085.33
820.06	1085.68
820.38	1084.70
820.70	1086.62
821.02	1088.14
821.34	1090.71
821.66	1087.37
821.98	1089.24
822.30	1086.06
822.62	1086.57
822.94	1085.03
823.26	1087.69
823.58	1083.62
823.90	1082.59
824.22	1082.45
824.54	1081.21
824.86	1082.26
825.18	1087.13
825.50	1086.20
825.81	1085.26
826.13	1086.92
826.45	1085.33
826.77	1082.24
827.09	1084.23
827.41	1082.92
827.73	1081.82
828.05	1084.79
828.36	1085.61
828.68	1082.10
829.00	1084.72
829.32	1085.00
829.64	1083.55
829.96	1083.69
830.28	1084.42
830.59	1081.35
830.91	1078.73
831.23	1081.07
831.55	1081.26
831.87	1082.40
832.19	1083.79
832.50	1086.92
832.82	1084.39
833.14	1083.69
833.46	1085.05
833.78	1085.19
834.09	1085.61
834.41	1086.71
834.73	1088.86
835.05	1089.22
835.36	1090.60
835.68	1091.09
836.00	1089.94
836.32	1086.38
836.63	1086.83
836.95	1085.73
837.27	1085.24
837.59	1083.32
837.90	1085.87
838.22	1082.40
838.54	1082.85
838.85	1081.33
839.17	1085.52
839.49	1085.73
839.80	1089.07
840.12	1085.94
840.44	1085.56
840.76	1082.29
841.07	1082.36
841.39	1081.80
841.71	1082.54
842.02	1085.24
842.34	1083.95
842.65	1082.17
842.97	1084.86
843.29	1085.38
843.60	1082.69
843.92	1085.61
844.24	1085.94
844.55	1084.91
844.87	1084.89
845.18	1083.36
845.50	1082.05
845.82	1083.74
846.13	1081.09
846.45	1082.08
846.76	1086.83
847.08	1086.29
847.40	1086.15
847.71	1087.76
848.03	1089.07
848.34	1089.52
848.66	1091.74
848.97	1091.23
849.29	1090.74
849.60	1089.61
849.92	1087.93
850.24	1085.49
850.55	1085.42
850.87	1088.21
851.18	1089.36
851.50	1088.16
851.81	1090.41
852.13	1089.19
852.44	1086.62
852.76	1088.75
853.07	1088.65
853.39	1091.11
853.70	1091.53
854.01	1089.64
854.33	1087.93
854.64	1089.85
854.96	1085.80
855.27	1087.65
855.59	1088.40
855.90	1087.06
856.22	1086.15
856.53	1088.35
856.84	1085.45
857.16	1083.81
857.47	1086.34
857.79	1084.79
858.10	1079.50
858.41	1081.58
858.73	1083.15
859.04	1080.04
859.36	1079.78
859.67	1084.70
859.98	1083.69
860.30	1083.06
860.61	1081.68
860.92	1083.18
861.24	1080.81
861.55	1080.34
861.87	1082.01
862.18	1084.32
862.49	1082.85
862.81	1083.95
863.12	1084.77
863.43	1085.59
863.74	1084.18
864.06	1088.79
864.37	1086.94
864.68	1085.87
865.00	1084.32
865.31	1090.34
865.62	1087.65
865.94	1089.38
866.25	1090.13
866.56	1091.20
866.87	1083.83
867.19	1084.56
867.50	1084.72
867.81	1084.39
868.12	1080.25
868.44	1080.79
868.75	1079.41
869.06	1081.61
869.37	1082.90
869.68	1083.18
870.00	1084.00
870.31	1082.80
870.62	1078.87
870.93	1080.37
871.24	1086.69
871.56	1089.00
871.87	1091.65
872.18	1095.23
872.49	1092.19
872.80	1089.14
873.12	1091.27
873.43	1086.52
873.74	1082.78
874.05	1084.70
874.36	1084.74
874.67	1080.53
874.98	1082.85
875.29	1082.43
875.61	1081.70
875.92	1080.20
876.23	1081.23
876.54	1084.28
876.85	1086.36
877.16	1085.12
877.47	1087.58
877.78	1086.73
878.09	1084.65
878.40	1085.19
878.72	1085.42
879.03	1084.72
879.34	1086.48
879.65	1089.36
879.96	1089.82
880.27	1090.57
880.58	1090.71
880.89	1088.68
881.20	1083.95
881.51	1081.80
881.82	1080.11
882.13	1080.25
882.44	1082.33
882.75	1085.03
883.06	1085.49
883.37	1086.08
883.68	1084.91
883.99	1084.81
884.30	1083.13
884.61	1084.74
884.92	1088.21
885.23	1088.28
885.54	1086.29
885.85	1086.36
886.16	1083.53
886.47	1079.38
886.78	1079.08
887.08	1079.29
887.39	1079.43
887.70	1083.71
888.01	1083.53
888.32	1084.63
888.63	1087.34
888.94	1089.54
889.25	1085.35
889.56	1086.97
889.87	1086.03
890.17	1082.87
890.48	1080.77
890.79	1082.83
891.10	1083.64
891.41	1080.56
891.72	1080.79
892.03	1084.70
892.34	1084.28
892.64	1085.91
892.95	1088.98
893.26	1091.27
893.57	1088.72
893.88	1090.55
894.18	1089.96
894.49	1087.41
894.80	1085.54
895.11	1086.64
895.42	1082.52
895.72	1079.88
896.03	1084.65
896.34	1085.59
896.65	1082.78
896.96	1082.85
897.26	1081.07
897.57	1076.48
897.88	1074.42
898.19	1073.39
898.49	1074.66
898.80	1077.42
899.11	1080.70
899.41	1082.05
899.72	1085.31
900.03	1084.16
900.34	1082.08
900.64	1080.20
900.95	1080.86
901.26	1079.31
901.56	1080.18
901.87	1084.09
902.18	1085.35
902.48	1085.77
902.79	1086.94
903.10	1090.95
903.40	1090.46
903.71	1091.06
904.02	1089.61
904.32	1087.39
904.63	1084.30
904.94	1084.51
905.24	1084.00
905.55	1082.54
905.85	1081.63
906.16	1082.57
906.47	1079.92
906.77	1077.84
907.08	1078.71
907.38	1082.29
907.69	1079.92
908.00	1081.16
908.30	1083.06
908.61	1081.94
908.91	1077.91
909.22	1081.82
909.52	1082.19
909.83	1083.55
910.14	1084.58
910.44	1085.59
910.75	1085.10
911.05	1084.98
911.36	1083.34
911.66	1086.27
911.97	1086.76
912.27	1084.07
912.58	1081.49
912.88	1081.19
913.19	1078.96
913.49	1077.23
913.80	1077.44
914.10	1080.04
914.41	1079.10
914.71	1080.18
915.01	1085.35
915.32	1082.45
915.62	1080.32
915.93	1084.46
916.23	1084.96
916.54	1081.94
916.84	1081.63
917.15	1080.34
917.45	1076.08
917.75	1074.91
918.06	1076.46
918.36	1079.57
918.67	1083.88
918.97	1083.22
919.27	1080.98
919.58	1080.20
919.88	1083.57
920.18	1082.36
920.49	1083.69
920.79	1084.04
921.10	1083.46
921.40	1080.04
921.70	1077.49
922.01	1078.57
922.31	1080.60
922.61	1080.58
922.92	1080.65
923.22	1082.83
923.52	1083.34
923.82	1080.98
924.13	1080.39
924.43	1079.29
924.73	1078.21
925.04	1076.01
925.34	1079.90
925.64	1081.07
925.94	1084.07
926.25	1082.47
926.55	1085.14
926.85	1082.29
927.15	1080.48
927.46	1079.78
927.76	1083.71
928.06	1082.22
928.36	1084.25
928.67	1086.17
928.97	1084.86
929.27	1082.99
929.57	1083.46
929.87	1082.87
930.18	1083.04
930.48	1080.20
930.78	1080.48
931.08	1078.50
931.38	1081.26
931.69	1081.84
931.99	1086.50
932.29	1088.51
932.59	1090.88
932.89	1087.06
933.19	1086.24
933.49	1085.17
933.80	1084.67
934.10	1085.91
934.40	1086.48
934.70	1087.23
935.00	1087.76
935.30	1088.28
935.60	1084.60
935.90	1085.24
936.20	1084.35
936.50	1080.39
936.81	1079.10
937.11	1080.39
937.41	1080.86
937.71	1081.56
938.01	1082.83
938.31	1082.57
938.61	1085.26
938.91	1083.01
939.21	1085.14
939.51	1087.06
939.81	1086.43
940.11	1082.94
940.41	1080.06
940.71	1075.99
941.01	1076.53
941.31	1078.26
941.61	1080.23
941.91	1084.25
942.21	1084.96
942.51	1081.54
942.81	1080.93
943.11	1079.10
943.41	1080.95
943.71	1080.86
944.01	1084.00
944.31	1084.91
944.61	1086.52
944.90	1086.87
945.20	1083.57
945.50	1083.41
945.80	1081.44
946.10	1080.39
946.40	1077.49
946.70	1084.46
947.00	1083.95
947.30	1085.33
947.60	1084.21
947.89	1086.41
948.19	1081.96
948.49	1082.54
948.79	1079.64
949.09	1081.23
949.39	1079.20
949.69	1080.72
949.98	1079.34
950.28	1079.71
950.58	1080.32
950.88	1079.60
951.18	1079.99
951.48	1081.61
951.77	1081.58
952.07	1082.66
952.37	1086.36
952.67	1083.41
952.97	1083.15
953.26	1083.06
953.56	1082.87
953.86	1083.95
954.16	1085.49
954.45	1084.51
954.75	1088.89
955.05	1088.86
955.35	1085.05
955.64	1085.66
955.94	1084.02
956.24	1082.59
956.54	1080.56
956.83	1079.50
957.13	1080.98
957.43	1081.73
957.72	1081.00
958.02	1078.52
958.32	1079.90
958.61	1077.70
958.91	1075.80
959.21	1075.24
959.50	1080.02
959.80	1079.48
960.10	1080.63
960.39	1083.25
960.69	1085.07
960.99	1085.52
961.28	1084.28
961.58	1083.32
961.87	1084.00
962.17	1084.39
962.47	1082.97
962.76	1082.94
963.06	1084.56
963.36	1082.57
963.65	1077.93
963.95	1076.44
964.24	1079.01
964.54	1079.88
964.83	1082.29
965.13	1082.29
965.42	1084.14
965.72	1084.00
966.02	1083.39
966.31	1083.06
966.61	1083.88
966.90	1082.08
967.20	1076.01
967.49	1073.60
967.79	1070.09
968.08	1071.75
968.38	1073.72
968.67	1079.43
968.97	1080.72
969.26	1084.72
969.56	1083.71
969.85	1083.11
970.15	1082.45
970.44	1081.94
970.74	1080.79
971.03	1082.08
971.32	1083.22
971.62	1082.22
971.91	1082.83
972.21	1082.08
972.50	1082.40
972.80	1081.21
973.09	1085.17
973.38	1088.02
973.68	1088.04
973.97	1087.27
974.27	1087.27
974.56	1084.30
974.85	1083.22
975.15	1083.81
975.44	1082.57
975.73	1081.23
976.03	1083.46
976.32	1083.08
976.61	1084.98
976.91	1085.35
977.20	1084.91
977.49	1085.52
977.79	1086.01
978.08	1082.29
978.37	1084.18
978.67	1085.68
978.96	1081.28
979.25	1078.50
979.55	1083.13
979.84	1082.64
980.13	1083.20
980.42	1086.24
980.72	1087.09
981.01	1084.70
981.30	1081.87
981.59	1081.89
981.89	1080.27
982.18	1078.26
982.47	1078.12
982.76	1081.16
983.06	1082.36
983.35	1082.66
983.64	1082.73
983.93	1085.07
984.22	1084.67
984.52	1082.24
984.81	1082.83
985.10	1085.21
985.39	1083.48
985.68	1080.27
985.97	1082.47
986.27	1082.17
986.56	1081.89
986.85	1080.79
987.14	1082.38
987.43	1080.98
987.72	1080.20
988.01	1078.99
988.31	1077.28
988.60	1077.68
988.89	1077.30
989.18	1078.66
989.47	1079.74
989.76	1083.88
990.05	1086.71
990.34	1087.16
990.63	1084.02
990.92	1081.44
991.21	1080.56
991.51	1081.09
991.80	1080.63
992.09	1083.50
992.38	1086.55
992.67	1084.72
992.96	1082.47
993.25	1081.56
993.54	1081.80
993.83	1080.11
994.12	1081.70
994.41	1080.84
994.70	1082.99
994.99	1082.87
995.28	1082.69
995.57	1083.93
995.86	1085.03
996.15	1080.77
996.44	1082.38
996.73	1085.52
997.02	1084.02
997.31	1082.71
997.59	1083.13
997.88	1078.10
998.17	1077.33
998.46	1077.37
998.75	1077.44
999.04	1078.82
999.33	1082.94
999.62	1082.47
999.91	1082.33
1000.20	1084.21
1000.49	1085.31
1000.77	1085.59
1001.06	1082.99
1001.35	1081.87
1001.64	1081.91
1001.93	1082.40
1002.22	1079.85
1002.51	1081.58
1002.79	1085.35
1003.08	1082.50
1003.37	1081.98
1003.66	1083.74
1003.95	1083.64
1004.23	1083.39
1004.52	1086.01
1004.81	1085.31
1005.10	1084.09
1005.39	1083.83
1005.67	1084.07
1005.96	1085.00
1006.25	1084.32
1006.54	1086.76
1006.83	1086.13
1007.11	1082.01
1007.40	1078.43
1007.69	1078.33
1007.97	1075.03
1008.26	1072.62
1008.55	1072.20
1008.84	1073.70
1009.12	1076.65
1009.41	1078.45
1009.70	1080.06
1009.98	1083.41
1010.27	1084.18
1010.56	1083.67
1010.85	1084.49
1011.13	1085.28
1011.42	1083.43
1011.71	1083.04
1011.99	1080.32
1012.28	1080.79
1012.56	1084.58
1012.85	1085.54
1013.14	1085.00
1013.42	1086.29
1013.71	1080.06
1014.00	1073.42
1014.28	1075.08
1014.57	1077.65
1014.85	1072.81
1015.14	1077.14
1015.43	1079.46
1015.71	1079.92
1016.00	1075.43
1016.28	1080.06
1016.57	1080.20
1016.85	1080.79
1017.14	1078.89
1017.43	1084.44
1017.71	1085.70
1018.00	1084.18
1018.28	1085.87
1018.57	1086.41
1018.85	1081.58
1019.14	1082.87
1019.42	1087.23
1019.71	1088.00
1019.99	1088.40
1020.28	1092.19
1020.56	1088.82
1020.85	1087.95
1021.13	1086.38
1021.42	1084.89
1021.70	1083.62
1021.99	1088.00
1022.27	1083.93
1022.55	1096.19
1022.84	1072.55
>>>>>End Processed Spectral Data<<<<<
