SpectraSuite Data File
++++++++++++++++++++++++++++++++++++
Date: Mon Aug 26 10:26:31 PDT 2019
User: corrico
Dark Spectrum Present: No
Reference Spectrum Present: No
Number of Sampled Component Spectra: 1
Spectrometers: USB2+H06089
Integration Time (usec): 10000 (USB2+H06089)
Spectra Averaged: 20 (USB2+H06089)
Boxcar Smoothing: 2 (USB2+H06089)
Correct for Electrical Dark: No (USB2+H06089)
Strobe/Lamp Enabled: No (USB2+H06089)
Correct for Detector Non-linearity: No (USB2+H06089)
Correct for Stray Light: No (USB2+H06089)
Number of Pixels in Processed Spectrum: 2048
>>>>>Begin Processed Spectral Data<<<<<
339.70	1034.87
340.07	1034.87
340.45	999.81
340.82	979.94
341.19	954.14
341.57	930.36
341.94	921.35
342.31	913.21
342.69	904.38
343.06	900.45
343.43	899.66
343.81	900.76
344.18	901.74
344.55	907.45
344.93	913.21
345.30	917.30
345.67	925.82
346.04	929.45
346.42	938.11
346.79	949.06
347.16	957.00
347.54	965.35
347.91	981.69
348.28	989.70
348.65	1000.84
349.03	1012.52
349.40	1019.00
349.77	1024.36
350.14	1032.22
350.52	1036.79
350.89	1045.31
351.26	1053.31
351.63	1058.79
352.01	1063.73
352.38	1070.09
352.75	1071.03
353.12	1077.07
353.50	1080.91
353.87	1084.14
354.24	1081.91
354.61	1083.13
354.98	1082.85
355.36	1086.43
355.73	1087.79
356.10	1093.47
356.47	1094.90
356.84	1088.35
357.22	1087.39
357.59	1086.15
357.96	1084.23
358.33	1083.01
358.70	1088.09
359.08	1083.60
359.45	1083.79
359.82	1082.94
360.19	1083.64
360.56	1082.59
360.94	1082.61
361.31	1081.80
361.68	1080.06
362.05	1080.04
362.42	1080.65
362.79	1082.01
363.16	1081.47
363.54	1084.32
363.91	1081.37
364.28	1080.25
364.65	1080.72
365.02	1082.01
365.39	1080.67
365.76	1081.77
366.14	1082.99
366.51	1081.80
366.88	1078.14
367.25	1073.70
367.62	1074.38
367.99	1070.61
368.36	1070.51
368.73	1075.38
369.10	1079.34
369.48	1078.17
369.85	1080.51
370.22	1079.31
370.59	1076.88
370.96	1078.03
371.33	1083.04
371.70	1085.87
372.07	1090.17
372.44	1090.69
372.81	1086.69
373.18	1078.68
373.55	1075.62
373.93	1074.98
374.30	1074.63
374.67	1077.09
375.04	1080.53
375.41	1083.43
375.78	1080.02
376.15	1079.57
376.52	1079.57
376.89	1077.84
377.26	1075.94
377.63	1073.77
378.00	1076.72
378.37	1074.40
378.74	1076.97
379.11	1078.26
379.48	1082.31
379.85	1081.66
380.22	1089.45
380.59	1087.62
380.96	1086.78
381.33	1086.48
381.70	1088.09
382.07	1085.00
382.44	1086.52
382.81	1084.32
383.18	1085.35
383.55	1084.53
383.92	1084.98
384.29	1085.70
384.66	1087.81
385.03	1088.51
385.40	1087.65
385.77	1086.64
386.14	1087.51
386.51	1089.05
386.88	1090.76
387.25	1091.02
387.62	1092.26
387.99	1092.68
388.36	1092.84
388.73	1092.49
389.10	1094.27
389.46	1093.59
389.83	1094.18
390.20	1092.09
390.57	1090.88
390.94	1086.34
391.31	1084.44
391.68	1083.36
392.05	1086.59
392.42	1085.33
392.79	1086.10
393.16	1086.43
393.53	1085.24
393.89	1085.03
394.26	1083.55
394.63	1084.53
395.00	1085.94
395.37	1085.80
395.74	1081.98
396.11	1085.63
396.48	1085.75
396.84	1087.16
397.21	1086.59
397.58	1091.46
397.95	1089.45
398.32	1088.04
398.69	1087.34
399.06	1086.27
399.42	1084.96
399.79	1085.42
400.16	1086.76
400.53	1087.11
400.90	1091.25
401.27	1091.09
401.64	1093.43
402.00	1093.43
402.37	1093.10
402.74	1092.02
403.11	1090.50
403.48	1089.92
403.84	1090.10
404.21	1093.59
404.58	1094.72
404.95	1095.30
405.32	1096.38
405.68	1098.23
406.05	1096.78
406.42	1099.16
406.79	1101.48
407.16	1100.17
407.52	1097.41
407.89	1095.44
408.26	1091.65
408.63	1090.15
408.99	1089.22
409.36	1092.56
409.73	1093.59
410.10	1093.99
410.47	1093.94
410.83	1094.50
411.20	1093.85
411.57	1095.86
411.94	1096.87
412.30	1095.70
412.67	1097.22
413.04	1100.24
413.40	1101.76
413.77	1103.02
414.14	1106.23
414.51	1105.83
414.87	1105.25
415.24	1103.70
415.61	1106.35
415.97	1106.98
416.34	1106.04
416.71	1105.95
417.08	1105.25
417.44	1102.91
417.81	1101.36
418.18	1104.48
418.54	1103.87
418.91	1105.11
419.28	1106.16
419.64	1104.97
420.01	1102.98
420.38	1107.92
420.74	1107.45
421.11	1106.14
421.48	1108.31
421.84	1111.05
422.21	1108.41
422.58	1112.13
422.94	1113.63
423.31	1112.25
423.68	1110.51
424.04	1111.19
424.41	1108.64
424.77	1109.51
425.14	1115.27
425.51	1116.72
425.87	1116.88
426.24	1112.76
426.61	1112.60
426.97	1110.58
427.34	1110.37
427.70	1110.47
428.07	1113.60
428.44	1113.98
428.80	1113.74
429.17	1114.19
429.53	1112.85
429.90	1112.71
430.27	1112.90
430.63	1114.14
431.00	1116.83
431.36	1119.48
431.73	1118.92
432.09	1119.24
432.46	1117.70
432.83	1114.17
433.19	1110.70
433.56	1113.81
433.92	1113.51
434.29	1113.49
434.65	1114.52
435.02	1119.06
435.38	1119.50
435.75	1119.53
436.11	1119.53
436.48	1123.06
436.84	1119.27
437.21	1119.29
437.57	1116.37
437.94	1115.99
438.30	1110.82
438.67	1110.12
439.03	1111.19
439.40	1113.09
439.76	1114.02
440.13	1113.88
440.49	1115.92
440.86	1111.85
441.22	1110.47
441.59	1107.28
441.95	1108.64
442.32	1103.96
442.68	1104.90
443.05	1107.42
443.41	1109.58
443.78	1109.02
444.14	1113.93
444.51	1115.08
444.87	1114.56
445.24	1113.49
445.60	1111.73
445.96	1106.72
446.33	1106.04
446.69	1103.84
447.06	1103.61
447.42	1106.09
447.79	1110.42
448.15	1109.46
448.51	1114.02
448.88	1113.72
449.24	1113.44
449.61	1113.79
449.97	1113.39
450.33	1112.60
450.70	1114.26
451.06	1116.48
451.43	1113.44
451.79	1112.39
452.15	1110.23
452.52	1107.68
452.88	1105.15
453.24	1106.77
453.61	1108.03
453.97	1109.84
454.34	1109.95
454.70	1110.28
455.06	1112.76
455.43	1111.36
455.79	1109.16
456.15	1111.57
456.52	1109.34
456.88	1107.89
457.24	1112.22
457.61	1115.43
457.97	1115.78
458.33	1118.35
458.70	1116.34
459.06	1114.28
459.42	1111.85
459.79	1110.61
460.15	1109.53
460.51	1110.51
460.88	1112.27
461.24	1113.74
461.60	1112.92
461.96	1114.35
462.33	1112.69
462.69	1113.72
463.05	1113.21
463.42	1116.27
463.78	1114.61
464.14	1119.01
464.50	1118.68
464.87	1117.63
465.23	1119.50
465.59	1125.96
465.95	1123.53
466.32	1123.67
466.68	1125.31
467.04	1123.97
467.40	1124.53
467.77	1130.27
468.13	1131.67
468.49	1135.63
468.85	1137.99
469.22	1135.51
469.58	1136.03
469.94	1136.56
470.30	1136.12
470.66	1137.15
471.03	1142.11
471.39	1142.77
471.75	1146.37
472.11	1149.69
472.47	1154.89
472.84	1155.78
473.20	1158.52
473.56	1161.16
473.92	1164.77
474.28	1167.13
474.65	1171.63
475.01	1176.61
475.37	1179.00
475.73	1180.14
476.09	1182.27
476.45	1186.25
476.81	1188.99
477.18	1195.99
477.54	1201.54
477.90	1209.52
478.26	1212.12
478.62	1219.04
478.98	1222.11
479.34	1230.56
479.71	1237.53
480.07	1247.90
480.43	1259.30
480.79	1270.72
481.15	1278.78
481.51	1289.73
481.87	1302.55
482.23	1309.62
482.59	1321.86
482.96	1336.42
483.32	1349.67
483.68	1365.89
484.04	1382.98
484.40	1402.00
484.76	1423.77
485.12	1439.73
485.48	1455.02
485.84	1477.72
486.20	1495.53
486.56	1515.03
486.92	1544.33
487.28	1571.86
487.64	1596.48
488.00	1625.06
488.37	1655.48
488.73	1684.79
489.09	1714.84
489.45	1750.58
489.81	1789.29
490.17	1824.80
490.53	1861.19
490.89	1904.26
491.25	1947.37
491.61	1990.93
491.97	2041.13
492.33	2094.22
492.69	2146.27
493.05	2204.04
493.41	2266.97
493.77	2329.77
494.13	2394.88
494.49	2466.08
494.85	2537.02
495.21	2611.76
495.57	2688.34
495.93	2773.28
496.29	2856.81
496.64	2951.39
497.00	3040.52
497.36	3142.85
497.72	3248.78
498.08	3358.34
498.44	3473.61
498.80	3603.23
499.16	3739.78
499.52	3884.14
499.88	4041.15
500.24	4197.28
500.60	4349.04
500.96	4506.98
501.32	4674.00
501.68	4846.83
502.03	5034.70
502.39	5253.03
502.75	5469.79
503.11	5711.96
503.47	5945.22
503.83	6196.33
504.19	6450.54
504.55	6727.12
504.91	7002.11
505.26	7290.32
505.62	7579.82
505.98	7906.91
506.34	8250.32
506.70	8608.65
507.06	8999.45
507.42	9410.83
507.78	9825.17
508.13	10228.19
508.49	10664.35
508.85	11127.12
509.21	11619.52
509.57	12142.42
509.93	12711.66
510.28	13307.68
510.64	13940.63
511.00	14560.52
511.36	15148.93
511.72	15742.02
512.07	16393.02
512.43	17014.38
512.79	17698.34
513.15	18430.95
513.51	19191.74
513.86	19954.21
514.22	20795.19
514.58	21605.63
514.94	22457.11
515.30	23319.51
515.65	24144.57
516.01	24997.16
516.37	25864.86
516.73	26679.42
517.08	27577.69
517.44	28444.79
517.80	29290.35
518.16	30163.96
518.51	30999.13
518.87	31744.08
519.23	32619.11
519.59	33519.14
519.94	34399.56
520.30	35292.91
520.66	36085.00
521.01	36898.26
521.37	37560.64
521.73	38171.87
522.09	38773.99
522.44	39464.83
522.80	39864.10
523.16	40220.28
523.51	40475.63
523.87	40768.79
524.23	41030.18
524.58	41327.75
524.94	41750.55
525.30	42120.80
525.65	42340.83
526.01	42368.61
526.37	42363.74
526.72	42250.74
527.08	42102.19
527.44	41909.05
527.79	41757.08
528.15	41631.02
528.51	41409.90
528.86	41192.19
529.22	40962.00
529.58	40724.69
529.93	40354.32
530.29	39909.79
530.65	39510.02
531.00	39126.48
531.36	38632.37
531.71	38174.79
532.07	37706.29
532.43	37145.57
532.78	36488.32
533.14	35905.62
533.49	35297.39
533.85	34675.01
534.21	34026.40
534.56	33461.12
534.92	32881.06
535.27	32251.86
535.63	31625.93
535.98	30991.41
536.34	30338.61
536.69	29669.54
537.05	29061.00
537.41	28502.27
537.76	28011.98
538.12	27448.35
538.47	26937.44
538.83	26473.07
539.18	26004.36
539.54	25507.28
539.89	25046.31
540.25	24543.44
540.60	24049.54
540.96	23535.19
541.31	23042.93
541.67	22618.00
542.02	22200.47
542.38	21752.05
542.73	21320.10
543.09	20936.23
543.44	20569.92
543.80	20245.61
544.15	19848.28
544.51	19537.36
544.86	19216.20
545.22	18843.04
545.57	18438.53
545.93	18072.82
546.28	17716.40
546.64	17364.43
546.99	17012.28
547.35	16675.38
547.70	16363.25
548.05	16032.81
548.41	15711.29
548.76	15414.56
549.12	15129.22
549.47	14860.95
549.83	14599.47
550.18	14278.44
550.53	13951.25
550.89	13686.28
551.24	13414.97
551.60	13114.44
551.95	12856.33
552.30	12614.15
552.66	12342.21
553.01	12075.08
553.37	11803.84
553.72	11521.94
554.07	11253.88
554.43	10946.47
554.78	10652.11
555.13	10383.39
555.49	10157.25
555.84	9959.71
556.19	9787.75
556.55	9593.60
556.90	9400.55
557.26	9196.60
557.61	8973.08
557.96	8732.73
558.32	8533.15
558.67	8328.05
559.02	8102.56
559.37	7916.93
559.73	7767.16
560.08	7600.96
560.43	7435.51
560.79	7308.63
561.14	7147.34
561.49	6974.26
561.85	6821.30
562.20	6674.72
562.55	6538.87
562.90	6414.43
563.26	6299.72
563.61	6176.56
563.96	6056.46
564.32	5927.50
564.67	5792.85
565.02	5663.84
565.37	5554.04
565.73	5445.70
566.08	5345.71
566.43	5237.37
566.78	5132.56
567.14	5020.19
567.49	4908.85
567.84	4805.87
568.19	4703.77
568.54	4616.19
568.90	4526.67
569.25	4453.59
569.60	4378.53
569.95	4308.08
570.31	4222.89
570.66	4145.21
571.01	4056.27
571.36	3967.37
571.71	3894.18
572.06	3832.02
572.42	3768.73
572.77	3712.56
573.12	3649.90
573.47	3585.00
573.82	3519.11
574.18	3449.81
574.53	3387.79
574.88	3327.80
575.23	3274.76
575.58	3215.17
575.93	3171.29
576.28	3118.69
576.64	3069.57
576.99	3004.94
577.34	2952.47
577.69	2896.44
578.04	2843.33
578.39	2787.86
578.74	2755.56
579.09	2716.19
579.44	2672.80
579.80	2632.03
580.15	2596.03
580.50	2553.78
580.85	2514.98
581.20	2480.36
581.55	2452.23
581.90	2424.40
582.25	2392.50
582.60	2354.91
582.95	2320.34
583.30	2280.10
583.65	2239.78
584.00	2202.75
584.35	2172.88
584.71	2140.98
585.06	2111.54
585.41	2086.28
585.76	2060.09
586.11	2036.13
586.46	2012.88
586.81	1988.21
587.16	1964.58
587.51	1942.62
587.86	1918.68
588.21	1898.01
588.56	1881.44
588.91	1859.53
589.26	1841.16
589.61	1824.35
589.96	1805.54
590.31	1785.20
590.66	1773.45
591.01	1756.57
591.36	1737.80
591.71	1718.75
592.06	1705.13
592.41	1686.87
592.76	1672.45
593.10	1659.42
593.45	1644.23
593.80	1629.36
594.15	1611.74
594.50	1596.55
594.85	1582.37
595.20	1572.65
595.55	1560.29
595.90	1553.16
596.25	1541.31
596.60	1530.64
596.95	1521.79
597.30	1511.40
597.64	1547.77
597.99	1538.95
598.34	1531.81
598.69	1521.51
599.04	1514.40
599.39	1456.70
599.74	1449.56
600.09	1439.41
600.44	1430.89
600.78	1421.06
601.13	1414.46
601.48	1404.18
601.83	1399.62
602.18	1392.69
602.53	1386.77
602.88	1382.53
603.22	1375.74
603.57	1367.43
603.92	1361.75
604.27	1353.39
604.62	1342.55
604.97	1337.03
605.31	1329.59
605.66	1323.48
606.01	1321.12
606.36	1316.97
606.71	1307.82
607.05	1300.31
607.40	1294.01
607.75	1286.62
608.10	1279.83
608.44	1277.82
608.79	1278.07
609.14	1276.48
609.49	1269.95
609.84	1267.26
610.18	1264.59
610.53	1263.12
610.88	1259.79
611.23	1259.35
611.57	1260.05
611.92	1256.98
612.27	1250.13
612.62	1243.69
612.96	1238.26
613.31	1233.93
613.66	1226.21
614.00	1219.51
614.35	1217.41
614.70	1214.25
615.05	1205.96
615.39	1206.12
615.74	1202.64
616.09	1198.61
616.43	1196.55
616.78	1194.52
617.13	1191.85
617.47	1194.61
617.82	1191.68
618.17	1187.80
618.51	1188.36
618.86	1184.50
619.21	1181.15
619.55	1182.86
619.90	1182.98
620.25	1179.47
620.59	1179.07
620.94	1178.65
621.29	1177.43
621.63	1173.52
621.98	1169.85
622.32	1169.47
622.67	1164.86
623.02	1158.57
623.36	1158.78
623.71	1159.83
624.05	1156.29
624.40	1153.04
624.75	1156.48
625.09	1152.20
625.44	1148.92
625.78	1148.15
626.13	1149.39
626.48	1143.70
626.82	1144.83
627.17	1147.92
627.51	1145.04
627.86	1141.99
628.20	1139.35
628.55	1134.62
628.89	1131.84
629.24	1133.19
629.58	1129.71
629.93	1128.84
630.28	1128.61
630.62	1125.66
630.97	1121.87
631.31	1125.28
631.66	1127.72
632.00	1131.93
632.35	1134.27
632.69	1134.79
633.04	1132.47
633.38	1131.65
633.73	1125.35
634.07	1122.17
634.42	1123.48
634.76	1123.67
635.11	1121.91
635.45	1125.56
635.79	1123.22
636.14	1122.97
636.48	1119.78
636.83	1116.39
637.17	1114.61
637.52	1117.65
637.86	1112.67
638.21	1115.01
638.55	1116.76
638.89	1117.18
639.24	1112.18
639.58	1112.18
639.93	1108.55
640.27	1108.66
640.61	1108.83
640.96	1110.40
641.30	1115.24
641.65	1115.73
641.99	1115.55
642.33	1113.21
642.68	1112.50
643.02	1109.25
643.37	1111.36
643.71	1107.94
644.05	1110.91
644.40	1109.20
644.74	1107.61
645.08	1106.30
645.43	1110.02
645.77	1110.02
646.11	1112.74
646.46	1113.91
646.80	1114.31
647.14	1110.12
647.49	1106.00
647.83	1100.24
648.17	1099.91
648.52	1098.11
648.86	1099.56
649.20	1102.06
649.55	1106.28
649.89	1106.65
650.23	1107.00
650.57	1108.15
650.92	1103.19
651.26	1101.76
651.60	1098.25
651.95	1096.99
652.29	1095.67
652.63	1099.26
652.97	1101.01
653.32	1099.65
653.66	1102.35
654.00	1103.28
654.34	1102.77
654.69	1098.06
655.03	1101.74
655.37	1100.43
655.71	1097.64
656.05	1095.84
656.40	1098.27
656.74	1097.66
657.08	1099.42
657.42	1102.53
657.76	1103.49
658.11	1103.23
658.45	1104.24
658.79	1097.52
659.13	1096.40
659.47	1096.66
659.82	1098.44
660.16	1097.85
660.50	1102.11
660.84	1099.33
661.18	1097.45
661.52	1096.45
661.87	1097.95
662.21	1096.12
662.55	1099.47
662.89	1101.85
663.23	1101.01
663.57	1100.57
663.91	1103.16
664.25	1100.38
664.60	1100.73
664.94	1099.14
665.28	1098.53
665.62	1097.55
665.96	1098.72
666.30	1096.78
666.64	1099.37
666.98	1096.61
667.32	1096.73
667.66	1096.75
668.01	1094.95
668.35	1094.90
668.69	1098.55
669.03	1094.88
669.37	1091.23
669.71	1090.55
670.05	1089.99
670.39	1085.45
670.73	1090.41
671.07	1092.07
671.41	1096.99
671.75	1094.06
672.09	1097.17
672.43	1095.67
672.77	1096.00
673.11	1094.34
673.45	1096.89
673.79	1091.77
674.13	1093.73
674.47	1095.51
674.81	1093.92
675.15	1091.67
675.49	1089.43
675.83	1083.88
676.17	1080.60
676.51	1082.52
676.85	1085.89
677.19	1093.55
677.53	1097.95
677.87	1099.37
678.21	1098.02
678.55	1097.06
678.89	1094.90
679.23	1092.40
679.57	1094.18
679.90	1090.46
680.24	1089.89
680.58	1087.25
680.92	1087.86
681.26	1086.50
681.60	1089.64
681.94	1088.47
682.28	1087.67
682.62	1084.32
682.96	1084.25
683.29	1083.34
683.63	1080.56
683.97	1082.61
684.31	1084.74
684.65	1084.49
684.99	1085.80
685.33	1087.93
685.67	1089.78
686.00	1090.64
686.34	1090.20
686.68	1090.81
687.02	1092.70
687.36	1091.11
687.70	1090.43
688.03	1090.06
688.37	1089.45
688.71	1090.32
689.05	1089.89
689.39	1092.33
689.72	1091.60
690.06	1092.82
690.40	1089.99
690.74	1091.79
691.08	1089.92
691.41	1091.16
691.75	1087.41
692.09	1085.05
692.43	1085.42
692.76	1086.69
693.10	1087.39
693.44	1093.12
693.78	1095.39
694.11	1096.85
694.45	1097.85
694.79	1096.68
695.13	1093.31
695.46	1094.62
695.80	1091.81
696.14	1089.54
696.48	1091.91
696.81	1092.61
697.15	1094.15
697.49	1093.69
697.82	1095.42
698.16	1092.42
698.50	1089.14
698.83	1088.84
699.17	1089.87
699.51	1088.91
699.84	1090.22
700.18	1091.16
700.52	1089.40
700.85	1086.97
701.19	1084.44
701.53	1084.28
701.86	1081.98
702.20	1083.32
702.54	1085.12
702.87	1086.62
703.21	1085.19
703.55	1088.42
703.88	1089.36
704.22	1088.26
704.55	1085.35
704.89	1087.37
705.23	1084.51
705.56	1080.13
705.90	1082.26
706.23	1088.44
706.57	1087.86
706.91	1090.69
707.24	1092.87
707.58	1091.37
707.91	1086.52
708.25	1087.25
708.58	1085.42
708.92	1085.49
709.26	1086.15
709.59	1091.18
709.93	1087.86
710.26	1090.27
710.60	1086.80
710.93	1086.13
711.27	1086.06
711.60	1091.51
711.94	1091.46
712.27	1095.77
712.61	1097.31
712.94	1096.47
713.28	1096.47
713.61	1095.72
713.95	1095.42
714.28	1095.35
714.62	1095.56
714.95	1093.97
715.29	1094.22
715.62	1093.01
715.96	1092.52
716.29	1091.11
716.63	1090.90
716.96	1091.06
717.29	1092.80
717.63	1093.05
717.96	1089.82
718.30	1086.17
718.63	1085.82
718.97	1081.89
719.30	1079.78
719.63	1080.58
719.97	1085.14
720.30	1084.72
720.64	1089.47
720.97	1088.37
721.30	1090.81
721.64	1088.16
721.97	1087.79
722.31	1083.08
722.64	1082.94
722.97	1082.05
723.31	1080.79
723.64	1082.03
723.97	1087.69
724.31	1091.23
724.64	1089.78
724.98	1092.09
725.31	1091.20
725.64	1087.83
725.98	1086.48
726.31	1089.52
726.64	1088.63
726.97	1086.80
727.31	1088.35
727.64	1088.72
727.97	1085.49
728.31	1082.92
728.64	1084.56
728.97	1084.77
729.31	1084.81
729.64	1085.33
729.97	1089.17
730.30	1092.02
730.64	1087.86
730.97	1085.59
731.30	1086.45
731.63	1082.83
731.97	1079.48
732.30	1082.05
732.63	1083.15
732.96	1081.89
733.30	1085.96
733.63	1087.30
733.96	1090.55
734.29	1090.36
734.63	1090.78
734.96	1089.82
735.29	1087.27
735.62	1083.90
735.95	1086.80
736.29	1085.75
736.62	1082.59
736.95	1084.91
737.28	1087.23
737.61	1085.31
737.94	1085.40
738.28	1085.82
738.61	1087.30
738.94	1085.45
739.27	1085.59
739.60	1087.37
739.93	1090.08
740.27	1091.74
740.60	1092.09
740.93	1094.95
741.26	1095.11
741.59	1091.88
741.92	1089.12
742.25	1087.30
742.58	1085.38
742.91	1084.23
743.25	1089.57
743.58	1087.27
743.91	1089.94
744.24	1086.48
744.57	1085.31
744.90	1081.09
745.23	1081.54
745.56	1081.47
745.89	1083.64
746.22	1084.67
746.55	1084.74
746.88	1084.98
747.21	1084.65
747.54	1082.61
747.87	1086.57
748.20	1091.51
748.53	1094.01
748.87	1091.44
749.20	1090.60
749.53	1086.41
749.86	1084.72
750.19	1082.76
750.52	1083.50
750.85	1087.51
751.18	1086.34
751.51	1085.63
751.84	1085.61
752.16	1087.86
752.49	1087.48
752.82	1091.63
753.15	1092.59
753.48	1092.09
753.81	1092.89
754.14	1092.19
754.47	1089.66
754.80	1091.39
755.13	1090.64
755.46	1085.40
755.79	1084.02
756.12	1084.72
756.45	1080.20
756.78	1085.17
757.11	1092.40
757.43	1095.25
757.76	1094.83
758.09	1097.31
758.42	1093.03
758.75	1087.32
759.08	1085.94
759.41	1085.47
759.74	1083.11
760.07	1084.72
760.39	1086.85
760.72	1086.59
761.05	1088.79
761.38	1087.32
761.71	1086.17
762.04	1085.66
762.36	1089.54
762.69	1085.56
763.02	1087.39
763.35	1086.80
763.68	1086.43
764.01	1081.84
764.33	1082.66
764.66	1082.59
764.99	1084.25
765.32	1082.50
765.65	1082.57
765.97	1082.50
766.30	1083.79
766.63	1082.38
766.96	1082.78
767.28	1084.77
767.61	1087.48
767.94	1085.47
768.27	1084.98
768.59	1084.60
768.92	1084.93
769.25	1079.15
769.58	1081.02
769.90	1080.48
770.23	1082.73
770.56	1081.96
770.89	1084.91
771.21	1084.81
771.54	1087.16
771.87	1088.77
772.19	1088.19
772.52	1090.15
772.85	1088.51
773.17	1087.86
773.50	1087.69
773.83	1087.93
774.15	1087.69
774.48	1087.72
774.81	1085.00
775.13	1077.47
775.46	1078.45
775.79	1078.14
776.11	1082.03
776.44	1086.36
776.77	1093.29
777.09	1092.73
777.42	1090.64
777.74	1086.15
778.07	1082.92
778.40	1082.03
778.72	1081.09
779.05	1083.95
779.37	1085.80
779.70	1088.40
780.03	1089.64
780.35	1091.16
780.68	1086.59
781.00	1084.25
781.33	1083.11
781.65	1081.30
781.98	1078.96
782.31	1081.19
782.63	1080.41
782.96	1080.46
783.28	1082.78
783.61	1080.95
783.93	1079.50
784.26	1079.01
784.58	1081.14
784.91	1080.91
785.23	1085.70
785.56	1085.14
785.88	1090.36
786.21	1086.90
786.53	1085.77
786.86	1089.12
787.18	1093.01
787.51	1090.43
787.83	1091.77
788.16	1091.51
788.48	1083.95
788.81	1083.15
789.13	1082.36
789.46	1083.18
789.78	1082.76
790.10	1088.37
790.43	1088.14
790.75	1091.02
791.08	1089.40
791.40	1087.34
791.73	1087.79
792.05	1086.10
792.37	1084.91
792.70	1085.68
793.02	1089.73
793.35	1087.06
793.67	1092.30
793.99	1094.55
794.32	1094.60
794.64	1089.26
794.96	1091.81
795.29	1089.07
795.61	1087.32
795.93	1087.81
796.26	1094.27
796.58	1092.73
796.91	1093.12
797.23	1091.16
797.55	1090.03
797.87	1087.51
798.20	1083.34
798.52	1081.54
798.84	1082.97
799.17	1083.64
799.49	1083.83
799.81	1088.75
800.14	1092.56
800.46	1095.16
800.78	1098.23
801.10	1094.97
801.43	1093.40
801.75	1090.57
802.07	1089.80
802.40	1087.13
802.72	1087.86
803.04	1087.81
803.36	1087.32
803.69	1087.34
804.01	1084.63
804.33	1087.27
804.65	1086.76
804.97	1087.16
805.30	1085.31
805.62	1087.06
805.94	1087.62
806.26	1087.93
806.58	1088.07
806.91	1087.72
807.23	1088.00
807.55	1085.24
807.87	1083.55
808.19	1081.23
808.52	1081.80
808.84	1080.32
809.16	1081.02
809.48	1082.87
809.80	1085.26
810.12	1085.35
810.44	1087.34
810.77	1086.36
811.09	1084.93
811.41	1084.16
811.73	1082.47
812.05	1083.06
812.37	1084.72
812.69	1083.22
813.01	1084.37
813.33	1087.55
813.66	1084.98
813.98	1083.13
814.30	1085.77
814.62	1085.03
814.94	1083.01
815.26	1082.61
815.58	1081.37
815.90	1080.11
816.22	1080.74
816.54	1080.60
816.86	1083.46
817.18	1086.15
817.50	1086.90
817.82	1085.19
818.14	1085.49
818.46	1081.56
818.78	1079.62
819.10	1077.63
819.42	1080.09
819.74	1080.06
820.06	1083.97
820.38	1086.92
820.70	1090.24
821.02	1088.68
821.34	1087.97
821.66	1088.04
821.98	1087.04
822.30	1086.36
822.62	1086.27
822.94	1085.56
823.26	1083.60
823.58	1080.95
823.90	1080.27
824.22	1080.51
824.54	1080.58
824.86	1079.64
825.18	1082.64
825.50	1082.90
825.81	1081.37
826.13	1081.68
826.45	1085.21
826.77	1084.46
827.09	1082.73
827.41	1083.81
827.73	1084.39
828.05	1079.17
828.36	1078.00
828.68	1080.86
829.00	1080.27
829.32	1077.98
829.64	1083.60
829.96	1084.56
830.28	1082.69
830.59	1083.64
830.91	1088.56
831.23	1087.20
831.55	1086.43
831.87	1085.45
832.19	1084.67
832.50	1084.60
832.82	1082.01
833.14	1084.07
833.46	1085.52
833.78	1086.24
834.09	1083.97
834.41	1085.61
834.73	1083.27
835.05	1081.58
835.36	1084.32
835.68	1084.98
836.00	1084.98
836.32	1087.48
836.63	1087.90
836.95	1085.38
837.27	1083.64
837.59	1084.60
837.90	1081.21
838.22	1081.16
838.54	1081.00
838.85	1082.03
839.17	1080.60
839.49	1084.30
839.80	1083.41
840.12	1085.63
840.44	1085.17
840.76	1083.32
841.07	1083.60
841.39	1085.68
841.71	1084.79
842.02	1085.54
842.34	1087.83
842.65	1085.91
842.97	1086.50
843.29	1086.17
843.60	1086.55
843.92	1084.63
844.24	1083.57
844.55	1081.19
844.87	1081.47
845.18	1080.46
845.50	1082.73
845.82	1082.90
846.13	1083.67
846.45	1084.18
846.76	1085.75
847.08	1084.49
847.40	1088.09
847.71	1088.82
848.03	1087.55
848.34	1086.87
848.66	1088.02
848.97	1085.26
849.29	1085.63
849.60	1082.78
849.92	1077.98
850.24	1078.68
850.55	1078.19
850.87	1076.25
851.18	1080.13
851.50	1084.09
851.81	1087.06
852.13	1090.76
852.44	1093.08
852.76	1090.83
853.07	1091.44
853.39	1087.69
853.70	1085.00
854.01	1083.29
854.33	1084.49
854.64	1082.38
854.96	1081.84
855.27	1082.83
855.59	1084.00
855.90	1082.01
856.22	1080.53
856.53	1078.24
856.84	1077.61
857.16	1076.76
857.47	1080.70
857.79	1084.49
858.10	1090.17
858.41	1088.42
858.73	1091.37
859.04	1089.33
859.36	1090.46
859.67	1086.38
859.98	1084.28
860.30	1083.81
860.61	1081.89
860.92	1078.40
861.24	1078.40
861.55	1081.51
861.87	1077.77
862.18	1078.64
862.49	1077.96
862.81	1078.61
863.12	1083.18
863.43	1083.41
863.74	1087.93
864.06	1089.19
864.37	1089.19
864.68	1084.70
865.00	1087.53
865.31	1083.25
865.62	1081.84
865.94	1082.64
866.25	1082.50
866.56	1081.58
866.87	1082.64
867.19	1084.21
867.50	1083.74
867.81	1083.29
868.12	1080.09
868.44	1082.33
868.75	1082.12
869.06	1082.43
869.37	1083.50
869.68	1085.28
870.00	1082.78
870.31	1082.47
870.62	1084.63
870.93	1087.48
871.24	1086.08
871.56	1086.31
871.87	1088.70
872.18	1087.69
872.49	1083.22
872.80	1084.37
873.12	1084.63
873.43	1082.59
873.74	1083.67
874.05	1084.21
874.36	1084.49
874.67	1083.71
874.98	1083.97
875.29	1081.37
875.61	1082.87
875.92	1084.44
876.23	1087.18
876.54	1087.23
876.85	1088.26
877.16	1086.29
877.47	1086.92
877.78	1084.58
878.09	1086.20
878.40	1086.50
878.72	1088.63
879.03	1089.10
879.34	1086.80
879.65	1084.63
879.96	1084.81
880.27	1084.09
880.58	1080.23
880.89	1082.61
881.20	1083.01
881.51	1078.38
881.82	1075.94
882.13	1078.64
882.44	1079.64
882.75	1082.03
883.06	1088.58
883.37	1093.08
883.68	1092.52
883.99	1091.18
884.30	1090.92
884.61	1087.44
884.92	1085.68
885.23	1085.26
885.54	1084.70
885.85	1083.60
886.16	1083.34
886.47	1081.44
886.78	1078.38
887.08	1078.36
887.39	1079.01
887.70	1081.30
888.01	1083.79
888.32	1086.48
888.63	1086.94
888.94	1083.69
889.25	1085.56
889.56	1085.87
889.87	1084.44
890.17	1082.12
890.48	1083.20
890.79	1075.78
891.10	1075.17
891.41	1078.24
891.72	1079.34
892.03	1079.27
892.34	1082.83
892.64	1084.11
892.95	1082.90
893.26	1085.49
893.57	1087.16
893.88	1087.65
894.18	1084.46
894.49	1085.87
894.80	1084.56
895.11	1084.91
895.42	1085.38
895.72	1087.88
896.03	1087.30
896.34	1087.23
896.65	1086.99
896.96	1084.25
897.26	1082.54
897.57	1083.79
897.88	1083.32
898.19	1084.46
898.49	1085.40
898.80	1083.74
899.11	1079.60
899.41	1078.71
899.72	1078.14
900.03	1080.88
900.34	1082.01
900.64	1082.52
900.95	1084.96
901.26	1084.81
901.56	1082.78
901.87	1083.29
902.18	1087.27
902.48	1086.52
902.79	1085.10
903.10	1085.61
903.40	1086.55
903.71	1080.98
904.02	1081.61
904.32	1083.57
904.63	1082.24
904.94	1080.95
905.24	1087.25
905.55	1087.46
905.85	1085.73
906.16	1085.17
906.47	1084.11
906.77	1080.41
907.08	1081.77
907.38	1084.21
907.69	1083.57
908.00	1084.74
908.30	1085.87
908.61	1085.03
908.91	1083.39
909.22	1086.38
909.52	1087.51
909.83	1088.33
910.14	1087.48
910.44	1087.74
910.75	1086.85
911.05	1087.04
911.36	1084.07
911.66	1086.69
911.97	1086.41
912.27	1087.83
912.58	1089.07
912.88	1089.03
913.19	1086.94
913.49	1086.97
913.80	1090.53
914.10	1086.29
914.41	1089.85
914.71	1088.44
915.01	1087.34
915.32	1081.16
915.62	1082.78
915.93	1082.03
916.23	1083.95
916.54	1084.46
916.84	1087.62
917.15	1089.38
917.45	1086.71
917.75	1084.42
918.06	1084.53
918.36	1081.23
918.67	1080.13
918.97	1082.01
919.27	1080.23
919.58	1077.96
919.88	1077.33
920.18	1077.65
920.49	1075.52
920.79	1078.85
921.10	1080.13
921.40	1080.58
921.70	1081.09
922.01	1081.19
922.31	1081.16
922.61	1079.69
922.92	1080.86
923.22	1079.57
923.52	1081.63
923.82	1080.27
924.13	1086.15
924.43	1090.41
924.73	1091.53
925.04	1092.14
925.34	1092.26
925.64	1089.10
925.94	1083.50
926.25	1084.28
926.55	1084.91
926.85	1083.18
927.15	1082.92
927.46	1086.59
927.76	1086.97
928.06	1086.29
928.36	1088.04
928.67	1085.56
928.97	1084.07
929.27	1081.70
929.57	1080.51
929.87	1080.44
930.18	1084.46
930.48	1083.93
930.78	1084.58
931.08	1085.66
931.38	1087.41
931.69	1086.13
931.99	1086.69
932.29	1084.42
932.59	1083.97
932.89	1084.21
933.19	1083.79
933.49	1083.83
933.80	1084.96
934.10	1083.15
934.40	1080.51
934.70	1081.33
935.00	1082.29
935.30	1082.50
935.60	1082.83
935.90	1083.22
936.20	1081.42
936.50	1078.33
936.81	1079.53
937.11	1079.01
937.41	1078.78
937.71	1082.03
938.01	1086.10
938.31	1087.51
938.61	1088.93
938.91	1089.00
939.21	1088.02
939.51	1084.44
939.81	1083.74
940.11	1084.72
940.41	1084.32
940.71	1084.09
941.01	1085.75
941.31	1084.21
941.61	1088.42
941.91	1088.04
942.21	1086.06
942.51	1088.68
942.81	1088.82
943.11	1083.64
943.41	1085.31
943.71	1084.60
944.01	1080.81
944.31	1082.31
944.61	1082.64
944.90	1082.59
945.20	1084.07
945.50	1082.83
945.80	1080.44
946.10	1079.38
946.40	1079.34
946.70	1080.23
947.00	1082.17
947.30	1082.52
947.60	1081.16
947.89	1081.77
948.19	1081.21
948.49	1080.81
948.79	1083.55
949.09	1085.03
949.39	1085.61
949.69	1083.74
949.98	1084.91
950.28	1081.00
950.58	1081.80
950.88	1080.79
951.18	1081.07
951.48	1079.34
951.77	1084.02
952.07	1081.68
952.37	1081.33
952.67	1082.69
952.97	1084.35
953.26	1083.74
953.56	1087.46
953.86	1085.96
954.16	1085.84
954.45	1084.72
954.75	1082.66
955.05	1082.57
955.35	1081.63
955.64	1081.21
955.94	1080.91
956.24	1077.00
956.54	1071.71
956.83	1073.60
957.13	1076.01
957.43	1075.50
957.72	1080.91
958.02	1083.46
958.32	1084.79
958.61	1080.67
958.91	1079.43
959.21	1078.05
959.50	1080.72
959.80	1080.88
960.10	1084.56
960.39	1085.33
960.69	1085.17
960.99	1086.78
961.28	1083.57
961.58	1081.94
961.87	1082.19
962.17	1084.23
962.47	1082.12
962.76	1082.17
963.06	1079.31
963.36	1081.42
963.65	1078.82
963.95	1078.19
964.24	1080.32
964.54	1085.42
964.83	1086.71
965.13	1084.63
965.42	1084.67
965.72	1088.40
966.02	1085.77
966.31	1081.94
966.61	1084.11
966.90	1081.40
967.20	1076.97
967.49	1077.28
967.79	1077.23
968.08	1077.79
968.38	1079.55
968.67	1079.81
968.97	1080.91
969.26	1082.03
969.56	1082.64
969.85	1082.83
970.15	1084.23
970.44	1083.18
970.74	1082.61
971.03	1079.64
971.32	1082.43
971.62	1081.12
971.91	1079.64
972.21	1080.13
972.50	1079.31
972.80	1078.00
973.09	1077.18
973.38	1077.35
973.68	1078.17
973.97	1080.60
974.27	1079.97
974.56	1080.60
974.85	1081.51
975.15	1079.43
975.44	1080.27
975.73	1081.91
976.03	1081.37
976.32	1081.44
976.61	1081.54
976.91	1082.52
977.20	1082.38
977.49	1082.24
977.79	1084.16
978.08	1086.71
978.37	1086.03
978.67	1083.27
978.96	1083.36
979.25	1082.83
979.55	1081.70
979.84	1080.88
980.13	1082.92
980.42	1081.82
980.72	1082.40
981.01	1084.86
981.30	1086.80
981.59	1083.93
981.89	1087.41
982.18	1084.39
982.47	1080.72
982.76	1079.64
983.06	1080.13
983.35	1080.53
983.64	1084.04
983.93	1083.50
984.22	1083.93
984.52	1086.92
984.81	1086.45
985.10	1085.89
985.39	1086.97
985.68	1088.28
985.97	1088.09
986.27	1086.83
986.56	1086.97
986.85	1086.64
987.14	1087.32
987.43	1085.80
987.72	1085.07
988.01	1084.18
988.31	1085.28
988.60	1083.41
988.89	1083.97
989.18	1083.55
989.47	1083.11
989.76	1080.81
990.05	1078.12
990.34	1077.91
990.63	1079.55
990.92	1076.72
991.21	1077.35
991.51	1079.13
991.80	1077.86
992.09	1078.99
992.38	1081.02
992.67	1079.95
992.96	1081.68
993.25	1083.18
993.54	1078.80
993.83	1079.34
994.12	1084.84
994.41	1081.21
994.70	1080.51
994.99	1083.18
995.28	1085.91
995.57	1082.94
995.86	1083.46
996.15	1084.32
996.44	1086.97
996.73	1084.63
997.02	1085.05
997.31	1086.69
997.59	1084.39
997.88	1081.82
998.17	1083.15
998.46	1085.35
998.75	1089.50
999.04	1089.03
999.33	1089.31
999.62	1085.75
999.91	1083.43
1000.20	1077.58
1000.49	1080.39
1000.77	1079.95
1001.06	1081.94
1001.35	1083.34
1001.64	1087.04
1001.93	1085.24
1002.22	1084.18
1002.51	1084.18
1002.79	1082.87
1003.08	1081.51
1003.37	1080.32
1003.66	1081.63
1003.95	1081.49
1004.23	1078.85
1004.52	1075.29
1004.81	1076.81
1005.10	1074.91
1005.39	1073.23
1005.67	1077.72
1005.96	1082.61
1006.25	1082.76
1006.54	1085.99
1006.83	1089.94
1007.11	1090.20
1007.40	1088.61
1007.69	1087.41
1007.97	1084.77
1008.26	1082.03
1008.55	1081.40
1008.84	1079.71
1009.12	1080.95
1009.41	1082.01
1009.70	1082.03
1009.98	1079.92
1010.27	1081.63
1010.56	1079.06
1010.85	1080.46
1011.13	1080.20
1011.42	1079.55
1011.71	1077.37
1011.99	1080.13
1012.28	1079.17
1012.56	1080.30
1012.85	1082.76
1013.14	1083.36
1013.42	1081.33
1013.71	1079.20
1014.00	1074.94
1014.28	1074.54
1014.57	1077.11
1014.85	1078.26
1015.14	1080.67
1015.43	1085.05
1015.71	1084.21
1016.00	1082.01
1016.28	1083.90
1016.57	1083.69
1016.85	1084.44
1017.14	1087.97
1017.43	1089.66
1017.71	1084.23
1018.00	1082.29
1018.28	1080.65
1018.57	1074.94
1018.85	1074.17
1019.14	1077.72
1019.42	1080.39
1019.71	1080.51
1019.99	1083.13
1020.28	1084.21
1020.56	1083.88
1020.85	1082.05
1021.13	1079.03
1021.42	1077.42
1021.70	1073.72
1021.99	1076.18
1022.27	1077.86
1022.55	1087.41
1022.84	1087.30
>>>>>End Processed Spectral Data<<<<<
