SpectraSuite Data File
++++++++++++++++++++++++++++++++++++
Date: Mon Aug 26 10:26:26 PDT 2019
User: corrico
Dark Spectrum Present: No
Reference Spectrum Present: No
Number of Sampled Component Spectra: 1
Spectrometers: USB2+H06089
Integration Time (usec): 10000 (USB2+H06089)
Spectra Averaged: 20 (USB2+H06089)
Boxcar Smoothing: 2 (USB2+H06089)
Correct for Electrical Dark: No (USB2+H06089)
Strobe/Lamp Enabled: No (USB2+H06089)
Correct for Detector Non-linearity: No (USB2+H06089)
Correct for Stray Light: No (USB2+H06089)
Number of Pixels in Processed Spectrum: 2048
>>>>>Begin Processed Spectral Data<<<<<
339.70	1046.45
340.07	1046.45
340.45	1003.29
340.82	982.00
341.19	956.81
341.57	928.44
341.94	918.45
342.31	915.15
342.69	906.93
343.06	904.36
343.43	905.86
343.81	905.41
344.18	904.10
344.55	907.22
344.93	910.47
345.30	913.63
345.67	921.26
346.04	929.26
346.42	934.69
346.79	942.44
347.16	953.56
347.54	964.00
347.91	973.01
348.28	984.78
348.65	992.79
349.03	997.00
349.40	1007.51
349.77	1018.37
350.14	1026.91
350.52	1034.05
350.89	1038.59
351.26	1038.33
351.63	1042.69
352.01	1046.73
352.38	1051.32
352.75	1058.88
353.12	1064.64
353.50	1065.93
353.87	1068.92
354.24	1071.29
354.61	1073.70
354.98	1073.70
355.36	1074.77
355.73	1076.01
356.10	1081.80
356.47	1085.75
356.84	1089.29
357.22	1089.38
357.59	1087.74
357.96	1083.62
358.33	1079.76
358.70	1077.86
359.08	1081.91
359.45	1085.10
359.82	1086.34
360.19	1084.60
360.56	1084.30
360.94	1079.78
361.31	1076.65
361.68	1075.15
362.05	1076.32
362.42	1074.54
362.79	1073.91
363.16	1071.26
363.54	1069.16
363.91	1070.75
364.28	1070.77
364.65	1069.11
365.02	1074.96
365.39	1075.43
365.76	1074.45
366.14	1074.42
366.51	1078.43
366.88	1072.25
367.25	1069.27
367.62	1067.71
367.99	1067.24
368.36	1066.14
368.73	1070.37
369.10	1073.18
369.48	1073.67
369.85	1072.43
370.22	1070.77
370.59	1066.14
370.96	1065.25
371.33	1064.31
371.70	1067.54
372.07	1067.03
372.44	1070.14
372.81	1070.54
373.18	1070.68
373.55	1067.21
373.93	1067.82
374.30	1067.07
374.67	1067.07
375.04	1065.88
375.41	1067.64
375.78	1069.72
376.15	1071.90
376.52	1071.78
376.89	1070.07
377.26	1068.43
377.63	1070.23
378.00	1069.55
378.37	1072.60
378.74	1073.67
379.11	1076.18
379.48	1072.67
379.85	1072.48
380.22	1069.60
380.59	1071.78
380.96	1074.31
381.33	1076.44
381.70	1074.00
382.07	1076.18
382.44	1076.20
382.81	1072.50
383.18	1073.81
383.55	1076.51
383.92	1074.40
384.29	1077.02
384.66	1079.97
385.03	1077.07
385.40	1074.98
385.77	1076.93
386.14	1074.52
386.51	1074.24
386.88	1074.14
387.25	1075.52
387.62	1074.12
387.99	1075.90
388.36	1076.55
388.73	1076.18
389.10	1077.96
389.46	1077.35
389.83	1075.64
390.20	1073.39
390.57	1074.40
390.94	1072.64
391.31	1074.82
391.68	1074.91
392.05	1073.44
392.42	1074.52
392.79	1071.08
393.16	1068.17
393.53	1069.02
393.89	1070.05
394.26	1071.19
394.63	1074.47
395.00	1077.68
395.37	1075.87
395.74	1077.89
396.11	1076.11
396.48	1074.59
396.84	1072.76
397.21	1073.32
397.58	1072.34
397.95	1072.04
398.32	1071.05
398.69	1071.73
399.06	1069.86
399.42	1069.74
399.79	1066.86
400.16	1069.95
400.53	1069.44
400.90	1073.88
401.27	1073.56
401.64	1071.99
402.00	1071.31
402.37	1071.33
402.74	1068.74
403.11	1067.75
403.48	1073.56
403.84	1075.27
404.21	1072.04
404.58	1073.70
404.95	1073.60
405.32	1073.18
405.68	1073.88
406.05	1076.06
406.42	1071.64
406.79	1074.07
407.16	1071.15
407.52	1070.33
407.89	1072.06
408.26	1077.30
408.63	1076.97
408.99	1077.77
409.36	1078.19
409.73	1077.07
410.10	1075.17
410.47	1075.03
410.83	1073.35
411.20	1071.22
411.57	1071.43
411.94	1072.90
412.30	1074.59
412.67	1077.58
413.04	1075.64
413.40	1077.98
413.77	1074.14
414.14	1072.95
414.51	1072.83
414.87	1075.05
415.24	1074.17
415.61	1077.02
415.97	1076.34
416.34	1074.77
416.71	1073.91
417.08	1074.28
417.44	1073.84
417.81	1073.51
418.18	1074.98
418.54	1078.52
418.91	1079.92
419.28	1080.65
419.64	1078.82
420.01	1077.89
420.38	1079.31
420.74	1075.55
421.11	1075.45
421.48	1077.44
421.84	1078.50
422.21	1073.86
422.58	1077.25
422.94	1076.41
423.31	1075.94
423.68	1074.94
424.04	1075.85
424.41	1074.19
424.77	1073.91
425.14	1075.22
425.51	1078.07
425.87	1078.87
426.24	1080.32
426.61	1085.26
426.97	1086.01
427.34	1084.70
427.70	1082.73
428.07	1080.34
428.44	1076.51
428.80	1075.94
429.17	1077.56
429.53	1077.77
429.90	1077.91
430.27	1079.17
430.63	1078.05
431.00	1075.15
431.36	1076.76
431.73	1073.93
432.09	1070.87
432.46	1072.36
432.83	1075.36
433.19	1076.34
433.56	1078.89
433.92	1082.33
434.29	1080.48
434.65	1079.27
435.02	1080.63
435.38	1082.73
435.75	1079.38
436.11	1077.37
436.48	1078.68
436.84	1077.28
437.21	1077.63
437.57	1078.00
437.94	1080.98
438.30	1079.88
438.67	1077.56
439.03	1077.70
439.40	1079.03
439.76	1078.05
440.13	1075.45
440.49	1077.75
440.86	1078.78
441.22	1078.31
441.59	1079.46
441.95	1079.67
442.32	1074.80
442.68	1071.40
443.05	1070.84
443.41	1070.75
443.78	1075.10
444.14	1077.61
444.51	1075.38
444.87	1075.43
445.24	1077.98
445.60	1074.68
445.96	1075.45
446.33	1081.19
446.69	1084.32
447.06	1084.51
447.42	1084.77
447.79	1083.50
448.15	1079.64
448.51	1078.99
448.88	1076.08
449.24	1075.85
449.61	1074.28
449.97	1075.43
450.33	1075.38
450.70	1076.15
451.06	1079.36
451.43	1084.28
451.79	1083.79
452.15	1081.73
452.52	1081.61
452.88	1079.71
453.24	1078.47
453.61	1079.29
453.97	1082.22
454.34	1084.84
454.70	1084.93
455.06	1086.20
455.43	1084.84
455.79	1084.81
456.15	1082.71
456.52	1083.25
456.88	1079.99
457.24	1082.24
457.61	1080.88
457.97	1080.37
458.33	1079.48
458.70	1081.35
459.06	1079.29
459.42	1078.12
459.79	1078.03
460.15	1078.92
460.51	1079.67
460.88	1080.46
461.24	1079.08
461.60	1077.61
461.96	1077.16
462.33	1075.80
462.69	1075.34
463.05	1078.87
463.42	1079.85
463.78	1080.37
464.14	1080.16
464.50	1080.41
464.87	1080.86
465.23	1080.86
465.59	1079.06
465.95	1082.50
466.32	1084.91
466.68	1083.08
467.04	1083.95
467.40	1082.78
467.77	1082.03
468.13	1080.84
468.49	1082.17
468.85	1080.72
469.22	1082.99
469.58	1080.48
469.94	1079.29
470.30	1079.08
470.66	1079.03
471.03	1079.27
471.39	1081.66
471.75	1083.27
472.11	1082.57
472.47	1081.68
472.84	1080.51
473.20	1079.13
473.56	1079.36
473.92	1080.58
474.28	1081.87
474.65	1082.71
475.01	1081.19
475.37	1081.23
475.73	1080.91
476.09	1083.55
476.45	1084.63
476.81	1086.57
477.18	1085.31
477.54	1084.91
477.90	1083.29
478.26	1086.38
478.62	1086.22
478.98	1087.18
479.34	1090.92
479.71	1094.72
480.07	1092.49
480.43	1094.97
480.79	1097.34
481.15	1094.53
481.51	1093.29
481.87	1096.49
482.23	1097.45
482.59	1095.70
482.96	1098.48
483.32	1098.37
483.68	1097.97
484.04	1096.56
484.40	1099.12
484.76	1100.24
485.12	1102.32
485.48	1104.26
485.84	1105.88
486.20	1105.01
486.56	1107.00
486.92	1109.13
487.28	1108.31
487.64	1108.69
488.00	1111.73
488.37	1111.82
488.73	1112.90
489.09	1118.17
489.45	1120.37
489.81	1121.42
490.17	1123.25
490.53	1124.49
490.89	1122.64
491.25	1127.51
491.61	1132.26
491.97	1133.99
492.33	1138.16
492.69	1141.78
493.05	1145.41
493.41	1149.04
493.77	1152.43
494.13	1154.77
494.49	1157.58
494.85	1162.19
495.21	1163.88
495.57	1172.87
495.93	1180.52
496.29	1188.20
496.64	1195.12
497.00	1205.02
497.36	1209.89
497.72	1214.83
498.08	1221.88
498.44	1225.95
498.80	1235.01
499.16	1240.79
499.52	1247.53
499.88	1257.31
500.24	1270.02
500.60	1274.73
500.96	1284.72
501.32	1297.10
501.68	1307.70
502.03	1316.01
502.39	1328.79
502.75	1341.41
503.11	1353.46
503.47	1367.06
503.83	1384.17
504.19	1399.08
504.55	1412.84
504.91	1432.76
505.26	1445.51
505.62	1460.14
505.98	1478.28
506.34	1503.84
506.70	1524.95
507.06	1548.52
507.42	1568.42
507.78	1589.46
508.13	1605.94
508.49	1625.60
508.85	1650.94
509.21	1678.56
509.57	1711.52
509.93	1748.57
510.28	1781.24
510.64	1814.36
511.00	1855.39
511.36	1891.43
511.72	1923.78
512.07	1960.97
512.43	2001.77
512.79	2035.73
513.15	2073.76
513.51	2112.26
513.86	2156.34
514.22	2197.86
514.58	2246.56
514.94	2291.60
515.30	2337.49
515.65	2380.07
516.01	2426.57
516.37	2472.12
516.73	2521.04
517.08	2571.85
517.44	2622.85
517.80	2678.65
518.16	2727.12
518.51	2775.85
518.87	2819.43
519.23	2872.19
519.59	2923.61
519.94	2975.13
520.30	3024.93
520.66	3071.65
521.01	3114.50
521.37	3146.45
521.73	3179.45
522.09	3215.52
522.44	3260.60
522.80	3287.28
523.16	3305.87
523.51	3321.29
523.87	3327.87
524.23	3340.13
524.58	3362.48
524.94	3401.15
525.30	3433.59
525.65	3463.17
526.01	3469.31
526.37	3464.16
526.72	3452.64
527.08	3441.01
527.44	3430.38
527.79	3434.50
528.15	3429.49
528.51	3422.03
528.86	3409.39
529.22	3397.55
529.58	3374.47
529.93	3353.33
530.29	3325.41
530.65	3300.06
531.00	3271.02
531.36	3237.38
531.71	3213.86
532.07	3190.74
532.43	3162.98
532.78	3124.62
533.14	3092.25
533.49	3057.63
533.85	3019.55
534.21	2984.21
534.56	2958.46
534.92	2922.79
535.27	2883.07
535.63	2837.43
535.98	2787.06
536.34	2745.85
536.69	2713.08
537.05	2681.69
537.41	2661.05
537.76	2640.80
538.12	2607.82
538.47	2579.69
538.83	2548.70
539.18	2511.04
539.54	2487.12
539.89	2464.35
540.25	2437.34
540.60	2415.67
540.96	2392.19
541.31	2364.34
541.67	2340.18
542.02	2319.54
542.38	2294.45
542.73	2270.62
543.09	2248.51
543.44	2227.98
543.80	2198.25
544.15	2173.66
544.51	2158.04
544.86	2142.85
545.22	2125.02
545.57	2109.71
545.93	2091.60
546.28	2067.21
546.64	2038.89
546.99	2011.92
547.35	1997.67
547.70	1982.43
548.05	1965.72
548.41	1952.73
548.76	1941.66
549.12	1923.90
549.47	1906.72
549.83	1894.76
550.18	1876.81
550.53	1854.71
550.89	1828.66
551.24	1806.89
551.60	1786.67
551.95	1769.49
552.30	1756.27
552.66	1751.66
553.01	1740.66
553.37	1728.13
553.72	1713.51
554.07	1695.34
554.43	1674.75
554.78	1654.24
555.13	1636.78
555.49	1620.45
555.84	1609.96
556.19	1595.47
556.55	1585.57
556.90	1576.49
557.26	1568.23
557.61	1556.50
557.96	1544.38
558.32	1532.84
558.67	1520.83
559.02	1508.92
559.37	1498.65
559.73	1488.56
560.08	1479.94
560.43	1467.07
560.79	1459.51
561.14	1451.39
561.49	1444.18
561.85	1433.55
562.20	1424.96
562.55	1414.32
562.90	1404.51
563.26	1395.61
563.61	1392.41
563.96	1383.16
564.32	1377.78
564.67	1365.75
565.02	1355.85
565.37	1344.85
565.73	1342.39
566.08	1332.84
566.43	1330.66
566.78	1330.59
567.14	1328.53
567.49	1322.19
567.84	1316.46
568.19	1309.76
568.54	1302.51
568.90	1296.94
569.25	1291.98
569.60	1290.24
569.95	1286.22
570.31	1280.16
570.66	1274.68
571.01	1268.43
571.36	1260.73
571.71	1256.66
572.06	1249.85
572.42	1244.46
572.77	1240.58
573.12	1235.83
573.47	1227.24
573.82	1223.98
574.18	1222.02
574.53	1219.23
574.88	1219.61
575.23	1220.05
575.58	1220.61
575.93	1216.47
576.28	1212.65
576.64	1208.30
576.99	1206.78
577.34	1201.56
577.69	1197.39
578.04	1193.49
578.39	1188.36
578.74	1182.49
579.09	1176.77
579.44	1173.22
579.80	1170.81
580.15	1169.26
580.50	1167.76
580.85	1166.45
581.20	1164.95
581.55	1165.49
581.90	1161.51
582.25	1161.51
582.60	1160.88
582.95	1157.63
583.30	1153.25
583.65	1150.58
584.00	1147.63
584.35	1149.62
584.71	1151.24
585.06	1151.26
585.41	1152.53
585.76	1151.31
586.11	1149.23
586.46	1144.76
586.81	1141.69
587.16	1141.08
587.51	1140.61
587.86	1136.52
588.21	1138.39
588.56	1137.87
588.91	1138.51
589.26	1134.64
589.61	1134.95
589.96	1134.86
590.31	1132.80
590.66	1127.97
591.01	1131.39
591.36	1128.26
591.71	1123.69
592.06	1122.43
592.41	1123.15
592.76	1116.95
593.10	1114.63
593.45	1113.95
593.80	1113.86
594.15	1113.16
594.50	1113.60
594.85	1115.48
595.20	1115.22
595.55	1116.95
595.90	1114.49
596.25	1113.74
596.60	1113.81
596.95	1114.54
597.30	1111.29
597.64	1163.60
597.99	1164.93
598.34	1161.44
598.69	1160.16
599.04	1158.71
599.39	1103.33
599.74	1099.72
600.09	1102.23
600.44	1097.66
600.78	1098.16
601.13	1102.39
601.48	1104.55
601.83	1104.08
602.18	1105.32
602.53	1102.09
602.88	1098.74
603.22	1098.23
603.57	1095.72
603.92	1094.90
604.27	1095.89
604.62	1097.01
604.97	1095.14
605.31	1092.42
605.66	1092.68
606.01	1095.00
606.36	1097.06
606.71	1095.91
607.05	1096.40
607.40	1093.38
607.75	1093.17
608.10	1088.98
608.44	1092.30
608.79	1094.53
609.14	1098.62
609.49	1101.01
609.84	1101.83
610.18	1101.92
610.53	1104.29
610.88	1103.56
611.23	1101.85
611.57	1100.96
611.92	1099.07
612.27	1097.57
612.62	1099.02
612.96	1097.83
613.31	1096.12
613.66	1095.79
614.00	1094.86
614.35	1093.66
614.70	1091.39
615.05	1092.70
615.39	1090.71
615.74	1088.33
616.09	1084.56
616.43	1085.24
616.78	1085.38
617.13	1085.87
617.47	1086.17
617.82	1088.54
618.17	1088.44
618.51	1089.89
618.86	1090.20
619.21	1090.60
619.55	1091.39
619.90	1090.99
620.25	1092.35
620.59	1092.33
620.94	1093.71
621.29	1093.78
621.63	1095.21
621.98	1090.53
622.32	1090.67
622.67	1089.94
623.02	1088.35
623.36	1090.03
623.71	1091.84
624.05	1091.67
624.40	1089.57
624.75	1089.68
625.09	1086.66
625.44	1084.60
625.78	1085.12
626.13	1084.58
626.48	1085.19
626.82	1084.65
627.17	1084.04
627.51	1086.45
627.86	1088.51
628.20	1085.73
628.55	1086.36
628.89	1089.68
629.24	1088.54
629.58	1087.83
629.93	1086.73
630.28	1083.36
630.62	1083.46
630.97	1081.40
631.31	1079.41
631.66	1083.48
632.00	1085.56
632.35	1083.08
632.69	1083.27
633.04	1082.08
633.38	1081.77
633.73	1080.13
634.07	1081.73
634.42	1078.94
634.76	1083.20
635.11	1082.50
635.45	1083.06
635.79	1084.18
636.14	1088.19
636.48	1084.42
636.83	1085.68
637.17	1085.19
637.52	1082.83
637.86	1080.23
638.21	1082.36
638.55	1082.22
638.89	1084.72
639.24	1085.38
639.58	1084.70
639.93	1084.14
640.27	1083.53
640.61	1083.20
640.96	1081.91
641.30	1085.19
641.65	1085.84
641.99	1081.51
642.33	1080.13
642.68	1078.92
643.02	1078.00
643.37	1074.52
643.71	1078.57
644.05	1078.19
644.40	1079.60
644.74	1075.71
645.08	1080.06
645.43	1079.22
645.77	1077.75
646.11	1077.44
646.46	1082.76
646.80	1084.11
647.14	1083.15
647.49	1085.40
647.83	1086.34
648.17	1081.91
648.52	1079.78
648.86	1079.01
649.20	1079.34
649.55	1075.62
649.89	1078.17
650.23	1077.89
650.57	1080.32
650.92	1080.02
651.26	1079.88
651.60	1079.13
651.95	1074.63
652.29	1072.81
652.63	1073.67
652.97	1076.44
653.32	1077.42
653.66	1083.39
654.00	1084.44
654.34	1083.39
654.69	1084.98
655.03	1081.96
655.37	1081.56
655.71	1083.06
656.05	1081.05
656.40	1080.37
656.74	1083.27
657.08	1079.29
657.42	1075.10
657.76	1075.15
658.11	1074.47
658.45	1073.44
658.79	1077.96
659.13	1081.91
659.47	1085.82
659.82	1088.26
660.16	1088.44
660.50	1085.33
660.84	1085.45
661.18	1084.18
661.52	1081.75
661.87	1082.73
662.21	1083.50
662.55	1081.82
662.89	1081.89
663.23	1085.12
663.57	1085.66
663.91	1085.42
664.25	1084.28
664.60	1083.18
664.94	1080.91
665.28	1079.13
665.62	1078.19
665.96	1080.81
666.30	1083.64
666.64	1081.26
666.98	1083.97
667.32	1086.03
667.66	1086.83
668.01	1085.33
668.35	1087.74
668.69	1084.02
669.03	1082.61
669.37	1078.87
669.71	1075.83
670.05	1074.33
670.39	1072.25
670.73	1075.27
671.07	1077.70
671.41	1079.64
671.75	1081.28
672.09	1082.76
672.43	1082.10
672.77	1080.06
673.11	1077.58
673.45	1076.41
673.79	1078.33
674.13	1074.40
674.47	1074.49
674.81	1076.72
675.15	1081.35
675.49	1079.74
675.83	1081.96
676.17	1083.48
676.51	1085.26
676.85	1077.91
677.19	1077.63
677.53	1078.80
677.87	1077.11
678.21	1072.90
678.55	1075.66
678.89	1077.47
679.23	1076.53
679.57	1077.40
679.90	1080.37
680.24	1078.80
680.58	1080.16
680.92	1079.31
681.26	1079.55
681.60	1082.36
681.94	1085.05
682.28	1085.77
682.62	1086.85
682.96	1085.63
683.29	1080.09
683.63	1081.16
683.97	1079.81
684.31	1076.93
684.65	1078.89
684.99	1080.88
685.33	1078.78
685.67	1078.19
686.00	1082.73
686.34	1081.75
686.68	1082.59
687.02	1083.29
687.36	1083.27
687.70	1083.13
688.03	1082.71
688.37	1082.12
688.71	1082.22
689.05	1083.69
689.39	1080.53
689.72	1081.51
690.06	1076.30
690.40	1076.04
690.74	1073.58
691.08	1073.49
691.41	1071.45
691.75	1076.83
692.09	1077.93
692.43	1078.52
692.76	1079.46
693.10	1080.11
693.44	1080.20
693.78	1076.20
694.11	1073.53
694.45	1074.47
694.79	1074.19
695.13	1073.16
695.46	1077.33
695.80	1079.50
696.14	1078.82
696.48	1080.63
696.81	1081.09
697.15	1079.29
697.49	1080.65
697.82	1080.70
698.16	1080.77
698.50	1080.34
698.83	1083.57
699.17	1084.44
699.51	1085.99
699.84	1086.36
700.18	1091.30
700.52	1092.07
700.85	1090.36
701.19	1086.01
701.53	1081.63
701.86	1077.65
702.20	1074.10
702.54	1074.87
702.87	1078.26
703.21	1079.60
703.55	1079.41
703.88	1080.56
704.22	1083.22
704.55	1079.31
704.89	1079.99
705.23	1078.80
705.56	1074.87
705.90	1070.89
706.23	1074.38
706.57	1075.08
706.91	1075.15
707.24	1077.37
707.58	1079.36
707.91	1079.95
708.25	1078.45
708.58	1079.20
708.92	1081.09
709.26	1079.64
709.59	1080.39
709.93	1084.58
710.26	1082.10
710.60	1080.25
710.93	1079.57
711.27	1078.17
711.60	1077.63
711.94	1080.74
712.27	1078.68
712.61	1079.13
712.94	1081.16
713.28	1078.92
713.61	1080.70
713.95	1082.43
714.28	1083.08
714.62	1080.34
714.95	1079.83
715.29	1079.06
715.62	1082.33
715.96	1079.64
716.29	1084.16
716.63	1084.86
716.96	1083.67
717.29	1079.48
717.63	1081.02
717.96	1077.00
718.30	1078.38
718.63	1081.42
718.97	1086.50
719.30	1083.67
719.63	1083.34
719.97	1081.91
720.30	1080.53
720.64	1075.99
720.97	1081.42
721.30	1083.11
721.64	1085.07
721.97	1083.81
722.31	1087.04
722.64	1087.18
722.97	1086.71
723.31	1085.70
723.64	1085.31
723.97	1083.90
724.31	1080.81
724.64	1079.15
724.98	1079.64
725.31	1081.91
725.64	1085.03
725.98	1085.14
726.31	1086.57
726.64	1084.35
726.97	1082.59
727.31	1078.17
727.64	1079.76
727.97	1079.64
728.31	1080.51
728.64	1079.57
728.97	1081.16
729.31	1079.53
729.64	1079.90
729.97	1080.20
730.30	1080.91
730.64	1079.81
730.97	1082.90
731.30	1083.95
731.63	1080.72
731.97	1079.85
732.30	1078.73
732.63	1076.51
732.96	1075.83
733.30	1077.79
733.63	1076.88
733.96	1078.89
734.29	1082.08
734.63	1083.50
734.96	1086.36
735.29	1089.85
735.62	1091.16
735.95	1088.40
736.29	1086.43
736.62	1084.51
736.95	1080.58
737.28	1076.44
737.61	1077.68
737.94	1074.82
738.28	1074.40
738.61	1076.95
738.94	1079.78
739.27	1078.26
739.60	1083.06
739.93	1084.02
740.27	1084.70
740.60	1084.18
740.93	1086.71
741.26	1084.25
741.59	1084.58
741.92	1083.08
742.25	1081.23
742.58	1079.50
742.91	1077.75
743.25	1075.57
743.58	1077.07
743.91	1077.35
744.24	1078.75
744.57	1080.11
744.90	1082.61
745.23	1081.68
745.56	1081.98
745.89	1080.39
746.22	1081.89
746.55	1079.03
746.88	1079.48
747.21	1080.02
747.54	1079.85
747.87	1082.10
748.20	1085.99
748.53	1087.13
748.87	1088.82
749.20	1087.67
749.53	1084.89
749.86	1081.73
750.19	1076.51
750.52	1073.67
750.85	1074.63
751.18	1074.82
751.51	1075.50
751.84	1078.80
752.16	1078.73
752.49	1079.38
752.82	1077.98
753.15	1080.53
753.48	1082.76
753.81	1083.74
754.14	1082.80
754.47	1083.13
754.80	1082.03
755.13	1076.81
755.46	1078.19
755.79	1079.29
756.12	1082.73
756.45	1085.19
756.78	1087.32
757.11	1089.59
757.43	1088.26
757.76	1082.76
758.09	1080.63
758.42	1080.48
758.75	1077.98
759.08	1077.86
759.41	1079.67
759.74	1079.81
760.07	1080.06
760.39	1079.43
760.72	1080.11
761.05	1078.99
761.38	1078.71
761.71	1081.05
762.04	1080.18
762.36	1078.57
762.69	1080.25
763.02	1080.46
763.35	1077.35
763.68	1078.03
764.01	1080.60
764.33	1080.58
764.66	1079.17
764.99	1080.06
765.32	1080.70
765.65	1082.85
765.97	1083.74
766.30	1084.98
766.63	1085.63
766.96	1087.55
767.28	1086.03
767.61	1086.97
767.94	1086.01
768.27	1088.35
768.59	1087.39
768.92	1086.06
769.25	1083.69
769.58	1085.61
769.90	1082.76
770.23	1082.01
770.56	1083.29
770.89	1082.52
771.21	1082.50
771.54	1085.99
771.87	1087.20
772.19	1082.45
772.52	1086.64
772.85	1085.56
773.17	1082.15
773.50	1079.83
773.83	1082.78
774.15	1081.42
774.48	1080.58
774.81	1081.51
775.13	1081.94
775.46	1081.12
775.79	1079.83
776.11	1081.58
776.44	1077.40
776.77	1078.26
777.09	1080.25
777.42	1082.47
777.74	1082.01
778.07	1082.19
778.40	1080.74
778.72	1080.09
779.05	1078.45
779.37	1074.42
779.70	1079.24
780.03	1079.81
780.35	1079.36
780.68	1080.09
781.00	1084.32
781.33	1082.61
781.65	1083.25
781.98	1084.07
782.31	1082.52
782.63	1079.64
782.96	1082.10
783.28	1082.73
783.61	1081.84
783.93	1080.51
784.26	1081.44
784.58	1080.44
784.91	1079.31
785.23	1080.72
785.56	1084.21
785.88	1084.51
786.21	1081.96
786.53	1083.50
786.86	1080.02
787.18	1077.47
787.51	1077.84
787.83	1079.53
788.16	1077.18
788.48	1078.75
788.81	1076.37
789.13	1076.60
789.46	1077.21
789.78	1077.96
790.10	1075.41
790.43	1077.84
790.75	1075.43
791.08	1075.64
791.40	1071.68
791.73	1080.65
792.05	1083.43
792.37	1084.86
792.70	1081.77
793.02	1086.83
793.35	1083.08
793.67	1082.87
793.99	1084.98
794.32	1088.12
794.64	1087.79
794.96	1086.69
795.29	1087.39
795.61	1084.30
795.93	1083.11
796.26	1082.31
796.58	1080.41
796.91	1079.99
797.23	1080.13
797.55	1082.03
797.87	1082.69
798.20	1083.53
798.52	1081.94
798.84	1082.69
799.17	1081.44
799.49	1081.44
799.81	1081.19
800.14	1079.95
800.46	1080.44
800.78	1080.37
801.10	1080.23
801.43	1077.04
801.75	1077.61
802.07	1078.73
802.40	1077.96
802.72	1075.22
803.04	1079.88
803.36	1078.87
803.69	1077.61
804.01	1077.70
804.33	1076.34
804.65	1075.24
804.97	1074.63
805.30	1075.17
805.62	1075.15
805.94	1079.62
806.26	1077.37
806.58	1078.73
806.91	1075.03
807.23	1078.05
807.55	1078.71
807.87	1083.01
808.19	1082.40
808.52	1088.72
808.84	1087.11
809.16	1084.28
809.48	1083.39
809.80	1084.37
810.12	1083.53
810.44	1080.98
810.77	1082.73
811.09	1083.34
811.41	1084.04
811.73	1083.83
812.05	1086.92
812.37	1088.23
812.69	1089.07
813.01	1089.94
813.33	1088.12
813.66	1089.99
813.98	1088.33
814.30	1085.26
814.62	1085.05
814.94	1087.58
815.26	1083.18
815.58	1081.96
815.90	1081.75
816.22	1075.87
816.54	1073.72
816.86	1074.52
817.18	1078.50
817.50	1082.05
817.82	1086.92
818.14	1090.20
818.46	1089.40
818.78	1091.06
819.10	1089.66
819.42	1088.26
819.74	1085.35
820.06	1089.66
820.38	1084.63
820.70	1082.47
821.02	1082.99
821.34	1082.52
821.66	1078.61
821.98	1078.33
822.30	1079.13
822.62	1077.49
822.94	1079.83
823.26	1080.44
823.58	1082.85
823.90	1082.19
824.22	1086.85
824.54	1086.66
824.86	1088.21
825.18	1085.82
825.50	1086.94
825.81	1083.08
826.13	1078.28
826.45	1074.28
826.77	1074.98
827.09	1073.21
827.41	1072.95
827.73	1075.85
828.05	1078.96
828.36	1081.14
828.68	1084.28
829.00	1083.74
829.32	1083.27
829.64	1080.44
829.96	1076.81
830.28	1073.42
830.59	1075.17
830.91	1075.78
831.23	1078.17
831.55	1078.31
831.87	1081.66
832.19	1079.60
832.50	1081.02
832.82	1081.30
833.14	1081.87
833.46	1077.16
833.78	1078.94
834.09	1077.44
834.41	1078.47
834.73	1079.83
835.05	1084.14
835.36	1083.88
835.68	1086.59
836.00	1082.71
836.32	1085.03
836.63	1081.58
836.95	1081.91
837.27	1077.18
837.59	1080.63
837.90	1078.66
838.22	1077.61
838.54	1076.88
838.85	1080.70
839.17	1079.55
839.49	1082.57
839.80	1087.72
840.12	1087.83
840.44	1084.77
840.76	1084.35
841.07	1075.97
841.39	1074.05
841.71	1073.56
842.02	1071.80
842.34	1068.48
842.65	1074.89
842.97	1073.58
843.29	1074.10
843.60	1076.06
843.92	1082.76
844.24	1083.83
844.55	1082.47
844.87	1083.83
845.18	1084.35
845.50	1082.08
845.82	1079.99
846.13	1081.35
846.45	1079.88
846.76	1082.12
847.08	1079.62
847.40	1079.08
847.71	1077.18
848.03	1079.41
848.34	1077.63
848.66	1080.79
848.97	1082.73
849.29	1085.61
849.60	1085.82
849.92	1086.92
850.24	1084.25
850.55	1084.25
850.87	1083.74
851.18	1080.25
851.50	1078.28
851.81	1083.64
852.13	1084.16
852.44	1085.17
852.76	1086.69
853.07	1088.02
853.39	1084.86
853.70	1081.58
854.01	1084.28
854.33	1083.39
854.64	1083.27
854.96	1081.66
855.27	1083.27
855.59	1079.17
855.90	1081.16
856.22	1081.47
856.53	1082.45
856.84	1083.64
857.16	1085.47
857.47	1084.67
857.79	1084.16
858.10	1082.54
858.41	1080.88
858.73	1080.20
859.04	1081.28
859.36	1079.97
859.67	1080.44
859.98	1077.84
860.30	1074.49
860.61	1074.14
860.92	1071.66
861.24	1073.72
861.55	1074.96
861.87	1077.07
862.18	1074.49
862.49	1076.48
862.81	1073.28
863.12	1074.40
863.43	1075.38
863.74	1075.71
864.06	1076.25
864.37	1078.57
864.68	1080.48
865.00	1080.91
865.31	1079.71
865.62	1080.72
865.94	1082.01
866.25	1077.93
866.56	1077.56
866.87	1080.53
867.19	1082.47
867.50	1082.94
867.81	1083.48
868.12	1083.88
868.44	1084.89
868.75	1083.20
869.06	1083.01
869.37	1084.98
869.68	1084.58
870.00	1082.08
870.31	1083.50
870.62	1078.66
870.93	1075.41
871.24	1075.94
871.56	1078.96
871.87	1075.45
872.18	1079.48
872.49	1080.32
872.80	1080.53
873.12	1081.98
873.43	1085.38
873.74	1083.79
874.05	1088.58
874.36	1088.16
874.67	1085.17
874.98	1082.33
875.29	1082.08
875.61	1080.81
875.92	1079.64
876.23	1080.60
876.54	1081.96
876.85	1082.94
877.16	1077.58
877.47	1079.69
877.78	1079.99
878.09	1081.14
878.40	1080.25
878.72	1084.56
879.03	1083.88
879.34	1086.38
879.65	1085.17
879.96	1086.55
880.27	1082.50
880.58	1083.11
880.89	1078.14
881.20	1079.53
881.51	1079.31
881.82	1082.76
882.13	1079.48
882.44	1078.99
882.75	1078.82
883.06	1081.09
883.37	1083.48
883.68	1086.90
883.99	1088.47
884.30	1088.51
884.61	1086.03
884.92	1085.89
885.23	1086.52
885.54	1088.02
885.85	1085.87
886.16	1084.63
886.47	1083.60
886.78	1081.19
887.08	1078.92
887.39	1078.14
887.70	1079.41
888.01	1079.78
888.32	1078.17
888.63	1077.63
888.94	1081.23
889.25	1080.20
889.56	1080.98
889.87	1081.66
890.17	1084.32
890.48	1084.00
890.79	1084.49
891.10	1082.50
891.41	1084.21
891.72	1081.40
892.03	1082.31
892.34	1082.50
892.64	1081.91
892.95	1080.18
893.26	1080.91
893.57	1075.50
893.88	1076.41
894.18	1079.22
894.49	1080.34
894.80	1079.36
895.11	1081.87
895.42	1081.44
895.72	1079.06
896.03	1081.66
896.34	1083.06
896.65	1085.14
896.96	1085.87
897.26	1085.49
897.57	1079.69
897.88	1080.51
898.19	1076.62
898.49	1077.77
898.80	1077.96
899.11	1081.56
899.41	1082.64
899.72	1083.04
900.03	1082.31
900.34	1084.37
900.64	1087.69
900.95	1084.91
901.26	1089.52
901.56	1091.49
901.87	1091.18
902.18	1090.20
902.48	1089.26
902.79	1085.54
903.10	1082.29
903.40	1079.06
903.71	1072.83
904.02	1073.16
904.32	1075.90
904.63	1074.26
904.94	1073.04
905.24	1074.52
905.55	1073.58
905.85	1069.91
906.16	1069.16
906.47	1074.12
906.77	1079.55
907.08	1085.21
907.38	1086.62
907.69	1086.06
908.00	1088.14
908.30	1085.68
908.61	1084.56
908.91	1084.04
909.22	1085.96
909.52	1082.87
909.83	1082.45
910.14	1082.64
910.44	1081.33
910.75	1081.91
911.05	1082.52
911.36	1084.32
911.66	1086.73
911.97	1091.37
912.27	1090.43
912.58	1089.43
912.88	1085.49
913.19	1081.51
913.49	1078.26
913.80	1077.91
914.10	1075.36
914.41	1078.26
914.71	1079.60
915.01	1079.43
915.32	1081.16
915.62	1084.70
915.93	1083.48
916.23	1081.33
916.54	1081.33
916.84	1082.17
917.15	1080.09
917.45	1082.76
917.75	1083.36
918.06	1081.89
918.36	1080.25
918.67	1083.18
918.97	1082.01
919.27	1082.29
919.58	1083.34
919.88	1085.45
920.18	1087.51
920.49	1086.59
920.79	1083.88
921.10	1084.16
921.40	1081.35
921.70	1077.11
922.01	1075.59
922.31	1078.24
922.61	1078.38
922.92	1078.45
923.22	1077.00
923.52	1076.74
923.82	1078.10
924.13	1078.73
924.43	1079.01
924.73	1080.34
925.04	1082.33
925.34	1082.61
925.64	1082.57
925.94	1081.12
926.25	1083.11
926.55	1081.68
926.85	1077.82
927.15	1078.21
927.46	1082.76
927.76	1079.85
928.06	1082.38
928.36	1085.70
928.67	1085.42
928.97	1082.01
929.27	1083.55
929.57	1079.50
929.87	1078.85
930.18	1079.01
930.48	1080.67
930.78	1078.19
931.08	1081.23
931.38	1082.12
931.69	1080.30
931.99	1080.65
932.29	1082.24
932.59	1083.39
932.89	1079.20
933.19	1080.74
933.49	1080.06
933.80	1078.87
934.10	1075.08
934.40	1078.14
934.70	1075.78
935.00	1074.45
935.30	1074.94
935.60	1076.08
935.90	1076.01
936.20	1080.74
936.50	1081.63
936.81	1081.91
937.11	1082.19
937.41	1082.29
937.71	1078.24
938.01	1078.03
938.31	1079.53
938.61	1080.34
938.91	1079.13
939.21	1078.61
939.51	1077.63
939.81	1077.84
940.11	1080.67
940.41	1082.03
940.71	1082.97
941.01	1082.43
941.31	1081.00
941.61	1082.01
941.91	1082.99
942.21	1084.77
942.51	1087.60
942.81	1086.24
943.11	1080.91
943.41	1075.52
943.71	1076.69
944.01	1073.95
944.31	1074.68
944.61	1075.76
944.90	1081.49
945.20	1081.58
945.50	1081.33
945.80	1078.28
946.10	1076.93
946.40	1075.64
946.70	1072.67
947.00	1076.93
947.30	1078.14
947.60	1082.08
947.89	1079.85
948.19	1084.18
948.49	1083.93
948.79	1088.65
949.09	1083.86
949.39	1085.33
949.69	1082.71
949.98	1081.89
950.28	1078.24
950.58	1080.16
950.88	1078.50
951.18	1078.89
951.48	1077.00
951.77	1079.60
952.07	1077.68
952.37	1080.74
952.67	1079.48
952.97	1079.41
953.26	1079.41
953.56	1081.73
953.86	1078.71
954.16	1079.99
954.45	1080.91
954.75	1077.72
955.05	1073.74
955.35	1074.96
955.64	1075.20
955.94	1076.95
956.24	1079.74
956.54	1083.01
956.83	1082.90
957.13	1080.11
957.43	1077.82
957.72	1078.89
958.02	1080.93
958.32	1079.62
958.61	1083.08
958.91	1083.01
959.21	1082.40
959.50	1082.71
959.80	1084.37
960.10	1081.73
960.39	1083.50
960.69	1080.58
960.99	1078.05
961.28	1079.95
961.58	1079.24
961.87	1075.01
962.17	1076.90
962.47	1080.18
962.76	1078.14
963.06	1078.00
963.36	1080.95
963.65	1081.19
963.95	1078.05
964.24	1078.28
964.54	1078.52
964.83	1076.46
965.13	1077.40
965.42	1078.82
965.72	1080.95
966.02	1083.36
966.31	1086.06
966.61	1086.06
966.90	1086.55
967.20	1084.32
967.49	1084.65
967.79	1083.41
968.08	1081.16
968.38	1081.23
968.67	1082.92
968.97	1079.27
969.26	1079.08
969.56	1078.38
969.85	1077.56
970.15	1076.95
970.44	1082.08
970.74	1083.27
971.03	1083.95
971.32	1084.49
971.62	1083.83
971.91	1082.45
972.21	1081.12
972.50	1080.18
972.80	1081.51
973.09	1082.12
973.38	1081.33
973.68	1081.44
973.97	1081.84
974.27	1081.56
974.56	1080.32
974.85	1080.20
975.15	1080.93
975.44	1082.03
975.73	1080.27
976.03	1079.85
976.32	1079.85
976.61	1082.10
976.91	1081.51
977.20	1081.07
977.49	1079.57
977.79	1079.95
978.08	1078.24
978.37	1079.81
978.67	1079.48
978.96	1082.47
979.25	1083.55
979.55	1084.39
979.84	1086.92
980.13	1089.59
980.42	1090.41
980.72	1087.72
981.01	1087.44
981.30	1082.15
981.59	1078.96
981.89	1079.38
982.18	1081.56
982.47	1080.44
982.76	1082.97
983.06	1082.29
983.35	1079.99
983.64	1080.51
983.93	1081.42
984.22	1083.25
984.52	1085.96
984.81	1086.06
985.10	1080.30
985.39	1079.31
985.68	1077.23
985.97	1075.38
986.27	1074.82
986.56	1081.56
986.85	1083.15
987.14	1083.97
987.43	1086.55
987.72	1087.02
988.01	1085.31
988.31	1082.01
988.60	1081.40
988.89	1078.19
989.18	1080.67
989.47	1079.20
989.76	1078.99
990.05	1080.25
990.34	1082.90
990.63	1079.90
990.92	1079.71
991.21	1083.08
991.51	1081.23
991.80	1079.64
992.09	1081.84
992.38	1085.03
992.67	1084.67
992.96	1084.49
993.25	1085.99
993.54	1084.42
993.83	1082.22
994.12	1083.53
994.41	1081.75
994.70	1081.84
994.99	1084.30
995.28	1084.11
995.57	1083.57
995.86	1086.36
996.15	1086.97
996.44	1084.79
996.73	1085.61
997.02	1084.11
997.31	1084.28
997.59	1083.22
997.88	1084.46
998.17	1086.03
998.46	1083.34
998.75	1082.71
999.04	1083.08
999.33	1080.13
999.62	1075.50
999.91	1078.47
1000.20	1079.55
1000.49	1078.07
1000.77	1079.99
1001.06	1083.22
1001.35	1079.31
1001.64	1077.79
1001.93	1078.21
1002.22	1079.74
1002.51	1077.77
1002.79	1081.94
1003.08	1082.76
1003.37	1081.28
1003.66	1080.39
1003.95	1084.51
1004.23	1083.08
1004.52	1082.36
1004.81	1080.72
1005.10	1080.77
1005.39	1078.28
1005.67	1076.04
1005.96	1076.08
1006.25	1079.57
1006.54	1079.53
1006.83	1074.21
1007.11	1075.10
1007.40	1076.79
1007.69	1075.73
1007.97	1078.10
1008.26	1079.92
1008.55	1082.66
1008.84	1080.16
1009.12	1076.06
1009.41	1072.08
1009.70	1074.24
1009.98	1073.88
1010.27	1074.14
1010.56	1079.55
1010.85	1078.66
1011.13	1078.73
1011.42	1078.14
1011.71	1078.31
1011.99	1078.50
1012.28	1078.87
1012.56	1078.00
1012.85	1080.04
1013.14	1080.53
1013.42	1080.16
1013.71	1081.96
1014.00	1080.32
1014.28	1078.92
1014.57	1080.41
1014.85	1079.06
1015.14	1079.88
1015.43	1086.10
1015.71	1088.19
1016.00	1085.54
1016.28	1086.24
1016.57	1085.96
1016.85	1083.04
1017.14	1077.98
1017.43	1079.60
1017.71	1079.20
1018.00	1079.20
1018.28	1080.06
1018.57	1081.84
1018.85	1081.12
1019.14	1081.89
1019.42	1081.51
1019.71	1078.57
1019.99	1080.91
1020.28	1079.29
1020.56	1076.90
1020.85	1074.28
1021.13	1074.26
1021.42	1074.70
1021.70	1079.76
1021.99	1084.28
1022.27	1086.80
1022.55	1092.21
1022.84	1083.79
>>>>>End Processed Spectral Data<<<<<
