SpectraSuite Data File
++++++++++++++++++++++++++++++++++++
Date: Mon Aug 26 10:26:35 PDT 2019
User: corrico
Dark Spectrum Present: No
Reference Spectrum Present: No
Number of Sampled Component Spectra: 1
Spectrometers: USB2+H06089
Integration Time (usec): 10000 (USB2+H06089)
Spectra Averaged: 20 (USB2+H06089)
Boxcar Smoothing: 2 (USB2+H06089)
Correct for Electrical Dark: No (USB2+H06089)
Strobe/Lamp Enabled: No (USB2+H06089)
Correct for Detector Non-linearity: No (USB2+H06089)
Correct for Stray Light: No (USB2+H06089)
Number of Pixels in Processed Spectrum: 2048
>>>>>Begin Processed Spectral Data<<<<<
339.70	1036.74
340.07	1036.74
340.45	1004.51
340.82	983.49
341.19	957.68
341.57	931.11
341.94	919.62
342.31	909.16
342.69	902.00
343.06	900.26
343.43	901.67
343.81	902.18
344.18	906.84
344.55	911.01
344.93	914.31
345.30	919.97
345.67	927.09
346.04	930.62
346.42	939.35
346.79	949.41
347.16	954.26
347.54	964.56
347.91	974.20
348.28	984.17
348.65	994.12
349.03	1004.72
349.40	1011.84
349.77	1024.48
350.14	1032.20
350.52	1040.34
350.89	1046.50
351.26	1052.82
351.63	1056.61
352.01	1062.42
352.38	1064.34
352.75	1072.69
353.12	1078.94
353.50	1080.02
353.87	1082.66
354.24	1085.75
354.61	1082.33
354.98	1081.82
355.36	1082.61
355.73	1082.45
356.10	1083.27
356.47	1087.90
356.84	1088.35
357.22	1091.65
357.59	1091.13
357.96	1093.76
358.33	1093.71
358.70	1090.76
359.08	1089.26
359.45	1090.46
359.82	1089.31
360.19	1089.26
360.56	1089.92
360.94	1088.84
361.31	1085.87
361.68	1085.77
362.05	1084.23
362.42	1086.34
362.79	1087.04
363.16	1087.65
363.54	1087.20
363.91	1084.35
364.28	1082.05
364.65	1079.74
365.02	1081.84
365.39	1079.50
365.76	1077.68
366.14	1076.74
366.51	1077.16
366.88	1074.40
367.25	1075.36
367.62	1077.47
367.99	1079.50
368.36	1082.59
368.73	1079.99
369.10	1079.76
369.48	1081.94
369.85	1082.50
370.22	1079.92
370.59	1082.08
370.96	1079.50
371.33	1076.08
371.70	1077.82
372.07	1076.90
372.44	1075.62
372.81	1077.96
373.18	1080.88
373.55	1075.92
373.93	1077.47
374.30	1078.61
374.67	1078.57
375.04	1080.91
375.41	1085.96
375.78	1086.10
376.15	1087.02
376.52	1089.22
376.89	1086.29
377.26	1085.05
377.63	1084.44
378.00	1086.48
378.37	1086.06
378.74	1082.19
379.11	1080.27
379.48	1082.01
379.85	1081.91
380.22	1081.05
380.59	1085.31
380.96	1086.69
381.33	1084.60
381.70	1082.94
382.07	1084.65
382.44	1084.14
382.81	1084.02
383.18	1088.49
383.55	1088.68
383.92	1088.12
384.29	1088.72
384.66	1089.59
385.03	1087.86
385.40	1085.03
385.77	1083.29
386.14	1080.41
386.51	1079.60
386.88	1077.56
387.25	1081.54
387.62	1080.95
387.99	1085.75
388.36	1086.83
388.73	1090.46
389.10	1090.83
389.46	1092.23
389.83	1092.28
390.20	1092.21
390.57	1090.92
390.94	1089.31
391.31	1091.27
391.68	1088.40
392.05	1087.23
392.42	1088.02
392.79	1091.39
393.16	1088.00
393.53	1091.09
393.89	1091.06
394.26	1086.15
394.63	1084.70
395.00	1089.36
395.37	1089.80
395.74	1089.52
396.11	1090.53
396.48	1089.36
396.84	1086.83
397.21	1086.92
397.58	1086.15
397.95	1086.97
398.32	1086.13
398.69	1085.00
399.06	1086.62
399.42	1089.89
399.79	1091.18
400.16	1091.39
400.53	1092.45
400.90	1091.60
401.27	1090.53
401.64	1089.82
402.00	1091.93
402.37	1093.31
402.74	1093.40
403.11	1090.46
403.48	1092.68
403.84	1092.14
404.21	1091.86
404.58	1089.87
404.95	1094.13
405.32	1094.55
405.68	1093.40
406.05	1091.63
406.42	1090.97
406.79	1090.48
407.16	1092.19
407.52	1097.76
407.89	1099.61
408.26	1102.51
408.63	1103.40
408.99	1104.19
409.36	1104.73
409.73	1104.92
410.10	1103.35
410.47	1103.80
410.83	1103.49
411.20	1099.26
411.57	1098.81
411.94	1099.05
412.30	1098.98
412.67	1098.04
413.04	1099.65
413.40	1101.06
413.77	1104.26
414.14	1104.92
414.51	1106.11
414.87	1103.91
415.24	1107.03
415.61	1107.24
415.97	1107.12
416.34	1105.60
416.71	1108.62
417.08	1105.44
417.44	1104.85
417.81	1103.47
418.18	1105.41
418.54	1106.09
418.91	1109.34
419.28	1111.12
419.64	1115.36
420.01	1112.90
420.38	1112.01
420.74	1109.34
421.11	1108.95
421.48	1105.76
421.84	1107.24
422.21	1108.06
422.58	1108.50
422.94	1107.28
423.31	1109.62
423.68	1112.04
424.04	1111.82
424.41	1110.94
424.77	1113.32
425.14	1113.02
425.51	1112.57
425.87	1112.97
426.24	1114.77
426.61	1112.46
426.97	1111.99
427.34	1110.79
427.70	1109.88
428.07	1110.02
428.44	1113.53
428.80	1112.34
429.17	1111.50
429.53	1114.59
429.90	1118.07
430.27	1117.56
430.63	1114.94
431.00	1115.24
431.36	1113.74
431.73	1109.93
432.09	1107.21
432.46	1108.01
432.83	1108.78
433.19	1109.09
433.56	1109.11
433.92	1110.51
434.29	1117.23
434.65	1116.93
435.02	1117.23
435.38	1117.70
435.75	1117.54
436.11	1116.62
436.48	1119.06
436.84	1118.78
437.21	1121.12
437.57	1119.99
437.94	1118.47
438.30	1117.86
438.67	1117.51
439.03	1115.22
439.40	1115.78
439.76	1114.66
440.13	1113.11
440.49	1111.64
440.86	1110.37
441.22	1110.47
441.59	1110.35
441.95	1112.99
442.32	1114.21
442.68	1115.92
443.05	1116.41
443.41	1118.35
443.78	1117.14
444.14	1116.48
444.51	1117.72
444.87	1115.62
445.24	1112.74
445.60	1110.51
445.96	1110.84
446.33	1106.70
446.69	1107.47
447.06	1109.09
447.42	1110.21
447.79	1110.63
448.15	1113.07
448.51	1112.85
448.88	1108.81
449.24	1109.55
449.61	1111.17
449.97	1108.29
450.33	1107.21
450.70	1112.90
451.06	1111.47
451.43	1110.87
451.79	1112.67
452.15	1114.31
452.52	1112.43
452.88	1113.49
453.24	1114.19
453.61	1113.74
453.97	1115.29
454.34	1113.91
454.70	1110.68
455.06	1108.31
455.43	1106.93
455.79	1104.03
456.15	1104.55
456.52	1108.03
456.88	1107.40
457.24	1108.88
457.61	1112.99
457.97	1115.05
458.33	1115.97
458.70	1118.92
459.06	1119.78
459.42	1115.87
459.79	1116.25
460.15	1116.67
460.51	1114.70
460.88	1116.06
461.24	1117.63
461.60	1118.40
461.96	1118.82
462.33	1116.46
462.69	1115.10
463.05	1117.30
463.42	1117.11
463.78	1119.27
464.14	1122.80
464.50	1124.72
464.87	1121.77
465.23	1120.81
465.59	1118.61
465.95	1121.19
466.32	1124.04
466.68	1124.65
467.04	1126.13
467.40	1124.86
467.77	1121.91
468.13	1123.48
468.49	1128.54
468.85	1132.28
469.22	1138.16
469.58	1142.84
469.94	1141.71
470.30	1140.78
470.66	1140.36
471.03	1142.95
471.39	1146.70
471.75	1150.75
472.11	1152.01
472.47	1153.74
472.84	1155.43
473.20	1155.99
473.56	1159.64
473.92	1164.77
474.28	1165.03
474.65	1164.07
475.01	1167.51
475.37	1169.99
475.73	1174.86
476.09	1182.72
476.45	1188.78
476.81	1194.28
477.18	1197.98
477.54	1200.18
477.90	1205.17
478.26	1211.06
478.62	1214.25
478.98	1222.63
479.34	1229.93
479.71	1236.72
480.07	1243.25
480.43	1254.39
480.79	1262.86
481.15	1275.43
481.51	1288.98
481.87	1301.13
482.23	1313.88
482.59	1327.36
482.96	1340.00
483.32	1348.80
483.68	1367.29
484.04	1382.06
484.40	1396.57
484.76	1413.45
485.12	1434.44
485.48	1448.21
485.84	1466.04
486.20	1487.93
486.56	1511.33
486.92	1538.27
487.28	1564.51
487.64	1588.62
488.00	1616.40
488.37	1644.95
488.73	1674.21
489.09	1709.15
489.45	1749.39
489.81	1787.35
490.17	1827.07
490.53	1866.65
490.89	1905.43
491.25	1944.10
491.61	1989.13
491.97	2035.61
492.33	2084.34
492.69	2138.10
493.05	2192.50
493.41	2248.11
493.77	2306.64
494.13	2375.62
494.49	2445.84
494.85	2525.20
495.21	2602.79
495.57	2687.71
495.93	2772.55
496.29	2860.30
496.64	2951.30
497.00	3042.37
497.36	3140.53
497.72	3242.79
498.08	3349.99
498.44	3467.08
498.80	3595.74
499.16	3725.41
499.52	3864.11
499.88	4016.71
500.24	4174.84
500.60	4333.46
500.96	4498.18
501.32	4673.30
501.68	4840.27
502.03	5017.43
502.39	5223.56
502.75	5432.50
503.11	5654.29
503.47	5890.99
503.83	6135.48
504.19	6388.96
504.55	6673.50
504.91	6954.97
505.26	7242.06
505.62	7560.05
505.98	7884.96
506.34	8211.89
506.70	8568.94
507.06	8964.60
507.42	9370.57
507.78	9771.15
508.13	10202.42
508.49	10641.13
508.85	11103.78
509.21	11583.55
509.57	12123.30
509.93	12677.86
510.28	13275.47
510.64	13907.28
511.00	14532.43
511.36	15106.38
511.72	15694.63
512.07	16345.29
512.43	16950.65
512.79	17609.28
513.15	18352.70
513.51	19103.45
513.86	19834.26
514.22	20647.15
514.58	21468.87
514.94	22301.40
515.30	23162.95
515.65	23978.02
516.01	24831.96
516.37	25672.77
516.73	26467.18
517.08	27339.40
517.44	28209.73
517.80	29029.55
518.16	29892.32
518.51	30711.39
518.87	31457.92
519.23	32327.53
519.59	33209.93
519.94	34053.69
520.30	34956.77
520.66	35745.71
521.01	36540.42
521.37	37212.86
521.73	37840.14
522.09	38434.26
522.44	39070.19
522.80	39468.59
523.16	39843.45
523.51	40093.89
523.87	40382.39
524.23	40645.23
524.58	40932.15
524.94	41322.72
525.30	41660.08
525.65	41846.16
526.01	41895.61
526.37	41905.63
526.72	41804.57
527.08	41674.64
527.44	41496.93
527.79	41350.17
528.15	41213.67
528.51	40999.84
528.86	40774.66
529.22	40547.84
529.58	40264.66
529.93	39883.99
530.29	39434.33
530.65	39071.92
531.00	38730.81
531.36	38321.47
531.71	37898.94
532.07	37424.70
532.43	36818.52
532.78	36120.18
533.14	35525.87
533.49	34903.47
533.85	34295.35
534.21	33693.04
534.56	33145.43
534.92	32540.09
535.27	31942.48
535.63	31329.10
535.98	30692.54
536.34	30071.83
536.69	29416.88
537.05	28798.61
537.41	28274.35
537.76	27789.79
538.12	27227.48
538.47	26756.54
538.83	26306.45
539.18	25834.11
539.54	25352.75
539.89	24877.11
540.25	24336.45
540.60	23837.21
540.96	23314.80
541.31	22827.53
541.67	22410.75
542.02	22027.02
542.38	21577.73
542.73	21142.06
543.09	20759.45
543.44	20396.74
543.80	20052.33
544.15	19648.89
544.51	19328.10
544.86	18989.89
545.22	18614.02
545.57	18220.95
545.93	17884.08
546.28	17555.28
546.64	17242.52
546.99	16901.27
547.35	16564.63
547.70	16253.03
548.05	15929.73
548.41	15591.85
548.76	15290.02
549.12	15021.44
549.47	14741.47
549.83	14471.67
550.18	14168.90
550.53	13862.67
550.89	13575.27
551.24	13314.91
551.60	13015.56
551.95	12755.83
552.30	12511.61
552.66	12260.08
553.01	11990.33
553.37	11728.68
553.72	11449.41
554.07	11183.88
554.43	10903.08
554.78	10634.74
555.13	10364.88
555.49	10137.61
555.84	9944.61
556.19	9763.05
556.55	9561.21
556.90	9375.16
557.26	9175.11
557.61	8942.91
557.96	8699.26
558.32	8501.27
558.67	8290.83
559.02	8067.62
559.37	7883.77
559.73	7732.43
560.08	7569.27
560.43	7411.03
560.79	7297.02
561.14	7141.21
561.49	6967.45
561.85	6797.97
562.20	6646.11
562.55	6501.21
562.90	6374.89
563.26	6255.18
563.61	6152.54
563.96	6046.66
564.32	5922.77
564.67	5797.13
565.02	5677.60
565.37	5553.01
565.73	5435.71
566.08	5336.59
566.43	5232.71
566.78	5122.89
567.14	5016.77
567.49	4913.30
567.84	4803.08
568.19	4691.88
568.54	4598.57
568.90	4509.02
569.25	4425.32
569.60	4346.59
569.95	4274.52
570.31	4198.17
570.66	4121.85
571.01	4033.82
571.36	3940.74
571.71	3865.42
572.06	3794.13
572.42	3728.38
572.77	3679.13
573.12	3622.12
573.47	3560.38
573.82	3496.13
574.18	3425.89
574.53	3355.42
574.88	3307.27
575.23	3256.32
575.58	3211.52
575.93	3164.50
576.28	3114.15
576.64	3055.76
576.99	2998.09
577.34	2937.47
577.69	2882.56
578.04	2833.78
578.39	2783.29
578.74	2743.30
579.09	2704.42
579.44	2665.05
579.80	2623.34
580.15	2582.76
580.50	2538.78
580.85	2501.10
581.20	2468.70
581.55	2440.45
581.90	2416.98
582.25	2385.97
582.60	2353.60
582.95	2321.93
583.30	2283.50
583.65	2241.86
584.00	2210.57
584.35	2178.83
584.71	2144.80
585.06	2119.05
585.41	2088.95
585.76	2061.47
586.11	2031.12
586.46	2007.97
586.81	1983.18
587.16	1964.97
587.51	1944.73
587.86	1924.76
588.21	1900.56
588.56	1878.16
588.91	1856.14
589.26	1834.18
589.61	1818.27
589.96	1802.54
590.31	1785.78
590.66	1769.80
591.01	1754.44
591.36	1739.28
591.71	1721.35
592.06	1702.53
592.41	1686.15
592.76	1671.54
593.10	1653.78
593.45	1635.73
593.80	1620.66
594.15	1604.02
594.50	1590.02
594.85	1577.54
595.20	1567.13
595.55	1561.04
595.90	1553.95
596.25	1543.96
596.60	1530.27
596.95	1519.69
597.30	1506.86
597.64	1543.19
597.99	1535.06
598.34	1527.67
598.69	1523.03
599.04	1516.81
599.39	1457.43
599.74	1446.80
600.09	1439.64
600.44	1431.45
600.78	1423.30
601.13	1421.06
601.48	1410.95
601.83	1405.73
602.18	1395.03
602.53	1384.71
602.88	1373.64
603.22	1366.55
603.57	1357.96
603.92	1352.27
604.27	1346.04
604.62	1340.50
604.97	1333.68
605.31	1325.09
605.66	1318.63
606.01	1313.16
606.36	1306.53
606.71	1301.57
607.05	1299.49
607.40	1295.77
607.75	1289.96
608.10	1287.34
608.44	1286.01
608.79	1280.11
609.14	1274.75
609.49	1272.43
609.84	1270.86
610.18	1266.25
610.53	1262.53
610.88	1262.53
611.23	1259.42
611.57	1255.42
611.92	1253.36
612.27	1250.06
612.62	1242.05
612.96	1237.61
613.31	1232.34
613.66	1229.55
614.00	1226.82
614.35	1224.17
614.70	1221.03
615.05	1217.22
615.39	1210.53
615.74	1204.09
616.09	1198.94
616.43	1196.53
616.78	1193.32
617.13	1190.68
617.47	1187.40
617.82	1186.58
618.17	1181.50
618.51	1177.83
618.86	1173.54
619.21	1171.48
619.55	1168.86
619.90	1170.24
620.25	1169.89
620.59	1170.36
620.94	1167.69
621.29	1167.01
621.63	1163.39
621.98	1160.11
622.32	1155.48
622.67	1158.85
623.02	1160.04
623.36	1159.17
623.71	1156.86
624.05	1157.21
624.40	1152.78
624.75	1149.20
625.09	1146.72
625.44	1147.80
625.78	1146.16
626.13	1146.07
626.48	1143.33
626.82	1145.41
627.17	1143.52
627.51	1144.01
627.86	1144.26
628.20	1143.14
628.55	1138.86
628.89	1134.97
629.24	1132.19
629.58	1130.90
629.93	1133.54
630.28	1135.35
630.62	1138.86
630.97	1141.22
631.31	1138.46
631.66	1134.64
632.00	1130.03
632.35	1130.41
632.69	1126.01
633.04	1126.31
633.38	1125.38
633.73	1126.13
634.07	1125.17
634.42	1122.68
634.76	1117.70
635.11	1116.86
635.45	1116.34
635.79	1117.63
636.14	1122.87
636.48	1128.16
636.83	1128.35
637.17	1128.30
637.52	1126.24
637.86	1121.84
638.21	1120.74
638.55	1118.14
638.89	1115.85
639.24	1111.43
639.58	1111.59
639.93	1107.52
640.27	1104.66
640.61	1107.33
640.96	1106.70
641.30	1107.82
641.65	1108.08
641.99	1113.21
642.33	1110.94
642.68	1112.39
643.02	1109.86
643.37	1112.97
643.71	1110.94
644.05	1111.64
644.40	1110.82
644.74	1111.52
645.08	1109.91
645.43	1109.46
645.77	1109.11
646.11	1107.47
646.46	1106.72
646.80	1105.39
647.14	1105.88
647.49	1101.50
647.83	1103.35
648.17	1103.09
648.52	1101.97
648.86	1102.72
649.20	1109.16
649.55	1106.56
649.89	1104.62
650.23	1106.42
650.57	1106.25
650.92	1103.82
651.26	1104.48
651.60	1105.51
651.95	1104.59
652.29	1100.94
652.63	1097.73
652.97	1097.97
653.32	1101.18
653.66	1098.44
654.00	1098.04
654.34	1097.64
654.69	1097.34
655.03	1090.74
655.37	1093.17
655.71	1093.43
656.05	1094.72
656.40	1094.32
656.74	1096.75
657.08	1091.95
657.42	1092.75
657.76	1089.50
658.11	1088.93
658.45	1089.17
658.79	1093.97
659.13	1096.54
659.47	1099.84
659.82	1102.95
660.16	1103.96
660.50	1102.39
660.84	1102.37
661.18	1099.79
661.52	1099.58
661.87	1100.99
662.21	1102.91
662.55	1099.42
662.89	1103.73
663.23	1100.92
663.57	1095.79
663.91	1094.25
664.25	1093.73
664.60	1093.45
664.94	1093.33
665.28	1094.43
665.62	1093.01
665.96	1092.02
666.30	1088.72
666.64	1087.09
666.98	1087.55
667.32	1088.37
667.66	1089.80
668.01	1091.18
668.35	1093.45
668.69	1091.13
669.03	1092.68
669.37	1092.21
669.71	1091.93
670.05	1090.99
670.39	1094.20
670.73	1092.21
671.07	1096.94
671.41	1095.44
671.75	1095.07
672.09	1092.52
672.43	1093.87
672.77	1088.70
673.11	1089.10
673.45	1088.26
673.79	1090.69
674.13	1090.24
674.47	1090.78
674.81	1090.62
675.15	1092.63
675.49	1093.45
675.83	1094.83
676.17	1096.00
676.51	1096.78
676.85	1094.32
677.19	1092.96
677.53	1089.85
677.87	1091.86
678.21	1092.96
678.55	1093.59
678.89	1091.37
679.23	1091.72
679.57	1089.45
679.90	1089.40
680.24	1090.43
680.58	1093.38
680.92	1093.08
681.26	1092.45
681.60	1093.80
681.94	1093.85
682.28	1091.42
682.62	1092.75
682.96	1095.75
683.29	1092.00
683.63	1088.82
683.97	1093.73
684.31	1093.22
684.65	1091.37
684.99	1094.81
685.33	1099.40
685.67	1097.80
686.00	1098.20
686.34	1096.24
686.68	1094.65
687.02	1088.77
687.36	1085.73
687.70	1084.51
688.03	1085.05
688.37	1083.27
688.71	1086.66
689.05	1090.74
689.39	1089.73
689.72	1093.03
690.06	1095.23
690.40	1096.10
690.74	1093.57
691.08	1094.46
691.41	1091.34
691.75	1090.53
692.09	1090.24
692.43	1090.74
692.76	1092.80
693.10	1091.46
693.44	1090.97
693.78	1093.15
694.11	1091.16
694.45	1090.60
694.79	1094.29
695.13	1097.17
695.46	1096.75
695.80	1098.23
696.14	1098.74
696.48	1096.70
696.81	1092.05
697.15	1092.09
697.49	1091.79
697.82	1087.88
698.16	1085.87
698.50	1086.36
698.83	1084.53
699.17	1084.96
699.51	1085.84
699.84	1087.23
700.18	1089.96
700.52	1091.44
700.85	1090.76
701.19	1090.99
701.53	1088.77
701.86	1086.08
702.20	1082.43
702.54	1082.99
702.87	1084.37
703.21	1089.33
703.55	1087.81
703.88	1092.33
704.22	1092.35
704.55	1090.69
704.89	1088.07
705.23	1088.26
705.56	1085.21
705.90	1082.85
706.23	1083.55
706.57	1082.76
706.91	1083.36
707.24	1082.85
707.58	1084.58
707.91	1085.10
708.25	1086.64
708.58	1085.61
708.92	1086.71
709.26	1087.65
709.59	1089.92
709.93	1085.35
710.26	1086.41
710.60	1085.38
710.93	1082.87
711.27	1077.93
711.60	1079.90
711.94	1081.63
712.27	1083.41
712.61	1085.96
712.94	1087.76
713.28	1089.61
713.61	1088.16
713.95	1085.14
714.28	1086.20
714.62	1086.48
714.95	1085.10
715.29	1082.94
715.62	1081.82
715.96	1078.89
716.29	1076.41
716.63	1079.41
716.96	1081.44
717.29	1085.52
717.63	1085.42
717.96	1089.00
718.30	1087.16
718.63	1088.40
718.97	1087.65
719.30	1091.18
719.63	1089.57
719.97	1092.33
720.30	1092.54
720.64	1093.71
720.97	1090.74
721.30	1093.33
721.64	1090.88
721.97	1089.05
722.31	1086.90
722.64	1087.13
722.97	1087.46
723.31	1086.78
723.64	1089.82
723.97	1089.75
724.31	1092.56
724.64	1091.70
724.98	1091.77
725.31	1092.19
725.64	1094.06
725.98	1093.01
726.31	1090.64
726.64	1094.11
726.97	1092.63
727.31	1091.44
727.64	1092.61
727.97	1092.54
728.31	1087.69
728.64	1090.67
728.97	1091.42
729.31	1088.28
729.64	1090.76
729.97	1091.16
730.30	1086.38
730.64	1087.27
730.97	1088.23
731.30	1089.80
731.63	1091.23
731.97	1095.16
732.30	1093.26
732.63	1092.40
732.96	1090.17
733.30	1089.31
733.63	1087.93
733.96	1084.77
734.29	1086.78
734.63	1087.74
734.96	1091.30
735.29	1091.16
735.62	1093.94
735.95	1091.16
736.29	1089.33
736.62	1087.58
736.95	1087.20
737.28	1087.55
737.61	1090.01
737.94	1091.63
738.28	1092.63
738.61	1091.44
738.94	1090.62
739.27	1088.12
739.60	1088.54
739.93	1086.13
740.27	1084.89
740.60	1085.94
740.93	1086.08
741.26	1084.44
741.59	1086.34
741.92	1088.07
742.25	1089.38
742.58	1091.34
742.91	1089.89
743.25	1088.98
743.58	1088.91
743.91	1089.85
744.24	1089.19
744.57	1088.02
744.90	1085.54
745.23	1086.66
745.56	1085.42
745.89	1083.74
746.22	1083.90
746.55	1087.76
746.88	1083.39
747.21	1079.06
747.54	1080.93
747.87	1084.02
748.20	1079.43
748.53	1081.82
748.87	1088.84
749.20	1093.26
749.53	1094.76
749.86	1094.97
750.19	1095.58
750.52	1093.80
750.85	1088.86
751.18	1086.15
751.51	1087.37
751.84	1085.24
752.16	1084.65
752.49	1082.87
752.82	1084.79
753.15	1083.15
753.48	1086.01
753.81	1083.93
754.14	1085.26
754.47	1085.26
754.80	1087.79
755.13	1086.20
755.46	1088.72
755.79	1090.92
756.12	1091.81
756.45	1092.00
756.78	1095.11
757.11	1094.65
757.43	1093.19
757.76	1091.98
758.09	1088.07
758.42	1086.03
758.75	1086.13
759.08	1083.88
759.41	1084.96
759.74	1089.10
760.07	1088.86
760.39	1085.40
760.72	1088.33
761.05	1087.02
761.38	1084.63
761.71	1083.83
762.04	1085.47
762.36	1087.06
762.69	1084.93
763.02	1087.53
763.35	1088.91
763.68	1089.57
764.01	1087.41
764.33	1087.93
764.66	1085.05
764.99	1082.94
765.32	1083.08
765.65	1084.65
765.97	1086.01
766.30	1089.12
766.63	1090.57
766.96	1088.07
767.28	1081.58
767.61	1082.45
767.94	1081.82
768.27	1078.92
768.59	1083.39
768.92	1088.65
769.25	1086.34
769.58	1085.05
769.90	1089.71
770.23	1088.04
770.56	1084.96
770.89	1086.31
771.21	1087.16
771.54	1085.82
771.87	1083.43
772.19	1085.91
772.52	1086.76
772.85	1085.17
773.17	1087.65
773.50	1085.82
773.83	1083.13
774.15	1081.42
774.48	1082.99
774.81	1082.64
775.13	1085.05
775.46	1087.06
775.79	1090.85
776.11	1091.46
776.44	1090.99
776.77	1090.83
777.09	1089.00
777.42	1085.31
777.74	1086.06
778.07	1082.19
778.40	1083.48
778.72	1084.35
779.05	1081.30
779.37	1078.00
779.70	1083.13
780.03	1084.49
780.35	1087.30
780.68	1091.84
781.00	1094.39
781.33	1090.20
781.65	1089.43
781.98	1088.30
782.31	1086.55
782.63	1086.01
782.96	1084.70
783.28	1084.98
783.61	1081.54
783.93	1081.70
784.26	1081.84
784.58	1082.90
784.91	1082.12
785.23	1083.90
785.56	1082.33
785.88	1081.54
786.21	1079.64
786.53	1078.12
786.86	1081.51
787.18	1083.74
787.51	1084.89
787.83	1084.79
788.16	1087.32
788.48	1084.93
788.81	1084.18
789.13	1082.22
789.46	1086.92
789.78	1085.70
790.10	1085.63
790.43	1083.48
790.75	1084.44
791.08	1084.84
791.40	1085.99
791.73	1091.67
792.05	1094.97
792.37	1096.68
792.70	1097.92
793.02	1098.04
793.35	1090.71
793.67	1090.55
793.99	1089.07
794.32	1086.17
794.64	1083.25
794.96	1085.05
795.29	1084.11
795.61	1086.36
795.93	1084.28
796.26	1085.03
796.58	1085.31
796.91	1086.64
797.23	1083.29
797.55	1082.36
797.87	1082.80
798.20	1083.57
798.52	1082.10
798.84	1083.53
799.17	1083.29
799.49	1086.59
799.81	1082.83
800.14	1082.05
800.46	1083.57
800.78	1084.00
801.10	1082.05
801.43	1085.24
801.75	1085.05
802.07	1081.37
802.40	1081.19
802.72	1079.48
803.04	1081.23
803.36	1082.90
803.69	1083.43
804.01	1084.65
804.33	1087.44
804.65	1085.61
804.97	1084.16
805.30	1085.54
805.62	1088.70
805.94	1088.44
806.26	1086.66
806.58	1090.48
806.91	1090.62
807.23	1089.12
807.55	1086.34
807.87	1087.16
808.19	1087.69
808.52	1086.27
808.84	1085.99
809.16	1084.63
809.48	1084.77
809.80	1079.99
810.12	1081.21
810.44	1079.88
810.77	1081.35
811.09	1083.11
811.41	1083.93
811.73	1084.93
812.05	1083.29
812.37	1086.76
812.69	1085.24
813.01	1083.06
813.33	1081.87
813.66	1084.25
813.98	1082.57
814.30	1079.17
814.62	1082.99
814.94	1082.50
815.26	1082.61
815.58	1082.01
815.90	1087.90
816.22	1088.21
816.54	1087.86
816.86	1090.53
817.18	1088.47
817.50	1087.13
817.82	1084.89
818.14	1082.36
818.46	1079.06
818.78	1079.41
819.10	1079.03
819.42	1080.74
819.74	1085.35
820.06	1088.72
820.38	1087.93
820.70	1086.62
821.02	1085.52
821.34	1083.79
821.66	1080.79
821.98	1082.61
822.30	1082.03
822.62	1083.27
822.94	1084.74
823.26	1080.86
823.58	1080.34
823.90	1079.27
824.22	1081.00
824.54	1081.02
824.86	1083.48
825.18	1083.43
825.50	1087.55
825.81	1087.02
826.13	1086.52
826.45	1089.10
826.77	1091.53
827.09	1090.64
827.41	1088.84
827.73	1088.54
828.05	1088.84
828.36	1087.11
828.68	1088.19
829.00	1088.98
829.32	1090.81
829.64	1089.00
829.96	1087.97
830.28	1084.28
830.59	1082.80
830.91	1081.23
831.23	1083.86
831.55	1085.07
831.87	1088.75
832.19	1088.44
832.50	1088.30
832.82	1085.66
833.14	1084.02
833.46	1083.62
833.78	1085.99
834.09	1088.35
834.41	1087.62
834.73	1085.77
835.05	1083.71
835.36	1084.91
835.68	1082.29
836.00	1083.20
836.32	1086.24
836.63	1087.32
836.95	1083.18
837.27	1083.55
837.59	1082.69
837.90	1080.91
838.22	1080.06
838.54	1078.61
838.85	1077.91
839.17	1076.51
839.49	1078.00
839.80	1078.38
840.12	1080.41
840.44	1082.59
840.76	1088.09
841.07	1089.05
841.39	1087.90
841.71	1084.39
842.02	1080.41
842.34	1079.24
842.65	1079.38
842.97	1080.65
843.29	1082.80
843.60	1083.13
843.92	1079.90
844.24	1082.71
844.55	1081.82
844.87	1084.02
845.18	1088.47
845.50	1089.50
845.82	1085.00
846.13	1084.72
846.45	1083.62
846.76	1080.34
847.08	1082.01
847.40	1081.98
847.71	1081.75
848.03	1083.48
848.34	1085.66
848.66	1084.00
848.97	1083.01
849.29	1082.52
849.60	1082.64
849.92	1082.50
850.24	1081.42
850.55	1082.03
850.87	1084.53
851.18	1084.16
851.50	1081.58
851.81	1083.04
852.13	1086.36
852.44	1081.98
852.76	1085.14
853.07	1085.73
853.39	1084.77
853.70	1082.10
854.01	1085.00
854.33	1079.53
854.64	1079.15
854.96	1078.28
855.27	1077.89
855.59	1076.30
855.90	1077.54
856.22	1076.44
856.53	1080.56
856.84	1081.30
857.16	1081.91
857.47	1081.75
857.79	1085.80
858.10	1083.11
858.41	1085.73
858.73	1088.75
859.04	1090.17
859.36	1089.94
859.67	1093.03
859.98	1092.00
860.30	1090.99
860.61	1090.34
860.92	1088.91
861.24	1087.44
861.55	1084.56
861.87	1082.61
862.18	1081.75
862.49	1082.97
862.81	1084.65
863.12	1085.80
863.43	1088.75
863.74	1088.82
864.06	1089.14
864.37	1089.10
864.68	1090.03
865.00	1087.58
865.31	1087.65
865.62	1085.49
865.94	1079.64
866.25	1081.30
866.56	1082.87
866.87	1083.32
867.19	1084.32
867.50	1087.41
867.81	1087.41
868.12	1086.73
868.44	1087.02
868.75	1087.11
869.06	1087.11
869.37	1082.33
869.68	1082.78
870.00	1080.81
870.31	1081.19
870.62	1080.56
870.93	1082.22
871.24	1082.38
871.56	1084.02
871.87	1084.39
872.18	1083.57
872.49	1083.34
872.80	1081.63
873.12	1081.40
873.43	1078.87
873.74	1078.36
874.05	1081.23
874.36	1081.75
874.67	1081.19
874.98	1081.56
875.29	1083.29
875.61	1082.05
875.92	1084.04
876.23	1082.61
876.54	1083.20
876.85	1084.67
877.16	1081.82
877.47	1082.33
877.78	1082.43
878.09	1084.37
878.40	1081.51
878.72	1083.18
879.03	1079.46
879.34	1081.33
879.65	1081.73
879.96	1084.35
880.27	1085.42
880.58	1087.69
880.89	1089.73
881.20	1086.36
881.51	1086.24
881.82	1085.59
882.13	1084.72
882.44	1081.75
882.75	1085.77
883.06	1084.98
883.37	1085.40
883.68	1085.07
883.99	1087.74
884.30	1084.67
884.61	1082.97
884.92	1084.32
885.23	1083.74
885.54	1081.14
885.85	1083.06
886.16	1086.36
886.47	1086.08
886.78	1085.26
887.08	1084.09
887.39	1080.98
887.70	1083.93
888.01	1080.34
888.32	1081.19
888.63	1086.71
888.94	1088.79
889.25	1084.98
889.56	1089.89
889.87	1090.99
890.17	1089.31
890.48	1088.16
890.79	1086.13
891.10	1083.97
891.41	1083.81
891.72	1083.34
892.03	1082.59
892.34	1084.53
892.64	1083.08
892.95	1081.30
893.26	1081.73
893.57	1082.71
893.88	1082.36
894.18	1083.67
894.49	1087.95
894.80	1088.51
895.11	1089.82
895.42	1090.90
895.72	1092.12
896.03	1090.85
896.34	1087.93
896.65	1087.32
896.96	1087.46
897.26	1086.48
897.57	1083.62
897.88	1084.14
898.19	1085.24
898.49	1082.05
898.80	1083.39
899.11	1085.89
899.41	1083.95
899.72	1081.68
900.03	1082.61
900.34	1078.33
900.64	1077.86
900.95	1080.46
901.26	1079.53
901.56	1078.36
901.87	1081.14
902.18	1081.51
902.48	1081.58
902.79	1082.47
903.10	1084.42
903.40	1084.58
903.71	1082.87
904.02	1080.16
904.32	1079.74
904.63	1076.01
904.94	1072.90
905.24	1074.03
905.55	1075.85
905.85	1078.61
906.16	1085.33
906.47	1087.04
906.77	1086.94
907.08	1086.43
907.38	1084.04
907.69	1082.24
908.00	1082.15
908.30	1083.60
908.61	1084.23
908.91	1084.84
909.22	1083.22
909.52	1083.20
909.83	1081.05
910.14	1083.25
910.44	1082.52
910.75	1081.44
911.05	1079.53
911.36	1077.93
911.66	1076.01
911.97	1076.79
912.27	1077.21
912.58	1079.31
912.88	1080.60
913.19	1079.95
913.49	1083.86
913.80	1082.85
914.10	1087.13
914.41	1087.53
914.71	1086.50
915.01	1083.86
915.32	1085.99
915.62	1082.33
915.93	1083.06
916.23	1086.43
916.54	1083.08
916.84	1085.77
917.15	1085.17
917.45	1086.29
917.75	1081.70
918.06	1082.31
918.36	1080.65
918.67	1080.20
918.97	1078.26
919.27	1081.66
919.58	1082.92
919.88	1080.11
920.18	1081.30
920.49	1080.39
920.79	1079.27
921.10	1078.71
921.40	1081.21
921.70	1079.48
922.01	1078.10
922.31	1081.26
922.61	1081.84
922.92	1077.93
923.22	1082.50
923.52	1086.85
923.82	1085.21
924.13	1083.83
924.43	1086.38
924.73	1082.92
925.04	1078.87
925.34	1080.34
925.64	1081.68
925.94	1081.66
926.25	1084.67
926.55	1088.28
926.85	1083.27
927.15	1081.37
927.46	1078.78
927.76	1076.90
928.06	1072.18
928.36	1075.50
928.67	1075.45
928.97	1080.20
929.27	1081.00
929.57	1085.33
929.87	1084.81
930.18	1086.27
930.48	1085.70
930.78	1082.90
931.08	1080.06
931.38	1078.87
931.69	1079.50
931.99	1074.59
932.29	1074.61
932.59	1079.06
932.89	1080.04
933.19	1079.27
933.49	1081.33
933.80	1080.95
934.10	1079.24
934.40	1078.00
934.70	1079.43
935.00	1082.50
935.30	1082.69
935.60	1082.29
935.90	1084.56
936.20	1084.11
936.50	1078.07
936.81	1081.14
937.11	1082.26
937.41	1082.26
937.71	1083.04
938.01	1087.44
938.31	1088.33
938.61	1086.90
938.91	1085.03
939.21	1081.70
939.51	1080.84
939.81	1077.84
940.11	1075.94
940.41	1075.76
940.71	1078.73
941.01	1081.19
941.31	1079.67
941.61	1087.39
941.91	1090.67
942.21	1089.96
942.51	1087.67
942.81	1087.90
943.11	1081.47
943.41	1080.44
943.71	1083.20
944.01	1084.96
944.31	1085.63
944.61	1088.84
944.90	1085.10
945.20	1080.11
945.50	1081.12
945.80	1082.59
946.10	1078.92
946.40	1081.02
946.70	1083.69
947.00	1082.43
947.30	1082.73
947.60	1086.06
947.89	1086.17
948.19	1087.27
948.49	1086.31
948.79	1087.55
949.09	1083.41
949.39	1085.40
949.69	1082.59
949.98	1082.52
950.28	1081.49
950.58	1083.25
950.88	1079.62
951.18	1080.79
951.48	1081.54
951.77	1078.54
952.07	1079.60
952.37	1079.97
952.67	1077.28
952.97	1074.03
953.26	1076.32
953.56	1072.95
953.86	1075.05
954.16	1078.24
954.45	1081.26
954.75	1079.92
955.05	1082.57
955.35	1080.81
955.64	1081.37
955.94	1085.12
956.24	1086.08
956.54	1085.47
956.83	1085.63
957.13	1082.76
957.43	1079.29
957.72	1078.66
958.02	1079.95
958.32	1081.70
958.61	1084.32
958.91	1082.22
959.21	1080.88
959.50	1079.27
959.80	1079.60
960.10	1079.20
960.39	1080.95
960.69	1084.00
960.99	1084.37
961.28	1084.37
961.58	1086.73
961.87	1085.12
962.17	1084.53
962.47	1086.01
962.76	1084.98
963.06	1082.43
963.36	1082.19
963.65	1083.53
963.95	1081.82
964.24	1084.77
964.54	1086.59
964.83	1085.68
965.13	1083.11
965.42	1083.48
965.72	1080.11
966.02	1079.27
966.31	1080.51
966.61	1079.78
966.90	1078.33
967.20	1080.16
967.49	1080.79
967.79	1080.27
968.08	1081.35
968.38	1084.07
968.67	1080.72
968.97	1078.66
969.26	1079.03
969.56	1078.89
969.85	1079.48
970.15	1079.17
970.44	1079.53
970.74	1081.73
971.03	1080.88
971.32	1079.90
971.62	1078.61
971.91	1078.28
972.21	1075.15
972.50	1079.62
972.80	1081.12
973.09	1081.28
973.38	1081.63
973.68	1083.57
973.97	1077.79
974.27	1074.05
974.56	1079.22
974.85	1079.43
975.15	1080.44
975.44	1083.36
975.73	1087.39
976.03	1086.45
976.32	1086.90
976.61	1082.43
976.91	1083.64
977.20	1081.02
977.49	1082.26
977.79	1083.15
978.08	1089.14
978.37	1088.72
978.67	1086.97
978.96	1082.43
979.25	1082.36
979.55	1079.17
979.84	1076.39
980.13	1075.99
980.42	1081.75
980.72	1078.89
981.01	1082.12
981.30	1084.98
981.59	1086.36
981.89	1084.42
982.18	1084.23
982.47	1081.12
982.76	1079.57
983.06	1079.06
983.35	1079.13
983.64	1077.28
983.93	1076.88
984.22	1073.42
984.52	1076.97
984.81	1074.91
985.10	1078.36
985.39	1078.99
985.68	1084.42
985.97	1083.86
986.27	1083.46
986.56	1083.74
986.85	1082.92
987.14	1080.98
987.43	1080.16
987.72	1082.43
988.01	1081.26
988.31	1083.36
988.60	1084.30
988.89	1082.94
989.18	1081.77
989.47	1080.91
989.76	1080.23
990.05	1081.91
990.34	1083.86
990.63	1082.73
990.92	1082.26
991.21	1083.53
991.51	1080.70
991.80	1079.22
992.09	1077.33
992.38	1078.68
992.67	1076.37
992.96	1075.45
993.25	1074.12
993.54	1075.83
993.83	1077.16
994.12	1077.63
994.41	1079.13
994.70	1079.67
994.99	1081.28
995.28	1082.24
995.57	1084.49
995.86	1083.20
996.15	1083.06
996.44	1082.24
996.73	1081.51
997.02	1080.34
997.31	1080.18
997.59	1083.20
997.88	1081.84
998.17	1079.95
998.46	1080.34
998.75	1082.31
999.04	1078.87
999.33	1081.94
999.62	1082.26
999.91	1081.63
1000.20	1080.39
1000.49	1082.76
1000.77	1081.89
1001.06	1080.37
1001.35	1079.20
1001.64	1079.92
1001.93	1077.51
1002.22	1078.07
1002.51	1082.15
1002.79	1082.08
1003.08	1081.73
1003.37	1083.55
1003.66	1081.26
1003.95	1079.53
1004.23	1082.85
1004.52	1080.84
1004.81	1081.91
1005.10	1082.47
1005.39	1079.24
1005.67	1078.19
1005.96	1082.05
1006.25	1078.59
1006.54	1080.56
1006.83	1082.38
1007.11	1080.27
1007.40	1077.82
1007.69	1083.22
1007.97	1080.25
1008.26	1083.22
1008.55	1087.39
1008.84	1087.16
1009.12	1085.21
1009.41	1089.26
1009.70	1090.67
1009.98	1087.65
1010.27	1089.36
1010.56	1088.75
1010.85	1088.42
1011.13	1084.79
1011.42	1085.17
1011.71	1086.31
1011.99	1084.77
1012.28	1080.04
1012.56	1079.13
1012.85	1080.88
1013.14	1080.16
1013.42	1080.39
1013.71	1083.15
1014.00	1084.58
1014.28	1083.06
1014.57	1082.57
1014.85	1083.36
1015.14	1079.67
1015.43	1078.54
1015.71	1077.82
1016.00	1079.27
1016.28	1079.36
1016.57	1082.29
1016.85	1085.05
1017.14	1085.45
1017.43	1083.25
1017.71	1082.26
1018.00	1080.30
1018.28	1081.21
1018.57	1082.73
1018.85	1084.25
1019.14	1083.43
1019.42	1084.96
1019.71	1082.99
1019.99	1079.57
1020.28	1079.17
1020.56	1080.77
1020.85	1083.08
1021.13	1081.56
1021.42	1084.14
1021.70	1082.64
1021.99	1082.36
1022.27	1080.95
1022.55	1081.33
1022.84	1080.63
>>>>>End Processed Spectral Data<<<<<
