SpectraSuite Data File
++++++++++++++++++++++++++++++++++++
Date: Mon Aug 26 10:26:29 PDT 2019
User: corrico
Dark Spectrum Present: No
Reference Spectrum Present: No
Number of Sampled Component Spectra: 1
Spectrometers: USB2+H06089
Integration Time (usec): 10000 (USB2+H06089)
Spectra Averaged: 20 (USB2+H06089)
Boxcar Smoothing: 2 (USB2+H06089)
Correct for Electrical Dark: No (USB2+H06089)
Strobe/Lamp Enabled: No (USB2+H06089)
Correct for Detector Non-linearity: No (USB2+H06089)
Correct for Stray Light: No (USB2+H06089)
Number of Pixels in Processed Spectrum: 2048
>>>>>Begin Processed Spectral Data<<<<<
339.70	1020.36
340.07	1020.36
340.45	991.31
340.82	971.49
341.19	948.64
341.57	926.29
341.94	914.85
342.31	909.37
342.69	905.13
343.06	905.60
343.43	903.94
343.81	907.96
344.18	909.86
344.55	912.74
344.93	914.59
345.30	918.54
345.67	921.33
346.04	924.93
346.42	934.08
346.79	941.39
347.16	954.49
347.54	965.14
347.91	978.37
348.28	989.18
348.65	1003.39
349.03	1010.76
349.40	1020.50
349.77	1029.88
350.14	1038.57
350.52	1045.61
350.89	1054.86
351.26	1059.00
351.63	1062.74
352.01	1064.24
352.38	1064.26
352.75	1066.25
353.12	1070.40
353.50	1074.96
353.87	1077.58
354.24	1082.54
354.61	1085.40
354.98	1087.39
355.36	1089.29
355.73	1091.23
356.10	1092.35
356.47	1089.61
356.84	1090.17
357.22	1089.40
357.59	1089.45
357.96	1090.15
358.33	1090.41
358.70	1089.36
359.08	1087.44
359.45	1084.96
359.82	1082.05
360.19	1082.50
360.56	1080.48
360.94	1083.08
361.31	1083.32
361.68	1084.89
362.05	1085.59
362.42	1090.06
362.79	1088.02
363.16	1089.68
363.54	1088.14
363.91	1088.63
364.28	1087.69
364.65	1088.44
365.02	1089.19
365.39	1090.13
365.76	1087.90
366.14	1084.11
366.51	1083.08
366.88	1081.16
367.25	1078.05
367.62	1080.09
367.99	1079.36
368.36	1078.07
368.73	1079.83
369.10	1079.60
369.48	1078.07
369.85	1080.81
370.22	1077.91
370.59	1077.14
370.96	1080.70
371.33	1082.10
371.70	1079.17
372.07	1082.64
372.44	1080.65
372.81	1078.89
373.18	1080.25
373.55	1081.14
373.93	1078.47
374.30	1078.61
374.67	1080.60
375.04	1077.86
375.41	1078.57
375.78	1078.99
376.15	1081.56
376.52	1079.83
376.89	1079.46
377.26	1079.31
377.63	1082.73
378.00	1082.31
378.37	1083.04
378.74	1083.62
379.11	1085.40
379.48	1085.77
379.85	1084.51
380.22	1085.42
380.59	1084.35
380.96	1080.79
381.33	1077.79
381.70	1078.12
382.07	1080.39
382.44	1081.80
382.81	1085.21
383.18	1085.73
383.55	1086.17
383.92	1081.82
384.29	1080.70
384.66	1078.12
385.03	1078.96
385.40	1078.05
385.77	1080.60
386.14	1082.78
386.51	1084.42
386.88	1084.58
387.25	1084.28
387.62	1086.01
387.99	1082.92
388.36	1083.50
388.73	1083.50
389.10	1085.07
389.46	1082.59
389.83	1085.94
390.20	1087.04
390.57	1088.72
390.94	1091.25
391.31	1092.37
391.68	1091.60
392.05	1090.60
392.42	1091.11
392.79	1087.88
393.16	1086.03
393.53	1086.87
393.89	1090.17
394.26	1088.02
394.63	1089.82
395.00	1090.53
395.37	1090.36
395.74	1085.70
396.11	1085.91
396.48	1086.06
396.84	1088.86
397.21	1089.47
397.58	1092.61
397.95	1095.11
398.32	1094.43
398.69	1091.25
399.06	1090.69
399.42	1091.06
399.79	1090.10
400.16	1090.71
400.53	1089.87
400.90	1090.97
401.27	1091.32
401.64	1090.36
402.00	1086.80
402.37	1090.32
402.74	1090.57
403.11	1089.66
403.48	1088.12
403.84	1091.37
404.21	1092.07
404.58	1089.24
404.95	1087.58
405.32	1086.99
405.68	1085.12
406.05	1082.19
406.42	1086.08
406.79	1090.36
407.16	1094.13
407.52	1097.99
407.89	1100.66
408.26	1099.82
408.63	1097.83
408.99	1097.71
409.36	1094.22
409.73	1095.42
410.10	1094.76
410.47	1096.82
410.83	1098.72
411.20	1098.30
411.57	1099.35
411.94	1099.72
412.30	1098.65
412.67	1096.03
413.04	1101.57
413.40	1099.58
413.77	1098.41
414.14	1097.69
414.51	1098.79
414.87	1097.24
415.24	1099.05
415.61	1102.49
415.97	1103.59
416.34	1105.18
416.71	1105.08
417.08	1101.43
417.44	1101.57
417.81	1102.79
418.18	1104.59
418.54	1104.71
418.91	1108.81
419.28	1106.65
419.64	1104.05
420.01	1101.67
420.38	1104.19
420.74	1103.14
421.11	1105.83
421.48	1109.09
421.84	1109.74
422.21	1109.65
422.58	1112.39
422.94	1112.62
423.31	1111.22
423.68	1109.09
424.04	1109.48
424.41	1105.65
424.77	1105.11
425.14	1108.06
425.51	1110.58
425.87	1108.03
426.24	1106.72
426.61	1105.60
426.97	1108.08
427.34	1108.85
427.70	1113.79
428.07	1118.35
428.44	1120.58
428.80	1120.32
429.17	1120.46
429.53	1119.24
429.90	1118.31
430.27	1117.40
430.63	1112.78
431.00	1110.40
431.36	1108.85
431.73	1105.90
432.09	1105.11
432.46	1107.82
432.83	1110.00
433.19	1110.54
433.56	1112.69
433.92	1113.37
434.29	1113.21
434.65	1115.12
435.02	1115.17
435.38	1116.76
435.75	1116.32
436.11	1113.30
436.48	1111.54
436.84	1112.18
437.21	1110.26
437.57	1110.30
437.94	1114.59
438.30	1114.56
438.67	1110.98
439.03	1115.20
439.40	1118.12
439.76	1113.56
440.13	1111.54
440.49	1115.29
440.86	1112.62
441.22	1109.41
441.59	1110.72
441.95	1112.57
442.32	1113.18
442.68	1111.71
443.05	1112.25
443.41	1112.06
443.78	1111.57
444.14	1108.90
444.51	1108.71
444.87	1109.55
445.24	1108.55
445.60	1107.00
445.96	1104.92
446.33	1109.25
446.69	1107.82
447.06	1109.81
447.42	1110.77
447.79	1112.46
448.15	1111.24
448.51	1112.76
448.88	1112.22
449.24	1111.71
449.61	1109.93
449.97	1106.35
450.33	1104.38
450.70	1102.63
451.06	1104.85
451.43	1106.46
451.79	1106.30
452.15	1111.08
452.52	1112.53
452.88	1114.12
453.24	1115.10
453.61	1115.24
453.97	1112.13
454.34	1110.33
454.70	1106.18
455.06	1107.56
455.43	1110.98
455.79	1111.78
456.15	1114.05
456.52	1112.06
456.88	1109.41
457.24	1111.50
457.61	1108.45
457.97	1108.52
458.33	1112.62
458.70	1115.31
459.06	1111.85
459.42	1114.12
459.79	1116.51
460.15	1116.32
460.51	1115.99
460.88	1117.04
461.24	1119.24
461.60	1119.08
461.96	1118.35
462.33	1119.64
462.69	1120.11
463.05	1118.28
463.42	1118.52
463.78	1122.05
464.14	1120.55
464.50	1119.17
464.87	1121.68
465.23	1121.16
465.59	1119.83
465.95	1123.41
466.32	1126.94
466.68	1128.04
467.04	1126.99
467.40	1127.97
467.77	1124.91
468.13	1126.59
468.49	1128.70
468.85	1132.05
469.22	1134.55
469.58	1139.63
469.94	1137.43
470.30	1135.25
470.66	1137.29
471.03	1139.09
471.39	1138.93
471.75	1141.55
472.11	1148.57
472.47	1150.28
472.84	1150.19
473.20	1151.75
473.56	1156.06
473.92	1157.11
474.28	1161.80
474.65	1167.34
475.01	1172.33
475.37	1172.87
475.73	1175.58
476.09	1175.14
476.45	1179.35
476.81	1186.30
477.18	1194.00
477.54	1200.86
477.90	1209.00
478.26	1215.30
478.62	1219.37
478.98	1228.80
479.34	1234.38
479.71	1244.28
480.07	1252.44
480.43	1261.29
480.79	1266.89
481.15	1273.27
481.51	1285.38
481.87	1296.26
482.23	1310.37
482.59	1324.60
482.96	1343.14
483.32	1355.99
483.68	1371.16
484.04	1383.84
484.40	1399.38
484.76	1421.62
485.12	1436.71
485.48	1457.12
485.84	1480.23
486.20	1499.46
486.56	1516.11
486.92	1538.90
487.28	1566.71
487.64	1588.64
488.00	1621.73
488.37	1651.93
488.73	1686.03
489.09	1715.68
489.45	1753.86
489.81	1786.93
490.17	1827.42
490.53	1866.51
490.89	1913.04
491.25	1955.52
491.61	2004.34
491.97	2047.69
492.33	2102.81
492.69	2147.82
493.05	2206.40
493.41	2266.90
493.77	2333.72
494.13	2398.91
494.49	2472.12
494.85	2545.87
495.21	2622.78
495.57	2703.11
495.93	2786.67
496.29	2873.64
496.64	2967.24
497.00	3053.74
497.36	3147.48
497.72	3255.76
498.08	3368.52
498.44	3483.58
498.80	3610.84
499.16	3749.54
499.52	3887.30
499.88	4041.33
500.24	4205.62
500.60	4368.02
500.96	4527.25
501.32	4696.45
501.68	4862.67
502.03	5053.57
502.39	5267.09
502.75	5487.03
503.11	5722.45
503.47	5967.99
503.83	6217.00
504.19	6472.33
504.55	6753.45
504.91	7029.12
505.26	7311.93
505.62	7612.43
505.98	7941.34
506.34	8286.74
506.70	8660.99
507.06	9046.94
507.42	9449.16
507.78	9847.94
508.13	10257.80
508.49	10691.15
508.85	11169.48
509.21	11666.70
509.57	12209.12
509.93	12777.12
510.28	13396.64
510.64	14039.73
511.00	14659.13
511.36	15257.30
511.72	15847.02
512.07	16497.48
512.43	17113.55
512.79	17809.25
513.15	18533.49
513.51	19297.69
513.86	20018.20
514.22	20843.29
514.58	21612.16
514.94	22436.35
515.30	23286.62
515.65	24115.27
516.01	24965.21
516.37	25850.98
516.73	26704.81
517.08	27601.42
517.44	28467.28
517.80	29303.95
518.16	30190.27
518.51	31012.22
518.87	31749.41
519.23	32642.54
519.59	33570.51
519.94	34416.08
520.30	35298.51
520.66	36139.42
521.01	36939.32
521.37	37579.83
521.73	38255.17
522.09	38906.23
522.44	39581.50
522.80	39990.86
523.16	40395.63
523.51	40619.06
523.87	40884.88
524.23	41125.34
524.58	41413.37
524.94	41840.66
525.30	42203.46
525.65	42447.75
526.01	42510.52
526.37	42536.03
526.72	42438.08
527.08	42301.23
527.44	42082.15
527.79	41968.01
528.15	41880.89
528.51	41649.88
528.86	41453.86
529.22	41241.22
529.58	40951.79
529.93	40551.84
530.29	40114.91
530.65	39706.93
531.00	39325.82
531.36	38902.14
531.71	38474.55
532.07	37989.12
532.43	37394.20
532.78	36673.13
533.14	36013.43
533.49	35359.39
533.85	34741.95
534.21	34129.57
534.56	33608.03
534.92	33076.15
535.27	32497.96
535.63	31876.46
535.98	31240.18
536.34	30606.86
536.69	29925.86
537.05	29261.05
537.41	28727.62
537.76	28226.30
538.12	27645.03
538.47	27132.40
538.83	26706.89
539.18	26217.79
539.54	25733.14
539.89	25273.83
540.25	24727.08
540.60	24197.32
540.96	23660.08
541.31	23161.26
541.67	22737.44
542.02	22344.84
542.38	21899.43
542.73	21442.65
543.09	21035.75
543.44	20670.21
543.80	20330.92
544.15	19943.87
544.51	19631.36
544.86	19310.54
545.22	18915.72
545.57	18508.65
545.93	18121.88
546.28	17767.83
546.64	17439.92
546.99	17096.91
547.35	16749.51
547.70	16461.17
548.05	16140.80
548.41	15803.60
548.76	15522.03
549.12	15261.28
549.47	14982.82
549.83	14711.67
550.18	14406.21
550.53	14074.27
550.89	13799.21
551.24	13531.71
551.60	13232.85
551.95	12966.50
552.30	12727.95
552.66	12454.29
553.01	12168.84
553.37	11894.91
553.72	11624.39
554.07	11351.57
554.43	11054.84
554.78	10767.87
555.13	10501.84
555.49	10254.64
555.84	10057.59
556.19	9868.56
556.55	9682.19
556.90	9491.06
557.26	9289.14
557.61	9059.11
557.96	8820.26
558.32	8608.58
558.67	8399.95
559.02	8172.07
559.37	7976.01
559.73	7821.20
560.08	7660.67
560.43	7505.23
560.79	7381.23
561.14	7223.34
561.49	7056.43
561.85	6890.61
562.20	6732.53
562.55	6599.59
562.90	6468.42
563.26	6346.27
563.61	6224.65
563.96	6107.79
564.32	5968.51
564.67	5840.13
565.02	5708.17
565.37	5601.00
565.73	5490.73
566.08	5389.86
566.43	5284.60
566.78	5178.60
567.14	5064.99
567.49	4941.78
567.84	4834.56
568.19	4728.70
568.54	4637.26
568.90	4545.98
569.25	4479.41
569.60	4405.01
569.95	4341.53
570.31	4263.26
570.66	4191.36
571.01	4101.30
571.36	4017.39
571.71	3939.00
572.06	3865.11
572.42	3794.48
572.77	3733.39
573.12	3664.04
573.47	3597.54
573.82	3539.40
574.18	3474.01
574.53	3412.06
574.88	3361.85
575.23	3307.50
575.58	3253.30
575.93	3203.09
576.28	3149.21
576.64	3091.26
576.99	3033.05
577.34	2976.74
577.69	2919.56
578.04	2865.21
578.39	2817.42
578.74	2771.80
579.09	2726.28
579.44	2683.85
579.80	2646.61
580.15	2601.53
580.50	2563.50
580.85	2531.52
581.20	2502.71
581.55	2475.82
581.90	2450.03
582.25	2419.53
582.60	2381.00
582.95	2338.85
583.30	2294.33
583.65	2256.63
584.00	2222.06
584.35	2192.24
584.71	2161.48
585.06	2134.05
585.41	2103.46
585.76	2070.39
586.11	2039.00
586.46	2020.21
586.81	1994.77
587.16	1977.24
587.51	1956.80
587.86	1938.08
588.21	1914.04
588.56	1897.96
588.91	1873.62
589.26	1851.74
589.61	1830.70
589.96	1810.90
590.31	1787.98
590.66	1773.70
591.01	1760.27
591.36	1742.41
591.71	1726.15
592.06	1709.15
592.41	1690.50
592.76	1671.52
593.10	1660.77
593.45	1645.77
593.80	1628.43
594.15	1613.87
594.50	1603.34
594.85	1591.54
595.20	1575.84
595.55	1564.95
595.90	1554.33
596.25	1539.93
596.60	1525.35
596.95	1516.60
597.30	1510.49
597.64	1548.17
597.99	1542.53
598.34	1531.67
598.69	1523.20
599.04	1518.09
599.39	1459.72
599.74	1449.61
600.09	1441.40
600.44	1431.66
600.78	1420.54
601.13	1412.89
601.48	1403.29
601.83	1398.10
602.18	1394.00
602.53	1382.79
602.88	1377.01
603.22	1374.57
603.57	1368.82
603.92	1358.59
604.27	1355.33
604.62	1351.05
604.97	1339.89
605.31	1329.73
605.66	1323.95
606.01	1315.33
606.36	1308.85
606.71	1302.18
607.05	1296.61
607.40	1293.15
607.75	1292.26
608.10	1286.05
608.44	1285.05
608.79	1281.44
609.14	1280.83
609.49	1273.95
609.84	1272.88
610.18	1267.99
610.53	1266.84
610.88	1258.23
611.23	1255.79
611.57	1249.85
611.92	1245.94
612.27	1242.31
612.62	1239.55
612.96	1236.88
613.31	1230.65
613.66	1225.32
614.00	1223.16
614.35	1222.84
614.70	1217.45
615.05	1217.64
615.39	1216.84
615.74	1212.35
616.09	1209.68
616.43	1207.60
616.78	1203.41
617.13	1203.25
617.47	1203.95
617.82	1197.70
618.17	1193.21
618.51	1189.65
618.86	1187.14
619.21	1182.65
619.55	1183.96
619.90	1183.73
620.25	1180.19
620.59	1172.21
620.94	1170.53
621.29	1164.79
621.63	1164.53
621.98	1165.68
622.32	1165.80
622.67	1162.15
623.02	1162.22
623.36	1159.88
623.71	1158.03
624.05	1158.64
624.40	1159.55
624.75	1157.72
625.09	1156.15
625.44	1153.09
625.78	1150.26
626.13	1146.11
626.48	1144.57
626.82	1141.76
627.17	1140.78
627.51	1138.90
627.86	1139.14
628.20	1138.58
628.55	1137.92
628.89	1140.61
629.24	1137.22
629.58	1136.49
629.93	1135.00
630.28	1137.36
630.62	1135.63
630.97	1137.01
631.31	1131.86
631.66	1129.38
632.00	1126.13
632.35	1125.21
632.69	1123.22
633.04	1125.63
633.38	1129.68
633.73	1129.47
634.07	1126.41
634.42	1125.12
634.76	1120.74
635.11	1115.85
635.45	1115.10
635.79	1114.96
636.14	1113.98
636.48	1114.84
636.83	1113.11
637.17	1111.52
637.52	1112.08
637.86	1114.17
638.21	1116.74
638.55	1116.44
638.89	1113.95
639.24	1117.44
639.58	1119.13
639.93	1114.54
640.27	1115.38
640.61	1115.73
640.96	1109.72
641.30	1105.44
641.65	1105.86
641.99	1106.21
642.33	1103.98
642.68	1105.72
643.02	1106.86
643.37	1105.32
643.71	1106.04
644.05	1107.94
644.40	1107.33
644.74	1109.65
645.08	1113.21
645.43	1107.96
645.77	1107.68
646.11	1106.11
646.46	1099.72
646.80	1097.73
647.14	1100.47
647.49	1098.53
647.83	1097.15
648.17	1100.17
648.52	1100.85
648.86	1098.79
649.20	1099.79
649.55	1098.32
649.89	1096.42
650.23	1093.05
650.57	1090.85
650.92	1091.13
651.26	1091.37
651.60	1093.29
651.95	1094.57
652.29	1098.81
652.63	1097.52
652.97	1099.16
653.32	1099.72
653.66	1096.80
654.00	1096.28
654.34	1095.86
654.69	1092.89
655.03	1090.71
655.37	1091.77
655.71	1090.53
656.05	1090.81
656.40	1093.83
656.74	1092.91
657.08	1092.47
657.42	1093.10
657.76	1092.23
658.11	1092.00
658.45	1098.60
658.79	1100.22
659.13	1101.81
659.47	1102.65
659.82	1099.72
660.16	1095.21
660.50	1097.15
660.84	1093.99
661.18	1095.82
661.52	1094.83
661.87	1094.36
662.21	1095.02
662.55	1096.49
662.89	1093.90
663.23	1095.09
663.57	1095.82
663.91	1093.94
664.25	1095.04
664.60	1100.54
664.94	1103.12
665.28	1102.86
665.62	1103.96
665.96	1103.23
666.30	1099.49
666.64	1096.63
666.98	1094.88
667.32	1094.62
667.66	1095.37
668.01	1094.62
668.35	1096.28
668.69	1097.99
669.03	1097.20
669.37	1092.07
669.71	1093.36
670.05	1094.29
670.39	1090.97
670.73	1087.97
671.07	1088.23
671.41	1085.42
671.75	1083.15
672.09	1083.62
672.43	1086.31
672.77	1090.76
673.11	1093.73
673.45	1096.28
673.79	1097.22
674.13	1095.70
674.47	1095.46
674.81	1095.79
675.15	1090.13
675.49	1090.55
675.83	1091.09
676.17	1088.33
676.51	1087.51
676.85	1091.63
677.19	1091.34
677.53	1091.77
677.87	1092.28
678.21	1089.99
678.55	1091.81
678.89	1092.49
679.23	1090.99
679.57	1090.08
679.90	1090.15
680.24	1085.28
680.58	1082.78
680.92	1083.39
681.26	1089.12
681.60	1087.27
681.94	1089.19
682.28	1088.79
682.62	1088.77
682.96	1084.77
683.29	1086.83
683.63	1086.76
683.97	1087.97
684.31	1087.60
684.65	1089.52
684.99	1087.88
685.33	1088.61
685.67	1087.69
686.00	1088.79
686.34	1087.27
686.68	1089.66
687.02	1088.40
687.36	1090.10
687.70	1088.40
688.03	1089.82
688.37	1086.66
688.71	1088.72
689.05	1087.20
689.39	1088.00
689.72	1086.76
690.06	1089.31
690.40	1088.98
690.74	1089.52
691.08	1091.04
691.41	1092.45
691.75	1090.53
692.09	1088.65
692.43	1090.43
692.76	1090.03
693.10	1088.96
693.44	1091.23
693.78	1091.77
694.11	1093.05
694.45	1092.30
694.79	1089.29
695.13	1088.89
695.46	1089.61
695.80	1088.51
696.14	1090.67
696.48	1095.53
696.81	1096.82
697.15	1097.92
697.49	1094.93
697.82	1092.56
698.16	1089.94
698.50	1087.06
698.83	1085.24
699.17	1088.72
699.51	1088.89
699.84	1089.54
700.18	1091.34
700.52	1094.48
700.85	1094.32
701.19	1093.10
701.53	1090.81
701.86	1092.73
702.20	1091.98
702.54	1090.60
702.87	1089.73
703.21	1090.01
703.55	1088.63
703.88	1085.12
704.22	1084.84
704.55	1086.24
704.89	1085.75
705.23	1085.12
705.56	1085.03
705.90	1085.61
706.23	1085.68
706.57	1087.46
706.91	1087.83
707.24	1091.88
707.58	1092.75
707.91	1093.97
708.25	1093.01
708.58	1091.58
708.92	1085.99
709.26	1084.00
709.59	1082.24
709.93	1081.91
710.26	1083.15
710.60	1087.83
710.93	1087.51
711.27	1086.78
711.60	1087.62
711.94	1084.79
712.27	1085.26
712.61	1086.13
712.94	1086.50
713.28	1087.72
713.61	1088.91
713.95	1087.09
714.28	1088.28
714.62	1090.22
714.95	1089.85
715.29	1090.10
715.62	1088.77
715.96	1089.07
716.29	1089.12
716.63	1086.97
716.96	1088.98
717.29	1089.89
717.63	1086.01
717.96	1086.90
718.30	1090.43
718.63	1089.36
718.97	1088.84
719.30	1090.17
719.63	1087.41
719.97	1086.48
720.30	1087.34
720.64	1084.63
720.97	1086.50
721.30	1086.85
721.64	1083.93
721.97	1080.46
722.31	1084.09
722.64	1082.24
722.97	1081.98
723.31	1083.36
723.64	1086.36
723.97	1088.12
724.31	1090.22
724.64	1090.41
724.98	1090.03
725.31	1088.82
725.64	1086.06
725.98	1084.79
726.31	1083.62
726.64	1085.63
726.97	1083.43
727.31	1082.50
727.64	1085.24
727.97	1088.12
728.31	1087.34
728.64	1089.10
728.97	1090.78
729.31	1087.51
729.64	1086.55
729.97	1084.70
730.30	1088.09
730.64	1087.23
730.97	1088.91
731.30	1087.23
731.63	1087.18
731.97	1086.29
732.30	1084.84
732.63	1084.14
732.96	1087.97
733.30	1091.60
733.63	1092.07
733.96	1096.42
734.29	1095.18
734.63	1093.66
734.96	1089.45
735.29	1085.94
735.62	1084.46
735.95	1085.70
736.29	1083.06
736.62	1085.31
736.95	1086.64
737.28	1086.43
737.61	1086.92
737.94	1088.58
738.28	1084.77
738.61	1085.03
738.94	1082.92
739.27	1082.59
739.60	1083.86
739.93	1086.34
740.27	1083.04
740.60	1083.64
740.93	1083.43
741.26	1082.73
741.59	1083.64
741.92	1086.57
742.25	1090.43
742.58	1089.24
742.91	1087.93
743.25	1087.27
743.58	1087.09
743.91	1084.44
744.24	1086.24
744.57	1088.07
744.90	1087.81
745.23	1085.70
745.56	1085.07
745.89	1085.45
746.22	1083.48
746.55	1081.35
746.88	1086.31
747.21	1086.90
747.54	1085.59
747.87	1089.45
748.20	1094.62
748.53	1091.27
748.87	1091.39
749.20	1088.47
749.53	1084.70
749.86	1082.22
750.19	1080.72
750.52	1076.86
750.85	1082.29
751.18	1081.70
751.51	1082.54
751.84	1085.99
752.16	1089.19
752.49	1084.07
752.82	1085.82
753.15	1085.96
753.48	1087.79
753.81	1088.02
754.14	1087.23
754.47	1087.20
754.80	1085.24
755.13	1082.12
755.46	1082.43
755.79	1086.55
756.12	1088.96
756.45	1088.47
756.78	1090.67
757.11	1093.69
757.43	1093.01
757.76	1089.05
758.09	1090.85
758.42	1087.25
758.75	1085.49
759.08	1082.92
759.41	1084.65
759.74	1081.80
760.07	1083.20
760.39	1081.44
760.72	1084.49
761.05	1084.23
761.38	1088.61
761.71	1090.32
762.04	1092.07
762.36	1091.39
762.69	1089.94
763.02	1085.35
763.35	1084.81
763.68	1086.87
764.01	1087.67
764.33	1088.84
764.66	1091.53
764.99	1089.57
765.32	1082.99
765.65	1080.09
765.97	1082.33
766.30	1081.49
766.63	1080.56
766.96	1082.71
767.28	1085.14
767.61	1082.57
767.94	1085.49
768.27	1086.71
768.59	1090.06
768.92	1089.89
769.25	1094.06
769.58	1090.55
769.90	1091.74
770.23	1086.55
770.56	1090.53
770.89	1086.71
771.21	1088.82
771.54	1087.04
771.87	1087.41
772.19	1081.51
772.52	1082.31
772.85	1080.58
773.17	1082.45
773.50	1088.68
773.83	1090.81
774.15	1086.29
774.48	1087.46
774.81	1086.50
775.13	1082.15
775.46	1080.48
775.79	1083.13
776.11	1082.83
776.44	1083.13
776.77	1085.21
777.09	1085.91
777.42	1089.82
777.74	1087.69
778.07	1088.51
778.40	1086.41
778.72	1086.10
779.05	1083.01
779.37	1084.11
779.70	1082.29
780.03	1081.75
780.35	1080.72
780.68	1080.06
781.00	1082.85
781.33	1082.19
781.65	1082.99
781.98	1087.74
782.31	1087.48
782.63	1083.76
782.96	1087.53
783.28	1086.94
783.61	1085.00
783.93	1085.07
784.26	1088.02
784.58	1085.54
784.91	1083.76
785.23	1083.69
785.56	1084.96
785.88	1082.76
786.21	1083.71
786.53	1088.65
786.86	1087.02
787.18	1085.10
787.51	1088.09
787.83	1085.91
788.16	1084.21
788.48	1086.62
788.81	1085.31
789.13	1083.39
789.46	1084.81
789.78	1082.03
790.10	1077.51
790.43	1078.17
790.75	1079.43
791.08	1081.21
791.40	1082.85
791.73	1092.77
792.05	1097.95
792.37	1095.98
792.70	1093.66
793.02	1097.06
793.35	1092.30
793.67	1090.57
793.99	1089.92
794.32	1091.20
794.64	1089.36
794.96	1088.14
795.29	1089.36
795.61	1090.83
795.93	1088.96
796.26	1086.69
796.58	1084.53
796.91	1083.43
797.23	1083.11
797.55	1087.72
797.87	1091.74
798.20	1093.83
798.52	1088.70
798.84	1090.46
799.17	1086.01
799.49	1082.26
799.81	1079.71
800.14	1084.93
800.46	1081.33
800.78	1079.74
801.10	1081.54
801.43	1083.36
801.75	1079.90
802.07	1082.85
802.40	1088.07
802.72	1088.49
803.04	1088.98
803.36	1090.15
803.69	1089.47
804.01	1084.14
804.33	1080.93
804.65	1078.73
804.97	1079.95
805.30	1082.01
805.62	1085.80
805.94	1088.84
806.26	1089.10
806.58	1089.92
806.91	1085.05
807.23	1083.55
807.55	1081.89
807.87	1081.40
808.19	1082.29
808.52	1085.26
808.84	1082.45
809.16	1080.58
809.48	1082.36
809.80	1079.67
810.12	1078.33
810.44	1079.10
810.77	1082.12
811.09	1080.65
811.41	1081.87
811.73	1081.54
812.05	1084.39
812.37	1083.41
812.69	1084.91
813.01	1082.76
813.33	1084.56
813.66	1084.84
813.98	1084.67
814.30	1084.14
814.62	1084.00
814.94	1084.93
815.26	1084.37
815.58	1085.61
815.90	1088.91
816.22	1089.78
816.54	1088.82
816.86	1089.85
817.18	1087.25
817.50	1085.03
817.82	1085.94
818.14	1084.25
818.46	1084.86
818.78	1085.87
819.10	1084.58
819.42	1085.56
819.74	1089.29
820.06	1090.22
820.38	1088.51
820.70	1088.44
821.02	1086.08
821.34	1084.93
821.66	1084.32
821.98	1085.94
822.30	1086.78
822.62	1087.93
822.94	1089.10
823.26	1087.67
823.58	1090.78
823.90	1092.94
824.22	1095.09
824.54	1092.45
824.86	1091.49
825.18	1087.69
825.50	1087.48
825.81	1082.47
826.13	1080.60
826.45	1080.13
826.77	1081.68
827.09	1078.75
827.41	1082.54
827.73	1083.11
828.05	1085.05
828.36	1083.97
828.68	1082.69
829.00	1082.71
829.32	1082.47
829.64	1081.05
829.96	1082.94
830.28	1082.54
830.59	1080.06
830.91	1081.66
831.23	1081.63
831.55	1079.78
831.87	1080.11
832.19	1083.50
832.50	1084.51
832.82	1084.86
833.14	1085.24
833.46	1084.67
833.78	1083.93
834.09	1080.86
834.41	1082.36
834.73	1081.75
835.05	1083.69
835.36	1080.98
835.68	1080.79
836.00	1078.85
836.32	1079.78
836.63	1080.60
836.95	1079.31
837.27	1082.54
837.59	1079.36
837.90	1078.57
838.22	1077.51
838.54	1077.70
838.85	1078.24
839.17	1083.32
839.49	1083.74
839.80	1083.50
840.12	1086.99
840.44	1086.03
840.76	1085.21
841.07	1086.87
841.39	1088.42
841.71	1087.95
842.02	1086.62
842.34	1085.40
842.65	1084.16
842.97	1083.25
843.29	1081.94
843.60	1084.63
843.92	1087.02
844.24	1086.24
844.55	1086.36
844.87	1089.38
845.18	1087.76
845.50	1086.64
845.82	1082.80
846.13	1080.88
846.45	1077.54
846.76	1074.05
847.08	1072.34
847.40	1076.74
847.71	1076.88
848.03	1077.11
848.34	1081.70
848.66	1084.00
848.97	1083.62
849.29	1085.49
849.60	1088.23
849.92	1084.89
850.24	1081.33
850.55	1083.29
850.87	1085.24
851.18	1083.69
851.50	1084.30
851.81	1086.43
852.13	1082.76
852.44	1080.91
852.76	1077.77
853.07	1079.20
853.39	1077.75
853.70	1081.21
854.01	1081.05
854.33	1083.50
854.64	1083.81
854.96	1085.63
855.27	1086.01
855.59	1088.14
855.90	1088.54
856.22	1087.74
856.53	1087.55
856.84	1083.74
857.16	1082.05
857.47	1082.26
857.79	1084.53
858.10	1084.77
858.41	1086.92
858.73	1085.70
859.04	1086.08
859.36	1085.59
859.67	1084.14
859.98	1085.73
860.30	1085.75
860.61	1085.14
860.92	1082.17
861.24	1080.56
861.55	1082.78
861.87	1084.35
862.18	1083.18
862.49	1084.86
862.81	1085.80
863.12	1084.67
863.43	1082.87
863.74	1082.38
864.06	1081.09
864.37	1082.47
864.68	1076.95
865.00	1077.00
865.31	1079.53
865.62	1081.91
865.94	1084.93
866.25	1089.43
866.56	1089.85
866.87	1089.66
867.19	1087.65
867.50	1082.92
867.81	1079.24
868.12	1079.90
868.44	1080.74
868.75	1079.43
869.06	1083.67
869.37	1083.29
869.68	1078.66
870.00	1077.65
870.31	1078.94
870.62	1075.10
870.93	1077.21
871.24	1080.79
871.56	1077.70
871.87	1080.16
872.18	1083.34
872.49	1083.71
872.80	1086.41
873.12	1089.22
873.43	1084.65
873.74	1080.81
874.05	1080.16
874.36	1076.97
874.67	1073.25
874.98	1076.41
875.29	1076.83
875.61	1078.85
875.92	1082.03
876.23	1084.53
876.54	1085.31
876.85	1087.02
877.16	1085.84
877.47	1084.81
877.78	1086.57
878.09	1084.86
878.40	1081.75
878.72	1081.23
879.03	1080.84
879.34	1079.22
879.65	1080.77
879.96	1083.39
880.27	1083.62
880.58	1083.90
880.89	1081.30
881.20	1079.95
881.51	1080.95
881.82	1080.11
882.13	1078.94
882.44	1083.71
882.75	1085.38
883.06	1086.20
883.37	1083.20
883.68	1084.16
883.99	1084.07
884.30	1083.32
884.61	1079.46
884.92	1082.36
885.23	1080.46
885.54	1078.99
885.85	1079.27
886.16	1084.51
886.47	1087.93
886.78	1089.17
887.08	1090.10
887.39	1089.24
887.70	1085.63
888.01	1082.22
888.32	1082.19
888.63	1080.95
888.94	1082.59
889.25	1086.38
889.56	1083.04
889.87	1081.30
890.17	1080.84
890.48	1080.91
890.79	1079.17
891.10	1080.37
891.41	1083.13
891.72	1085.14
892.03	1085.00
892.34	1081.96
892.64	1085.38
892.95	1084.25
893.26	1082.92
893.57	1082.52
893.88	1085.73
894.18	1087.95
894.49	1090.67
894.80	1091.67
895.11	1091.02
895.42	1088.86
895.72	1082.85
896.03	1080.88
896.34	1078.73
896.65	1079.78
896.96	1077.70
897.26	1080.63
897.57	1078.07
897.88	1079.50
898.19	1077.44
898.49	1078.10
898.80	1077.84
899.11	1078.33
899.41	1074.73
899.72	1073.67
900.03	1073.51
900.34	1074.61
900.64	1075.22
900.95	1078.21
901.26	1078.89
901.56	1080.02
901.87	1079.20
902.18	1080.16
902.48	1080.67
902.79	1080.56
903.10	1082.24
903.40	1084.16
903.71	1081.66
904.02	1083.97
904.32	1087.37
904.63	1087.76
904.94	1085.40
905.24	1088.61
905.55	1086.06
905.85	1083.67
906.16	1084.02
906.47	1084.35
906.77	1083.36
907.08	1083.46
907.38	1082.03
907.69	1081.56
908.00	1082.50
908.30	1082.59
908.61	1081.35
908.91	1085.10
909.22	1082.05
909.52	1078.43
909.83	1076.55
910.14	1077.00
910.44	1077.40
910.75	1080.77
911.05	1084.81
911.36	1085.56
911.66	1086.71
911.97	1084.37
912.27	1083.79
912.58	1080.25
912.88	1083.06
913.19	1083.08
913.49	1082.80
913.80	1080.70
914.10	1082.69
914.41	1082.12
914.71	1079.85
915.01	1079.06
915.32	1082.36
915.62	1085.52
915.93	1082.92
916.23	1084.30
916.54	1084.58
916.84	1082.45
917.15	1078.89
917.45	1080.60
917.75	1081.68
918.06	1080.16
918.36	1079.81
918.67	1081.66
918.97	1084.23
919.27	1087.13
919.58	1089.00
919.88	1089.36
920.18	1090.08
920.49	1088.09
920.79	1086.83
921.10	1088.35
921.40	1089.75
921.70	1088.79
922.01	1085.84
922.31	1085.12
922.61	1082.78
922.92	1079.78
923.22	1080.18
923.52	1081.49
923.82	1080.04
924.13	1078.75
924.43	1081.30
924.73	1081.33
925.04	1083.50
925.34	1083.69
925.64	1085.00
925.94	1082.43
926.25	1080.46
926.55	1078.85
926.85	1077.93
927.15	1080.84
927.46	1079.99
927.76	1079.38
928.06	1079.99
928.36	1079.69
928.67	1079.08
928.97	1081.47
929.27	1083.11
929.57	1084.74
929.87	1088.54
930.18	1085.03
930.48	1084.79
930.78	1085.80
931.08	1085.61
931.38	1082.05
931.69	1086.01
931.99	1085.05
932.29	1082.92
932.59	1081.02
932.89	1083.08
933.19	1079.34
933.49	1078.31
933.80	1076.60
934.10	1076.69
934.40	1076.86
934.70	1078.40
935.00	1080.84
935.30	1081.73
935.60	1079.34
935.90	1077.35
936.20	1077.09
936.50	1074.14
936.81	1076.86
937.11	1076.79
937.41	1074.63
937.71	1075.87
938.01	1077.68
938.31	1077.72
938.61	1081.66
938.91	1083.11
939.21	1080.60
939.51	1082.54
939.81	1080.60
940.11	1077.77
940.41	1079.46
940.71	1081.40
941.01	1080.23
941.31	1078.99
941.61	1086.38
941.91	1085.42
942.21	1084.11
942.51	1084.56
942.81	1089.38
943.11	1081.40
943.41	1080.48
943.71	1081.87
944.01	1083.18
944.31	1082.73
944.61	1087.83
944.90	1087.62
945.20	1088.58
945.50	1087.55
945.80	1083.60
946.10	1081.84
946.40	1084.09
946.70	1084.86
947.00	1084.42
947.30	1088.77
947.60	1089.50
947.89	1090.22
948.19	1085.19
948.49	1085.59
948.79	1083.01
949.09	1080.88
949.39	1082.26
949.69	1085.96
949.98	1084.37
950.28	1083.34
950.58	1084.53
950.88	1082.80
951.18	1081.70
951.48	1085.54
951.77	1084.74
952.07	1082.66
952.37	1084.63
952.67	1084.81
952.97	1083.08
953.26	1082.52
953.56	1080.93
953.86	1081.28
954.16	1083.69
954.45	1083.39
954.75	1086.31
955.05	1089.59
955.35	1086.15
955.64	1084.53
955.94	1084.49
956.24	1082.83
956.54	1084.18
956.83	1086.50
957.13	1088.56
957.43	1088.09
957.72	1086.99
958.02	1084.65
958.32	1079.20
958.61	1078.99
958.91	1078.07
959.21	1081.77
959.50	1083.11
959.80	1086.50
960.10	1085.54
960.39	1087.30
960.69	1085.91
960.99	1081.21
961.28	1080.46
961.58	1078.61
961.87	1075.41
962.17	1071.26
962.47	1073.28
962.76	1074.05
963.06	1071.43
963.36	1072.71
963.65	1077.96
963.95	1078.24
964.24	1081.21
964.54	1084.00
964.83	1083.32
965.13	1078.36
965.42	1077.09
965.72	1075.80
966.02	1076.53
966.31	1079.43
966.61	1084.30
966.90	1086.71
967.20	1083.97
967.49	1080.04
967.79	1077.18
968.08	1075.76
968.38	1075.62
968.67	1075.78
968.97	1080.09
969.26	1083.64
969.56	1081.54
969.85	1079.03
970.15	1079.81
970.44	1081.23
970.74	1081.73
971.03	1087.06
971.32	1089.24
971.62	1091.79
971.91	1086.50
972.21	1081.35
972.50	1078.87
972.80	1083.08
973.09	1081.07
973.38	1080.32
973.68	1084.18
973.97	1081.09
974.27	1076.44
974.56	1076.90
974.85	1078.87
975.15	1078.14
975.44	1079.88
975.73	1081.61
976.03	1076.74
976.32	1078.50
976.61	1076.51
976.91	1078.17
977.20	1079.69
977.49	1082.03
977.79	1079.95
978.08	1082.43
978.37	1080.81
978.67	1079.06
978.96	1078.12
979.25	1081.09
979.55	1077.86
979.84	1078.36
980.13	1077.37
980.42	1081.28
980.72	1082.36
981.01	1084.74
981.30	1084.79
981.59	1083.18
981.89	1082.31
982.18	1085.19
982.47	1082.92
982.76	1083.29
983.06	1086.57
983.35	1084.53
983.64	1077.89
983.93	1079.31
984.22	1078.45
984.52	1078.47
984.81	1079.62
985.10	1081.49
985.39	1081.47
985.68	1082.61
985.97	1080.58
986.27	1082.66
986.56	1083.06
986.85	1085.17
987.14	1083.74
987.43	1083.79
987.72	1084.09
988.01	1084.46
988.31	1083.13
988.60	1084.28
988.89	1084.86
989.18	1084.07
989.47	1085.19
989.76	1084.16
990.05	1084.02
990.34	1083.83
990.63	1082.26
990.92	1081.00
991.21	1081.40
991.51	1084.07
991.80	1084.37
992.09	1084.18
992.38	1082.15
992.67	1082.85
992.96	1079.36
993.25	1078.75
993.54	1078.87
993.83	1080.60
994.12	1081.49
994.41	1083.79
994.70	1083.08
994.99	1085.12
995.28	1085.17
995.57	1084.30
995.86	1082.12
996.15	1083.36
996.44	1081.16
996.73	1079.69
997.02	1081.61
997.31	1081.82
997.59	1082.97
997.88	1082.03
998.17	1082.05
998.46	1077.75
998.75	1080.63
999.04	1081.37
999.33	1082.19
999.62	1082.97
999.91	1084.00
1000.20	1080.81
1000.49	1075.45
1000.77	1077.63
1001.06	1074.17
1001.35	1075.73
1001.64	1076.79
1001.93	1079.78
1002.22	1077.91
1002.51	1080.11
1002.79	1080.11
1003.08	1078.99
1003.37	1080.41
1003.66	1079.71
1003.95	1083.36
1004.23	1082.12
1004.52	1078.19
1004.81	1078.68
1005.10	1079.17
1005.39	1077.70
1005.67	1078.03
1005.96	1085.68
1006.25	1083.41
1006.54	1082.54
1006.83	1079.69
1007.11	1079.01
1007.40	1074.75
1007.69	1075.87
1007.97	1079.13
1008.26	1081.73
1008.55	1084.32
1008.84	1084.65
1009.12	1087.27
1009.41	1085.00
1009.70	1086.24
1009.98	1085.10
1010.27	1087.60
1010.56	1085.94
1010.85	1085.14
1011.13	1082.01
1011.42	1084.63
1011.71	1082.12
1011.99	1084.11
1012.28	1084.51
1012.56	1085.56
1012.85	1084.79
1013.14	1087.34
1013.42	1085.61
1013.71	1083.29
1014.00	1082.22
1014.28	1079.03
1014.57	1076.30
1014.85	1076.23
1015.14	1078.61
1015.43	1080.46
1015.71	1082.54
1016.00	1082.94
1016.28	1079.71
1016.57	1080.51
1016.85	1081.84
1017.14	1079.27
1017.43	1078.57
1017.71	1079.76
1018.00	1078.21
1018.28	1077.30
1018.57	1079.46
1018.85	1078.66
1019.14	1081.94
1019.42	1084.98
1019.71	1082.92
1019.99	1078.61
1020.28	1081.49
1020.56	1080.67
1020.85	1080.74
1021.13	1080.77
1021.42	1082.24
1021.70	1083.76
1021.99	1084.00
1022.27	1083.50
1022.55	1091.27
1022.84	1086.94
>>>>>End Processed Spectral Data<<<<<
