SpectraSuite Data File
++++++++++++++++++++++++++++++++++++
Date: Mon Aug 26 10:26:26 PDT 2019
User: corrico
Dark Spectrum Present: No
Reference Spectrum Present: No
Number of Sampled Component Spectra: 1
Spectrometers: USB2+H06089
Integration Time (usec): 10000 (USB2+H06089)
Spectra Averaged: 20 (USB2+H06089)
Boxcar Smoothing: 2 (USB2+H06089)
Correct for Electrical Dark: No (USB2+H06089)
Strobe/Lamp Enabled: No (USB2+H06089)
Correct for Detector Non-linearity: No (USB2+H06089)
Correct for Stray Light: No (USB2+H06089)
Number of Pixels in Processed Spectrum: 2048
>>>>>Begin Processed Spectral Data<<<<<
339.70	1030.42
340.07	1030.42
340.45	1002.36
340.82	979.89
341.19	955.41
341.57	929.66
341.94	915.13
342.31	902.63
342.69	899.19
343.06	898.74
343.43	901.55
343.81	905.60
344.18	912.81
344.55	919.83
344.93	924.89
345.30	927.27
345.67	932.77
346.04	938.53
346.42	941.97
346.79	948.60
347.16	959.53
347.54	964.93
347.91	973.92
348.28	985.69
348.65	996.72
349.03	1004.04
349.40	1015.63
349.77	1026.35
350.14	1030.58
350.52	1036.62
350.89	1044.51
351.26	1050.64
351.63	1054.62
352.01	1060.45
352.38	1065.20
352.75	1068.15
353.12	1071.61
353.50	1075.45
353.87	1079.85
354.24	1084.49
354.61	1085.49
354.98	1088.72
355.36	1088.77
355.73	1088.61
356.10	1082.76
356.47	1085.07
356.84	1079.69
357.22	1076.67
357.59	1078.19
357.96	1081.12
358.33	1082.12
358.70	1084.02
359.08	1084.93
359.45	1081.35
359.82	1083.27
360.19	1079.10
360.56	1080.37
360.94	1080.48
361.31	1081.87
361.68	1076.51
362.05	1073.37
362.42	1071.66
362.79	1071.87
363.16	1070.23
363.54	1071.59
363.91	1076.18
364.28	1077.49
364.65	1075.94
365.02	1074.91
365.39	1075.48
365.76	1074.91
366.14	1072.69
366.51	1071.26
366.88	1074.40
367.25	1076.81
367.62	1077.89
367.99	1079.99
368.36	1082.40
368.73	1079.83
369.10	1077.96
369.48	1076.01
369.85	1073.86
370.22	1074.31
370.59	1073.51
370.96	1074.33
371.33	1072.74
371.70	1069.58
372.07	1068.95
372.44	1069.34
372.81	1067.52
373.18	1070.51
373.55	1076.13
373.93	1077.56
374.30	1081.94
374.67	1082.31
375.04	1083.34
375.41	1083.01
375.78	1081.21
376.15	1079.03
376.52	1080.02
376.89	1080.63
377.26	1079.29
377.63	1079.06
378.00	1081.16
378.37	1084.39
378.74	1083.48
379.11	1084.04
379.48	1085.91
379.85	1083.93
380.22	1080.91
380.59	1080.09
380.96	1080.11
381.33	1078.03
381.70	1075.64
382.07	1073.23
382.44	1071.82
382.81	1071.59
383.18	1071.99
383.55	1074.00
383.92	1075.97
384.29	1074.54
384.66	1072.95
385.03	1076.01
385.40	1074.89
385.77	1076.69
386.14	1080.91
386.51	1082.05
386.88	1081.07
387.25	1083.22
387.62	1081.35
387.99	1080.37
388.36	1081.09
388.73	1078.96
389.10	1076.13
389.46	1078.07
389.83	1077.25
390.20	1077.23
390.57	1077.49
390.94	1081.40
391.31	1081.05
391.68	1083.71
392.05	1082.50
392.42	1083.39
392.79	1081.14
393.16	1079.99
393.53	1076.34
393.89	1077.63
394.26	1078.78
394.63	1078.80
395.00	1079.20
395.37	1081.58
395.74	1084.60
396.11	1085.61
396.48	1087.32
396.84	1085.52
397.21	1082.17
397.58	1081.07
397.95	1081.73
398.32	1081.51
398.69	1082.38
399.06	1083.25
399.42	1084.81
399.79	1083.08
400.16	1081.96
400.53	1082.57
400.90	1086.03
401.27	1083.76
401.64	1083.83
402.00	1084.44
402.37	1084.35
402.74	1085.00
403.11	1083.88
403.48	1083.34
403.84	1083.90
404.21	1084.07
404.58	1082.69
404.95	1082.22
405.32	1081.02
405.68	1083.06
406.05	1083.62
406.42	1084.63
406.79	1088.61
407.16	1091.34
407.52	1089.07
407.89	1091.88
408.26	1090.97
408.63	1090.92
408.99	1089.75
409.36	1093.31
409.73	1091.65
410.10	1091.72
410.47	1091.13
410.83	1090.88
411.20	1089.80
411.57	1089.50
411.94	1090.34
412.30	1092.42
412.67	1093.40
413.04	1095.32
413.40	1096.54
413.77	1097.24
414.14	1097.01
414.51	1095.49
414.87	1093.87
415.24	1092.35
415.61	1092.16
415.97	1089.75
416.34	1095.79
416.71	1094.53
417.08	1099.35
417.44	1101.81
417.81	1104.59
418.18	1102.23
418.54	1100.52
418.91	1101.81
419.28	1099.75
419.64	1097.88
420.01	1095.23
420.38	1097.15
420.74	1092.33
421.11	1093.50
421.48	1093.80
421.84	1098.86
422.21	1099.44
422.58	1100.40
422.94	1099.12
423.31	1100.19
423.68	1099.26
424.04	1098.76
424.41	1097.41
424.77	1100.03
425.14	1100.00
425.51	1097.45
425.87	1100.87
426.24	1102.42
426.61	1101.62
426.97	1102.63
427.34	1102.88
427.70	1099.30
428.07	1101.85
428.44	1099.84
428.80	1099.82
429.17	1100.45
429.53	1102.67
429.90	1103.14
430.27	1101.27
430.63	1100.10
431.00	1099.23
431.36	1101.25
431.73	1099.37
432.09	1100.99
432.46	1099.26
432.83	1103.02
433.19	1098.41
433.56	1099.56
433.92	1099.56
434.29	1099.70
434.65	1097.36
435.02	1099.86
435.38	1099.35
435.75	1101.25
436.11	1101.48
436.48	1101.85
436.84	1101.90
437.21	1100.43
437.57	1101.11
437.94	1103.98
438.30	1100.87
438.67	1099.79
439.03	1099.00
439.40	1097.29
439.76	1092.80
440.13	1093.10
440.49	1094.67
440.86	1095.21
441.22	1096.12
441.59	1099.12
441.95	1100.57
442.32	1100.19
442.68	1097.36
443.05	1095.91
443.41	1096.03
443.78	1092.56
444.14	1091.04
444.51	1093.50
444.87	1093.64
445.24	1094.15
445.60	1099.98
445.96	1101.57
446.33	1101.22
446.69	1102.79
447.06	1101.55
447.42	1099.42
447.79	1098.67
448.15	1098.13
448.51	1094.88
448.88	1091.51
449.24	1091.74
449.61	1090.13
449.97	1092.56
450.33	1092.59
450.70	1096.92
451.06	1096.89
451.43	1099.79
451.79	1096.99
452.15	1101.57
452.52	1100.80
452.88	1102.06
453.24	1099.65
453.61	1101.69
453.97	1100.05
454.34	1100.24
454.70	1099.40
455.06	1102.44
455.43	1102.16
455.79	1103.49
456.15	1107.14
456.52	1106.25
456.88	1107.52
457.24	1105.46
457.61	1102.42
457.97	1099.96
458.33	1099.58
458.70	1097.64
459.06	1100.08
459.42	1103.14
459.79	1101.97
460.15	1104.90
460.51	1102.21
460.88	1101.67
461.24	1103.26
461.60	1104.08
461.96	1103.33
462.33	1106.89
462.69	1109.09
463.05	1108.24
463.42	1109.58
463.78	1109.53
464.14	1111.10
464.50	1110.42
464.87	1110.47
465.23	1109.98
465.59	1110.87
465.95	1106.93
466.32	1109.11
466.68	1110.47
467.04	1109.32
467.40	1111.12
467.77	1111.97
468.13	1110.98
468.49	1108.34
468.85	1109.02
469.22	1110.35
469.58	1114.82
469.94	1118.92
470.30	1120.20
470.66	1121.73
471.03	1123.62
471.39	1124.14
471.75	1120.04
472.11	1124.88
472.47	1128.75
472.84	1130.15
473.20	1131.11
473.56	1135.39
473.92	1138.67
474.28	1138.97
474.65	1138.16
475.01	1141.36
475.37	1144.66
475.73	1141.53
476.09	1147.00
476.45	1152.27
476.81	1158.59
477.18	1161.87
477.54	1171.77
477.90	1177.24
478.26	1183.40
478.62	1187.14
478.98	1194.35
479.34	1196.11
479.71	1200.32
480.07	1203.39
480.43	1205.63
480.79	1210.67
481.15	1217.78
481.51	1226.46
481.87	1235.19
482.23	1245.63
482.59	1257.20
482.96	1268.01
483.32	1278.19
483.68	1289.85
484.04	1302.53
484.40	1312.31
484.76	1327.51
485.12	1336.14
485.48	1353.04
485.84	1368.07
486.20	1381.55
486.56	1394.05
486.92	1412.56
487.28	1430.02
487.64	1447.97
488.00	1470.11
488.37	1490.38
488.73	1514.26
489.09	1535.25
489.45	1561.49
489.81	1587.54
490.17	1616.19
490.53	1644.44
490.89	1673.86
491.25	1707.16
491.61	1740.14
491.97	1775.58
492.33	1812.37
492.69	1849.54
493.05	1882.98
493.41	1925.63
493.77	1970.26
494.13	2017.05
494.49	2068.33
494.85	2119.36
495.21	2170.80
495.57	2219.60
495.93	2280.06
496.29	2338.17
496.64	2405.67
497.00	2464.19
497.36	2539.25
497.72	2608.41
498.08	2689.09
498.44	2772.72
498.80	2868.23
499.16	2961.48
499.52	3054.91
499.88	3160.64
500.24	3269.35
500.60	3381.82
500.96	3502.26
501.32	3630.85
501.68	3744.72
502.03	3868.13
502.39	4007.30
502.75	4146.45
503.11	4309.35
503.47	4479.13
503.83	4653.13
504.19	4824.34
504.55	5013.47
504.91	5198.28
505.26	5384.78
505.62	5598.75
505.98	5835.19
506.34	6082.07
506.70	6343.62
507.06	6625.31
507.42	6899.74
507.78	7152.33
508.13	7407.84
508.49	7686.83
508.85	8006.60
509.21	8344.38
509.57	8729.03
509.93	9137.80
510.28	9551.63
510.64	9947.67
511.00	10353.90
511.36	10767.45
511.72	11187.18
512.07	11627.62
512.43	12068.39
512.79	12530.78
513.15	13022.32
513.51	13539.32
513.86	14064.33
514.22	14641.15
514.58	15206.88
514.94	15792.32
515.30	16402.03
515.65	16967.01
516.01	17566.70
516.37	18148.14
516.73	18689.76
517.08	19235.88
517.44	19813.22
517.80	20393.56
518.16	21065.36
518.51	21718.72
518.87	22311.44
519.23	22956.91
519.59	23591.29
519.94	24181.97
520.30	24794.91
520.66	25342.95
521.01	25924.41
521.37	26436.14
521.73	26897.34
522.09	27349.82
522.44	27894.97
522.80	28247.50
523.16	28510.53
523.51	28693.31
523.87	28891.67
524.23	29074.04
524.58	29315.40
524.94	29660.09
525.30	29916.82
525.65	30056.71
526.01	30113.59
526.37	30088.92
526.72	30019.41
527.08	29901.07
527.44	29793.26
527.79	29711.42
528.15	29639.91
528.51	29484.59
528.86	29413.86
529.22	29288.76
529.58	29118.77
529.93	28868.31
530.29	28560.93
530.65	28199.94
531.00	27836.39
531.36	27396.32
531.71	27038.41
532.07	26688.75
532.43	26315.06
532.78	25851.97
533.14	25401.67
533.49	24898.22
533.85	24384.05
534.21	23934.37
534.56	23559.15
534.92	23175.94
535.27	22725.62
535.63	22249.86
535.98	21783.95
536.34	21338.13
536.69	20886.22
537.05	20489.70
537.41	20194.33
537.76	19826.75
538.12	19400.89
538.47	19011.63
538.83	18627.18
539.18	18206.18
539.54	17896.13
539.89	17564.67
540.25	17189.13
540.60	16879.43
540.96	16562.82
541.31	16190.94
541.67	15897.27
542.02	15666.21
542.38	15395.01
542.73	15082.83
543.09	14790.45
543.44	14519.44
543.80	14216.48
544.15	13870.74
544.51	13630.86
544.86	13417.47
545.22	13173.47
545.57	12951.66
545.93	12739.82
546.28	12513.35
546.64	12272.25
546.99	12047.51
547.35	11818.58
547.70	11633.63
548.05	11417.23
548.41	11185.70
548.76	10975.24
549.12	10764.15
549.47	10544.51
549.83	10352.49
550.18	10169.63
550.53	9956.97
550.89	9751.89
551.24	9546.09
551.60	9342.34
551.95	9144.08
552.30	8959.29
552.66	8780.68
553.01	8600.49
553.37	8406.69
553.72	8222.26
554.07	8052.50
554.43	7868.20
554.78	7688.17
555.13	7508.11
555.49	7342.61
555.84	7184.32
556.19	7038.20
556.55	6901.16
556.90	6760.61
557.26	6609.44
557.61	6461.84
557.96	6316.97
558.32	6178.08
558.67	6040.60
559.02	5893.52
559.37	5763.05
559.73	5638.42
560.08	5517.20
560.43	5403.08
560.79	5321.70
561.14	5217.03
561.49	5123.25
561.85	5025.86
562.20	4939.68
562.55	4856.78
562.90	4775.82
563.26	4679.08
563.61	4586.91
563.96	4495.84
564.32	4387.15
564.67	4290.76
565.02	4200.23
565.37	4124.98
565.73	4050.27
566.08	3983.17
566.43	3908.39
566.78	3838.97
567.14	3764.05
567.49	3684.80
567.84	3614.72
568.19	3540.90
568.54	3479.04
568.90	3418.91
569.25	3360.24
569.60	3314.64
569.95	3274.22
570.31	3219.95
570.66	3175.50
571.01	3129.41
571.36	3069.05
571.71	3008.03
572.06	2956.66
572.42	2911.77
572.77	2865.75
573.12	2824.75
573.47	2783.83
573.82	2748.21
574.18	2701.63
574.53	2659.29
574.88	2615.48
575.23	2581.49
575.58	2545.50
575.93	2511.72
576.28	2480.03
576.64	2441.65
576.99	2405.46
577.34	2366.16
577.69	2324.43
578.04	2285.84
578.39	2262.36
578.74	2228.03
579.09	2198.04
579.44	2167.83
579.80	2137.61
580.15	2101.85
580.50	2072.78
580.85	2045.09
581.20	2030.39
581.55	2012.04
581.90	1991.82
582.25	1972.09
582.60	1948.54
582.95	1916.48
583.30	1890.52
583.65	1863.49
584.00	1839.87
584.35	1822.22
584.71	1802.14
585.06	1782.20
585.41	1762.77
585.76	1746.72
586.11	1726.17
586.46	1706.95
586.81	1694.55
587.16	1681.79
587.51	1663.07
587.86	1649.24
588.21	1641.39
588.56	1623.75
588.91	1606.87
589.26	1592.95
589.61	1578.90
589.96	1562.66
590.31	1549.58
590.66	1545.27
591.01	1537.45
591.36	1529.42
591.71	1518.00
592.06	1508.08
592.41	1493.47
592.76	1482.43
593.10	1467.21
593.45	1456.35
593.80	1447.20
594.15	1439.03
594.50	1429.60
594.85	1419.72
595.20	1413.19
595.55	1408.84
595.90	1402.00
596.25	1395.03
596.60	1391.73
596.95	1383.35
597.30	1372.63
597.64	1415.86
597.99	1414.01
598.34	1408.09
598.69	1401.02
599.04	1391.87
599.39	1330.59
599.74	1321.47
600.09	1318.89
600.44	1314.89
600.78	1311.54
601.13	1310.37
601.48	1305.90
601.83	1298.90
602.18	1292.56
602.53	1289.45
602.88	1285.00
603.22	1278.96
603.57	1273.49
603.92	1268.62
604.27	1264.47
604.62	1259.72
604.97	1252.82
605.31	1251.51
605.66	1252.58
606.01	1246.27
606.36	1239.50
606.71	1236.41
607.05	1227.70
607.40	1221.50
607.75	1223.23
608.10	1225.34
608.44	1222.95
608.79	1219.54
609.14	1217.80
609.49	1215.16
609.84	1208.91
610.18	1210.78
610.53	1212.63
610.88	1209.87
611.23	1207.88
611.57	1205.75
611.92	1201.98
612.27	1200.62
612.62	1200.02
612.96	1193.28
613.31	1187.47
613.66	1179.96
614.00	1171.81
614.35	1166.29
614.70	1164.44
615.05	1166.92
615.39	1167.93
615.74	1169.99
616.09	1166.69
616.43	1162.50
616.78	1158.99
617.13	1156.01
617.47	1154.24
617.82	1151.59
618.17	1151.73
618.51	1148.99
618.86	1149.60
619.21	1144.57
619.55	1144.45
619.90	1143.59
620.25	1143.16
620.59	1141.10
620.94	1145.06
621.29	1146.23
621.63	1146.07
621.98	1145.06
622.32	1141.43
622.67	1134.50
623.02	1133.10
623.36	1132.16
623.71	1130.34
624.05	1131.09
624.40	1129.52
624.75	1125.89
625.09	1123.69
625.44	1125.19
625.78	1123.20
626.13	1125.35
626.48	1125.75
626.82	1123.53
627.17	1121.14
627.51	1120.30
627.86	1115.94
628.20	1112.57
628.55	1110.47
628.89	1107.99
629.24	1107.56
629.58	1108.45
629.93	1111.75
630.28	1110.63
630.62	1112.92
630.97	1111.61
631.31	1112.11
631.66	1109.06
632.00	1110.77
632.35	1108.69
632.69	1106.28
633.04	1105.90
633.38	1107.78
633.73	1107.80
634.07	1109.51
634.42	1110.37
634.76	1109.67
635.11	1106.93
635.45	1108.88
635.79	1107.00
636.14	1107.14
636.48	1107.52
636.83	1106.18
637.17	1101.48
637.52	1100.38
637.86	1099.96
638.21	1096.63
638.55	1098.74
638.89	1100.29
639.24	1099.23
639.58	1098.25
639.93	1098.79
640.27	1096.24
640.61	1097.29
640.96	1101.67
641.30	1101.18
641.65	1100.96
641.99	1101.88
642.33	1101.48
642.68	1095.96
643.02	1098.55
643.37	1097.85
643.71	1096.63
644.05	1099.33
644.40	1099.58
644.74	1097.38
645.08	1100.38
645.43	1104.17
645.77	1100.57
646.11	1100.80
646.46	1100.43
646.80	1098.18
647.14	1093.73
647.49	1092.75
647.83	1093.08
648.17	1093.80
648.52	1093.26
648.86	1095.56
649.20	1096.00
649.55	1095.70
649.89	1096.54
650.23	1098.83
650.57	1093.90
650.92	1094.06
651.26	1093.36
651.60	1093.83
651.95	1090.01
652.29	1091.70
652.63	1088.98
652.97	1089.61
653.32	1087.90
653.66	1092.45
654.00	1092.28
654.34	1092.98
654.69	1094.18
655.03	1092.09
655.37	1088.58
655.71	1088.54
656.05	1091.42
656.40	1089.68
656.74	1092.75
657.08	1093.36
657.42	1092.40
657.76	1091.11
658.11	1091.09
658.45	1091.27
658.79	1090.29
659.13	1090.36
659.47	1089.96
659.82	1089.61
660.16	1088.44
660.50	1086.73
660.84	1086.78
661.18	1084.16
661.52	1084.96
661.87	1087.04
662.21	1086.62
662.55	1088.35
662.89	1086.24
663.23	1084.21
663.57	1081.37
663.91	1086.57
664.25	1087.27
664.60	1088.58
664.94	1088.79
665.28	1089.05
665.62	1087.37
665.96	1086.20
666.30	1087.18
666.64	1085.73
666.98	1085.63
667.32	1086.80
667.66	1086.15
668.01	1086.85
668.35	1088.86
668.69	1089.50
669.03	1087.39
669.37	1087.88
669.71	1085.45
670.05	1084.07
670.39	1083.83
670.73	1083.04
671.07	1084.58
671.41	1087.97
671.75	1089.59
672.09	1089.03
672.43	1092.28
672.77	1090.57
673.11	1090.46
673.45	1089.80
673.79	1087.90
674.13	1083.43
674.47	1085.75
674.81	1087.55
675.15	1088.19
675.49	1088.33
675.83	1092.68
676.17	1090.90
676.51	1088.42
676.85	1088.40
677.19	1086.92
677.53	1084.98
677.87	1086.10
678.21	1085.33
678.55	1083.76
678.89	1084.00
679.23	1082.43
679.57	1080.58
679.90	1082.33
680.24	1085.40
680.58	1089.29
680.92	1091.18
681.26	1088.56
681.60	1088.19
681.94	1087.62
682.28	1087.74
682.62	1087.72
682.96	1091.63
683.29	1090.01
683.63	1087.62
683.97	1085.28
684.31	1086.90
684.65	1085.33
684.99	1085.07
685.33	1086.01
685.67	1088.75
686.00	1085.84
686.34	1087.48
686.68	1089.57
687.02	1089.85
687.36	1089.12
687.70	1090.32
688.03	1090.53
688.37	1089.80
688.71	1087.11
689.05	1085.96
689.39	1087.20
689.72	1087.60
690.06	1086.31
690.40	1089.75
690.74	1089.78
691.08	1085.28
691.41	1085.19
691.75	1086.76
692.09	1085.87
692.43	1084.23
692.76	1087.53
693.10	1085.24
693.44	1084.58
693.78	1087.25
694.11	1088.61
694.45	1086.59
694.79	1090.74
695.13	1092.26
695.46	1090.69
695.80	1087.18
696.14	1087.48
696.48	1087.95
696.81	1085.66
697.15	1085.59
697.49	1089.17
697.82	1087.81
698.16	1084.07
698.50	1085.94
698.83	1085.54
699.17	1087.30
699.51	1088.86
699.84	1089.82
700.18	1090.69
700.52	1090.88
700.85	1090.03
701.19	1088.19
701.53	1085.31
701.86	1084.70
702.20	1082.59
702.54	1079.46
702.87	1080.91
703.21	1081.07
703.55	1082.59
703.88	1085.40
704.22	1091.37
704.55	1091.49
704.89	1094.04
705.23	1091.67
705.56	1090.27
705.90	1086.69
706.23	1087.55
706.57	1087.48
706.91	1086.20
707.24	1084.86
707.58	1082.90
707.91	1083.43
708.25	1082.36
708.58	1085.38
708.92	1084.77
709.26	1086.55
709.59	1086.13
709.93	1085.26
710.26	1083.13
710.60	1083.62
710.93	1083.74
711.27	1083.01
711.60	1084.60
711.94	1084.98
712.27	1083.50
712.61	1083.81
712.94	1085.75
713.28	1086.20
713.61	1084.21
713.95	1086.57
714.28	1088.19
714.62	1087.74
714.95	1085.63
715.29	1085.96
715.62	1084.00
715.96	1081.23
716.29	1082.10
716.63	1081.16
716.96	1081.19
717.29	1084.16
717.63	1085.75
717.96	1083.95
718.30	1085.77
718.63	1088.42
718.97	1086.24
719.30	1084.35
719.63	1083.67
719.97	1083.83
720.30	1082.29
720.64	1081.73
720.97	1084.18
721.30	1084.04
721.64	1083.79
721.97	1082.40
722.31	1082.83
722.64	1080.63
722.97	1084.65
723.31	1085.89
723.64	1087.55
723.97	1089.75
724.31	1092.73
724.64	1087.04
724.98	1087.83
725.31	1089.45
725.64	1089.54
725.98	1086.48
726.31	1088.12
726.64	1086.13
726.97	1085.52
727.31	1084.67
727.64	1083.95
727.97	1085.10
728.31	1084.14
728.64	1082.94
728.97	1082.40
729.31	1084.09
729.64	1083.39
729.97	1083.57
730.30	1080.88
730.64	1080.30
730.97	1076.32
731.30	1077.21
731.63	1077.11
731.97	1078.26
732.30	1080.04
732.63	1083.79
732.96	1083.32
733.30	1083.83
733.63	1085.68
733.96	1085.17
734.29	1083.97
734.63	1084.44
734.96	1086.15
735.29	1084.93
735.62	1083.43
735.95	1083.74
736.29	1079.46
736.62	1080.16
736.95	1083.34
737.28	1084.46
737.61	1084.18
737.94	1086.34
738.28	1086.62
738.61	1086.06
738.94	1086.34
739.27	1087.27
739.60	1086.31
739.93	1084.02
740.27	1082.66
740.60	1082.97
740.93	1085.75
741.26	1087.39
741.59	1089.14
741.92	1090.62
742.25	1091.27
742.58	1087.37
742.91	1087.55
743.25	1088.23
743.58	1086.50
743.91	1085.35
744.24	1090.88
744.57	1090.48
744.90	1086.73
745.23	1087.11
745.56	1086.45
745.89	1081.96
746.22	1084.63
746.55	1086.55
746.88	1086.92
747.21	1087.34
747.54	1085.56
747.87	1083.34
748.20	1083.76
748.53	1081.40
748.87	1082.17
749.20	1081.82
749.53	1081.00
749.86	1080.06
750.19	1079.31
750.52	1078.99
750.85	1080.58
751.18	1080.25
751.51	1081.23
751.84	1082.15
752.16	1081.49
752.49	1083.64
752.82	1085.17
753.15	1083.86
753.48	1082.40
753.81	1083.04
754.14	1078.54
754.47	1077.11
754.80	1078.24
755.13	1082.08
755.46	1081.19
755.79	1085.70
756.12	1085.87
756.45	1083.79
756.78	1082.03
757.11	1081.89
757.43	1080.46
757.76	1080.41
758.09	1084.04
758.42	1085.63
758.75	1084.58
759.08	1082.01
759.41	1083.81
759.74	1082.59
760.07	1079.92
760.39	1080.41
760.72	1081.56
761.05	1080.84
761.38	1079.01
761.71	1079.15
762.04	1080.77
762.36	1083.13
762.69	1083.15
763.02	1082.76
763.35	1086.62
763.68	1086.43
764.01	1088.07
764.33	1085.05
764.66	1087.09
764.99	1082.47
765.32	1081.21
765.65	1078.10
765.97	1080.09
766.30	1081.66
766.63	1084.32
766.96	1085.70
767.28	1085.94
767.61	1087.93
767.94	1086.10
768.27	1085.96
768.59	1087.13
768.92	1089.57
769.25	1087.67
769.58	1088.61
769.90	1090.95
770.23	1089.24
770.56	1085.94
770.89	1090.36
771.21	1088.84
771.54	1086.83
771.87	1090.22
772.19	1091.18
772.52	1088.58
772.85	1091.88
773.17	1088.42
773.50	1084.51
773.83	1085.10
774.15	1082.05
774.48	1077.35
774.81	1079.17
775.13	1078.54
775.46	1079.13
775.79	1083.27
776.11	1081.80
776.44	1084.51
776.77	1086.50
777.09	1085.66
777.42	1085.35
777.74	1088.09
778.07	1086.13
778.40	1084.84
778.72	1083.90
779.05	1082.22
779.37	1077.75
779.70	1077.61
780.03	1074.82
780.35	1075.87
780.68	1075.38
781.00	1080.84
781.33	1079.48
781.65	1082.12
781.98	1078.89
782.31	1079.24
782.63	1076.25
782.96	1076.62
783.28	1076.27
783.61	1080.53
783.93	1081.96
784.26	1084.04
784.58	1083.83
784.91	1081.51
785.23	1080.39
785.56	1077.54
785.88	1073.51
786.21	1072.76
786.53	1073.91
786.86	1076.90
787.18	1078.03
787.51	1082.12
787.83	1083.55
788.16	1085.52
788.48	1083.90
788.81	1083.88
789.13	1083.74
789.46	1084.23
789.78	1083.22
790.10	1081.40
790.43	1080.27
790.75	1082.10
791.08	1080.74
791.40	1080.32
791.73	1086.48
792.05	1087.39
792.37	1086.29
792.70	1087.09
793.02	1088.58
793.35	1082.64
793.67	1083.13
793.99	1081.42
794.32	1083.32
794.64	1082.17
794.96	1081.00
795.29	1081.07
795.61	1079.64
795.93	1076.27
796.26	1078.10
796.58	1079.38
796.91	1080.16
797.23	1083.25
797.55	1088.21
797.87	1088.33
798.20	1089.38
798.52	1085.24
798.84	1085.05
799.17	1083.46
799.49	1082.69
799.81	1081.77
800.14	1081.70
800.46	1080.79
800.78	1081.28
801.10	1083.60
801.43	1084.84
801.75	1085.82
802.07	1086.50
802.40	1087.44
802.72	1086.29
803.04	1087.60
803.36	1090.76
803.69	1090.95
804.01	1092.21
804.33	1091.39
804.65	1085.63
804.97	1084.02
805.30	1080.77
805.62	1074.52
805.94	1074.54
806.26	1079.74
806.58	1079.36
806.91	1082.31
807.23	1085.14
807.55	1088.21
807.87	1085.56
808.19	1086.01
808.52	1088.79
808.84	1086.97
809.16	1085.10
809.48	1084.14
809.80	1084.28
810.12	1080.13
810.44	1080.95
810.77	1082.01
811.09	1082.17
811.41	1083.71
811.73	1086.10
812.05	1087.55
812.37	1083.55
812.69	1084.63
813.01	1082.71
813.33	1083.88
813.66	1083.57
813.98	1084.74
814.30	1086.87
814.62	1088.72
814.94	1088.61
815.26	1088.35
815.58	1089.22
815.90	1083.39
816.22	1082.40
816.54	1079.24
816.86	1080.95
817.18	1082.50
817.50	1088.40
817.82	1089.40
818.14	1088.37
818.46	1084.70
818.78	1083.29
819.10	1079.17
819.42	1077.11
819.74	1081.66
820.06	1082.78
820.38	1081.58
820.70	1082.47
821.02	1082.78
821.34	1083.43
821.66	1082.10
821.98	1082.12
822.30	1082.19
822.62	1080.27
822.94	1078.19
823.26	1078.89
823.58	1080.60
823.90	1080.09
824.22	1085.40
824.54	1083.20
824.86	1087.37
825.18	1087.55
825.50	1091.53
825.81	1087.65
826.13	1086.22
826.45	1081.35
826.77	1080.88
827.09	1079.22
827.41	1082.94
827.73	1083.50
828.05	1083.55
828.36	1083.86
828.68	1079.38
829.00	1078.52
829.32	1081.68
829.64	1083.39
829.96	1080.51
830.28	1083.41
830.59	1084.49
830.91	1081.37
831.23	1083.50
831.55	1086.83
831.87	1087.93
832.19	1086.01
832.50	1090.55
832.82	1088.09
833.14	1086.10
833.46	1085.56
833.78	1082.99
834.09	1084.46
834.41	1085.94
834.73	1089.10
835.05	1086.64
835.36	1086.85
835.68	1083.13
836.00	1084.60
836.32	1078.45
836.63	1080.81
836.95	1082.40
837.27	1081.00
837.59	1076.88
837.90	1078.50
838.22	1079.92
838.54	1080.67
838.85	1080.60
839.17	1084.04
839.49	1085.14
839.80	1083.25
840.12	1084.30
840.44	1082.40
840.76	1081.56
841.07	1082.40
841.39	1082.43
841.71	1080.16
842.02	1082.85
842.34	1080.91
842.65	1079.27
842.97	1081.66
843.29	1083.46
843.60	1083.67
843.92	1083.93
844.24	1085.70
844.55	1085.31
844.87	1084.30
845.18	1083.08
845.50	1085.54
845.82	1085.87
846.13	1083.34
846.45	1084.42
846.76	1085.21
847.08	1082.43
847.40	1080.98
847.71	1081.00
848.03	1080.20
848.34	1081.35
848.66	1080.56
848.97	1080.16
849.29	1081.51
849.60	1082.12
849.92	1083.50
850.24	1083.39
850.55	1084.84
850.87	1084.84
851.18	1081.73
851.50	1082.71
851.81	1084.56
852.13	1083.20
852.44	1079.97
852.76	1080.16
853.07	1079.29
853.39	1078.66
853.70	1080.23
854.01	1080.41
854.33	1083.55
854.64	1083.53
854.96	1084.23
855.27	1083.62
855.59	1090.97
855.90	1092.42
856.22	1091.46
856.53	1090.13
856.84	1090.20
857.16	1085.59
857.47	1082.40
857.79	1081.54
858.10	1084.51
858.41	1085.49
858.73	1087.23
859.04	1088.33
859.36	1085.00
859.67	1081.77
859.98	1080.72
860.30	1076.79
860.61	1076.37
860.92	1077.72
861.24	1080.20
861.55	1080.18
861.87	1085.42
862.18	1088.61
862.49	1091.88
862.81	1091.16
863.12	1092.26
863.43	1087.30
863.74	1082.87
864.06	1082.26
864.37	1080.48
864.68	1078.73
865.00	1079.85
865.31	1081.16
865.62	1080.13
865.94	1081.37
866.25	1084.93
866.56	1085.28
866.87	1083.74
867.19	1083.48
867.50	1085.52
867.81	1080.13
868.12	1082.22
868.44	1085.35
868.75	1085.40
869.06	1085.33
869.37	1089.03
869.68	1086.22
870.00	1086.59
870.31	1088.86
870.62	1086.80
870.93	1083.88
871.24	1087.67
871.56	1083.90
871.87	1082.64
872.18	1083.39
872.49	1084.70
872.80	1081.75
873.12	1082.52
873.43	1080.41
873.74	1076.79
874.05	1078.57
874.36	1079.22
874.67	1078.47
874.98	1078.73
875.29	1080.06
875.61	1076.72
875.92	1076.53
876.23	1080.46
876.54	1080.13
876.85	1082.22
877.16	1083.97
877.47	1084.11
877.78	1081.00
878.09	1081.82
878.40	1079.27
878.72	1080.67
879.03	1077.21
879.34	1075.97
879.65	1076.08
879.96	1080.41
880.27	1079.97
880.58	1083.11
880.89	1084.28
881.20	1083.43
881.51	1081.19
881.82	1080.09
882.13	1079.74
882.44	1079.24
882.75	1076.97
883.06	1076.83
883.37	1072.78
883.68	1072.34
883.99	1073.86
884.30	1075.29
884.61	1076.81
884.92	1082.03
885.23	1085.12
885.54	1085.75
885.85	1089.19
886.16	1088.16
886.47	1088.42
886.78	1086.03
887.08	1086.22
887.39	1081.05
887.70	1078.52
888.01	1078.45
888.32	1076.48
888.63	1074.49
888.94	1077.16
889.25	1081.51
889.56	1077.75
889.87	1081.80
890.17	1082.10
890.48	1082.10
890.79	1077.86
891.10	1082.19
891.41	1080.27
891.72	1080.81
892.03	1082.83
892.34	1083.86
892.64	1082.61
892.95	1082.85
893.26	1081.14
893.57	1079.64
893.88	1082.43
894.18	1082.12
894.49	1079.95
894.80	1080.74
895.11	1080.13
895.42	1077.77
895.72	1078.40
896.03	1080.65
896.34	1083.04
896.65	1084.74
896.96	1086.24
897.26	1086.01
897.57	1087.39
897.88	1085.56
898.19	1083.69
898.49	1081.66
898.80	1084.37
899.11	1081.70
899.41	1082.01
899.72	1082.15
900.03	1084.81
900.34	1080.93
900.64	1080.30
900.95	1080.51
901.26	1079.90
901.56	1078.66
901.87	1078.24
902.18	1078.10
902.48	1076.41
902.79	1075.99
903.10	1074.38
903.40	1073.07
903.71	1073.70
904.02	1073.30
904.32	1078.10
904.63	1078.31
904.94	1080.48
905.24	1081.26
905.55	1082.22
905.85	1084.23
906.16	1086.62
906.47	1087.95
906.77	1087.60
907.08	1088.40
907.38	1081.42
907.69	1078.14
908.00	1078.99
908.30	1079.17
908.61	1075.73
908.91	1079.71
909.22	1082.94
909.52	1081.51
909.83	1081.70
910.14	1085.77
910.44	1079.46
910.75	1077.37
911.05	1079.38
911.36	1079.22
911.66	1078.85
911.97	1086.90
912.27	1086.62
912.58	1084.44
912.88	1083.57
913.19	1084.18
913.49	1084.11
913.80	1083.79
914.10	1082.15
914.41	1081.77
914.71	1080.34
915.01	1079.31
915.32	1079.57
915.62	1079.78
915.93	1081.54
916.23	1085.38
916.54	1085.63
916.84	1085.84
917.15	1085.77
917.45	1085.47
917.75	1080.18
918.06	1076.58
918.36	1076.39
918.67	1074.91
918.97	1070.91
919.27	1073.18
919.58	1072.20
919.88	1074.80
920.18	1079.27
920.49	1081.77
920.79	1081.21
921.10	1083.86
921.40	1081.42
921.70	1079.48
922.01	1082.33
922.31	1084.11
922.61	1083.06
922.92	1084.42
923.22	1083.95
923.52	1082.24
923.82	1080.32
924.13	1080.98
924.43	1079.41
924.73	1080.79
925.04	1080.16
925.34	1081.89
925.64	1082.31
925.94	1079.29
926.25	1079.60
926.55	1081.68
926.85	1082.90
927.15	1082.85
927.46	1086.45
927.76	1084.30
928.06	1085.84
928.36	1084.84
928.67	1084.70
928.97	1084.89
929.27	1088.42
929.57	1084.51
929.87	1080.86
930.18	1078.75
930.48	1081.84
930.78	1079.69
931.08	1076.06
931.38	1077.47
931.69	1079.03
931.99	1077.04
932.29	1077.96
932.59	1082.40
932.89	1085.45
933.19	1085.24
933.49	1085.59
933.80	1084.21
934.10	1085.47
934.40	1082.24
934.70	1081.56
935.00	1081.58
935.30	1079.99
935.60	1080.74
935.90	1081.14
936.20	1081.00
936.50	1078.47
936.81	1080.16
937.11	1079.90
937.41	1078.54
937.71	1080.23
938.01	1082.73
938.31	1084.07
938.61	1082.45
938.91	1085.24
939.21	1083.60
939.51	1083.60
939.81	1085.33
940.11	1087.60
940.41	1088.37
940.71	1088.82
941.01	1086.43
941.31	1082.59
941.61	1083.20
941.91	1081.54
942.21	1085.03
942.51	1087.46
942.81	1085.31
943.11	1082.97
943.41	1085.19
943.71	1082.03
944.01	1083.60
944.31	1084.65
944.61	1087.09
944.90	1086.45
945.20	1086.48
945.50	1084.35
945.80	1086.76
946.10	1083.81
946.40	1082.97
946.70	1083.22
947.00	1084.65
947.30	1084.37
947.60	1083.50
947.89	1081.73
948.19	1080.95
948.49	1077.09
948.79	1078.19
949.09	1080.32
949.39	1084.21
949.69	1087.41
949.98	1087.44
950.28	1084.65
950.58	1082.64
950.88	1077.18
951.18	1075.20
951.48	1077.75
951.77	1082.80
952.07	1081.82
952.37	1085.10
952.67	1082.99
952.97	1082.66
953.26	1079.10
953.56	1081.09
953.86	1080.88
954.16	1085.89
954.45	1085.68
954.75	1086.69
955.05	1086.06
955.35	1086.78
955.64	1082.12
955.94	1081.00
956.24	1075.03
956.54	1075.73
956.83	1074.33
957.13	1076.08
957.43	1076.53
957.72	1081.63
958.02	1083.06
958.32	1083.64
958.61	1083.22
958.91	1079.38
959.21	1079.71
959.50	1078.12
959.80	1077.11
960.10	1076.04
960.39	1082.19
960.69	1081.47
960.99	1079.46
961.28	1081.61
961.58	1085.21
961.87	1081.63
962.17	1080.60
962.47	1081.61
962.76	1081.26
963.06	1077.82
963.36	1079.88
963.65	1082.71
963.95	1083.53
964.24	1085.24
964.54	1086.08
964.83	1086.87
965.13	1086.87
965.42	1087.97
965.72	1086.78
966.02	1085.47
966.31	1082.69
966.61	1082.31
966.90	1080.18
967.20	1076.93
967.49	1077.65
967.79	1077.02
968.08	1075.22
968.38	1076.83
968.67	1076.97
968.97	1076.88
969.26	1081.61
969.56	1081.28
969.85	1077.58
970.15	1079.01
970.44	1077.51
970.74	1075.41
971.03	1077.68
971.32	1081.49
971.62	1081.94
971.91	1086.06
972.21	1084.51
972.50	1083.60
972.80	1079.15
973.09	1076.44
973.38	1074.10
973.68	1077.07
973.97	1074.03
974.27	1076.44
974.56	1078.61
974.85	1079.85
975.15	1078.73
975.44	1083.11
975.73	1088.00
976.03	1087.95
976.32	1086.76
976.61	1088.07
976.91	1088.30
977.20	1085.52
977.49	1086.73
977.79	1086.10
978.08	1085.26
978.37	1083.53
978.67	1081.16
978.96	1080.41
979.25	1081.33
979.55	1080.65
979.84	1079.36
980.13	1079.71
980.42	1080.34
980.72	1082.08
981.01	1079.29
981.30	1079.15
981.59	1080.02
981.89	1080.16
982.18	1075.73
982.47	1078.10
982.76	1081.12
983.06	1081.91
983.35	1078.82
983.64	1080.86
983.93	1080.72
984.22	1077.61
984.52	1075.92
984.81	1075.43
985.10	1074.05
985.39	1074.75
985.68	1074.84
985.97	1075.55
986.27	1080.74
986.56	1082.26
986.85	1082.47
987.14	1086.38
987.43	1086.94
987.72	1083.39
988.01	1084.18
988.31	1083.18
988.60	1082.69
988.89	1079.97
989.18	1081.54
989.47	1081.23
989.76	1084.21
990.05	1081.00
990.34	1080.25
990.63	1078.94
990.92	1079.62
991.21	1079.10
991.51	1079.55
991.80	1083.15
992.09	1084.39
992.38	1087.13
992.67	1085.77
992.96	1088.00
993.25	1090.71
993.54	1091.86
993.83	1087.41
994.12	1088.56
994.41	1084.42
994.70	1083.64
994.99	1083.67
995.28	1087.39
995.57	1085.99
995.86	1086.92
996.15	1083.36
996.44	1082.29
996.73	1080.67
997.02	1078.75
997.31	1081.56
997.59	1082.45
997.88	1079.95
998.17	1079.81
998.46	1080.16
998.75	1081.35
999.04	1082.31
999.33	1083.93
999.62	1083.48
999.91	1082.78
1000.20	1080.41
1000.49	1078.31
1000.77	1077.54
1001.06	1078.57
1001.35	1080.93
1001.64	1081.84
1001.93	1085.49
1002.22	1084.86
1002.51	1085.40
1002.79	1084.67
1003.08	1083.08
1003.37	1080.09
1003.66	1081.94
1003.95	1082.85
1004.23	1084.81
1004.52	1087.37
1004.81	1087.83
1005.10	1086.62
1005.39	1082.33
1005.67	1081.40
1005.96	1080.58
1006.25	1078.85
1006.54	1079.71
1006.83	1079.78
1007.11	1080.46
1007.40	1080.56
1007.69	1082.19
1007.97	1080.84
1008.26	1082.71
1008.55	1082.36
1008.84	1080.67
1009.12	1082.29
1009.41	1085.21
1009.70	1082.01
1009.98	1080.81
1010.27	1081.12
1010.56	1077.86
1010.85	1075.57
1011.13	1076.95
1011.42	1077.42
1011.71	1079.22
1011.99	1083.13
1012.28	1085.84
1012.56	1088.30
1012.85	1090.01
1013.14	1086.15
1013.42	1085.17
1013.71	1082.26
1014.00	1086.13
1014.28	1086.24
1014.57	1086.71
1014.85	1086.01
1015.14	1087.20
1015.43	1080.53
1015.71	1076.30
1016.00	1083.34
1016.28	1083.50
1016.57	1083.95
1016.85	1086.87
1017.14	1090.08
1017.43	1086.01
1017.71	1087.46
1018.00	1085.42
1018.28	1084.07
1018.57	1082.64
1018.85	1081.21
1019.14	1079.22
1019.42	1080.46
1019.71	1082.69
1019.99	1083.74
1020.28	1083.04
1020.56	1084.35
1020.85	1083.62
1021.13	1081.30
1021.42	1081.37
1021.70	1082.64
1021.99	1082.01
1022.27	1082.78
1022.55	1082.15
1022.84	1081.56
>>>>>End Processed Spectral Data<<<<<
