SpectraSuite Data File
++++++++++++++++++++++++++++++++++++
Date: Mon Aug 26 10:26:34 PDT 2019
User: corrico
Dark Spectrum Present: No
Reference Spectrum Present: No
Number of Sampled Component Spectra: 1
Spectrometers: USB2+H06089
Integration Time (usec): 10000 (USB2+H06089)
Spectra Averaged: 20 (USB2+H06089)
Boxcar Smoothing: 2 (USB2+H06089)
Correct for Electrical Dark: No (USB2+H06089)
Strobe/Lamp Enabled: No (USB2+H06089)
Correct for Detector Non-linearity: No (USB2+H06089)
Correct for Stray Light: No (USB2+H06089)
Number of Pixels in Processed Spectrum: 2048
>>>>>Begin Processed Spectral Data<<<<<
339.70	1033.70
340.07	1033.70
340.45	993.49
340.82	973.12
341.19	949.70
341.57	924.28
341.94	917.54
342.31	912.04
342.69	907.12
343.06	903.87
343.43	899.14
343.81	899.54
344.18	901.53
344.55	905.34
344.93	908.29
345.30	919.48
345.67	927.23
346.04	936.80
346.42	944.31
346.79	957.00
347.16	965.59
347.54	974.04
347.91	982.42
348.28	989.72
348.65	995.94
349.03	1004.77
349.40	1016.59
349.77	1025.01
350.14	1035.85
350.52	1042.94
350.89	1048.68
351.26	1050.01
351.63	1056.80
352.01	1061.88
352.38	1066.79
352.75	1068.29
353.12	1073.00
353.50	1075.97
353.87	1077.68
354.24	1080.04
354.61	1088.49
354.98	1092.98
355.36	1091.72
355.73	1091.37
356.10	1092.80
356.47	1088.65
356.84	1086.92
357.22	1088.33
357.59	1087.95
357.96	1088.04
358.33	1090.46
358.70	1088.70
359.08	1086.50
359.45	1085.73
359.82	1087.65
360.19	1084.58
360.56	1085.10
360.94	1086.24
361.31	1086.10
361.68	1080.25
362.05	1078.50
362.42	1079.62
362.79	1081.80
363.16	1081.66
363.54	1082.85
363.91	1086.90
364.28	1085.91
364.65	1083.57
365.02	1082.33
365.39	1082.38
365.76	1081.56
366.14	1079.83
366.51	1079.27
366.88	1080.20
367.25	1082.33
367.62	1080.04
367.99	1077.56
368.36	1075.97
368.73	1076.60
369.10	1075.20
369.48	1077.35
369.85	1082.22
370.22	1083.48
370.59	1083.67
370.96	1084.72
371.33	1082.61
371.70	1081.63
372.07	1081.51
372.44	1080.84
372.81	1081.84
373.18	1081.44
373.55	1082.08
373.93	1082.40
374.30	1084.18
374.67	1081.44
375.04	1085.59
375.41	1085.10
375.78	1083.76
376.15	1080.84
376.52	1079.92
376.89	1078.14
377.26	1074.80
377.63	1077.42
378.00	1081.19
378.37	1082.26
378.74	1082.05
379.11	1084.74
379.48	1086.10
379.85	1085.52
380.22	1086.69
380.59	1085.05
380.96	1082.31
381.33	1083.69
381.70	1082.80
382.07	1083.53
382.44	1085.63
382.81	1086.87
383.18	1084.60
383.55	1083.01
383.92	1083.18
384.29	1081.56
384.66	1085.40
385.03	1081.47
385.40	1083.55
385.77	1081.19
386.14	1083.27
386.51	1082.40
386.88	1085.33
387.25	1083.90
387.62	1082.94
387.99	1080.79
388.36	1079.71
388.73	1077.72
389.10	1078.80
389.46	1083.88
389.83	1084.86
390.20	1084.11
390.57	1084.49
390.94	1084.04
391.31	1083.08
391.68	1083.08
392.05	1086.45
392.42	1087.25
392.79	1088.68
393.16	1087.27
393.53	1086.22
393.89	1083.20
394.26	1085.75
394.63	1087.74
395.00	1088.75
395.37	1090.27
395.74	1091.30
396.11	1092.75
396.48	1088.77
396.84	1088.37
397.21	1089.31
397.58	1087.53
397.95	1085.63
398.32	1085.63
398.69	1083.46
399.06	1080.44
399.42	1082.99
399.79	1082.99
400.16	1085.03
400.53	1084.96
400.90	1086.66
401.27	1084.98
401.64	1085.96
402.00	1084.23
402.37	1087.58
402.74	1087.74
403.11	1090.03
403.48	1089.73
403.84	1092.21
404.21	1092.35
404.58	1092.80
404.95	1092.87
405.32	1092.70
405.68	1093.90
406.05	1093.83
406.42	1095.11
406.79	1094.86
407.16	1096.63
407.52	1096.47
407.89	1096.78
408.26	1095.96
408.63	1095.25
408.99	1092.07
409.36	1088.86
409.73	1087.13
410.10	1088.09
410.47	1087.93
410.83	1093.19
411.20	1098.20
411.57	1102.88
411.94	1104.64
412.30	1105.25
412.67	1104.52
413.04	1102.21
413.40	1102.63
413.77	1102.60
414.14	1106.16
414.51	1105.18
414.87	1107.52
415.24	1104.57
415.61	1103.87
415.97	1104.57
416.34	1103.89
416.71	1101.53
417.08	1103.09
417.44	1104.19
417.81	1103.56
418.18	1104.66
418.54	1106.63
418.91	1104.24
419.28	1103.56
419.64	1100.59
420.01	1100.92
420.38	1102.06
420.74	1107.99
421.11	1105.18
421.48	1109.60
421.84	1112.22
422.21	1109.11
422.58	1105.20
422.94	1108.59
423.31	1107.35
423.68	1105.01
424.04	1107.07
424.41	1107.54
424.77	1109.06
425.14	1109.88
425.51	1111.03
425.87	1112.01
426.24	1111.50
426.61	1111.85
426.97	1109.88
427.34	1108.64
427.70	1108.78
428.07	1112.22
428.44	1110.72
428.80	1113.07
429.17	1112.08
429.53	1113.60
429.90	1115.45
430.27	1118.89
430.63	1120.18
431.00	1124.46
431.36	1123.13
431.73	1122.12
432.09	1120.16
432.46	1115.29
432.83	1111.66
433.19	1112.27
433.56	1112.36
433.92	1113.37
434.29	1118.33
434.65	1120.70
435.02	1122.73
435.38	1121.30
435.75	1121.56
436.11	1120.13
436.48	1117.56
436.84	1113.81
437.21	1113.44
437.57	1109.53
437.94	1107.82
438.30	1110.19
438.67	1111.52
439.03	1108.88
439.40	1112.11
439.76	1114.94
440.13	1110.51
440.49	1110.02
440.86	1114.52
441.22	1112.78
441.59	1111.92
441.95	1114.00
442.32	1111.36
442.68	1110.35
443.05	1111.43
443.41	1109.95
443.78	1112.25
444.14	1115.01
444.51	1109.06
444.87	1109.58
445.24	1111.64
445.60	1111.10
445.96	1107.80
446.33	1112.53
446.69	1111.64
447.06	1106.89
447.42	1105.46
447.79	1106.35
448.15	1104.55
448.51	1104.03
448.88	1103.89
449.24	1103.40
449.61	1103.16
449.97	1103.16
450.33	1102.51
450.70	1103.94
451.06	1104.12
451.43	1106.49
451.79	1107.99
452.15	1109.18
452.52	1113.18
452.88	1111.66
453.24	1109.93
453.61	1109.13
453.97	1109.84
454.34	1107.05
454.70	1110.82
455.06	1113.81
455.43	1115.03
455.79	1116.08
456.15	1117.37
456.52	1116.76
456.88	1117.65
457.24	1117.47
457.61	1114.02
457.97	1111.47
458.33	1109.84
458.70	1107.42
459.06	1106.98
459.42	1106.14
459.79	1107.61
460.15	1106.58
460.51	1106.68
460.88	1105.93
461.24	1106.93
461.60	1109.46
461.96	1112.76
462.33	1117.32
462.69	1120.98
463.05	1124.21
463.42	1123.78
463.78	1123.97
464.14	1120.86
464.50	1120.02
464.87	1121.44
465.23	1122.94
465.59	1121.91
465.95	1123.13
466.32	1128.35
466.68	1130.13
467.04	1128.51
467.40	1129.82
467.77	1132.02
468.13	1129.73
468.49	1130.74
468.85	1133.52
469.22	1133.31
469.58	1135.98
469.94	1135.35
470.30	1136.05
470.66	1138.81
471.03	1146.46
471.39	1146.00
471.75	1150.98
472.11	1149.86
472.47	1151.17
472.84	1151.26
473.20	1155.94
473.56	1156.46
473.92	1162.80
474.28	1165.42
474.65	1168.89
475.01	1169.59
475.37	1173.33
475.73	1175.63
476.09	1181.92
476.45	1187.85
476.81	1197.51
477.18	1201.89
477.54	1206.80
477.90	1211.72
478.26	1218.55
478.62	1220.94
478.98	1227.38
479.34	1237.35
479.71	1245.47
480.07	1249.92
480.43	1258.58
480.79	1267.42
481.15	1277.02
481.51	1286.17
481.87	1298.83
482.23	1312.39
482.59	1327.62
482.96	1343.75
483.32	1357.77
483.68	1367.81
484.04	1379.39
484.40	1391.68
484.76	1406.08
485.12	1421.01
485.48	1445.49
485.84	1468.52
486.20	1496.09
486.56	1519.83
486.92	1546.23
487.28	1573.40
487.64	1599.48
488.00	1623.89
488.37	1652.54
488.73	1686.89
489.09	1716.10
489.45	1753.39
489.81	1785.38
490.17	1823.60
490.53	1863.39
490.89	1904.03
491.25	1945.34
491.61	1997.76
491.97	2045.14
492.33	2096.91
492.69	2150.86
493.05	2202.00
493.41	2258.78
493.77	2318.39
494.13	2384.44
494.49	2454.71
494.85	2528.25
495.21	2600.90
495.57	2685.06
495.93	2764.83
496.29	2849.81
496.64	2948.96
497.00	3046.16
497.36	3139.50
497.72	3246.07
498.08	3360.56
498.44	3471.97
498.80	3598.57
499.16	3731.98
499.52	3871.57
499.88	4020.36
500.24	4183.50
500.60	4339.56
500.96	4507.99
501.32	4674.80
501.68	4849.52
502.03	5030.40
502.39	5246.73
502.75	5452.65
503.11	5688.20
503.47	5926.47
503.83	6181.66
504.19	6427.39
504.55	6711.18
504.91	6980.88
505.26	7259.62
505.62	7553.24
505.98	7883.88
506.34	8215.82
506.70	8588.60
507.06	8978.27
507.42	9391.75
507.78	9797.11
508.13	10222.38
508.49	10659.13
508.85	11130.75
509.21	11611.73
509.57	12139.56
509.93	12695.65
510.28	13288.44
510.64	13913.45
511.00	14537.23
511.36	15128.31
511.72	15727.35
512.07	16385.69
512.43	17003.66
512.79	17670.76
513.15	18413.30
513.51	19176.52
513.86	19898.04
514.22	20713.55
514.58	21513.06
514.94	22336.18
515.30	23175.56
515.65	24011.20
516.01	24879.29
516.37	25749.61
516.73	26545.98
517.08	27433.30
517.44	28285.82
517.80	29082.89
518.16	29951.44
518.51	30781.67
518.87	31524.68
519.23	32396.88
519.59	33294.57
519.94	34127.84
520.30	35012.05
520.66	35787.70
521.01	36569.68
521.37	37254.40
521.73	37865.75
522.09	38493.90
522.44	39138.65
522.80	39564.95
523.16	39912.43
523.51	40176.72
523.87	40447.22
524.23	40730.47
524.58	41003.00
524.94	41396.98
525.30	41738.84
525.65	41933.76
526.01	41957.08
526.37	41942.38
526.72	41860.39
527.08	41732.13
527.44	41536.62
527.79	41409.48
528.15	41326.86
528.51	41090.44
528.86	40869.52
529.22	40640.66
529.58	40356.78
529.93	39944.92
530.29	39522.64
530.65	39150.73
531.00	38803.58
531.36	38359.70
531.71	37908.00
532.07	37429.99
532.43	36818.36
532.78	36142.51
533.14	35562.64
533.49	34979.68
533.85	34322.69
534.21	33717.24
534.56	33152.80
534.92	32552.99
535.27	31930.17
535.63	31349.39
535.98	30738.65
536.34	30105.61
536.69	29445.72
537.05	28809.26
537.41	28269.62
537.76	27762.38
538.12	27193.19
538.47	26724.10
538.83	26293.51
539.18	25820.93
539.54	25348.05
539.89	24912.83
540.25	24378.15
540.60	23875.06
540.96	23368.59
541.31	22859.99
541.67	22410.75
542.02	22011.94
542.38	21574.66
542.73	21116.22
543.09	20733.42
543.44	20401.23
543.80	20065.55
544.15	19681.49
544.51	19366.88
544.86	19057.09
545.22	18679.18
545.57	18278.32
545.93	17913.88
546.28	17572.04
546.64	17230.13
546.99	16871.38
547.35	16544.80
547.70	16249.66
548.05	15934.25
548.41	15606.60
548.76	15306.78
549.12	15025.16
549.47	14749.12
549.83	14492.76
550.18	14190.71
550.53	13871.00
550.89	13595.70
551.24	13322.75
551.60	13016.21
551.95	12753.32
552.30	12513.96
552.66	12261.62
553.01	11999.08
553.37	11736.27
553.72	11466.31
554.07	11194.17
554.43	10906.92
554.78	10619.15
555.13	10351.53
555.49	10120.41
555.84	9930.92
556.19	9743.23
556.55	9547.33
556.90	9355.21
557.26	9153.02
557.61	8926.22
557.96	8687.72
558.32	8489.54
558.67	8288.75
559.02	8065.06
559.37	7882.97
559.73	7732.05
560.08	7570.28
560.43	7414.40
560.79	7280.80
561.14	7121.10
561.49	6948.98
561.85	6785.63
562.20	6631.84
562.55	6502.41
562.90	6379.69
563.26	6257.77
563.61	6142.62
563.96	6033.90
564.32	5912.59
564.67	5778.90
565.02	5657.07
565.37	5548.17
565.73	5442.56
566.08	5336.77
566.43	5241.02
566.78	5136.00
567.14	5020.82
567.49	4904.57
567.84	4799.48
568.19	4683.76
568.54	4590.89
568.90	4501.86
569.25	4421.90
569.60	4339.82
569.95	4273.14
570.31	4195.34
570.66	4116.30
571.01	4023.52
571.36	3931.89
571.71	3846.46
572.06	3779.33
572.42	3718.74
572.77	3666.80
573.12	3616.20
573.47	3557.15
573.82	3492.34
574.18	3425.00
574.53	3362.37
574.88	3307.06
575.23	3258.52
575.58	3208.20
575.93	3156.70
576.28	3108.02
576.64	3050.70
576.99	2989.03
577.34	2932.50
577.69	2880.97
578.04	2824.54
578.39	2775.90
578.74	2742.05
579.09	2699.74
579.44	2660.84
579.80	2622.15
580.15	2581.45
580.50	2538.15
580.85	2506.03
581.20	2470.32
581.55	2441.62
581.90	2413.75
582.25	2383.34
582.60	2346.83
582.95	2313.81
583.30	2275.63
583.65	2243.75
584.00	2212.30
584.35	2179.27
584.71	2147.09
585.06	2119.28
585.41	2084.53
585.76	2052.09
586.11	2026.76
586.46	1997.55
586.81	1975.13
587.16	1956.43
587.51	1940.75
587.86	1921.04
588.21	1905.90
588.56	1882.56
588.91	1860.89
589.26	1836.92
589.61	1813.24
589.96	1796.01
590.31	1780.33
590.66	1767.81
591.01	1754.82
591.36	1742.25
591.71	1723.55
592.06	1703.04
592.41	1683.57
592.76	1668.73
593.10	1651.13
593.45	1635.12
593.80	1620.73
594.15	1604.11
594.50	1586.65
594.85	1573.87
595.20	1563.85
595.55	1555.59
595.90	1543.79
596.25	1535.06
596.60	1525.44
596.95	1512.76
597.30	1504.66
597.64	1549.32
597.99	1539.89
598.34	1531.34
598.69	1524.41
599.04	1514.26
599.39	1457.38
599.74	1446.87
600.09	1435.52
600.44	1426.21
600.78	1416.12
601.13	1406.17
601.48	1398.99
601.83	1395.24
602.18	1385.64
602.53	1383.47
602.88	1375.98
603.22	1370.80
603.57	1365.19
603.92	1363.20
604.27	1354.00
604.62	1349.83
604.97	1342.32
605.31	1334.06
605.66	1326.48
606.01	1318.28
606.36	1310.54
606.71	1304.08
607.05	1297.38
607.40	1295.37
607.75	1293.97
608.10	1287.88
608.44	1284.58
608.79	1284.04
609.14	1276.20
609.49	1269.32
609.84	1267.63
610.18	1267.52
610.53	1258.01
610.88	1259.11
611.23	1258.60
611.57	1254.18
611.92	1248.56
612.27	1248.16
612.62	1240.02
612.96	1237.63
613.31	1234.09
613.66	1225.50
614.00	1222.81
614.35	1220.85
614.70	1219.30
615.05	1217.87
615.39	1221.20
615.74	1218.88
616.09	1215.74
616.43	1209.50
616.78	1205.26
617.13	1202.03
617.47	1195.73
617.82	1189.41
618.17	1185.48
618.51	1185.43
618.86	1179.28
619.21	1181.01
619.55	1178.93
619.90	1177.76
620.25	1174.57
620.59	1177.50
620.94	1174.88
621.29	1176.70
621.63	1172.75
621.98	1169.10
622.32	1163.13
622.67	1160.04
623.02	1157.23
623.36	1155.85
623.71	1157.09
624.05	1152.76
624.40	1150.68
624.75	1150.72
625.09	1150.68
625.44	1146.86
625.78	1147.92
626.13	1146.42
626.48	1144.80
626.82	1143.14
627.17	1143.61
627.51	1145.01
627.86	1144.19
628.20	1144.19
628.55	1144.05
628.89	1141.64
629.24	1139.98
629.58	1143.16
629.93	1140.99
630.28	1141.15
630.62	1137.83
630.97	1137.36
631.31	1130.10
631.66	1127.48
632.00	1124.70
632.35	1125.59
632.69	1123.76
633.04	1123.57
633.38	1124.96
633.73	1122.94
634.07	1122.50
634.42	1120.16
634.76	1121.00
635.11	1117.86
635.45	1115.78
635.79	1114.68
636.14	1112.55
636.48	1111.40
636.83	1113.42
637.17	1113.56
637.52	1114.42
637.86	1113.77
638.21	1116.53
638.55	1114.94
638.89	1112.62
639.24	1111.75
639.58	1114.63
639.93	1112.55
640.27	1113.58
640.61	1113.56
640.96	1114.82
641.30	1111.54
641.65	1111.19
641.99	1109.46
642.33	1109.79
642.68	1106.70
643.02	1109.41
643.37	1107.47
643.71	1106.32
644.05	1107.33
644.40	1107.49
644.74	1101.62
645.08	1100.15
645.43	1099.65
645.77	1101.95
646.11	1104.43
646.46	1105.95
646.80	1109.16
647.14	1107.42
647.49	1103.45
647.83	1100.94
648.17	1103.23
648.52	1100.03
648.86	1100.45
649.20	1104.64
649.55	1102.02
649.89	1102.23
650.23	1102.74
650.57	1100.43
650.92	1100.47
651.26	1099.58
651.60	1097.59
651.95	1097.73
652.29	1099.21
652.63	1096.10
652.97	1097.45
653.32	1095.18
653.66	1095.23
654.00	1099.42
654.34	1098.55
654.69	1097.69
655.03	1100.85
655.37	1099.16
655.71	1094.90
656.05	1095.93
656.40	1097.62
656.74	1096.63
657.08	1097.55
657.42	1098.55
657.76	1098.51
658.11	1096.31
658.45	1098.46
658.79	1099.12
659.13	1099.12
659.47	1098.83
659.82	1099.56
660.16	1097.29
660.50	1096.35
660.84	1097.31
661.18	1098.79
661.52	1098.72
661.87	1096.38
662.21	1098.20
662.55	1098.34
662.89	1095.28
663.23	1096.26
663.57	1099.79
663.91	1098.90
664.25	1096.78
664.60	1099.93
664.94	1097.99
665.28	1095.65
665.62	1096.24
665.96	1096.68
666.30	1096.28
666.64	1098.76
666.98	1099.21
667.32	1097.38
667.66	1096.17
668.01	1093.26
668.35	1090.90
668.69	1091.27
669.03	1091.77
669.37	1093.57
669.71	1097.06
670.05	1095.67
670.39	1097.48
670.73	1097.88
671.07	1098.44
671.41	1096.66
671.75	1097.17
672.09	1096.19
672.43	1096.12
672.77	1092.49
673.11	1091.06
673.45	1088.77
673.79	1087.18
674.13	1088.30
674.47	1089.45
674.81	1090.76
675.15	1091.20
675.49	1092.42
675.83	1091.53
676.17	1095.32
676.51	1094.32
676.85	1098.18
677.19	1094.04
677.53	1091.91
677.87	1087.95
678.21	1088.47
678.55	1087.25
678.89	1088.82
679.23	1087.06
679.57	1088.14
679.90	1088.12
680.24	1086.69
680.58	1087.16
680.92	1089.59
681.26	1087.97
681.60	1085.77
681.94	1084.51
682.28	1084.96
682.62	1086.03
682.96	1089.31
683.29	1092.63
683.63	1092.66
683.97	1092.56
684.31	1091.11
684.65	1089.07
684.99	1085.91
685.33	1085.12
685.67	1085.94
686.00	1086.73
686.34	1084.91
686.68	1086.17
687.02	1087.11
687.36	1085.52
687.70	1083.64
688.03	1084.98
688.37	1083.20
688.71	1087.46
689.05	1089.24
689.39	1089.80
689.72	1092.70
690.06	1093.26
690.40	1092.30
690.74	1091.77
691.08	1091.84
691.41	1089.07
691.75	1089.12
692.09	1086.71
692.43	1085.05
692.76	1087.18
693.10	1086.10
693.44	1088.28
693.78	1089.66
694.11	1091.44
694.45	1092.35
694.79	1091.67
695.13	1091.63
695.46	1092.00
695.80	1090.90
696.14	1089.92
696.48	1091.91
696.81	1090.92
697.15	1091.27
697.49	1093.90
697.82	1090.17
698.16	1090.74
698.50	1092.82
698.83	1091.56
699.17	1088.70
699.51	1090.67
699.84	1089.45
700.18	1087.13
700.52	1088.51
700.85	1088.30
701.19	1087.88
701.53	1084.18
701.86	1085.47
702.20	1082.94
702.54	1085.75
702.87	1084.72
703.21	1087.44
703.55	1087.30
703.88	1089.03
704.22	1089.66
704.55	1094.22
704.89	1095.14
705.23	1092.40
705.56	1092.96
705.90	1088.82
706.23	1085.10
706.57	1086.43
706.91	1089.05
707.24	1087.62
707.58	1091.20
707.91	1090.67
708.25	1091.39
708.58	1092.59
708.92	1091.77
709.26	1090.67
709.59	1092.54
709.93	1089.82
710.26	1085.75
710.60	1088.49
710.93	1085.84
711.27	1084.09
711.60	1086.08
711.94	1086.73
712.27	1086.43
712.61	1087.62
712.94	1090.32
713.28	1089.05
713.61	1090.39
713.95	1088.40
714.28	1089.14
714.62	1088.00
714.95	1086.99
715.29	1082.29
715.62	1085.19
715.96	1083.50
716.29	1083.32
716.63	1084.07
716.96	1090.36
717.29	1086.97
717.63	1086.69
717.96	1087.83
718.30	1088.37
718.63	1085.17
718.97	1087.46
719.30	1088.35
719.63	1087.90
719.97	1085.94
720.30	1086.03
720.64	1082.64
720.97	1081.26
721.30	1080.18
721.64	1079.24
721.97	1078.96
722.31	1082.36
722.64	1085.63
722.97	1088.12
723.31	1092.98
723.64	1095.00
723.97	1092.98
724.31	1090.48
724.64	1082.73
724.98	1080.41
725.31	1076.88
725.64	1077.49
725.98	1078.33
726.31	1083.86
726.64	1083.81
726.97	1085.70
727.31	1088.33
727.64	1086.90
727.97	1086.03
728.31	1087.58
728.64	1088.23
728.97	1084.70
729.31	1083.34
729.64	1084.37
729.97	1083.39
730.30	1081.54
730.64	1081.07
730.97	1085.12
731.30	1085.63
731.63	1085.33
731.97	1090.43
732.30	1093.17
732.63	1092.84
732.96	1087.74
733.30	1090.36
733.63	1090.64
733.96	1090.92
734.29	1091.02
734.63	1094.57
734.96	1092.82
735.29	1089.12
735.62	1088.00
735.95	1088.26
736.29	1089.12
736.62	1090.10
736.95	1089.96
737.28	1091.16
737.61	1087.46
737.94	1086.15
738.28	1083.71
738.61	1083.32
738.94	1082.33
739.27	1085.70
739.60	1086.71
739.93	1087.74
740.27	1088.84
740.60	1091.06
740.93	1087.93
741.26	1087.34
741.59	1087.44
741.92	1086.55
742.25	1085.24
742.58	1087.86
742.91	1088.04
743.25	1086.52
743.58	1086.78
743.91	1085.17
744.24	1085.40
744.57	1087.06
744.90	1087.44
745.23	1088.14
745.56	1087.16
745.89	1090.83
746.22	1086.57
746.55	1088.68
746.88	1086.78
747.21	1088.21
747.54	1081.87
747.87	1085.00
748.20	1086.62
748.53	1085.99
748.87	1086.55
749.20	1090.20
749.53	1093.17
749.86	1089.00
750.19	1092.12
750.52	1091.39
750.85	1090.90
751.18	1090.03
751.51	1090.34
751.84	1090.24
752.16	1088.28
752.49	1086.76
752.82	1085.89
753.15	1086.24
753.48	1085.21
753.81	1088.61
754.14	1090.43
754.47	1087.46
754.80	1086.57
755.13	1084.77
755.46	1085.10
755.79	1084.21
756.12	1090.01
756.45	1093.76
756.78	1096.38
757.11	1095.46
757.43	1092.61
757.76	1086.80
758.09	1084.74
758.42	1084.77
758.75	1084.86
759.08	1086.24
759.41	1086.52
759.74	1084.28
760.07	1086.71
760.39	1086.13
760.72	1089.75
761.05	1093.80
761.38	1096.35
761.71	1093.01
762.04	1093.31
762.36	1090.90
762.69	1087.69
763.02	1087.37
763.35	1087.72
763.68	1087.90
764.01	1088.44
764.33	1087.69
764.66	1087.44
764.99	1086.80
765.32	1084.60
765.65	1084.30
765.97	1088.35
766.30	1089.22
766.63	1091.16
766.96	1092.07
767.28	1090.71
767.61	1084.42
767.94	1081.66
768.27	1079.06
768.59	1077.07
768.92	1080.16
769.25	1083.01
769.58	1085.77
769.90	1086.48
770.23	1088.96
770.56	1086.38
770.89	1086.41
771.21	1085.12
771.54	1083.18
771.87	1083.95
772.19	1082.83
772.52	1084.11
772.85	1084.02
773.17	1086.59
773.50	1087.09
773.83	1089.52
774.15	1089.59
774.48	1089.14
774.81	1090.17
775.13	1088.86
775.46	1089.29
775.79	1085.21
776.11	1086.62
776.44	1083.29
776.77	1080.58
777.09	1076.25
777.42	1077.54
777.74	1076.13
778.07	1076.44
778.40	1077.56
778.72	1079.31
779.05	1079.53
779.37	1078.50
779.70	1084.14
780.03	1085.45
780.35	1085.12
780.68	1087.37
781.00	1089.99
781.33	1083.69
781.65	1082.36
781.98	1084.46
782.31	1084.11
782.63	1084.65
782.96	1084.35
783.28	1085.54
783.61	1081.09
783.93	1078.36
784.26	1077.14
784.58	1082.22
784.91	1081.63
785.23	1085.40
785.56	1088.00
785.88	1086.71
786.21	1082.69
786.53	1084.16
786.86	1084.77
787.18	1082.17
787.51	1083.46
787.83	1083.01
788.16	1081.63
788.48	1079.27
788.81	1084.14
789.13	1086.99
789.46	1089.47
789.78	1090.17
790.10	1094.29
790.43	1094.36
790.75	1091.32
791.08	1090.15
791.40	1088.93
791.73	1092.12
792.05	1091.34
792.37	1092.73
792.70	1094.13
793.02	1095.86
793.35	1092.07
793.67	1090.71
793.99	1088.79
794.32	1087.06
794.64	1088.07
794.96	1085.10
795.29	1083.62
795.61	1084.00
795.93	1083.83
796.26	1082.73
796.58	1087.53
796.91	1088.09
797.23	1090.06
797.55	1091.91
797.87	1092.26
798.20	1089.85
798.52	1089.40
798.84	1085.70
799.17	1086.80
799.49	1086.80
799.81	1089.24
800.14	1093.92
800.46	1097.45
800.78	1096.38
801.10	1095.44
801.43	1092.49
801.75	1090.34
802.07	1087.83
802.40	1090.06
802.72	1086.36
803.04	1087.90
803.36	1084.09
803.69	1086.52
804.01	1083.06
804.33	1087.11
804.65	1085.61
804.97	1087.93
805.30	1087.93
805.62	1088.42
805.94	1085.68
806.26	1084.00
806.58	1083.36
806.91	1082.97
807.23	1083.64
807.55	1085.61
807.87	1083.69
808.19	1083.34
808.52	1080.32
808.84	1079.74
809.16	1081.12
809.48	1085.56
809.80	1086.69
810.12	1090.46
810.44	1088.16
810.77	1084.28
811.09	1084.23
811.41	1084.63
811.73	1082.78
812.05	1084.25
812.37	1089.17
812.69	1086.73
813.01	1087.30
813.33	1084.28
813.66	1085.14
813.98	1082.01
814.30	1082.64
814.62	1083.20
814.94	1084.14
815.26	1085.31
815.58	1084.91
815.90	1086.03
816.22	1081.07
816.54	1080.74
816.86	1080.44
817.18	1081.44
817.50	1078.31
817.82	1079.97
818.14	1079.88
818.46	1080.65
818.78	1082.97
819.10	1085.21
819.42	1087.18
819.74	1088.30
820.06	1084.56
820.38	1083.90
820.70	1082.73
821.02	1081.35
821.34	1083.08
821.66	1082.22
821.98	1081.61
822.30	1085.63
822.62	1084.00
822.94	1083.01
823.26	1085.84
823.58	1083.18
823.90	1082.54
824.22	1083.27
824.54	1083.11
824.86	1083.41
825.18	1084.63
825.50	1085.07
825.81	1085.82
826.13	1084.56
826.45	1084.46
826.77	1086.10
827.09	1082.83
827.41	1081.12
827.73	1081.80
828.05	1082.47
828.36	1082.29
828.68	1082.69
829.00	1083.57
829.32	1083.20
829.64	1082.24
829.96	1080.02
830.28	1081.12
830.59	1082.66
830.91	1083.81
831.23	1085.05
831.55	1088.28
831.87	1086.71
832.19	1085.31
832.50	1088.30
832.82	1085.33
833.14	1085.91
833.46	1085.89
833.78	1087.16
834.09	1083.60
834.41	1084.56
834.73	1082.05
835.05	1083.27
835.36	1082.15
835.68	1079.31
836.00	1080.72
836.32	1081.47
836.63	1083.67
836.95	1084.67
837.27	1086.15
837.59	1084.77
837.90	1082.08
838.22	1080.81
838.54	1081.16
838.85	1082.43
839.17	1083.15
839.49	1084.74
839.80	1081.77
840.12	1078.89
840.44	1080.25
840.76	1080.16
841.07	1081.61
841.39	1083.53
841.71	1086.34
842.02	1084.51
842.34	1082.12
842.65	1080.95
842.97	1081.37
843.29	1082.08
843.60	1082.99
843.92	1084.51
844.24	1085.66
844.55	1087.69
844.87	1085.21
845.18	1086.97
845.50	1085.28
845.82	1083.93
846.13	1080.67
846.45	1081.70
846.76	1082.19
847.08	1083.46
847.40	1084.72
847.71	1083.93
848.03	1081.33
848.34	1079.67
848.66	1082.43
848.97	1078.36
849.29	1080.65
849.60	1082.17
849.92	1080.93
850.24	1078.28
850.55	1078.78
850.87	1075.17
851.18	1075.90
851.50	1077.09
851.81	1077.51
852.13	1078.75
852.44	1081.07
852.76	1083.97
853.07	1082.59
853.39	1080.95
853.70	1083.74
854.01	1083.25
854.33	1084.81
854.64	1084.58
854.96	1088.49
855.27	1083.25
855.59	1084.84
855.90	1079.64
856.22	1081.70
856.53	1079.60
856.84	1084.00
857.16	1082.29
857.47	1084.07
857.79	1082.10
858.10	1084.74
858.41	1084.81
858.73	1083.55
859.04	1084.98
859.36	1085.87
859.67	1083.69
859.98	1086.85
860.30	1089.29
860.61	1084.79
860.92	1084.60
861.24	1084.07
861.55	1079.34
861.87	1079.10
862.18	1082.47
862.49	1080.93
862.81	1080.06
863.12	1081.02
863.43	1077.98
863.74	1077.68
864.06	1079.38
864.37	1078.57
864.68	1081.44
865.00	1084.56
865.31	1083.57
865.62	1081.40
865.94	1083.27
866.25	1081.87
866.56	1084.63
866.87	1084.77
867.19	1086.66
867.50	1086.45
867.81	1084.14
868.12	1082.54
868.44	1084.49
868.75	1083.29
869.06	1083.86
869.37	1086.59
869.68	1086.01
870.00	1085.96
870.31	1086.64
870.62	1087.09
870.93	1085.94
871.24	1088.12
871.56	1085.42
871.87	1085.87
872.18	1082.03
872.49	1079.81
872.80	1075.01
873.12	1076.90
873.43	1076.18
873.74	1079.22
874.05	1080.37
874.36	1081.82
874.67	1078.75
874.98	1081.61
875.29	1081.56
875.61	1083.27
875.92	1082.80
876.23	1085.80
876.54	1083.93
876.85	1086.27
877.16	1084.56
877.47	1082.33
877.78	1079.62
878.09	1076.67
878.40	1071.08
878.72	1071.78
879.03	1077.07
879.34	1079.64
879.65	1082.15
879.96	1083.88
880.27	1083.67
880.58	1082.36
880.89	1079.74
881.20	1078.66
881.51	1081.49
881.82	1077.96
882.13	1074.66
882.44	1077.77
882.75	1081.00
883.06	1080.72
883.37	1083.90
883.68	1088.63
883.99	1087.37
884.30	1084.74
884.61	1083.08
884.92	1083.43
885.23	1083.06
885.54	1084.18
885.85	1085.12
886.16	1086.36
886.47	1085.40
886.78	1081.56
887.08	1079.06
887.39	1078.78
887.70	1077.82
888.01	1076.39
888.32	1076.32
888.63	1078.10
888.94	1076.55
889.25	1074.91
889.56	1078.68
889.87	1079.83
890.17	1078.14
890.48	1076.76
890.79	1077.91
891.10	1074.68
891.41	1074.77
891.72	1077.04
892.03	1080.04
892.34	1079.78
892.64	1082.26
892.95	1084.89
893.26	1085.19
893.57	1085.94
893.88	1087.93
894.18	1087.58
894.49	1086.97
894.80	1087.13
895.11	1087.74
895.42	1087.11
895.72	1086.78
896.03	1086.17
896.34	1086.69
896.65	1085.07
896.96	1083.22
897.26	1081.37
897.57	1080.30
897.88	1080.06
898.19	1082.69
898.49	1084.04
898.80	1084.86
899.11	1085.05
899.41	1082.17
899.72	1077.93
900.03	1078.36
900.34	1076.46
900.64	1074.61
900.95	1074.03
901.26	1076.67
901.56	1074.26
901.87	1076.83
902.18	1079.71
902.48	1083.50
902.79	1085.38
903.10	1085.00
903.40	1085.12
903.71	1083.50
904.02	1079.76
904.32	1076.44
904.63	1080.63
904.94	1078.40
905.24	1083.71
905.55	1083.39
905.85	1084.89
906.16	1083.93
906.47	1086.17
906.77	1082.05
907.08	1084.89
907.38	1085.05
907.69	1082.80
908.00	1084.56
908.30	1085.61
908.61	1085.68
908.91	1081.84
909.22	1082.92
909.52	1081.49
909.83	1078.31
910.14	1077.18
910.44	1079.62
910.75	1081.40
911.05	1081.54
911.36	1084.79
911.66	1082.87
911.97	1081.26
912.27	1079.22
912.58	1078.24
912.88	1076.48
913.19	1078.71
913.49	1081.44
913.80	1080.53
914.10	1079.57
914.41	1080.06
914.71	1079.95
915.01	1074.10
915.32	1076.46
915.62	1076.95
915.93	1076.55
916.23	1076.83
916.54	1084.60
916.84	1079.15
917.15	1079.38
917.45	1080.91
917.75	1082.24
918.06	1080.48
918.36	1083.69
918.67	1081.91
918.97	1077.25
919.27	1077.51
919.58	1078.31
919.88	1081.54
920.18	1086.06
920.49	1087.67
920.79	1084.51
921.10	1083.90
921.40	1082.85
921.70	1081.09
922.01	1082.15
922.31	1082.36
922.61	1079.38
922.92	1079.81
923.22	1079.41
923.52	1077.61
923.82	1077.33
924.13	1080.56
924.43	1077.65
924.73	1077.14
925.04	1078.05
925.34	1080.39
925.64	1077.40
925.94	1082.71
926.25	1081.80
926.55	1083.79
926.85	1081.12
927.15	1080.48
927.46	1074.07
927.76	1077.42
928.06	1076.04
928.36	1078.87
928.67	1078.61
928.97	1081.96
929.27	1079.90
929.57	1077.49
929.87	1076.39
930.18	1080.09
930.48	1080.25
930.78	1081.70
931.08	1086.08
931.38	1085.77
931.69	1085.56
931.99	1084.39
932.29	1084.02
932.59	1081.82
932.89	1082.15
933.19	1082.15
933.49	1081.56
933.80	1079.71
934.10	1079.69
934.40	1082.17
934.70	1080.84
935.00	1082.33
935.30	1081.30
935.60	1084.11
935.90	1079.81
936.20	1078.57
936.50	1080.06
936.81	1081.94
937.11	1078.36
937.41	1081.05
937.71	1083.22
938.01	1079.78
938.31	1078.24
938.61	1077.28
938.91	1078.26
939.21	1078.82
939.51	1085.26
939.81	1090.36
940.11	1091.39
940.41	1090.13
940.71	1090.03
941.01	1085.94
941.31	1082.36
941.61	1087.48
941.91	1089.99
942.21	1089.50
942.51	1087.09
942.81	1087.51
943.11	1083.20
943.41	1082.47
943.71	1081.82
944.01	1084.86
944.31	1085.31
944.61	1086.59
944.90	1084.98
945.20	1087.23
945.50	1086.03
945.80	1085.77
946.10	1082.78
946.40	1082.22
946.70	1081.70
947.00	1081.26
947.30	1082.05
947.60	1085.45
947.89	1084.09
948.19	1083.46
948.49	1084.14
948.79	1082.24
949.09	1079.88
949.39	1082.50
949.69	1079.85
949.98	1081.51
950.28	1081.61
950.58	1083.06
950.88	1083.46
951.18	1085.38
951.48	1082.12
951.77	1083.25
952.07	1083.83
952.37	1080.39
952.67	1079.69
952.97	1081.96
953.26	1083.48
953.56	1082.66
953.86	1083.48
954.16	1084.70
954.45	1080.79
954.75	1079.60
955.05	1078.66
955.35	1079.22
955.64	1078.28
955.94	1079.76
956.24	1078.33
956.54	1080.06
956.83	1084.09
957.13	1086.41
957.43	1087.69
957.72	1086.24
958.02	1084.70
958.32	1081.51
958.61	1080.84
958.91	1077.58
959.21	1077.93
959.50	1078.82
959.80	1079.78
960.10	1078.24
960.39	1080.39
960.69	1080.39
960.99	1080.88
961.28	1075.94
961.58	1077.42
961.87	1076.41
962.17	1079.06
962.47	1079.88
962.76	1083.90
963.06	1083.18
963.36	1085.70
963.65	1085.56
963.95	1083.50
964.24	1082.97
964.54	1085.05
964.83	1082.90
965.13	1083.76
965.42	1084.81
965.72	1085.21
966.02	1085.31
966.31	1088.44
966.61	1084.32
966.90	1085.42
967.20	1085.75
967.49	1082.31
967.79	1082.24
968.08	1084.11
968.38	1083.53
968.67	1080.81
968.97	1081.09
969.26	1079.55
969.56	1081.77
969.85	1079.64
970.15	1078.64
970.44	1080.44
970.74	1081.33
971.03	1078.21
971.32	1080.32
971.62	1083.01
971.91	1083.90
972.21	1084.56
972.50	1084.28
972.80	1083.43
973.09	1084.86
973.38	1081.07
973.68	1077.77
973.97	1081.00
974.27	1081.47
974.56	1079.81
974.85	1080.58
975.15	1080.58
975.44	1076.11
975.73	1075.76
976.03	1075.29
976.32	1074.24
976.61	1073.02
976.91	1077.51
977.20	1079.27
977.49	1082.99
977.79	1088.49
978.08	1092.98
978.37	1090.83
978.67	1089.40
978.96	1086.31
979.25	1082.05
979.55	1081.37
979.84	1080.44
980.13	1079.01
980.42	1080.04
980.72	1079.38
981.01	1081.68
981.30	1081.40
981.59	1084.02
981.89	1085.12
982.18	1088.89
982.47	1085.03
982.76	1084.93
983.06	1080.70
983.35	1078.21
983.64	1076.69
983.93	1078.19
984.22	1077.47
984.52	1079.43
984.81	1081.77
985.10	1080.30
985.39	1080.13
985.68	1083.36
985.97	1084.72
986.27	1081.84
986.56	1081.14
986.85	1080.77
987.14	1079.50
987.43	1080.44
987.72	1080.16
988.01	1083.13
988.31	1081.94
988.60	1080.60
988.89	1074.80
989.18	1073.49
989.47	1071.26
989.76	1073.30
990.05	1075.45
990.34	1078.33
990.63	1082.15
990.92	1083.48
991.21	1085.42
991.51	1084.60
991.80	1086.38
992.09	1085.19
992.38	1085.07
992.67	1087.02
992.96	1088.00
993.25	1085.80
993.54	1087.58
993.83	1086.83
994.12	1084.32
994.41	1082.92
994.70	1084.81
994.99	1086.57
995.28	1087.53
995.57	1084.32
995.86	1088.02
996.15	1084.60
996.44	1080.67
996.73	1081.02
997.02	1082.01
997.31	1076.81
997.59	1078.85
997.88	1077.40
998.17	1076.41
998.46	1077.07
998.75	1077.91
999.04	1080.65
999.33	1082.97
999.62	1082.26
999.91	1083.18
1000.20	1084.02
1000.49	1082.40
1000.77	1081.30
1001.06	1078.68
1001.35	1075.50
1001.64	1076.30
1001.93	1078.33
1002.22	1079.83
1002.51	1083.83
1002.79	1082.90
1003.08	1082.38
1003.37	1080.06
1003.66	1079.95
1003.95	1079.20
1004.23	1082.54
1004.52	1081.07
1004.81	1080.16
1005.10	1079.41
1005.39	1079.50
1005.67	1080.34
1005.96	1083.74
1006.25	1085.59
1006.54	1088.12
1006.83	1091.06
1007.11	1089.45
1007.40	1090.24
1007.69	1090.06
1007.97	1086.17
1008.26	1081.21
1008.55	1082.31
1008.84	1079.41
1009.12	1078.73
1009.41	1078.43
1009.70	1079.83
1009.98	1075.64
1010.27	1075.08
1010.56	1074.89
1010.85	1077.02
1011.13	1077.91
1011.42	1080.88
1011.71	1081.28
1011.99	1081.70
1012.28	1080.93
1012.56	1078.96
1012.85	1078.43
1013.14	1081.21
1013.42	1081.14
1013.71	1079.06
1014.00	1079.95
1014.28	1081.28
1014.57	1077.93
1014.85	1078.99
1015.14	1081.89
1015.43	1079.53
1015.71	1081.89
1016.00	1080.88
1016.28	1080.11
1016.57	1078.59
1016.85	1079.92
1017.14	1076.53
1017.43	1079.20
1017.71	1075.97
1018.00	1078.14
1018.28	1080.88
1018.57	1079.53
1018.85	1078.57
1019.14	1082.47
1019.42	1083.41
1019.71	1081.47
1019.99	1080.70
1020.28	1079.83
1020.56	1079.43
1020.85	1078.07
1021.13	1080.09
1021.42	1086.85
1021.70	1088.54
1021.99	1090.55
1022.27	1089.54
1022.55	1093.73
1022.84	1078.52
>>>>>End Processed Spectral Data<<<<<
