SpectraSuite Data File
++++++++++++++++++++++++++++++++++++
Date: Mon Aug 26 10:26:33 PDT 2019
User: corrico
Dark Spectrum Present: No
Reference Spectrum Present: No
Number of Sampled Component Spectra: 1
Spectrometers: USB2+H06089
Integration Time (usec): 10000 (USB2+H06089)
Spectra Averaged: 20 (USB2+H06089)
Boxcar Smoothing: 2 (USB2+H06089)
Correct for Electrical Dark: No (USB2+H06089)
Strobe/Lamp Enabled: No (USB2+H06089)
Correct for Detector Non-linearity: No (USB2+H06089)
Correct for Stray Light: No (USB2+H06089)
Number of Pixels in Processed Spectrum: 2048
>>>>>Begin Processed Spectral Data<<<<<
339.70	1038.73
340.07	1038.73
340.45	1000.98
340.82	980.36
341.19	959.78
341.57	934.08
341.94	924.98
342.31	915.50
342.69	910.47
343.06	905.18
343.43	904.29
343.81	904.20
344.18	905.74
344.55	908.74
344.93	911.52
345.30	915.01
345.67	924.58
346.04	933.15
346.42	938.09
346.79	947.78
347.16	956.95
347.54	968.47
347.91	977.81
348.28	990.56
348.65	998.87
349.03	1012.05
349.40	1015.58
349.77	1025.08
350.14	1032.83
350.52	1040.79
350.89	1045.92
351.26	1052.73
351.63	1059.84
352.01	1064.41
352.38	1072.25
352.75	1075.15
353.12	1079.10
353.50	1083.20
353.87	1086.62
354.24	1086.69
354.61	1090.29
354.98	1094.13
355.36	1093.31
355.73	1092.12
356.10	1093.01
356.47	1092.14
356.84	1088.16
357.22	1088.84
357.59	1091.46
357.96	1089.03
358.33	1091.06
358.70	1093.83
359.08	1094.55
359.45	1092.80
359.82	1092.05
360.19	1093.83
360.56	1094.62
360.94	1092.49
361.31	1090.76
361.68	1092.89
362.05	1091.25
362.42	1087.55
362.79	1088.84
363.16	1087.51
363.54	1085.17
363.91	1081.40
364.28	1081.63
364.65	1079.81
365.02	1082.03
365.39	1080.65
365.76	1081.42
366.14	1082.83
366.51	1084.35
366.88	1081.63
367.25	1083.79
367.62	1085.54
367.99	1083.71
368.36	1081.42
368.73	1081.23
369.10	1078.99
369.48	1076.39
369.85	1077.72
370.22	1078.24
370.59	1078.52
370.96	1079.20
371.33	1079.81
371.70	1077.09
372.07	1075.57
372.44	1075.62
372.81	1074.00
373.18	1075.50
373.55	1076.97
373.93	1078.10
374.30	1078.38
374.67	1083.34
375.04	1080.37
375.41	1082.54
375.78	1084.37
376.15	1086.27
376.52	1084.14
376.89	1084.25
377.26	1083.62
377.63	1080.72
378.00	1079.90
378.37	1080.37
378.74	1081.07
379.11	1080.56
379.48	1081.63
379.85	1083.20
380.22	1083.90
380.59	1085.33
380.96	1084.89
381.33	1086.24
381.70	1086.71
382.07	1085.84
382.44	1084.51
382.81	1085.68
383.18	1084.96
383.55	1083.71
383.92	1086.20
384.29	1088.65
384.66	1087.58
385.03	1088.84
385.40	1089.31
385.77	1089.10
386.14	1090.64
386.51	1091.88
386.88	1087.39
387.25	1086.41
387.62	1084.39
387.99	1080.93
388.36	1080.20
388.73	1086.17
389.10	1086.17
389.46	1087.95
389.83	1091.53
390.20	1093.52
390.57	1092.12
390.94	1092.77
391.31	1093.47
391.68	1088.58
392.05	1088.42
392.42	1088.30
392.79	1089.94
393.16	1089.03
393.53	1088.21
393.89	1088.49
394.26	1089.61
394.63	1091.58
395.00	1089.71
395.37	1092.84
395.74	1091.70
396.11	1090.76
396.48	1089.29
396.84	1092.73
397.21	1096.66
397.58	1097.10
397.95	1096.26
398.32	1093.76
398.69	1090.41
399.06	1086.36
399.42	1084.16
399.79	1084.60
400.16	1086.78
400.53	1091.23
400.90	1093.45
401.27	1095.46
401.64	1096.78
402.00	1096.73
402.37	1094.08
402.74	1090.90
403.11	1091.58
403.48	1090.76
403.84	1092.09
404.21	1093.19
404.58	1096.59
404.95	1100.26
405.32	1102.18
405.68	1100.31
406.05	1100.96
406.42	1097.29
406.79	1093.76
407.16	1092.19
407.52	1092.73
407.89	1089.29
408.26	1093.83
408.63	1095.28
408.99	1096.75
409.36	1097.43
409.73	1098.32
410.10	1095.28
410.47	1093.17
410.83	1092.91
411.20	1094.08
411.57	1099.44
411.94	1103.16
412.30	1105.67
412.67	1107.14
413.04	1105.25
413.40	1100.59
413.77	1101.48
414.14	1100.33
414.51	1100.29
414.87	1104.55
415.24	1107.17
415.61	1106.98
415.97	1108.95
416.34	1111.22
416.71	1109.48
417.08	1108.48
417.44	1107.49
417.81	1108.06
418.18	1104.78
418.54	1103.52
418.91	1104.45
419.28	1104.48
419.64	1103.16
420.01	1105.51
420.38	1109.41
420.74	1110.61
421.11	1111.68
421.48	1110.21
421.84	1112.27
422.21	1113.18
422.58	1112.06
422.94	1112.83
423.31	1114.89
423.68	1110.07
424.04	1108.81
424.41	1107.45
424.77	1107.35
425.14	1109.41
425.51	1111.94
425.87	1109.41
426.24	1111.15
426.61	1110.65
426.97	1111.54
427.34	1111.99
427.70	1115.57
428.07	1115.12
428.44	1114.77
428.80	1110.98
429.17	1111.10
429.53	1106.96
429.90	1107.87
430.27	1107.35
430.63	1111.54
431.00	1110.70
431.36	1113.53
431.73	1111.10
432.09	1111.57
432.46	1110.21
432.83	1108.36
433.19	1108.64
433.56	1114.66
433.92	1114.84
434.29	1114.68
434.65	1115.50
435.02	1113.72
435.38	1110.79
435.75	1111.47
436.11	1109.74
436.48	1112.32
436.84	1113.07
437.21	1113.37
437.57	1112.18
437.94	1110.84
438.30	1110.54
438.67	1113.39
439.03	1111.64
439.40	1113.21
439.76	1118.17
440.13	1116.32
440.49	1113.14
440.86	1113.46
441.22	1109.67
441.59	1107.12
441.95	1107.40
442.32	1106.39
442.68	1105.15
443.05	1107.61
443.41	1111.75
443.78	1112.25
444.14	1110.87
444.51	1112.81
444.87	1113.14
445.24	1107.64
445.60	1108.24
445.96	1110.14
446.33	1112.81
446.69	1113.49
447.06	1112.85
447.42	1109.67
447.79	1111.52
448.15	1106.11
448.51	1101.22
448.88	1099.72
449.24	1100.24
449.61	1095.42
449.97	1096.63
450.33	1097.50
450.70	1098.90
451.06	1102.93
451.43	1102.91
451.79	1103.49
452.15	1105.13
452.52	1106.23
452.88	1104.83
453.24	1111.15
453.61	1109.62
453.97	1112.08
454.34	1114.12
454.70	1112.90
455.06	1108.88
455.43	1112.69
455.79	1111.15
456.15	1114.68
456.52	1115.83
456.88	1114.35
457.24	1111.01
457.61	1111.19
457.97	1107.17
458.33	1107.31
458.70	1110.09
459.06	1114.52
459.42	1115.94
459.79	1115.50
460.15	1115.31
460.51	1116.30
460.88	1116.97
461.24	1118.33
461.60	1119.97
461.96	1121.02
462.33	1121.54
462.69	1121.56
463.05	1121.35
463.42	1119.81
463.78	1120.84
464.14	1121.44
464.50	1120.95
464.87	1120.06
465.23	1121.12
465.59	1122.64
465.95	1122.26
466.32	1123.71
466.68	1125.63
467.04	1128.11
467.40	1130.27
467.77	1136.77
468.13	1136.03
468.49	1139.51
468.85	1138.39
469.22	1138.76
469.58	1137.03
469.94	1139.12
470.30	1139.30
470.66	1145.32
471.03	1147.61
471.39	1148.22
471.75	1150.82
472.11	1152.08
472.47	1152.71
472.84	1153.28
473.20	1155.85
473.56	1157.51
473.92	1162.99
474.28	1168.91
474.65	1171.37
475.01	1176.84
475.37	1179.65
475.73	1182.98
476.09	1183.56
476.45	1188.06
476.81	1190.07
477.18	1198.19
477.54	1201.30
477.90	1207.04
478.26	1215.67
478.62	1220.94
478.98	1226.98
479.34	1236.13
479.71	1242.01
480.07	1247.37
480.43	1255.56
480.79	1265.27
481.15	1276.36
481.51	1288.54
481.87	1301.27
482.23	1313.81
482.59	1324.18
482.96	1332.35
483.32	1346.30
483.68	1362.75
484.04	1379.84
484.40	1394.87
484.76	1415.44
485.12	1433.62
485.48	1447.29
485.84	1465.92
486.20	1489.91
486.56	1513.46
486.92	1536.37
487.28	1564.06
487.64	1591.61
488.00	1617.87
488.37	1643.29
488.73	1673.74
489.09	1707.37
489.45	1743.23
489.81	1781.50
490.17	1819.67
490.53	1862.22
490.89	1902.64
491.25	1945.03
491.61	1992.43
491.97	2043.36
492.33	2098.24
492.69	2148.07
493.05	2204.43
493.41	2269.34
493.77	2330.92
494.13	2394.09
494.49	2463.02
494.85	2540.79
495.21	2606.80
495.57	2684.06
495.93	2764.24
496.29	2861.94
496.64	2947.23
497.00	3040.78
497.36	3139.99
497.72	3242.67
498.08	3347.79
498.44	3463.17
498.80	3593.07
499.16	3730.86
499.52	3878.48
499.88	4032.02
500.24	4190.14
500.60	4344.53
500.96	4503.59
501.32	4677.79
501.68	4848.05
502.03	5037.30
502.39	5253.47
502.75	5470.56
503.11	5697.87
503.47	5930.15
503.83	6179.60
504.19	6434.06
504.55	6712.73
504.91	6990.71
505.26	7272.79
505.62	7571.02
505.98	7882.95
506.34	8218.35
506.70	8577.69
507.06	8986.51
507.42	9394.58
507.78	9817.42
508.13	10229.52
508.49	10671.91
508.85	11131.82
509.21	11626.14
509.57	12148.36
509.93	12714.73
510.28	13306.91
510.64	13920.08
511.00	14547.95
511.36	15136.03
511.72	15726.18
512.07	16383.56
512.43	17001.67
512.79	17666.43
513.15	18409.98
513.51	19173.67
513.86	19914.12
514.22	20765.49
514.58	21569.16
514.94	22393.03
515.30	23258.51
515.65	24087.46
516.01	24925.82
516.37	25800.99
516.73	26613.58
517.08	27498.37
517.44	28353.95
517.80	29177.91
518.16	30035.86
518.51	30868.20
518.87	31626.68
519.23	32485.61
519.59	33383.58
519.94	34220.36
520.30	35106.23
520.66	35872.81
521.01	36683.61
521.37	37350.48
521.73	37984.83
522.09	38589.70
522.44	39255.16
522.80	39656.98
523.16	40018.97
523.51	40278.05
523.87	40554.09
524.23	40811.38
524.58	41092.72
524.94	41488.76
525.30	41838.29
525.65	42059.31
526.01	42104.79
526.37	42114.64
526.72	42034.99
527.08	41896.20
527.44	41689.48
527.79	41525.29
528.15	41408.90
528.51	41141.52
528.86	40888.57
529.22	40651.76
529.58	40388.82
529.93	39974.62
530.29	39540.19
530.65	39180.73
531.00	38826.59
531.36	38373.15
531.71	37946.50
532.07	37473.90
532.43	36888.65
532.78	36198.98
533.14	35594.70
533.49	34977.34
533.85	34360.35
534.21	33712.54
534.56	33164.88
534.92	32583.07
535.27	31970.62
535.63	31362.08
535.98	30761.26
536.34	30137.58
536.69	29486.86
537.05	28850.00
537.41	28318.26
537.76	27816.52
538.12	27232.65
538.47	26735.73
538.83	26302.66
539.18	25839.42
539.54	25345.52
539.89	24899.32
540.25	24368.60
540.60	23865.62
540.96	23342.44
541.31	22850.18
541.67	22414.89
542.02	22029.17
542.38	21592.85
542.73	21130.94
543.09	20736.40
543.44	20369.59
543.80	20023.38
544.15	19634.47
544.51	19322.85
544.86	19006.06
545.22	18636.54
545.57	18227.39
545.93	17860.72
546.28	17534.99
546.64	17209.02
546.99	16865.76
547.35	16539.00
547.70	16234.73
548.05	15902.23
548.41	15579.61
548.76	15290.18
549.12	15013.93
549.47	14739.31
549.83	14493.37
550.18	14177.42
550.53	13845.09
550.89	13580.21
551.24	13312.71
551.60	12996.11
551.95	12748.99
552.30	12517.28
552.66	12263.47
553.01	11996.11
553.37	11736.80
553.72	11451.61
554.07	11183.83
554.43	10884.29
554.78	10590.90
555.13	10313.90
555.49	10093.65
555.84	9892.81
556.19	9712.05
556.55	9533.12
556.90	9353.13
557.26	9137.05
557.61	8911.43
557.96	8669.51
558.32	8466.40
558.67	8253.01
559.02	8040.21
559.37	7858.21
559.73	7710.17
560.08	7550.10
560.43	7409.53
560.79	7284.15
561.14	7132.27
561.49	6962.49
561.85	6795.02
562.20	6634.79
562.55	6505.28
562.90	6377.49
563.26	6260.58
563.61	6153.85
563.96	6046.56
564.32	5909.41
564.67	5784.91
565.02	5653.35
565.37	5530.33
565.73	5415.04
566.08	5314.58
566.43	5206.38
566.78	5101.85
567.14	5002.47
567.49	4897.52
567.84	4790.44
568.19	4688.44
568.54	4603.86
568.90	4512.44
569.25	4429.51
569.60	4360.75
569.95	4288.17
570.31	4206.08
570.66	4128.21
571.01	4031.88
571.36	3930.86
571.71	3850.37
572.06	3785.21
572.42	3721.45
572.77	3670.47
573.12	3621.09
573.47	3567.16
573.82	3501.11
574.18	3435.63
574.53	3375.99
574.88	3316.35
575.23	3259.38
575.58	3208.01
575.93	3156.03
576.28	3101.12
576.64	3044.71
576.99	2985.70
577.34	2930.51
577.69	2878.41
578.04	2823.62
578.39	2780.58
578.74	2738.33
579.09	2696.18
579.44	2654.19
579.80	2619.74
580.15	2578.78
580.50	2544.40
580.85	2506.08
581.20	2473.88
581.55	2444.10
581.90	2416.11
582.25	2382.92
582.60	2351.61
582.95	2316.76
583.30	2274.11
583.65	2237.53
584.00	2199.35
584.35	2168.20
584.71	2137.49
585.06	2112.59
585.41	2080.03
585.76	2056.39
586.11	2027.54
586.46	2001.81
586.81	1973.91
587.16	1953.04
587.51	1929.91
587.86	1916.38
588.21	1895.08
588.56	1878.37
588.91	1858.20
589.26	1835.49
589.61	1810.01
589.96	1792.62
590.31	1772.46
590.66	1756.95
591.01	1742.34
591.36	1727.32
591.71	1712.01
592.06	1694.06
592.41	1680.36
592.76	1664.78
593.10	1650.36
593.45	1632.71
593.80	1617.75
594.15	1598.00
594.50	1583.61
594.85	1570.97
595.20	1562.73
595.55	1554.58
595.90	1551.38
596.25	1542.72
596.60	1527.06
596.95	1513.93
597.30	1505.67
597.64	1540.63
597.99	1532.44
598.34	1527.93
598.69	1519.43
599.04	1512.03
599.39	1456.42
599.74	1448.82
600.09	1441.30
600.44	1431.66
600.78	1422.74
601.13	1415.79
601.48	1407.27
601.83	1404.58
602.18	1399.80
602.53	1390.56
602.88	1380.31
603.22	1371.67
603.57	1359.83
603.92	1350.96
604.27	1347.10
604.62	1339.28
604.97	1334.41
605.31	1327.97
605.66	1321.47
606.01	1312.64
606.36	1309.60
606.71	1303.23
607.05	1298.48
607.40	1295.44
607.75	1292.42
608.10	1289.00
608.44	1283.25
608.79	1279.38
609.14	1276.04
609.49	1270.63
609.84	1268.48
610.18	1268.06
610.53	1264.90
610.88	1265.53
611.23	1264.73
611.57	1260.17
611.92	1254.32
612.27	1252.98
612.62	1247.13
612.96	1242.17
613.31	1236.58
613.66	1234.91
614.00	1226.63
614.35	1221.88
614.70	1220.78
615.05	1220.47
615.39	1215.00
615.74	1211.37
616.09	1207.58
616.43	1198.35
616.78	1193.21
617.13	1191.85
617.47	1191.10
617.82	1186.25
618.17	1187.21
618.51	1181.53
618.86	1178.55
619.21	1174.60
619.55	1174.39
619.90	1174.13
620.25	1178.62
620.59	1175.04
620.94	1177.03
621.29	1174.83
621.63	1170.36
621.98	1164.53
622.32	1165.75
622.67	1161.94
623.02	1161.12
623.36	1163.13
623.71	1160.95
624.05	1160.32
624.40	1157.51
624.75	1153.63
625.09	1145.60
625.44	1145.81
625.78	1146.30
626.13	1146.72
626.48	1147.59
626.82	1152.50
627.17	1149.44
627.51	1143.63
627.86	1141.55
628.20	1141.57
628.55	1136.40
628.89	1134.62
629.24	1137.34
629.58	1138.27
629.93	1135.98
630.28	1137.87
630.62	1137.90
630.97	1133.47
631.31	1129.75
631.66	1131.13
632.00	1129.03
632.35	1131.11
632.69	1129.75
633.04	1130.10
633.38	1127.23
633.73	1125.40
634.07	1122.03
634.42	1122.17
634.76	1121.44
635.11	1118.78
635.45	1117.47
635.79	1116.11
636.14	1113.32
636.48	1112.34
636.83	1114.33
637.17	1116.39
637.52	1114.98
637.86	1118.80
638.21	1117.98
638.55	1114.94
638.89	1114.56
639.24	1114.24
639.58	1110.72
639.93	1109.55
640.27	1110.26
640.61	1108.76
640.96	1109.04
641.30	1109.16
641.65	1110.51
641.99	1109.41
642.33	1108.03
642.68	1107.33
643.02	1105.95
643.37	1105.65
643.71	1104.31
644.05	1103.02
644.40	1104.83
644.74	1105.58
645.08	1102.42
645.43	1106.86
645.77	1110.07
646.11	1111.38
646.46	1109.69
646.80	1110.21
647.14	1106.51
647.49	1103.94
647.83	1100.92
648.17	1099.93
648.52	1102.86
648.86	1102.91
649.20	1102.70
649.55	1104.38
649.89	1105.34
650.23	1100.82
650.57	1100.96
650.92	1101.97
651.26	1101.48
651.60	1105.86
651.95	1107.52
652.29	1107.10
652.63	1106.93
652.97	1103.28
653.32	1097.01
653.66	1096.33
654.00	1097.73
654.34	1098.53
654.69	1099.33
655.03	1100.33
655.37	1098.02
655.71	1095.98
656.05	1092.30
656.40	1092.47
656.74	1093.64
657.08	1098.13
657.42	1098.18
657.76	1099.79
658.11	1099.28
658.45	1097.59
658.79	1095.42
659.13	1094.04
659.47	1093.76
659.82	1095.18
660.16	1097.10
660.50	1097.15
660.84	1096.17
661.18	1097.50
661.52	1097.08
661.87	1099.16
662.21	1099.84
662.55	1100.22
662.89	1100.15
663.23	1100.43
663.57	1099.16
663.91	1096.99
664.25	1098.02
664.60	1096.66
664.94	1094.97
665.28	1094.04
665.62	1092.82
665.96	1093.52
666.30	1093.33
666.64	1094.22
666.98	1091.11
667.32	1093.99
667.66	1093.26
668.01	1094.34
668.35	1093.43
668.69	1097.01
669.03	1100.31
669.37	1101.53
669.71	1101.53
670.05	1100.33
670.39	1098.48
670.73	1093.52
671.07	1094.01
671.41	1091.72
671.75	1095.56
672.09	1092.91
672.43	1092.73
672.77	1092.19
673.11	1094.41
673.45	1092.63
673.79	1094.50
674.13	1093.80
674.47	1094.48
674.81	1094.62
675.15	1095.51
675.49	1095.18
675.83	1095.86
676.17	1092.89
676.51	1090.81
676.85	1090.13
677.19	1093.62
677.53	1090.97
677.87	1096.07
678.21	1094.95
678.55	1094.39
678.89	1094.74
679.23	1097.69
679.57	1092.96
679.90	1095.58
680.24	1095.98
680.58	1096.80
680.92	1096.26
681.26	1097.66
681.60	1095.82
681.94	1094.93
682.28	1091.98
682.62	1092.14
682.96	1092.16
683.29	1090.32
683.63	1091.74
683.97	1091.37
684.31	1089.71
684.65	1088.40
684.99	1090.76
685.33	1088.28
685.67	1087.65
686.00	1090.32
686.34	1089.03
686.68	1088.68
687.02	1091.58
687.36	1089.89
687.70	1088.82
688.03	1089.03
688.37	1087.83
688.71	1085.45
689.05	1087.30
689.39	1085.94
689.72	1088.02
690.06	1088.96
690.40	1087.44
690.74	1088.56
691.08	1088.77
691.41	1087.46
691.75	1088.65
692.09	1089.54
692.43	1089.54
692.76	1092.94
693.10	1092.66
693.44	1092.12
693.78	1093.97
694.11	1090.60
694.45	1088.00
694.79	1089.07
695.13	1086.69
695.46	1088.75
695.80	1093.10
696.14	1091.34
696.48	1091.58
696.81	1093.57
697.15	1090.06
697.49	1088.00
697.82	1090.88
698.16	1090.13
698.50	1089.38
698.83	1091.53
699.17	1092.54
699.51	1089.75
699.84	1091.86
700.18	1090.71
700.52	1087.79
700.85	1088.70
701.19	1090.41
701.53	1088.65
701.86	1090.60
702.20	1089.00
702.54	1088.65
702.87	1089.40
703.21	1090.46
703.55	1092.21
703.88	1094.22
704.22	1090.15
704.55	1090.71
704.89	1091.06
705.23	1087.76
705.56	1087.93
705.90	1088.23
706.23	1086.76
706.57	1088.79
706.91	1087.32
707.24	1090.57
707.58	1092.59
707.91	1095.84
708.25	1088.02
708.58	1089.94
708.92	1087.65
709.26	1088.54
709.59	1084.84
709.93	1087.06
710.26	1086.13
710.60	1083.43
710.93	1082.69
711.27	1084.42
711.60	1087.25
711.94	1088.21
712.27	1092.09
712.61	1092.14
712.94	1091.27
713.28	1092.87
713.61	1093.62
713.95	1092.47
714.28	1093.92
714.62	1092.94
714.95	1090.60
715.29	1092.47
715.62	1092.68
715.96	1092.89
716.29	1093.87
716.63	1093.15
716.96	1091.70
717.29	1089.45
717.63	1089.00
717.96	1090.06
718.30	1091.23
718.63	1091.77
718.97	1094.74
719.30	1095.21
719.63	1093.97
719.97	1095.58
720.30	1095.18
720.64	1094.67
720.97	1095.65
721.30	1097.36
721.64	1096.96
721.97	1097.38
722.31	1096.70
722.64	1096.40
722.97	1093.73
723.31	1090.95
723.64	1091.20
723.97	1089.94
724.31	1086.97
724.64	1087.32
724.98	1087.86
725.31	1087.13
725.64	1087.13
725.98	1086.62
726.31	1088.37
726.64	1087.18
726.97	1087.62
727.31	1087.67
727.64	1088.16
727.97	1088.26
728.31	1092.82
728.64	1091.23
728.97	1090.43
729.31	1091.27
729.64	1088.47
729.97	1087.46
730.30	1089.54
730.64	1089.03
730.97	1087.60
731.30	1086.69
731.63	1085.28
731.97	1083.53
732.30	1086.24
732.63	1087.58
732.96	1089.07
733.30	1086.80
733.63	1086.57
733.96	1084.49
734.29	1088.54
734.63	1087.58
734.96	1088.09
735.29	1087.69
735.62	1088.77
735.95	1084.51
736.29	1085.99
736.62	1087.97
736.95	1090.03
737.28	1091.23
737.61	1090.76
737.94	1091.27
738.28	1090.74
738.61	1087.09
738.94	1088.70
739.27	1090.76
739.60	1089.50
739.93	1088.40
740.27	1092.98
740.60	1091.46
740.93	1089.22
741.26	1090.20
741.59	1091.98
741.92	1090.46
742.25	1089.52
742.58	1090.27
742.91	1091.06
743.25	1089.68
743.58	1091.56
743.91	1088.77
744.24	1088.72
744.57	1084.23
744.90	1086.87
745.23	1085.31
745.56	1086.52
745.89	1086.45
746.22	1092.47
746.55	1088.40
746.88	1086.97
747.21	1089.99
747.54	1092.19
747.87	1088.96
748.20	1091.39
748.53	1093.36
748.87	1093.33
749.20	1089.94
749.53	1089.54
749.86	1088.04
750.19	1083.74
750.52	1082.61
750.85	1084.39
751.18	1083.62
751.51	1087.37
751.84	1090.08
752.16	1090.36
752.49	1091.09
752.82	1092.37
753.15	1087.34
753.48	1087.04
753.81	1086.31
754.14	1084.65
754.47	1082.92
754.80	1083.71
755.13	1083.74
755.46	1083.50
755.79	1084.77
756.12	1088.19
756.45	1092.05
756.78	1092.52
757.11	1092.19
757.43	1094.01
757.76	1094.39
758.09	1092.49
758.42	1093.99
758.75	1094.67
759.08	1090.03
759.41	1087.83
759.74	1088.82
760.07	1085.89
760.39	1084.74
760.72	1086.55
761.05	1087.60
761.38	1083.55
761.71	1086.24
762.04	1085.84
762.36	1084.65
762.69	1085.82
763.02	1089.80
763.35	1085.63
763.68	1088.12
764.01	1089.07
764.33	1087.88
764.66	1087.13
764.99	1090.50
765.32	1088.77
765.65	1087.74
765.97	1086.78
766.30	1087.81
766.63	1087.34
766.96	1088.37
767.28	1089.96
767.61	1087.18
767.94	1083.81
768.27	1084.21
768.59	1084.32
768.92	1083.48
769.25	1088.23
769.58	1088.56
769.90	1087.44
770.23	1085.38
770.56	1086.73
770.89	1080.77
771.21	1080.04
771.54	1080.20
771.87	1079.99
772.19	1075.92
772.52	1081.54
772.85	1083.93
773.17	1085.61
773.50	1087.88
773.83	1092.91
774.15	1089.38
774.48	1089.61
774.81	1089.19
775.13	1087.02
775.46	1082.47
775.79	1085.05
776.11	1086.08
776.44	1086.01
776.77	1089.19
777.09	1093.45
777.42	1091.37
777.74	1087.67
778.07	1088.82
778.40	1089.47
778.72	1086.85
779.05	1088.26
779.37	1090.10
779.70	1091.63
780.03	1085.17
780.35	1084.46
780.68	1087.16
781.00	1087.37
781.33	1084.09
781.65	1089.10
781.98	1088.72
782.31	1086.94
782.63	1087.58
782.96	1089.24
783.28	1087.62
783.61	1089.36
783.93	1091.86
784.26	1092.77
784.58	1089.52
784.91	1090.99
785.23	1088.70
785.56	1085.12
785.88	1082.61
786.21	1083.81
786.53	1083.93
786.86	1086.48
787.18	1087.04
787.51	1084.98
787.83	1083.64
788.16	1083.74
788.48	1079.81
788.81	1080.56
789.13	1085.52
789.46	1087.25
789.78	1085.89
790.10	1089.87
790.43	1090.34
790.75	1089.64
791.08	1090.83
791.40	1093.05
791.73	1098.32
792.05	1097.24
792.37	1096.07
792.70	1096.24
793.02	1092.45
793.35	1083.41
793.67	1081.73
793.99	1082.90
794.32	1080.77
794.64	1081.80
794.96	1083.83
795.29	1085.91
795.61	1084.44
795.93	1084.86
796.26	1087.04
796.58	1088.21
796.91	1087.93
797.23	1088.12
797.55	1088.09
797.87	1086.50
798.20	1085.73
798.52	1082.85
798.84	1077.11
799.17	1076.90
799.49	1077.21
799.81	1079.17
800.14	1082.66
800.46	1086.24
800.78	1087.58
801.10	1087.34
801.43	1087.58
801.75	1086.17
802.07	1085.70
802.40	1083.83
802.72	1085.35
803.04	1084.81
803.36	1085.35
803.69	1088.58
804.01	1088.84
804.33	1087.18
804.65	1086.22
804.97	1085.80
805.30	1086.41
805.62	1087.74
805.94	1088.23
806.26	1087.76
806.58	1089.87
806.91	1085.38
807.23	1086.13
807.55	1087.02
807.87	1086.43
808.19	1085.33
808.52	1091.30
808.84	1090.29
809.16	1090.74
809.48	1089.17
809.80	1088.23
810.12	1084.07
810.44	1083.13
810.77	1077.70
811.09	1078.05
811.41	1076.51
811.73	1078.80
812.05	1078.38
812.37	1080.91
812.69	1082.92
813.01	1085.28
813.33	1087.04
813.66	1087.67
813.98	1086.76
814.30	1088.00
814.62	1088.68
814.94	1085.47
815.26	1085.91
815.58	1086.71
815.90	1085.70
816.22	1085.26
816.54	1083.04
816.86	1082.64
817.18	1085.33
817.50	1085.91
817.82	1085.26
818.14	1089.40
818.46	1086.90
818.78	1086.71
819.10	1086.20
819.42	1086.90
819.74	1083.76
820.06	1085.77
820.38	1083.97
820.70	1084.42
821.02	1082.92
821.34	1083.18
821.66	1086.64
821.98	1088.89
822.30	1088.00
822.62	1089.78
822.94	1091.02
823.26	1088.54
823.58	1089.59
823.90	1089.75
824.22	1089.59
824.54	1089.94
824.86	1087.83
825.18	1085.03
825.50	1083.67
825.81	1081.91
826.13	1080.81
826.45	1079.67
826.77	1079.81
827.09	1080.93
827.41	1082.26
827.73	1083.39
828.05	1087.62
828.36	1087.13
828.68	1088.68
829.00	1086.43
829.32	1084.84
829.64	1083.88
829.96	1085.68
830.28	1086.48
830.59	1086.90
830.91	1086.83
831.23	1085.33
831.55	1083.97
831.87	1080.58
832.19	1083.64
832.50	1085.84
832.82	1085.17
833.14	1084.21
833.46	1085.47
833.78	1082.85
834.09	1083.64
834.41	1084.63
834.73	1085.91
835.05	1084.79
835.36	1085.10
835.68	1085.56
836.00	1085.38
836.32	1083.18
836.63	1083.55
836.95	1086.94
837.27	1085.77
837.59	1085.17
837.90	1084.79
838.22	1085.94
838.54	1082.64
838.85	1082.38
839.17	1080.41
839.49	1081.73
839.80	1079.29
840.12	1077.07
840.44	1074.73
840.76	1077.63
841.07	1078.80
841.39	1083.46
841.71	1084.23
842.02	1084.04
842.34	1083.48
842.65	1084.00
842.97	1082.71
843.29	1083.74
843.60	1088.12
843.92	1089.94
844.24	1091.42
844.55	1091.37
844.87	1089.94
845.18	1084.60
845.50	1083.71
845.82	1081.19
846.13	1080.13
846.45	1081.80
846.76	1083.79
847.08	1082.87
847.40	1081.58
847.71	1080.77
848.03	1077.98
848.34	1077.58
848.66	1077.72
848.97	1079.60
849.29	1079.13
849.60	1084.84
849.92	1087.18
850.24	1087.27
850.55	1088.33
850.87	1090.64
851.18	1088.93
851.50	1086.43
851.81	1087.16
852.13	1086.78
852.44	1086.08
852.76	1083.22
853.07	1085.42
853.39	1082.71
853.70	1079.43
854.01	1079.29
854.33	1079.76
854.64	1080.09
854.96	1083.67
855.27	1085.05
855.59	1084.56
855.90	1085.80
856.22	1084.63
856.53	1084.63
856.84	1088.21
857.16	1090.85
857.47	1091.34
857.79	1092.40
858.10	1092.02
858.41	1090.08
858.73	1090.69
859.04	1092.12
859.36	1089.78
859.67	1092.05
859.98	1092.21
860.30	1089.31
860.61	1090.01
860.92	1090.36
861.24	1087.13
861.55	1084.53
861.87	1081.91
862.18	1080.34
862.49	1082.99
862.81	1083.93
863.12	1084.81
863.43	1089.38
863.74	1088.44
864.06	1086.17
864.37	1086.76
864.68	1085.94
865.00	1084.37
865.31	1083.95
865.62	1084.28
865.94	1085.99
866.25	1086.34
866.56	1085.77
866.87	1086.78
867.19	1087.27
867.50	1086.29
867.81	1089.43
868.12	1088.86
868.44	1086.38
868.75	1082.78
869.06	1080.72
869.37	1080.84
869.68	1081.58
870.00	1082.29
870.31	1086.13
870.62	1086.59
870.93	1085.91
871.24	1087.02
871.56	1088.09
871.87	1088.51
872.18	1088.84
872.49	1088.00
872.80	1090.08
873.12	1088.56
873.43	1086.83
873.74	1086.17
874.05	1085.84
874.36	1085.49
874.67	1086.43
874.98	1089.61
875.29	1090.64
875.61	1090.03
875.92	1088.70
876.23	1088.77
876.54	1087.34
876.85	1088.00
877.16	1087.55
877.47	1085.40
877.78	1085.99
878.09	1084.07
878.40	1081.96
878.72	1081.09
879.03	1080.86
879.34	1079.62
879.65	1081.82
879.96	1081.84
880.27	1082.19
880.58	1087.86
880.89	1089.82
881.20	1089.38
881.51	1090.83
881.82	1092.91
882.13	1087.30
882.44	1085.21
882.75	1084.28
883.06	1085.99
883.37	1084.98
883.68	1084.16
883.99	1084.00
884.30	1084.56
884.61	1082.01
884.92	1082.17
885.23	1082.26
885.54	1084.44
885.85	1080.98
886.16	1080.48
886.47	1080.20
886.78	1081.80
887.08	1081.05
887.39	1083.48
887.70	1084.00
888.01	1084.37
888.32	1082.10
888.63	1081.26
888.94	1083.83
889.25	1085.14
889.56	1085.89
889.87	1087.53
890.17	1088.61
890.48	1087.67
890.79	1085.66
891.10	1083.39
891.41	1083.18
891.72	1080.13
892.03	1079.67
892.34	1079.46
892.64	1078.68
892.95	1078.96
893.26	1083.50
893.57	1083.13
893.88	1085.42
894.18	1085.84
894.49	1085.80
894.80	1087.46
895.11	1087.02
895.42	1086.36
895.72	1088.14
896.03	1087.30
896.34	1082.97
896.65	1084.09
896.96	1082.71
897.26	1082.36
897.57	1080.79
897.88	1080.39
898.19	1080.84
898.49	1081.14
898.80	1083.81
899.11	1085.84
899.41	1084.56
899.72	1081.12
900.03	1078.75
900.34	1074.89
900.64	1074.61
900.95	1077.58
901.26	1080.34
901.56	1083.39
901.87	1082.47
902.18	1084.21
902.48	1083.90
902.79	1081.80
903.10	1079.20
903.40	1083.22
903.71	1084.37
904.02	1084.00
904.32	1086.29
904.63	1086.48
904.94	1082.31
905.24	1077.70
905.55	1078.52
905.85	1075.05
906.16	1077.04
906.47	1080.63
906.77	1082.99
907.08	1082.94
907.38	1089.31
907.69	1088.77
908.00	1087.18
908.30	1087.81
908.61	1086.50
908.91	1084.46
909.22	1084.79
909.52	1085.31
909.83	1085.91
910.14	1085.35
910.44	1084.63
910.75	1086.03
911.05	1087.39
911.36	1087.27
911.66	1088.82
911.97	1086.22
912.27	1083.34
912.58	1082.50
912.88	1083.69
913.19	1083.62
913.49	1086.20
913.80	1087.55
914.10	1089.36
914.41	1087.93
914.71	1087.93
915.01	1088.42
915.32	1089.03
915.62	1087.48
915.93	1087.37
916.23	1087.55
916.54	1085.45
916.84	1083.53
917.15	1084.81
917.45	1083.04
917.75	1083.34
918.06	1085.82
918.36	1089.71
918.67	1086.66
918.97	1086.36
919.27	1087.74
919.58	1084.63
919.88	1082.66
920.18	1083.95
920.49	1085.91
920.79	1087.39
921.10	1089.99
921.40	1090.29
921.70	1088.72
922.01	1085.19
922.31	1078.75
922.61	1078.36
922.92	1077.89
923.22	1079.27
923.52	1082.33
923.82	1083.64
924.13	1082.47
924.43	1083.29
924.73	1086.06
925.04	1087.04
925.34	1088.40
925.64	1086.57
925.94	1086.08
926.25	1081.87
926.55	1083.11
926.85	1084.46
927.15	1085.19
927.46	1084.35
927.76	1085.66
928.06	1082.99
928.36	1082.94
928.67	1083.27
928.97	1085.10
929.27	1084.49
929.57	1084.30
929.87	1082.64
930.18	1083.39
930.48	1082.73
930.78	1083.97
931.08	1083.50
931.38	1084.14
931.69	1082.03
931.99	1080.44
932.29	1078.00
932.59	1077.61
932.89	1076.97
933.19	1076.93
933.49	1075.80
933.80	1078.14
934.10	1079.34
934.40	1080.56
934.70	1082.10
935.00	1084.98
935.30	1087.81
935.60	1086.29
935.90	1086.64
936.20	1087.23
936.50	1084.46
936.81	1081.82
937.11	1083.69
937.41	1080.84
937.71	1082.08
938.01	1084.11
938.31	1082.78
938.61	1084.81
938.91	1088.40
939.21	1089.96
939.51	1090.29
939.81	1090.81
940.11	1088.37
940.41	1085.54
940.71	1083.01
941.01	1084.14
941.31	1084.11
941.61	1088.30
941.91	1090.08
942.21	1091.60
942.51	1088.82
942.81	1090.08
943.11	1087.13
943.41	1088.23
943.71	1084.25
944.01	1083.88
944.31	1083.41
944.61	1083.06
944.90	1079.60
945.20	1081.09
945.50	1083.50
945.80	1083.69
946.10	1081.28
946.40	1084.18
946.70	1081.35
947.00	1080.67
947.30	1081.54
947.60	1083.64
947.89	1080.32
948.19	1082.78
948.49	1079.95
948.79	1080.06
949.09	1079.43
949.39	1081.07
949.69	1081.49
949.98	1082.24
950.28	1080.02
950.58	1081.47
950.88	1079.74
951.18	1078.71
951.48	1078.10
951.77	1079.55
952.07	1077.86
952.37	1080.13
952.67	1077.82
952.97	1080.09
953.26	1080.18
953.56	1082.83
953.86	1082.17
954.16	1086.22
954.45	1086.87
954.75	1086.69
955.05	1083.76
955.35	1085.03
955.64	1081.68
955.94	1078.40
956.24	1078.75
956.54	1080.32
956.83	1076.93
957.13	1080.60
957.43	1083.83
957.72	1080.32
958.02	1078.50
958.32	1081.51
958.61	1081.68
958.91	1079.81
959.21	1083.95
959.50	1085.33
959.80	1084.11
960.10	1083.06
960.39	1083.32
960.69	1082.22
960.99	1083.32
961.28	1082.52
961.58	1080.06
961.87	1081.16
962.17	1083.06
962.47	1080.18
962.76	1082.40
963.06	1085.40
963.36	1084.16
963.65	1078.54
963.95	1079.13
964.24	1082.24
964.54	1081.54
964.83	1082.94
965.13	1086.17
965.42	1087.34
965.72	1083.55
966.02	1084.84
966.31	1081.54
966.61	1083.01
966.90	1082.92
967.20	1082.90
967.49	1083.04
967.79	1085.31
968.08	1084.72
968.38	1084.74
968.67	1087.11
968.97	1086.41
969.26	1086.66
969.56	1084.67
969.85	1084.04
970.15	1082.31
970.44	1080.16
970.74	1080.34
971.03	1078.00
971.32	1080.58
971.62	1079.41
971.91	1080.37
972.21	1082.12
972.50	1085.10
972.80	1082.69
973.09	1083.39
973.38	1083.74
973.68	1082.05
973.97	1080.44
974.27	1080.23
974.56	1081.40
974.85	1080.88
975.15	1078.68
975.44	1081.68
975.73	1081.66
976.03	1080.39
976.32	1081.09
976.61	1085.28
976.91	1083.67
977.20	1083.06
977.49	1082.94
977.79	1083.15
978.08	1080.32
978.37	1081.30
978.67	1082.61
978.96	1083.74
979.25	1082.43
979.55	1082.94
979.84	1082.03
980.13	1079.90
980.42	1079.85
980.72	1083.43
981.01	1082.45
981.30	1081.37
981.59	1081.91
981.89	1080.30
982.18	1075.97
982.47	1076.97
982.76	1076.53
983.06	1077.98
983.35	1077.28
983.64	1079.31
983.93	1081.51
984.22	1083.90
984.52	1083.60
984.81	1085.99
985.10	1087.02
985.39	1085.49
985.68	1084.84
985.97	1086.62
986.27	1085.47
986.56	1083.43
986.85	1085.24
987.14	1086.71
987.43	1083.08
987.72	1086.48
988.01	1088.82
988.31	1084.81
988.60	1083.29
988.89	1084.23
989.18	1083.20
989.47	1081.07
989.76	1079.95
990.05	1077.33
990.34	1077.09
990.63	1073.51
990.92	1075.36
991.21	1080.44
991.51	1081.89
991.80	1085.45
992.09	1088.96
992.38	1087.16
992.67	1084.09
992.96	1087.16
993.25	1086.01
993.54	1085.26
993.83	1086.38
994.12	1089.22
994.41	1089.78
994.70	1089.22
994.99	1091.86
995.28	1091.93
995.57	1088.93
995.86	1086.87
996.15	1089.57
996.44	1084.67
996.73	1081.75
997.02	1085.52
997.31	1086.64
997.59	1084.60
997.88	1087.55
998.17	1089.43
998.46	1086.97
998.75	1085.56
999.04	1085.24
999.33	1085.68
999.62	1087.44
999.91	1089.47
1000.20	1089.61
1000.49	1089.00
1000.77	1090.13
1001.06	1089.10
1001.35	1086.17
1001.64	1087.48
1001.93	1087.86
1002.22	1085.70
1002.51	1088.56
1002.79	1088.96
1003.08	1085.10
1003.37	1083.97
1003.66	1083.74
1003.95	1079.01
1004.23	1079.22
1004.52	1083.13
1004.81	1083.25
1005.10	1083.36
1005.39	1082.87
1005.67	1082.52
1005.96	1080.41
1006.25	1081.07
1006.54	1082.33
1006.83	1086.20
1007.11	1088.16
1007.40	1089.66
1007.69	1088.63
1007.97	1085.91
1008.26	1084.56
1008.55	1083.48
1008.84	1079.85
1009.12	1080.91
1009.41	1082.36
1009.70	1081.54
1009.98	1081.26
1010.27	1083.95
1010.56	1080.41
1010.85	1078.75
1011.13	1081.51
1011.42	1081.30
1011.71	1079.43
1011.99	1081.51
1012.28	1081.30
1012.56	1078.45
1012.85	1080.02
1013.14	1083.20
1013.42	1083.48
1013.71	1082.80
1014.00	1083.62
1014.28	1083.95
1014.57	1081.70
1014.85	1083.15
1015.14	1083.50
1015.43	1086.24
1015.71	1085.26
1016.00	1087.48
1016.28	1089.14
1016.57	1089.68
1016.85	1087.16
1017.14	1084.42
1017.43	1084.51
1017.71	1084.35
1018.00	1082.97
1018.28	1083.64
1018.57	1087.30
1018.85	1087.95
1019.14	1085.40
1019.42	1086.78
1019.71	1087.11
1019.99	1087.04
1020.28	1088.54
1020.56	1090.22
1020.85	1090.64
1021.13	1088.89
1021.42	1088.19
1021.70	1085.33
1021.99	1084.42
1022.27	1083.39
1022.55	1085.07
1022.84	1077.35
>>>>>End Processed Spectral Data<<<<<
