SpectraSuite Data File
++++++++++++++++++++++++++++++++++++
Date: Mon Aug 26 10:26:24 PDT 2019
User: corrico
Dark Spectrum Present: No
Reference Spectrum Present: No
Number of Sampled Component Spectra: 1
Spectrometers: USB2+H06089
Integration Time (usec): 10000 (USB2+H06089)
Spectra Averaged: 20 (USB2+H06089)
Boxcar Smoothing: 2 (USB2+H06089)
Correct for Electrical Dark: No (USB2+H06089)
Strobe/Lamp Enabled: No (USB2+H06089)
Correct for Detector Non-linearity: No (USB2+H06089)
Correct for Stray Light: No (USB2+H06089)
Number of Pixels in Processed Spectrum: 2048
>>>>>Begin Processed Spectral Data<<<<<
339.70	1029.84
340.07	1029.84
340.45	996.67
340.82	977.20
341.19	951.45
341.57	927.25
341.94	920.02
342.31	911.97
342.69	905.13
343.06	902.98
343.43	902.86
343.81	901.79
344.18	904.50
344.55	909.06
344.93	914.87
345.30	917.47
345.67	921.54
346.04	928.00
346.42	936.05
346.79	944.92
347.16	955.43
347.54	966.64
347.91	978.98
348.28	988.29
348.65	1001.47
349.03	1012.70
349.40	1018.72
349.77	1028.08
350.14	1035.31
350.52	1037.68
350.89	1043.48
351.26	1052.61
351.63	1054.39
352.01	1058.04
352.38	1063.14
352.75	1064.50
353.12	1064.34
353.50	1072.55
353.87	1075.64
354.24	1079.15
354.61	1084.81
354.98	1089.47
355.36	1090.55
355.73	1092.26
356.10	1091.16
356.47	1092.73
356.84	1091.60
357.22	1091.25
357.59	1093.05
357.96	1095.46
358.33	1091.23
358.70	1088.49
359.08	1088.42
359.45	1089.50
359.82	1089.80
360.19	1089.12
360.56	1093.19
360.94	1090.22
361.31	1089.33
361.68	1090.95
362.05	1093.62
362.42	1094.13
362.79	1092.66
363.16	1089.94
363.54	1087.18
363.91	1086.45
364.28	1084.91
364.65	1082.69
365.02	1082.36
365.39	1082.47
365.76	1081.75
366.14	1078.38
366.51	1081.26
366.88	1079.78
367.25	1078.73
367.62	1076.93
367.99	1081.40
368.36	1078.96
368.73	1079.53
369.10	1080.60
369.48	1081.49
369.85	1080.91
370.22	1081.14
370.59	1083.08
370.96	1079.85
371.33	1080.63
371.70	1075.55
372.07	1079.60
372.44	1078.47
372.81	1079.15
373.18	1080.11
373.55	1082.78
373.93	1076.25
374.30	1074.96
374.67	1074.07
375.04	1073.70
375.41	1075.29
375.78	1080.51
376.15	1083.22
376.52	1085.56
376.89	1086.85
377.26	1087.51
377.63	1086.64
378.00	1084.04
378.37	1082.22
378.74	1079.60
379.11	1080.88
379.48	1080.77
379.85	1084.32
380.22	1084.44
380.59	1088.65
380.96	1084.63
381.33	1084.39
381.70	1079.69
382.07	1080.86
382.44	1076.20
382.81	1080.98
383.18	1082.10
383.55	1082.29
383.92	1084.46
384.29	1088.42
384.66	1083.32
385.03	1085.31
385.40	1088.91
385.77	1087.25
386.14	1085.35
386.51	1089.99
386.88	1086.50
387.25	1086.85
387.62	1085.47
387.99	1083.41
388.36	1080.18
388.73	1079.69
389.10	1078.85
389.46	1079.71
389.83	1081.28
390.20	1081.40
390.57	1082.59
390.94	1084.56
391.31	1087.23
391.68	1088.23
392.05	1092.98
392.42	1095.70
392.79	1097.22
393.16	1096.42
393.53	1096.49
393.89	1096.07
394.26	1095.44
394.63	1090.95
395.00	1090.03
395.37	1090.41
395.74	1088.12
396.11	1086.38
396.48	1088.09
396.84	1088.58
397.21	1089.38
397.58	1088.40
397.95	1088.49
398.32	1090.29
398.69	1090.39
399.06	1089.36
399.42	1090.08
399.79	1093.26
400.16	1091.39
400.53	1094.13
400.90	1094.57
401.27	1094.36
401.64	1093.26
402.00	1096.92
402.37	1094.32
402.74	1095.14
403.11	1099.40
403.48	1099.72
403.84	1098.25
404.21	1099.93
404.58	1099.84
404.95	1095.89
405.32	1095.56
405.68	1096.87
406.05	1097.69
406.42	1099.26
406.79	1099.65
407.16	1099.19
407.52	1097.29
407.89	1094.13
408.26	1093.33
408.63	1099.37
408.99	1099.35
409.36	1100.50
409.73	1101.01
410.10	1098.69
410.47	1093.69
410.83	1094.18
411.20	1093.97
411.57	1095.53
411.94	1096.85
412.30	1098.16
412.67	1099.56
413.04	1100.43
413.40	1103.23
413.77	1102.91
414.14	1100.59
414.51	1100.19
414.87	1100.36
415.24	1098.16
415.61	1100.73
415.97	1103.70
416.34	1107.94
416.71	1106.82
417.08	1108.97
417.44	1106.30
417.81	1104.69
418.18	1100.73
418.54	1104.94
418.91	1106.61
419.28	1110.21
419.64	1112.01
420.01	1114.82
420.38	1113.46
420.74	1112.13
421.11	1110.56
421.48	1111.66
421.84	1107.99
422.21	1107.64
422.58	1105.79
422.94	1105.65
423.31	1102.53
423.68	1108.64
424.04	1109.06
424.41	1110.35
424.77	1113.56
425.14	1115.83
425.51	1112.13
425.87	1110.96
426.24	1111.75
426.61	1113.18
426.97	1113.84
427.34	1113.70
427.70	1112.97
428.07	1112.15
428.44	1106.75
428.80	1105.67
429.17	1103.91
429.53	1107.05
429.90	1108.27
430.27	1109.58
430.63	1110.49
431.00	1110.72
431.36	1111.08
431.73	1109.86
432.09	1110.89
432.46	1112.18
432.83	1114.49
433.19	1112.60
433.56	1112.69
433.92	1114.84
434.29	1113.65
434.65	1112.62
435.02	1110.91
435.38	1107.89
435.75	1103.98
436.11	1106.96
436.48	1109.79
436.84	1111.33
437.21	1116.55
437.57	1118.26
437.94	1115.59
438.30	1113.77
438.67	1117.14
439.03	1115.83
439.40	1116.65
439.76	1116.76
440.13	1118.87
440.49	1115.36
440.86	1113.28
441.22	1112.92
441.59	1114.21
441.95	1112.20
442.32	1113.51
442.68	1115.76
443.05	1116.41
443.41	1115.83
443.78	1115.08
444.14	1112.46
444.51	1112.57
444.87	1116.60
445.24	1116.51
445.60	1116.55
445.96	1118.12
446.33	1117.23
446.69	1113.37
447.06	1109.18
447.42	1111.10
447.79	1108.71
448.15	1107.78
448.51	1106.84
448.88	1107.47
449.24	1107.73
449.61	1110.79
449.97	1112.64
450.33	1110.96
450.70	1113.63
451.06	1112.57
451.43	1110.61
451.79	1110.89
452.15	1113.28
452.52	1112.27
452.88	1107.75
453.24	1106.46
453.61	1106.68
453.97	1106.49
454.34	1108.43
454.70	1111.08
455.06	1110.49
455.43	1108.24
455.79	1107.14
456.15	1106.18
456.52	1110.44
456.88	1111.59
457.24	1110.79
457.61	1110.70
457.97	1110.07
458.33	1107.00
458.70	1109.86
459.06	1112.60
459.42	1113.44
459.79	1113.21
460.15	1114.77
460.51	1113.11
460.88	1114.02
461.24	1113.25
461.60	1114.07
461.96	1115.38
462.33	1119.08
462.69	1120.34
463.05	1117.86
463.42	1117.18
463.78	1118.59
464.14	1116.30
464.50	1117.68
464.87	1123.20
465.23	1125.73
465.59	1124.72
465.95	1124.16
466.32	1125.26
466.68	1126.45
467.04	1130.60
467.40	1132.73
467.77	1136.00
468.13	1135.93
468.49	1136.35
468.85	1135.21
469.22	1136.63
469.58	1138.11
469.94	1142.13
470.30	1145.15
470.66	1144.99
471.03	1143.80
471.39	1145.58
471.75	1143.63
472.11	1146.82
472.47	1152.39
472.84	1158.80
473.20	1164.11
473.56	1168.37
473.92	1170.29
474.28	1174.62
474.65	1175.79
475.01	1180.45
475.37	1183.52
475.73	1187.61
476.09	1186.35
476.45	1190.58
476.81	1193.28
477.18	1197.23
477.54	1202.54
477.90	1212.70
478.26	1216.80
478.62	1223.84
478.98	1234.00
479.34	1244.51
479.71	1252.42
480.07	1262.25
480.43	1273.30
480.79	1282.73
481.15	1288.23
481.51	1298.44
481.87	1310.75
482.23	1317.28
482.59	1329.17
482.96	1346.37
483.32	1363.95
483.68	1379.65
484.04	1400.06
484.40	1419.53
484.76	1440.53
485.12	1456.84
485.48	1479.10
485.84	1503.49
486.20	1524.88
486.56	1546.25
486.92	1573.33
487.28	1600.74
487.64	1624.52
488.00	1654.71
488.37	1684.67
488.73	1718.49
489.09	1753.04
489.45	1791.98
489.81	1831.52
490.17	1875.17
490.53	1919.85
490.89	1962.61
491.25	2009.37
491.61	2058.81
491.97	2110.53
492.33	2163.45
492.69	2219.97
493.05	2275.14
493.41	2334.52
493.77	2395.21
494.13	2467.02
494.49	2540.35
494.85	2621.17
495.21	2702.43
495.57	2792.80
495.93	2875.11
496.29	2968.13
496.64	3066.90
497.00	3169.41
497.36	3275.74
497.72	3386.90
498.08	3502.75
498.44	3629.30
498.80	3762.25
499.16	3906.49
499.52	4064.11
499.88	4229.63
500.24	4392.46
500.60	4566.43
500.96	4740.10
501.32	4903.21
501.68	5071.92
502.03	5260.26
502.39	5456.84
502.75	5669.90
503.11	5914.53
503.47	6175.25
503.83	6453.77
504.19	6736.23
504.55	7037.80
504.91	7338.52
505.26	7633.70
505.62	7965.76
505.98	8337.53
506.34	8692.66
506.70	9073.06
507.06	9515.31
507.42	9936.98
507.78	10337.91
508.13	10782.38
508.49	11258.00
508.85	11745.46
509.21	12257.17
509.57	12775.00
509.93	13318.00
510.28	13901.07
510.64	14522.13
511.00	15132.76
511.36	15805.45
511.72	16522.92
512.07	17277.69
512.43	17975.48
512.79	18775.29
513.15	19589.25
513.51	20304.57
513.86	21029.43
514.22	21875.44
514.58	22697.42
514.94	23467.01
515.30	24410.59
515.65	25413.14
516.01	26284.43
516.37	27102.07
516.73	28009.35
517.08	28763.36
517.44	29365.25
517.80	30154.92
518.16	31025.13
518.51	31877.96
518.87	32775.79
519.23	33799.04
519.59	34712.84
519.94	35652.33
520.30	36543.14
520.66	37325.58
521.01	38023.29
521.37	38693.34
521.73	39231.83
522.09	39718.19
522.44	40371.85
522.80	40898.83
523.16	41287.28
523.51	41613.39
523.87	42003.21
524.23	42240.07
524.58	42462.37
524.94	42885.21
525.30	43176.94
525.65	43202.29
526.01	43172.40
526.37	43301.39
526.72	43313.86
527.08	43251.58
527.44	43188.95
527.79	43115.29
528.15	42898.81
528.51	42577.04
528.86	42338.04
529.22	42092.90
529.58	41806.56
529.93	41421.51
530.29	40893.02
530.65	40417.61
531.00	39991.70
531.36	39429.34
531.71	38887.18
532.07	38544.13
532.43	37980.74
532.78	37356.49
533.14	36811.97
533.49	36235.96
533.85	35534.72
534.21	34973.08
534.56	34476.47
534.92	33922.25
535.27	33326.23
535.63	32628.57
535.98	31926.08
536.34	31231.06
536.69	30546.66
537.05	29933.51
537.41	29438.58
537.76	28878.18
538.12	28213.17
538.47	27711.71
538.83	27211.54
539.18	26671.22
539.54	26227.72
539.89	25827.76
540.25	25335.69
540.60	24839.82
540.96	24308.41
541.31	23816.05
541.67	23433.07
542.02	23010.30
542.38	22597.50
542.73	22161.81
543.09	21756.45
543.44	21318.47
543.80	20915.52
544.15	20491.34
544.51	20203.39
544.86	19816.26
545.22	19459.92
545.57	19119.65
545.93	18736.88
546.28	18375.34
546.64	18051.76
546.99	17700.25
547.35	17383.02
547.70	17089.05
548.05	16736.33
548.41	16369.45
548.76	15964.84
549.12	15560.02
549.47	15205.15
549.83	14877.55
550.18	14570.26
550.53	14255.81
550.89	13915.28
551.24	13593.93
551.60	13326.43
551.95	13071.21
552.30	12853.66
552.66	12660.52
553.01	12467.78
553.37	12227.92
553.72	11965.50
554.07	11692.87
554.43	11438.74
554.78	11165.15
555.13	10905.26
555.49	10641.53
555.84	10395.96
556.19	10146.39
556.55	9885.14
556.90	9617.28
557.26	9415.02
557.61	9242.14
557.96	9048.75
558.32	8864.62
558.67	8681.94
559.02	8479.43
559.37	8286.25
559.73	8103.75
560.08	7932.66
560.43	7752.58
560.79	7582.10
561.14	7394.17
561.49	7224.02
561.85	7050.47
562.20	6900.37
562.55	6764.76
562.90	6624.77
563.26	6486.14
563.61	6357.01
563.96	6219.27
564.32	6070.16
564.67	5940.84
565.02	5839.31
565.37	5740.09
565.73	5616.21
566.08	5501.15
566.43	5397.86
566.78	5263.12
567.14	5142.84
567.49	5048.79
567.84	4944.87
568.19	4839.46
568.54	4747.64
568.90	4661.57
569.25	4575.54
569.60	4493.41
569.95	4416.15
570.31	4345.25
570.66	4255.94
571.01	4171.21
571.36	4089.22
571.71	4007.35
572.06	3922.95
572.42	3853.08
572.77	3775.21
573.12	3711.57
573.47	3647.49
573.82	3584.86
574.18	3524.43
574.53	3464.32
574.88	3407.56
575.23	3344.93
575.58	3290.00
575.93	3240.12
576.28	3197.38
576.64	3144.28
576.99	3097.86
577.34	3050.30
577.69	2991.46
578.04	2934.24
578.39	2885.74
578.74	2832.96
579.09	2777.54
579.44	2725.79
579.80	2679.91
580.15	2638.93
580.50	2597.18
580.85	2557.32
581.20	2523.71
581.55	2488.88
581.90	2443.75
582.25	2401.97
582.60	2359.24
582.95	2321.20
583.30	2287.03
583.65	2258.55
584.00	2229.78
584.35	2208.95
584.71	2184.05
585.06	2160.81
585.41	2132.49
585.76	2109.38
586.11	2077.62
586.46	2048.86
586.81	2019.70
587.16	1999.07
587.51	1976.72
587.86	1959.66
588.21	1939.44
588.56	1914.61
588.91	1889.89
589.26	1868.45
589.61	1843.94
589.96	1821.97
590.31	1808.72
590.66	1790.42
591.01	1772.51
591.36	1758.33
591.71	1742.39
592.06	1721.65
592.41	1704.92
592.76	1687.27
593.10	1671.70
593.45	1654.52
593.80	1638.75
594.15	1630.18
594.50	1620.33
594.85	1604.30
595.20	1597.77
595.55	1588.97
595.90	1571.79
596.25	1559.26
596.60	1552.17
596.95	1535.63
597.30	1527.27
597.64	1568.81
597.99	1561.04
598.34	1553.30
598.69	1542.62
599.04	1529.66
599.39	1470.23
599.74	1460.12
600.09	1450.52
600.44	1443.46
600.78	1435.57
601.13	1428.87
601.48	1419.98
601.83	1411.74
602.18	1405.12
602.53	1396.13
602.88	1384.89
603.22	1374.78
603.57	1366.01
603.92	1359.73
604.27	1352.43
604.62	1348.48
604.97	1342.88
605.31	1335.23
605.66	1328.56
606.01	1323.25
606.36	1318.92
606.71	1312.20
607.05	1307.31
607.40	1305.34
607.75	1302.48
608.10	1298.22
608.44	1295.98
608.79	1291.02
609.14	1285.59
609.49	1281.65
609.84	1276.01
610.18	1274.30
610.53	1272.69
610.88	1268.45
611.23	1260.89
611.57	1258.74
611.92	1253.75
612.27	1246.52
612.62	1239.69
612.96	1237.07
613.31	1229.37
613.66	1223.14
614.00	1223.42
614.35	1222.02
614.70	1217.64
615.05	1215.00
615.39	1214.57
615.74	1210.62
616.09	1210.10
616.43	1211.06
616.78	1210.20
617.13	1206.85
617.47	1205.21
617.82	1199.50
618.17	1191.54
618.51	1191.10
618.86	1189.46
619.21	1184.50
619.55	1184.57
619.90	1187.94
620.25	1183.30
620.59	1179.58
620.94	1176.87
621.29	1172.66
621.63	1168.58
621.98	1167.76
622.32	1166.59
622.67	1166.22
623.02	1161.89
623.36	1162.71
623.71	1157.61
624.05	1154.54
624.40	1155.90
624.75	1158.71
625.09	1154.94
625.44	1154.02
625.78	1154.28
626.13	1152.90
626.48	1150.00
626.82	1149.76
627.17	1151.68
627.51	1149.53
627.86	1145.86
628.20	1144.87
628.55	1142.95
628.89	1138.48
629.24	1139.37
629.58	1139.61
629.93	1138.65
630.28	1138.86
630.62	1141.13
630.97	1139.72
631.31	1137.76
631.66	1136.61
632.00	1132.63
632.35	1130.64
632.69	1130.29
633.04	1127.69
633.38	1125.14
633.73	1125.38
634.07	1125.31
634.42	1119.76
634.76	1119.95
635.11	1119.15
635.45	1118.59
635.79	1114.82
636.14	1115.20
636.48	1113.56
636.83	1114.84
637.17	1114.28
637.52	1116.06
637.86	1115.22
638.21	1115.85
638.55	1115.01
638.89	1113.81
639.24	1113.74
639.58	1114.94
639.93	1115.38
640.27	1116.76
640.61	1116.20
640.96	1112.04
641.30	1111.78
641.65	1110.70
641.99	1110.49
642.33	1111.12
642.68	1113.21
643.02	1115.31
643.37	1114.31
643.71	1111.05
644.05	1111.19
644.40	1112.90
644.74	1111.71
645.08	1107.94
645.43	1109.27
645.77	1105.72
646.11	1103.54
646.46	1101.32
646.80	1104.92
647.14	1101.97
647.49	1102.23
647.83	1101.36
648.17	1099.05
648.52	1099.16
648.86	1101.90
649.20	1104.50
649.55	1105.60
649.89	1104.90
650.23	1104.08
650.57	1098.69
650.92	1097.10
651.26	1097.59
651.60	1100.08
651.95	1097.57
652.29	1100.57
652.63	1101.69
652.97	1102.23
653.32	1101.41
653.66	1101.36
654.00	1102.88
654.34	1100.47
654.69	1100.92
655.03	1099.14
655.37	1097.43
655.71	1096.03
656.05	1094.67
656.40	1091.56
656.74	1089.43
657.08	1091.95
657.42	1092.77
657.76	1093.45
658.11	1094.76
658.45	1098.06
658.79	1098.23
659.13	1099.09
659.47	1099.33
659.82	1096.19
660.16	1096.75
660.50	1098.30
660.84	1094.48
661.18	1094.65
661.52	1096.96
661.87	1094.81
662.21	1092.84
662.55	1094.08
662.89	1095.89
663.23	1094.48
663.57	1094.74
663.91	1095.79
664.25	1097.97
664.60	1097.69
664.94	1096.31
665.28	1097.83
665.62	1099.00
665.96	1097.50
666.30	1096.73
666.64	1097.71
666.98	1096.03
667.32	1092.09
667.66	1091.30
668.01	1090.76
668.35	1092.09
668.69	1091.20
669.03	1091.30
669.37	1090.55
669.71	1089.68
670.05	1088.72
670.39	1090.36
670.73	1094.08
671.07	1092.00
671.41	1091.81
671.75	1093.85
672.09	1093.01
672.43	1090.32
672.77	1091.67
673.11	1092.37
673.45	1090.24
673.79	1089.00
674.13	1089.45
674.47	1089.29
674.81	1090.13
675.15	1091.91
675.49	1092.47
675.83	1093.71
676.17	1095.96
676.51	1097.45
676.85	1097.38
677.19	1096.70
677.53	1093.92
677.87	1092.09
678.21	1088.30
678.55	1085.19
678.89	1085.00
679.23	1086.69
679.57	1087.23
679.90	1090.34
680.24	1091.46
680.58	1091.70
680.92	1089.87
681.26	1089.00
681.60	1086.27
681.94	1088.79
682.28	1092.59
682.62	1094.25
682.96	1098.09
683.29	1098.72
683.63	1095.93
683.97	1090.67
684.31	1092.00
684.65	1090.39
684.99	1087.53
685.33	1086.34
685.67	1091.25
686.00	1090.34
686.34	1085.84
686.68	1088.98
687.02	1090.36
687.36	1087.25
687.70	1085.10
688.03	1088.33
688.37	1090.03
688.71	1090.08
689.05	1089.61
689.39	1091.67
689.72	1092.14
690.06	1092.28
690.40	1091.44
690.74	1092.05
691.08	1091.63
691.41	1091.70
691.75	1088.98
692.09	1088.75
692.43	1088.72
692.76	1087.44
693.10	1086.50
693.44	1086.27
693.78	1086.06
694.11	1083.95
694.45	1083.27
694.79	1084.18
695.13	1081.96
695.46	1084.65
695.80	1087.65
696.14	1086.36
696.48	1084.79
696.81	1087.30
697.15	1086.27
697.49	1085.99
697.82	1087.25
698.16	1086.22
698.50	1088.16
698.83	1089.17
699.17	1090.01
699.51	1091.18
699.84	1094.67
700.18	1093.69
700.52	1090.41
700.85	1090.81
701.19	1089.10
701.53	1087.27
701.86	1083.79
702.20	1084.25
702.54	1083.67
702.87	1088.00
703.21	1086.83
703.55	1088.72
703.88	1090.71
704.22	1090.48
704.55	1091.63
704.89	1092.19
705.23	1096.85
705.56	1098.32
705.90	1096.56
706.23	1094.53
706.57	1093.85
706.91	1087.97
707.24	1086.10
707.58	1086.97
707.91	1085.99
708.25	1086.92
708.58	1088.89
708.92	1087.79
709.26	1088.33
709.59	1087.46
709.93	1090.10
710.26	1089.17
710.60	1087.62
710.93	1088.77
711.27	1089.43
711.60	1087.13
711.94	1089.92
712.27	1094.65
712.61	1095.02
712.94	1095.49
713.28	1096.10
713.61	1092.00
713.95	1088.79
714.28	1087.62
714.62	1083.20
714.95	1081.33
715.29	1087.20
715.62	1089.22
715.96	1089.00
716.29	1093.15
716.63	1094.46
716.96	1089.61
717.29	1087.51
717.63	1086.97
717.96	1086.45
718.30	1083.76
718.63	1083.01
718.97	1080.48
719.30	1081.12
719.63	1082.36
719.97	1085.66
720.30	1085.66
720.64	1088.51
720.97	1090.01
721.30	1092.05
721.64	1093.76
721.97	1095.65
722.31	1091.84
722.64	1088.89
722.97	1087.06
723.31	1081.66
723.64	1082.33
723.97	1088.84
724.31	1088.86
724.64	1084.28
724.98	1087.53
725.31	1086.71
725.64	1082.71
725.98	1083.81
726.31	1089.29
726.64	1087.48
726.97	1088.33
727.31	1091.81
727.64	1088.42
727.97	1087.79
728.31	1088.98
728.64	1087.86
728.97	1085.26
729.31	1088.21
729.64	1086.52
729.97	1087.74
730.30	1088.09
730.64	1086.27
730.97	1089.33
731.30	1092.28
731.63	1090.60
731.97	1089.99
732.30	1094.72
732.63	1094.55
732.96	1091.39
733.30	1092.23
733.63	1091.16
733.96	1090.83
734.29	1087.13
734.63	1087.06
734.96	1088.26
735.29	1086.17
735.62	1085.91
735.95	1087.90
736.29	1085.84
736.62	1085.42
736.95	1090.81
737.28	1090.97
737.61	1090.34
737.94	1090.46
738.28	1087.95
738.61	1087.93
738.94	1086.10
739.27	1083.83
739.60	1089.38
739.93	1092.89
740.27	1090.69
740.60	1090.27
740.93	1090.13
741.26	1088.44
741.59	1087.09
741.92	1087.20
742.25	1084.65
742.58	1086.73
742.91	1085.66
743.25	1085.26
743.58	1086.01
743.91	1088.72
744.24	1088.84
744.57	1090.69
744.90	1090.50
745.23	1087.88
745.56	1087.25
745.89	1087.60
746.22	1084.35
746.55	1083.34
746.88	1085.61
747.21	1084.56
747.54	1085.63
747.87	1086.66
748.20	1087.53
748.53	1087.27
748.87	1087.69
749.20	1084.58
749.53	1083.55
749.86	1082.78
750.19	1084.39
750.52	1084.07
750.85	1084.39
751.18	1084.39
751.51	1084.86
751.84	1081.21
752.16	1082.47
752.49	1081.63
752.82	1080.06
753.15	1078.78
753.48	1079.48
753.81	1079.41
754.14	1081.89
754.47	1084.98
754.80	1088.54
755.13	1090.22
755.46	1090.53
755.79	1090.67
756.12	1091.84
756.45	1089.87
756.78	1089.54
757.11	1088.77
757.43	1086.29
757.76	1083.79
758.09	1083.48
758.42	1082.97
758.75	1083.71
759.08	1086.78
759.41	1090.69
759.74	1091.63
760.07	1094.39
760.39	1093.31
760.72	1091.79
761.05	1089.59
761.38	1088.63
761.71	1086.92
762.04	1087.16
762.36	1085.03
762.69	1084.18
763.02	1085.91
763.35	1082.36
763.68	1081.98
764.01	1082.59
764.33	1083.71
764.66	1082.17
764.99	1084.86
765.32	1087.74
765.65	1091.98
765.97	1089.17
766.30	1089.71
766.63	1092.49
766.96	1093.05
767.28	1092.52
767.61	1094.97
767.94	1093.50
768.27	1091.44
768.59	1087.25
768.92	1087.25
769.25	1086.41
769.58	1088.28
769.90	1086.17
770.23	1085.87
770.56	1083.67
770.89	1083.60
771.21	1081.26
771.54	1085.12
771.87	1087.20
772.19	1086.31
772.52	1086.43
772.85	1089.12
773.17	1085.14
773.50	1088.26
773.83	1087.65
774.15	1086.85
774.48	1085.45
774.81	1085.10
775.13	1080.46
775.46	1082.80
775.79	1084.39
776.11	1083.29
776.44	1085.52
776.77	1084.79
777.09	1085.66
777.42	1085.26
777.74	1084.93
778.07	1085.03
778.40	1086.62
778.72	1081.21
779.05	1080.34
779.37	1082.71
779.70	1085.54
780.03	1084.79
780.35	1087.16
780.68	1084.79
781.00	1083.55
781.33	1078.73
781.65	1078.82
781.98	1079.74
782.31	1082.03
782.63	1082.94
782.96	1085.47
783.28	1088.00
783.61	1089.59
783.93	1087.09
784.26	1087.27
784.58	1083.32
784.91	1082.19
785.23	1080.65
785.56	1085.14
785.88	1084.79
786.21	1086.90
786.53	1084.04
786.86	1084.42
787.18	1084.51
787.51	1084.72
787.83	1085.42
788.16	1087.58
788.48	1085.40
788.81	1085.66
789.13	1085.70
789.46	1085.91
789.78	1086.71
790.10	1085.73
790.43	1080.98
790.75	1083.20
791.08	1084.11
791.40	1084.37
791.73	1093.15
792.05	1095.23
792.37	1090.74
792.70	1091.51
793.02	1090.67
793.35	1085.45
793.67	1083.53
793.99	1084.79
794.32	1083.11
794.64	1084.37
794.96	1084.07
795.29	1086.85
795.61	1085.52
795.93	1087.86
796.26	1086.08
796.58	1088.37
796.91	1086.48
797.23	1088.63
797.55	1085.05
797.87	1088.07
798.20	1086.38
798.52	1086.76
798.84	1086.03
799.17	1087.72
799.49	1087.39
799.81	1087.58
800.14	1086.52
800.46	1087.67
800.78	1086.62
801.10	1084.89
801.43	1083.18
801.75	1086.31
802.07	1084.42
802.40	1086.01
802.72	1088.86
803.04	1090.78
803.36	1089.07
803.69	1088.79
804.01	1090.36
804.33	1084.18
804.65	1083.71
804.97	1083.88
805.30	1084.56
805.62	1081.73
805.94	1085.73
806.26	1084.77
806.58	1084.39
806.91	1083.46
807.23	1087.51
807.55	1089.24
807.87	1088.84
808.19	1090.01
808.52	1091.53
808.84	1088.89
809.16	1085.19
809.48	1088.04
809.80	1087.55
810.12	1087.09
810.44	1084.98
810.77	1083.67
811.09	1079.74
811.41	1080.79
811.73	1080.23
812.05	1082.33
812.37	1086.57
812.69	1090.13
813.01	1088.91
813.33	1088.91
813.66	1089.59
813.98	1085.05
814.30	1082.92
814.62	1084.84
814.94	1083.71
815.26	1082.76
815.58	1082.54
815.90	1081.68
816.22	1081.33
816.54	1082.03
816.86	1080.98
817.18	1084.53
817.50	1086.50
817.82	1084.49
818.14	1085.10
818.46	1086.06
818.78	1085.52
819.10	1083.69
819.42	1082.73
819.74	1084.18
820.06	1083.08
820.38	1080.04
820.70	1078.40
821.02	1081.33
821.34	1079.06
821.66	1075.92
821.98	1076.01
822.30	1074.73
822.62	1072.41
822.94	1073.02
823.26	1075.41
823.58	1075.87
823.90	1078.66
824.22	1079.90
824.54	1080.46
824.86	1079.83
825.18	1082.12
825.50	1082.64
825.81	1081.23
826.13	1077.91
826.45	1080.84
826.77	1084.18
827.09	1084.37
827.41	1086.48
827.73	1091.63
828.05	1090.95
828.36	1087.30
828.68	1088.58
829.00	1087.11
829.32	1081.44
829.64	1081.66
829.96	1080.46
830.28	1080.91
830.59	1086.06
830.91	1089.75
831.23	1091.63
831.55	1091.79
831.87	1090.06
832.19	1086.55
832.50	1084.58
832.82	1080.53
833.14	1082.45
833.46	1083.27
833.78	1082.17
834.09	1086.24
834.41	1086.69
834.73	1085.75
835.05	1088.09
835.36	1089.31
835.68	1091.02
836.00	1089.85
836.32	1090.10
836.63	1086.15
836.95	1082.66
837.27	1077.28
837.59	1079.06
837.90	1077.40
838.22	1079.83
838.54	1083.11
838.85	1085.63
839.17	1085.70
839.49	1088.40
839.80	1084.77
840.12	1085.61
840.44	1082.54
840.76	1083.08
841.07	1079.92
841.39	1084.04
841.71	1082.50
842.02	1085.87
842.34	1089.22
842.65	1087.55
842.97	1086.29
843.29	1087.16
843.60	1086.41
843.92	1083.90
844.24	1088.84
844.55	1089.24
844.87	1087.53
845.18	1086.50
845.50	1087.11
845.82	1084.81
846.13	1082.80
846.45	1083.11
846.76	1081.58
847.08	1078.57
847.40	1080.16
847.71	1082.45
848.03	1080.95
848.34	1083.57
848.66	1086.06
848.97	1087.97
849.29	1087.74
849.60	1091.09
849.92	1091.60
850.24	1090.83
850.55	1088.12
850.87	1088.61
851.18	1084.86
851.50	1080.27
851.81	1079.99
852.13	1079.22
852.44	1077.23
852.76	1077.42
853.07	1078.00
853.39	1077.49
853.70	1076.34
854.01	1077.54
854.33	1081.23
854.64	1083.74
854.96	1082.97
855.27	1084.28
855.59	1085.17
855.90	1082.29
856.22	1083.60
856.53	1084.79
856.84	1084.37
857.16	1080.67
857.47	1081.28
857.79	1080.30
858.10	1078.33
858.41	1081.09
858.73	1082.59
859.04	1082.71
859.36	1080.77
859.67	1082.47
859.98	1084.37
860.30	1085.21
860.61	1084.23
860.92	1086.52
861.24	1086.64
861.55	1085.99
861.87	1086.73
862.18	1086.10
862.49	1085.80
862.81	1086.13
863.12	1082.78
863.43	1079.57
863.74	1082.71
864.06	1083.01
864.37	1084.02
864.68	1086.41
865.00	1091.49
865.31	1092.00
865.62	1093.43
865.94	1092.26
866.25	1093.19
866.56	1089.68
866.87	1084.04
867.19	1080.67
867.50	1080.44
867.81	1075.80
868.12	1077.18
868.44	1081.77
868.75	1086.76
869.06	1083.20
869.37	1082.52
869.68	1083.90
870.00	1084.56
870.31	1080.51
870.62	1085.26
870.93	1085.24
871.24	1082.01
871.56	1079.55
871.87	1080.79
872.18	1080.02
872.49	1082.40
872.80	1082.54
873.12	1083.01
873.43	1082.31
873.74	1080.84
874.05	1080.63
874.36	1078.61
874.67	1077.18
874.98	1078.17
875.29	1080.79
875.61	1080.30
875.92	1083.48
876.23	1083.06
876.54	1082.85
876.85	1083.25
877.16	1084.51
877.47	1081.44
877.78	1080.39
878.09	1079.57
878.40	1078.28
878.72	1078.68
879.03	1084.81
879.34	1088.26
879.65	1089.26
879.96	1088.77
880.27	1087.72
880.58	1083.67
880.89	1085.26
881.20	1084.11
881.51	1087.11
881.82	1088.07
882.13	1090.46
882.44	1089.22
882.75	1092.02
883.06	1089.14
883.37	1087.58
883.68	1086.34
883.99	1088.16
884.30	1084.72
884.61	1086.06
884.92	1086.13
885.23	1085.96
885.54	1081.82
885.85	1083.50
886.16	1079.36
886.47	1080.25
886.78	1079.64
887.08	1081.40
887.39	1080.81
887.70	1082.78
888.01	1084.53
888.32	1084.60
888.63	1085.49
888.94	1085.40
889.25	1086.52
889.56	1083.39
889.87	1082.64
890.17	1081.61
890.48	1083.01
890.79	1083.13
891.10	1085.68
891.41	1085.03
891.72	1083.34
892.03	1083.69
892.34	1084.58
892.64	1082.97
892.95	1084.86
893.26	1087.72
893.57	1088.28
893.88	1086.03
894.18	1085.38
894.49	1085.45
894.80	1083.08
895.11	1082.01
895.42	1083.43
895.72	1082.71
896.03	1083.11
896.34	1081.28
896.65	1080.04
896.96	1077.61
897.26	1080.34
897.57	1080.23
897.88	1085.45
898.19	1086.45
898.49	1087.79
898.80	1089.00
899.11	1088.37
899.41	1089.87
899.72	1090.43
900.03	1092.75
900.34	1087.39
900.64	1087.20
900.95	1081.28
901.26	1081.73
901.56	1079.88
901.87	1084.74
902.18	1086.83
902.48	1089.26
902.79	1089.14
903.10	1090.13
903.40	1086.01
903.71	1084.60
904.02	1081.70
904.32	1081.35
904.63	1080.25
904.94	1084.07
905.24	1086.64
905.55	1089.17
905.85	1086.01
906.16	1085.47
906.47	1081.80
906.77	1079.43
907.08	1077.91
907.38	1078.28
907.69	1080.63
908.00	1084.21
908.30	1086.29
908.61	1086.97
908.91	1087.06
909.22	1087.02
909.52	1084.02
909.83	1081.02
910.14	1084.89
910.44	1087.74
910.75	1086.87
911.05	1085.00
911.36	1087.55
911.66	1085.17
911.97	1083.88
912.27	1082.50
912.58	1083.83
912.88	1078.36
913.19	1073.72
913.49	1071.31
913.80	1071.57
914.10	1072.20
914.41	1073.63
914.71	1077.44
915.01	1080.02
915.32	1082.29
915.62	1083.22
915.93	1086.55
916.23	1086.71
916.54	1086.48
916.84	1081.96
917.15	1082.50
917.45	1082.61
917.75	1080.56
918.06	1078.66
918.36	1081.33
918.67	1082.01
918.97	1077.16
919.27	1079.67
919.58	1081.14
919.88	1081.73
920.18	1077.93
920.49	1082.08
920.79	1082.17
921.10	1079.03
921.40	1079.95
921.70	1083.71
922.01	1082.87
922.31	1081.80
922.61	1084.91
922.92	1082.66
923.22	1083.86
923.52	1083.15
923.82	1081.56
924.13	1080.72
924.43	1079.57
924.73	1076.65
925.04	1076.51
925.34	1078.50
925.64	1080.30
925.94	1085.07
926.25	1087.55
926.55	1085.42
926.85	1087.51
927.15	1086.43
927.46	1082.24
927.76	1080.20
928.06	1086.01
928.36	1082.03
928.67	1081.19
928.97	1082.05
929.27	1081.07
929.57	1078.52
929.87	1083.43
930.18	1084.18
930.48	1085.10
930.78	1086.08
931.08	1084.49
931.38	1081.37
931.69	1079.88
931.99	1080.63
932.29	1080.39
932.59	1080.65
932.89	1081.07
933.19	1078.17
933.49	1076.13
933.80	1077.98
934.10	1078.50
934.40	1079.57
934.70	1082.15
935.00	1081.98
935.30	1078.64
935.60	1077.77
935.90	1078.80
936.20	1081.05
936.50	1079.92
936.81	1082.90
937.11	1081.68
937.41	1077.44
937.71	1077.30
938.01	1078.78
938.31	1078.54
938.61	1079.90
938.91	1084.67
939.21	1086.45
939.51	1087.76
939.81	1086.90
940.11	1087.23
940.41	1082.69
940.71	1078.38
941.01	1076.58
941.31	1078.07
941.61	1082.90
941.91	1084.79
942.21	1084.96
942.51	1084.93
942.81	1082.80
943.11	1076.74
943.41	1073.07
943.71	1074.73
944.01	1074.00
944.31	1073.07
944.61	1076.46
944.90	1078.19
945.20	1081.66
945.50	1080.93
945.80	1083.36
946.10	1081.68
946.40	1085.82
946.70	1082.47
947.00	1085.07
947.30	1086.13
947.60	1086.71
947.89	1083.50
948.19	1084.32
948.49	1082.03
948.79	1080.91
949.09	1079.22
949.39	1080.48
949.69	1081.12
949.98	1083.88
950.28	1082.83
950.58	1083.69
950.88	1082.99
951.18	1083.27
951.48	1079.53
951.77	1080.98
952.07	1080.34
952.37	1079.36
952.67	1076.60
952.97	1078.45
953.26	1076.95
953.56	1078.61
953.86	1078.10
954.16	1077.93
954.45	1078.52
954.75	1077.02
955.05	1074.28
955.35	1077.84
955.64	1080.23
955.94	1080.37
956.24	1085.77
956.54	1089.14
956.83	1088.98
957.13	1087.37
957.43	1087.95
957.72	1083.01
958.02	1081.68
958.32	1078.89
958.61	1075.71
958.91	1072.83
959.21	1071.57
959.50	1069.91
959.80	1073.00
960.10	1077.82
960.39	1081.51
960.69	1084.72
960.99	1084.77
961.28	1080.91
961.58	1081.02
961.87	1079.64
962.17	1077.72
962.47	1078.94
962.76	1082.29
963.06	1081.66
963.36	1081.00
963.65	1084.09
963.95	1084.30
964.24	1085.94
964.54	1085.96
964.83	1087.58
965.13	1087.74
965.42	1089.45
965.72	1085.91
966.02	1087.69
966.31	1086.64
966.61	1086.08
966.90	1085.70
967.20	1086.38
967.49	1082.69
967.79	1080.27
968.08	1078.71
968.38	1079.36
968.67	1083.41
968.97	1086.57
969.26	1087.69
969.56	1088.82
969.85	1085.19
970.15	1079.48
970.44	1078.05
970.74	1083.08
971.03	1083.06
971.32	1087.65
971.62	1086.45
971.91	1085.24
972.21	1083.08
972.50	1082.64
972.80	1080.37
973.09	1081.87
973.38	1082.33
973.68	1081.91
973.97	1082.43
974.27	1081.84
974.56	1083.08
974.85	1082.71
975.15	1078.57
975.44	1078.19
975.73	1079.29
976.03	1079.69
976.32	1082.15
976.61	1084.39
976.91	1086.92
977.20	1089.03
977.49	1088.35
977.79	1085.89
978.08	1086.73
978.37	1083.13
978.67	1081.94
978.96	1081.21
979.25	1082.47
979.55	1080.88
979.84	1081.49
980.13	1077.82
980.42	1079.97
980.72	1080.79
981.01	1079.08
981.30	1079.83
981.59	1081.16
981.89	1079.27
982.18	1079.69
982.47	1084.16
982.76	1084.32
983.06	1086.71
983.35	1086.50
983.64	1084.58
983.93	1087.20
984.22	1088.07
984.52	1083.71
984.81	1082.92
985.10	1083.83
985.39	1078.96
985.68	1076.60
985.97	1078.78
986.27	1079.31
986.56	1080.41
986.85	1081.84
987.14	1082.83
987.43	1083.36
987.72	1082.38
988.01	1083.25
988.31	1083.48
988.60	1083.67
988.89	1085.28
989.18	1087.55
989.47	1083.93
989.76	1083.81
990.05	1082.57
990.34	1081.35
990.63	1082.71
990.92	1081.73
991.21	1082.92
991.51	1083.15
991.80	1079.95
992.09	1078.28
992.38	1078.50
992.67	1079.53
992.96	1079.15
993.25	1080.13
993.54	1079.27
993.83	1077.72
994.12	1074.80
994.41	1077.70
994.70	1077.18
994.99	1077.33
995.28	1082.47
995.57	1084.04
995.86	1080.58
996.15	1083.13
996.44	1082.10
996.73	1079.99
997.02	1079.31
997.31	1080.48
997.59	1079.83
997.88	1082.17
998.17	1082.71
998.46	1085.21
998.75	1087.25
999.04	1088.00
999.33	1087.46
999.62	1089.78
999.91	1087.41
1000.20	1087.93
1000.49	1085.66
1000.77	1087.53
1001.06	1087.67
1001.35	1089.07
1001.64	1084.07
1001.93	1084.96
1002.22	1084.11
1002.51	1082.78
1002.79	1081.12
1003.08	1082.57
1003.37	1081.87
1003.66	1079.41
1003.95	1078.19
1004.23	1077.56
1004.52	1079.64
1004.81	1081.58
1005.10	1083.64
1005.39	1084.00
1005.67	1080.70
1005.96	1079.53
1006.25	1078.10
1006.54	1077.44
1006.83	1078.57
1007.11	1083.29
1007.40	1084.00
1007.69	1084.65
1007.97	1086.20
1008.26	1084.18
1008.55	1085.68
1008.84	1086.03
1009.12	1082.69
1009.41	1082.71
1009.70	1082.59
1009.98	1081.94
1010.27	1080.20
1010.56	1085.33
1010.85	1082.22
1011.13	1081.84
1011.42	1079.36
1011.71	1079.20
1011.99	1077.37
1012.28	1077.47
1012.56	1077.40
1012.85	1078.17
1013.14	1082.43
1013.42	1085.54
1013.71	1085.05
1014.00	1084.96
1014.28	1081.87
1014.57	1078.05
1014.85	1077.09
1015.14	1077.21
1015.43	1076.90
1015.71	1080.41
1016.00	1081.30
1016.28	1078.59
1016.57	1081.68
1016.85	1082.22
1017.14	1078.26
1017.43	1079.06
1017.71	1083.67
1018.00	1079.71
1018.28	1080.06
1018.57	1084.00
1018.85	1084.07
1019.14	1079.29
1019.42	1082.69
1019.71	1083.25
1019.99	1087.62
1020.28	1086.64
1020.56	1087.53
1020.85	1086.17
1021.13	1088.30
1021.42	1081.68
1021.70	1083.27
1021.99	1082.31
1022.27	1083.76
1022.55	1077.00
1022.84	1086.36
>>>>>End Processed Spectral Data<<<<<
