SpectraSuite Data File
++++++++++++++++++++++++++++++++++++
Date: Mon Aug 26 10:26:19 PDT 2019
User: corrico
Dark Spectrum Present: No
Reference Spectrum Present: No
Number of Sampled Component Spectra: 1
Spectrometers: USB2+H06089
Integration Time (usec): 10000 (USB2+H06089)
Spectra Averaged: 20 (USB2+H06089)
Boxcar Smoothing: 2 (USB2+H06089)
Correct for Electrical Dark: No (USB2+H06089)
Strobe/Lamp Enabled: No (USB2+H06089)
Correct for Detector Non-linearity: No (USB2+H06089)
Correct for Stray Light: No (USB2+H06089)
Number of Pixels in Processed Spectrum: 2048
>>>>>Begin Processed Spectral Data<<<<<
339.70	1028.31
340.07	1028.31
340.45	996.16
340.82	975.70
341.19	953.11
341.57	928.07
341.94	915.88
342.31	912.20
342.69	906.37
343.06	899.75
343.43	899.51
343.81	898.81
344.18	898.88
344.55	902.79
344.93	912.50
345.30	916.93
345.67	923.51
346.04	931.18
346.42	938.41
346.79	946.40
347.16	960.39
347.54	969.78
347.91	979.70
348.28	993.02
348.65	1004.84
349.03	1012.16
349.40	1024.31
349.77	1034.24
350.14	1041.77
350.52	1045.40
350.89	1051.49
351.26	1057.38
351.63	1063.28
352.01	1066.04
352.38	1071.71
352.75	1076.97
353.12	1077.93
353.50	1077.25
353.87	1083.76
354.24	1084.65
354.61	1087.09
354.98	1092.28
355.36	1094.88
355.73	1094.06
356.10	1097.69
356.47	1096.00
356.84	1095.91
357.22	1097.73
357.59	1095.86
357.96	1094.39
358.33	1094.74
358.70	1090.78
359.08	1090.06
359.45	1089.29
359.82	1086.55
360.19	1085.21
360.56	1082.80
360.94	1080.84
361.31	1080.39
361.68	1081.26
362.05	1082.01
362.42	1084.67
362.79	1087.20
363.16	1086.87
363.54	1085.82
363.91	1085.47
364.28	1085.17
364.65	1081.16
365.02	1083.81
365.39	1086.15
365.76	1085.26
366.14	1086.48
366.51	1089.73
366.88	1086.71
367.25	1085.31
367.62	1085.21
367.99	1083.64
368.36	1077.86
368.73	1077.79
369.10	1079.03
369.48	1079.31
369.85	1076.79
370.22	1080.11
370.59	1079.69
370.96	1081.07
371.33	1081.19
371.70	1085.07
372.07	1083.08
372.44	1083.90
372.81	1082.43
373.18	1078.52
373.55	1077.44
373.93	1079.90
374.30	1080.81
374.67	1081.49
375.04	1086.08
375.41	1086.24
375.78	1085.07
376.15	1084.42
376.52	1083.11
376.89	1082.15
377.26	1082.64
377.63	1085.12
378.00	1084.02
378.37	1082.69
378.74	1079.74
379.11	1081.94
379.48	1083.25
379.85	1085.63
380.22	1087.95
380.59	1093.22
380.96	1092.30
381.33	1089.17
381.70	1088.09
382.07	1086.38
382.44	1083.64
382.81	1082.54
383.18	1084.23
383.55	1084.67
383.92	1086.71
384.29	1086.83
384.66	1087.34
385.03	1089.59
385.40	1091.39
385.77	1091.56
386.14	1092.16
386.51	1091.06
386.88	1090.53
387.25	1088.61
387.62	1087.97
387.99	1089.26
388.36	1090.01
388.73	1089.61
389.10	1089.75
389.46	1091.23
389.83	1092.82
390.20	1096.14
390.57	1093.97
390.94	1094.60
391.31	1091.95
391.68	1090.24
392.05	1085.56
392.42	1084.74
392.79	1082.66
393.16	1082.94
393.53	1083.79
393.89	1084.84
394.26	1088.23
394.63	1090.50
395.00	1089.89
395.37	1089.54
395.74	1093.94
396.11	1091.13
396.48	1090.39
396.84	1094.65
397.21	1093.78
397.58	1094.13
397.95	1094.36
398.32	1097.57
398.69	1097.71
399.06	1098.53
399.42	1095.58
399.79	1096.03
400.16	1093.73
400.53	1094.46
400.90	1094.55
401.27	1093.43
401.64	1096.10
402.00	1100.64
402.37	1100.03
402.74	1101.41
403.11	1102.84
403.48	1099.72
403.84	1093.47
404.21	1094.20
404.58	1094.53
404.95	1095.00
405.32	1097.43
405.68	1100.45
406.05	1097.92
406.42	1096.33
406.79	1095.04
407.16	1094.15
407.52	1091.46
407.89	1092.77
408.26	1095.98
408.63	1097.29
408.99	1099.89
409.36	1103.07
409.73	1103.75
410.10	1101.83
410.47	1103.80
410.83	1103.19
411.20	1103.38
411.57	1098.60
411.94	1101.01
412.30	1100.08
412.67	1098.34
413.04	1096.68
413.40	1099.84
413.77	1095.42
414.14	1095.70
414.51	1099.37
414.87	1101.15
415.24	1101.36
415.61	1102.95
415.97	1103.33
416.34	1100.82
416.71	1102.81
417.08	1106.77
417.44	1109.95
417.81	1112.36
418.18	1115.03
418.54	1115.90
418.91	1114.42
419.28	1112.27
419.64	1112.90
420.01	1112.88
420.38	1108.74
420.74	1111.01
421.11	1112.25
421.48	1109.25
421.84	1107.61
422.21	1110.68
422.58	1109.20
422.94	1111.22
423.31	1111.10
423.68	1112.69
424.04	1110.75
424.41	1109.84
424.77	1109.06
425.14	1109.69
425.51	1108.17
425.87	1111.38
426.24	1115.15
426.61	1115.03
426.97	1117.02
427.34	1117.89
427.70	1118.54
428.07	1118.50
428.44	1119.36
428.80	1118.00
429.17	1121.54
429.53	1121.42
429.90	1120.13
430.27	1121.21
430.63	1120.86
431.00	1119.24
431.36	1118.96
431.73	1118.19
432.09	1114.49
432.46	1115.15
432.83	1115.24
433.19	1113.42
433.56	1114.14
433.92	1117.96
434.29	1118.31
434.65	1118.00
435.02	1120.74
435.38	1119.95
435.75	1115.73
436.11	1118.71
436.48	1118.82
436.84	1117.56
437.21	1118.64
437.57	1120.67
437.94	1119.45
438.30	1117.70
438.67	1117.32
439.03	1119.38
439.40	1121.65
439.76	1120.06
440.13	1121.87
440.49	1125.26
440.86	1122.59
441.22	1119.22
441.59	1118.61
441.95	1118.21
442.32	1115.12
442.68	1112.64
443.05	1114.63
443.41	1116.22
443.78	1114.80
444.14	1114.10
444.51	1112.46
444.87	1112.62
445.24	1113.72
445.60	1115.08
445.96	1114.52
446.33	1116.93
446.69	1114.98
447.06	1112.15
447.42	1114.09
447.79	1114.68
448.15	1114.73
448.51	1116.30
448.88	1114.91
449.24	1111.45
449.61	1109.11
449.97	1111.52
450.33	1112.97
450.70	1117.02
451.06	1116.37
451.43	1116.44
451.79	1117.37
452.15	1115.01
452.52	1115.31
452.88	1115.94
453.24	1117.96
453.61	1115.97
453.97	1114.59
454.34	1108.85
454.70	1110.77
455.06	1110.56
455.43	1109.58
455.79	1111.26
456.15	1115.01
456.52	1116.65
456.88	1117.21
457.24	1117.42
457.61	1119.48
457.97	1118.85
458.33	1118.14
458.70	1120.93
459.06	1123.67
459.42	1119.53
459.79	1122.52
460.15	1120.65
460.51	1119.20
460.88	1117.40
461.24	1121.75
461.60	1123.20
461.96	1123.90
462.33	1124.00
462.69	1125.40
463.05	1124.96
463.42	1122.15
463.78	1123.67
464.14	1126.10
464.50	1128.07
464.87	1131.46
465.23	1131.18
465.59	1132.89
465.95	1136.05
466.32	1137.36
466.68	1136.12
467.04	1137.87
467.40	1139.58
467.77	1140.61
468.13	1139.56
468.49	1140.33
468.85	1142.74
469.22	1141.13
469.58	1138.81
469.94	1142.79
470.30	1144.10
470.66	1146.84
471.03	1151.68
471.39	1155.19
471.75	1154.61
472.11	1152.15
472.47	1157.00
472.84	1159.55
473.20	1160.20
473.56	1164.86
473.92	1177.36
474.28	1180.12
474.65	1183.77
475.01	1190.21
475.37	1194.14
475.73	1196.67
476.09	1199.74
476.45	1206.36
476.81	1209.78
477.18	1216.56
477.54	1224.29
477.90	1232.01
478.26	1236.65
478.62	1244.42
478.98	1251.02
479.34	1256.73
479.71	1265.76
480.07	1273.63
480.43	1286.57
480.79	1301.29
481.15	1313.60
481.51	1326.03
481.87	1345.41
482.23	1359.57
482.59	1373.50
482.96	1390.09
483.32	1407.86
483.68	1420.63
484.04	1438.75
484.40	1457.19
484.76	1476.11
485.12	1497.83
485.48	1520.58
485.84	1544.52
486.20	1571.39
486.56	1600.60
486.92	1628.12
487.28	1660.56
487.64	1689.45
488.00	1721.63
488.37	1757.56
488.73	1793.53
489.09	1830.11
489.45	1877.46
489.81	1918.79
490.17	1964.27
490.53	2014.15
490.89	2064.52
491.25	2109.85
491.61	2165.98
491.97	2220.75
492.33	2277.32
492.69	2334.97
493.05	2402.40
493.41	2471.82
493.77	2548.59
494.13	2629.99
494.49	2717.39
494.85	2800.36
495.21	2889.65
495.57	2984.96
495.93	3086.44
496.29	3181.56
496.64	3300.51
497.00	3414.75
497.36	3538.02
497.72	3664.27
498.08	3814.00
498.44	3959.41
498.80	4107.76
499.16	4266.14
499.52	4432.48
499.88	4602.45
500.24	4779.37
500.60	4977.50
500.96	5172.12
501.32	5368.37
501.68	5567.78
502.03	5777.14
502.39	6006.96
502.75	6252.06
503.11	6522.44
503.47	6808.55
503.83	7120.40
504.19	7413.30
504.55	7744.55
504.91	8069.75
505.26	8392.39
505.62	8771.70
505.98	9194.21
506.34	9584.19
506.70	10027.28
507.06	10520.64
507.42	10975.64
507.78	11442.88
508.13	11974.04
508.49	12505.51
508.85	13070.21
509.21	13648.55
509.57	14251.83
509.93	14844.54
510.28	15486.86
510.64	16183.31
511.00	16882.64
511.36	17611.08
511.72	18424.60
512.07	19280.30
512.43	20082.83
512.79	21007.62
513.15	21910.04
513.51	22720.70
513.86	23538.56
514.22	24499.07
514.58	25446.61
514.94	26361.52
515.30	27416.68
515.65	28528.53
516.01	29522.25
516.37	30455.57
516.73	31490.57
517.08	32423.21
517.44	33178.57
517.80	34046.37
518.16	34995.43
518.51	35924.88
518.87	36880.20
519.23	37975.64
519.59	38962.52
519.94	39947.77
520.30	40929.42
520.66	41764.19
521.01	42541.62
521.37	43365.24
521.73	44021.64
522.09	44590.04
522.44	45338.99
522.80	45933.04
523.16	46288.89
523.51	46633.75
523.87	47006.57
524.23	47289.52
524.58	47529.33
524.94	47955.31
525.30	48270.25
525.65	48411.34
526.01	48412.39
526.37	48593.55
526.72	48686.58
527.08	48668.42
527.44	48604.64
527.79	48524.97
528.15	48326.73
528.51	48025.10
528.86	47791.94
529.22	47449.40
529.58	47056.82
529.93	46612.54
530.29	46042.39
530.65	45554.20
531.00	45140.20
531.36	44550.58
531.71	43958.54
532.07	43524.39
532.43	42811.58
532.78	42007.58
533.14	41410.02
533.49	40728.81
533.85	39949.76
534.21	39384.55
534.56	38889.24
534.92	38251.09
535.27	37578.92
535.63	36792.10
535.98	36020.63
536.34	35254.04
536.69	34506.66
537.05	33792.12
537.41	33229.78
537.76	32582.36
538.12	31836.15
538.47	31217.74
538.83	30674.90
539.18	30062.00
539.54	29489.79
539.89	29037.93
540.25	28530.43
540.60	27995.78
540.96	27378.77
541.31	26843.77
541.67	26424.86
542.02	25970.16
542.38	25501.35
542.73	25080.01
543.09	24600.08
543.44	24052.33
543.80	23546.28
544.15	23065.89
544.51	22700.69
544.86	22271.02
545.22	21898.36
545.57	21527.03
545.93	21077.93
546.28	20639.99
546.64	20295.86
546.99	19889.19
547.35	19492.99
547.70	19164.17
548.05	18775.47
548.41	18366.89
548.76	17908.94
549.12	17499.95
549.47	17096.98
549.83	16751.35
550.18	16384.03
550.53	16034.75
550.89	15648.33
551.24	15263.34
551.60	14914.27
551.95	14615.52
552.30	14345.87
552.66	14118.56
553.01	13903.86
553.37	13646.21
553.72	13349.90
554.07	13064.68
554.43	12762.12
554.78	12447.27
555.13	12157.47
555.49	11842.60
555.84	11570.30
556.19	11291.96
556.55	10996.54
556.90	10708.72
557.26	10502.83
557.61	10293.18
557.96	10069.73
558.32	9871.02
558.67	9666.69
559.02	9428.15
559.37	9202.07
559.73	9033.18
560.08	8853.22
560.43	8653.55
560.79	8457.97
561.14	8255.05
561.49	8028.01
561.85	7822.80
562.20	7647.23
562.55	7505.63
562.90	7353.89
563.26	7212.97
563.61	7074.85
563.96	6908.14
564.32	6727.68
564.67	6575.43
565.02	6437.71
565.37	6313.24
565.73	6170.96
566.08	6049.51
566.43	5923.87
566.78	5786.06
567.14	5647.62
567.49	5545.38
567.84	5426.11
568.19	5312.76
568.54	5209.52
568.90	5105.18
569.25	5021.78
569.60	4929.75
569.95	4849.94
570.31	4771.32
570.66	4692.38
571.01	4584.57
571.36	4494.20
571.71	4401.38
572.06	4308.01
572.42	4220.03
572.77	4141.69
573.12	4069.47
573.47	3996.84
573.82	3927.86
574.18	3862.21
574.53	3798.83
574.88	3740.60
575.23	3672.21
575.58	3603.75
575.93	3535.57
576.28	3468.00
576.64	3397.38
576.99	3332.83
577.34	3273.96
577.69	3209.11
578.04	3148.02
578.39	3089.46
578.74	3033.05
579.09	2976.60
579.44	2926.14
579.80	2880.61
580.15	2836.61
580.50	2790.06
580.85	2741.96
581.20	2697.21
581.55	2657.61
581.90	2611.48
582.25	2569.88
582.60	2530.12
582.95	2495.67
583.30	2456.53
583.65	2426.74
584.00	2388.84
584.35	2360.31
584.71	2325.32
585.06	2293.02
585.41	2258.66
585.76	2235.80
586.11	2206.12
586.46	2179.72
586.81	2146.67
587.16	2118.70
587.51	2093.42
587.86	2075.07
588.21	2053.56
588.56	2034.42
588.91	2012.02
589.26	1988.64
589.61	1956.45
589.96	1930.12
590.31	1906.74
590.66	1886.42
591.01	1865.24
591.36	1848.53
591.71	1822.58
592.06	1803.99
592.41	1788.94
592.76	1773.21
593.10	1753.30
593.45	1743.75
593.80	1731.95
594.15	1713.95
594.50	1697.71
594.85	1685.30
595.20	1671.12
595.55	1653.52
595.90	1638.54
596.25	1624.78
596.60	1610.73
596.95	1595.05
597.30	1582.95
597.64	1625.46
597.99	1617.57
598.34	1607.99
598.69	1596.67
599.04	1587.75
599.39	1525.23
599.74	1513.18
600.09	1504.31
600.44	1496.33
600.78	1488.04
601.13	1483.01
601.48	1475.94
601.83	1464.80
602.18	1455.06
602.53	1443.53
602.88	1428.43
603.22	1416.96
603.57	1410.73
603.92	1403.22
604.27	1393.18
604.62	1389.06
604.97	1382.18
605.31	1377.45
605.66	1373.15
606.01	1368.68
606.36	1358.92
606.71	1353.93
607.05	1346.35
607.40	1338.13
607.75	1334.36
608.10	1330.85
608.44	1322.50
608.79	1314.94
609.14	1309.46
609.49	1303.19
609.84	1301.01
610.18	1295.00
610.53	1292.82
610.88	1290.76
611.23	1288.30
611.57	1283.11
611.92	1282.40
612.27	1275.92
612.62	1267.31
612.96	1259.44
613.31	1256.07
613.66	1249.71
614.00	1247.06
614.35	1247.39
614.70	1247.74
615.05	1241.96
615.39	1238.54
615.74	1235.90
616.09	1231.40
616.43	1226.16
616.78	1219.91
617.13	1217.38
617.47	1213.19
617.82	1210.17
618.17	1208.75
618.51	1210.15
618.86	1209.10
619.21	1205.70
619.55	1204.11
619.90	1199.85
620.25	1195.52
620.59	1193.13
620.94	1193.49
621.29	1191.50
621.63	1188.38
621.98	1185.46
622.32	1182.72
622.67	1175.70
623.02	1173.69
623.36	1171.27
623.71	1168.77
624.05	1166.20
624.40	1167.79
624.75	1160.98
625.09	1160.48
625.44	1160.91
625.78	1160.18
626.13	1160.27
626.48	1160.41
626.82	1157.30
627.17	1151.40
627.51	1149.20
627.86	1144.52
628.20	1142.79
628.55	1142.93
628.89	1144.85
629.24	1143.70
629.58	1147.96
629.93	1150.33
630.28	1149.72
630.62	1148.50
630.97	1146.75
631.31	1141.22
631.66	1137.73
632.00	1136.77
632.35	1136.33
632.69	1133.73
633.04	1133.26
633.38	1134.53
633.73	1132.26
634.07	1128.35
634.42	1129.24
634.76	1125.35
635.11	1121.77
635.45	1125.77
635.79	1127.01
636.14	1128.68
636.48	1131.53
636.83	1129.78
637.17	1125.40
637.52	1125.17
637.86	1121.65
638.21	1117.44
638.55	1117.96
638.89	1120.18
639.24	1121.21
639.58	1117.32
639.93	1120.06
640.27	1120.11
640.61	1120.41
640.96	1116.74
641.30	1119.60
641.65	1115.97
641.99	1114.47
642.33	1109.23
642.68	1108.59
643.02	1111.01
643.37	1111.82
643.71	1115.31
644.05	1115.71
644.40	1118.21
644.74	1113.51
645.08	1113.53
645.43	1107.82
645.77	1107.28
646.11	1107.45
646.46	1111.05
646.80	1109.91
647.14	1110.37
647.49	1106.89
647.83	1106.79
648.17	1102.16
648.52	1104.73
648.86	1108.31
649.20	1113.37
649.55	1106.86
649.89	1109.98
650.23	1110.07
650.57	1109.27
650.92	1106.02
651.26	1110.14
651.60	1110.51
651.95	1107.52
652.29	1105.15
652.63	1102.13
652.97	1101.41
653.32	1099.26
653.66	1099.68
654.00	1102.37
654.34	1105.06
654.69	1104.24
655.03	1102.77
655.37	1101.90
655.71	1098.13
656.05	1098.02
656.40	1099.40
656.74	1100.52
657.08	1100.50
657.42	1102.79
657.76	1102.74
658.11	1102.30
658.45	1099.89
658.79	1101.74
659.13	1101.69
659.47	1098.72
659.82	1097.50
660.16	1097.27
660.50	1094.50
660.84	1092.16
661.18	1095.37
661.52	1093.43
661.87	1095.79
662.21	1097.38
662.55	1100.61
662.89	1098.39
663.23	1101.27
663.57	1101.18
663.91	1099.84
664.25	1097.80
664.60	1098.55
664.94	1098.37
665.28	1097.17
665.62	1099.79
665.96	1100.31
666.30	1103.66
666.64	1102.44
666.98	1103.16
667.32	1100.03
667.66	1097.57
668.01	1095.58
668.35	1097.62
668.69	1092.45
669.03	1092.23
669.37	1095.09
669.71	1093.99
670.05	1094.95
670.39	1097.34
670.73	1097.29
671.07	1096.56
671.41	1096.21
671.75	1094.08
672.09	1094.67
672.43	1091.37
672.77	1093.40
673.11	1094.50
673.45	1094.50
673.79	1093.92
674.13	1096.99
674.47	1094.65
674.81	1096.61
675.15	1092.23
675.49	1095.42
675.83	1095.02
676.17	1094.53
676.51	1091.63
676.85	1094.67
677.19	1091.46
677.53	1091.25
677.87	1091.49
678.21	1090.71
678.55	1092.02
678.89	1095.96
679.23	1095.65
679.57	1099.14
679.90	1101.50
680.24	1099.70
680.58	1096.14
680.92	1095.44
681.26	1090.67
681.60	1089.03
681.94	1088.42
682.28	1089.64
682.62	1091.51
682.96	1092.96
683.29	1093.40
683.63	1096.21
683.97	1096.99
684.31	1098.55
684.65	1095.49
684.99	1095.58
685.33	1094.74
685.67	1093.03
686.00	1091.23
686.34	1093.73
686.68	1093.78
687.02	1093.47
687.36	1094.39
687.70	1096.21
688.03	1096.92
688.37	1096.35
688.71	1097.57
689.05	1097.22
689.39	1098.41
689.72	1098.13
690.06	1097.43
690.40	1097.31
690.74	1095.14
691.08	1090.74
691.41	1090.55
691.75	1090.64
692.09	1091.84
692.43	1093.24
692.76	1095.14
693.10	1096.33
693.44	1096.73
693.78	1094.46
694.11	1094.06
694.45	1093.45
694.79	1091.84
695.13	1092.40
695.46	1092.37
695.80	1091.56
696.14	1094.27
696.48	1092.09
696.81	1092.02
697.15	1092.05
697.49	1093.94
697.82	1089.75
698.16	1090.03
698.50	1086.97
698.83	1086.27
699.17	1088.75
699.51	1088.37
699.84	1091.20
700.18	1091.51
700.52	1092.26
700.85	1091.77
701.19	1093.31
701.53	1092.47
701.86	1094.06
702.20	1092.19
702.54	1090.29
702.87	1092.00
703.21	1090.06
703.55	1090.29
703.88	1091.04
704.22	1091.37
704.55	1090.81
704.89	1093.97
705.23	1095.09
705.56	1095.79
705.90	1096.21
706.23	1096.24
706.57	1096.38
706.91	1096.28
707.24	1097.20
707.58	1095.14
707.91	1094.86
708.25	1093.15
708.58	1093.43
708.92	1089.71
709.26	1089.87
709.59	1089.96
709.93	1091.95
710.26	1090.69
710.60	1092.02
710.93	1090.99
711.27	1091.32
711.60	1089.66
711.94	1087.76
712.27	1088.72
712.61	1091.13
712.94	1092.84
713.28	1093.73
713.61	1094.46
713.95	1093.52
714.28	1092.35
714.62	1091.44
714.95	1088.89
715.29	1087.97
715.62	1091.74
715.96	1090.62
716.29	1091.44
716.63	1092.94
716.96	1095.96
717.29	1092.80
717.63	1093.10
717.96	1091.70
718.30	1090.57
718.63	1090.85
718.97	1089.22
719.30	1091.86
719.63	1093.10
719.97	1091.95
720.30	1089.59
720.64	1090.22
720.97	1086.29
721.30	1082.97
721.64	1082.43
721.97	1084.25
722.31	1085.91
722.64	1089.33
722.97	1089.36
723.31	1091.25
723.64	1093.31
723.97	1092.94
724.31	1090.78
724.64	1089.61
724.98	1088.42
725.31	1088.30
725.64	1087.16
725.98	1085.00
726.31	1089.05
726.64	1090.27
726.97	1088.12
727.31	1088.09
727.64	1091.04
727.97	1088.09
728.31	1089.64
728.64	1089.89
728.97	1092.07
729.31	1094.43
729.64	1095.72
729.97	1093.66
730.30	1094.67
730.64	1091.56
730.97	1088.33
731.30	1086.24
731.63	1088.23
731.97	1085.91
732.30	1087.53
732.63	1086.06
732.96	1087.27
733.30	1088.63
733.63	1091.72
733.96	1093.29
734.29	1095.32
734.63	1096.52
734.96	1093.94
735.29	1093.55
735.62	1094.46
735.95	1100.29
736.29	1100.38
736.62	1099.02
736.95	1095.98
737.28	1096.07
737.61	1092.05
737.94	1090.90
738.28	1094.32
738.61	1095.53
738.94	1091.49
739.27	1093.01
739.60	1092.30
739.93	1088.98
740.27	1085.49
740.60	1085.12
740.93	1083.48
741.26	1084.42
741.59	1084.21
741.92	1091.77
742.25	1094.22
742.58	1094.55
742.91	1093.03
743.25	1091.72
743.58	1087.06
743.91	1088.42
744.24	1085.75
744.57	1087.65
744.90	1090.41
745.23	1090.76
745.56	1090.71
745.89	1092.52
746.22	1091.06
746.55	1093.38
746.88	1092.16
747.21	1090.85
747.54	1088.28
747.87	1088.96
748.20	1086.80
748.53	1088.51
748.87	1084.84
749.20	1088.16
749.53	1090.22
749.86	1090.90
750.19	1088.79
750.52	1094.48
750.85	1092.96
751.18	1092.52
751.51	1088.68
751.84	1093.40
752.16	1093.29
752.49	1092.66
752.82	1089.64
753.15	1092.40
753.48	1087.32
753.81	1083.90
754.14	1082.29
754.47	1082.85
754.80	1082.33
755.13	1081.66
755.46	1083.50
755.79	1087.72
756.12	1091.42
756.45	1089.33
756.78	1094.18
757.11	1095.25
757.43	1094.08
757.76	1090.22
758.09	1091.56
758.42	1088.89
758.75	1085.40
759.08	1084.44
759.41	1085.28
759.74	1086.41
760.07	1087.04
760.39	1090.22
760.72	1090.29
761.05	1092.96
761.38	1093.90
761.71	1093.64
762.04	1094.57
762.36	1092.45
762.69	1088.35
763.02	1087.74
763.35	1087.60
763.68	1086.69
764.01	1087.30
764.33	1088.79
764.66	1088.70
764.99	1086.01
765.32	1084.89
765.65	1089.07
765.97	1090.57
766.30	1089.38
766.63	1091.13
766.96	1089.50
767.28	1088.28
767.61	1082.69
767.94	1083.34
768.27	1082.29
768.59	1082.64
768.92	1083.50
769.25	1088.72
769.58	1090.41
769.90	1093.59
770.23	1094.50
770.56	1095.86
770.89	1096.14
771.21	1095.63
771.54	1095.91
771.87	1094.20
772.19	1089.05
772.52	1086.52
772.85	1089.29
773.17	1083.25
773.50	1083.46
773.83	1084.16
774.15	1085.82
774.48	1081.28
774.81	1085.26
775.13	1087.37
775.46	1087.72
775.79	1085.59
776.11	1087.37
776.44	1089.75
776.77	1091.49
777.09	1093.66
777.42	1094.95
777.74	1092.70
778.07	1091.04
778.40	1086.01
778.72	1081.80
779.05	1082.92
779.37	1083.76
779.70	1084.67
780.03	1087.27
780.35	1089.05
780.68	1086.15
781.00	1087.62
781.33	1085.94
781.65	1086.34
781.98	1087.79
782.31	1089.66
782.63	1088.58
782.96	1089.66
783.28	1089.54
783.61	1087.46
783.93	1088.82
784.26	1087.58
784.58	1086.10
784.91	1088.23
785.23	1088.79
785.56	1085.70
785.88	1086.29
786.21	1086.80
786.53	1084.58
786.86	1084.63
787.18	1086.69
787.51	1088.28
787.83	1090.60
788.16	1087.04
788.48	1087.16
788.81	1087.39
789.13	1087.06
789.46	1086.45
789.78	1089.43
790.10	1087.55
790.43	1087.34
790.75	1086.76
791.08	1084.16
791.40	1084.35
791.73	1091.25
792.05	1088.93
792.37	1086.06
792.70	1089.71
793.02	1093.80
793.35	1089.85
793.67	1091.23
793.99	1092.89
794.32	1090.97
794.64	1087.48
794.96	1085.96
795.29	1086.80
795.61	1089.68
795.93	1088.84
796.26	1088.79
796.58	1090.27
796.91	1090.06
797.23	1086.99
797.55	1085.77
797.87	1082.29
798.20	1078.99
798.52	1075.48
798.84	1076.67
799.17	1076.81
799.49	1077.04
799.81	1081.05
800.14	1085.42
800.46	1085.38
800.78	1085.73
801.10	1086.01
801.43	1083.25
801.75	1083.36
802.07	1080.39
802.40	1078.94
802.72	1080.60
803.04	1078.54
803.36	1077.58
803.69	1082.01
804.01	1082.36
804.33	1082.33
804.65	1085.38
804.97	1086.59
805.30	1086.43
805.62	1088.61
805.94	1088.33
806.26	1090.67
806.58	1089.85
806.91	1092.09
807.23	1088.12
807.55	1088.33
807.87	1086.13
808.19	1087.51
808.52	1082.19
808.84	1086.69
809.16	1087.02
809.48	1089.38
809.80	1089.03
810.12	1092.26
810.44	1093.05
810.77	1094.48
811.09	1091.91
811.41	1089.64
811.73	1089.82
812.05	1088.26
812.37	1086.85
812.69	1090.60
813.01	1094.97
813.33	1096.63
813.66	1097.34
813.98	1097.69
814.30	1094.50
814.62	1090.90
814.94	1086.64
815.26	1084.81
815.58	1086.08
815.90	1085.10
816.22	1088.40
816.54	1091.25
816.86	1092.30
817.18	1090.36
817.50	1091.30
817.82	1090.55
818.14	1090.29
818.46	1090.74
818.78	1090.41
819.10	1087.41
819.42	1084.93
819.74	1085.10
820.06	1085.82
820.38	1084.79
820.70	1088.26
821.02	1087.06
821.34	1084.16
821.66	1083.18
821.98	1086.99
822.30	1089.78
822.62	1091.42
822.94	1092.82
823.26	1095.63
823.58	1093.99
823.90	1089.89
824.22	1089.59
824.54	1090.62
824.86	1087.72
825.18	1086.94
825.50	1088.04
825.81	1089.52
826.13	1088.42
826.45	1089.40
826.77	1088.56
827.09	1087.69
827.41	1085.12
827.73	1085.31
828.05	1084.49
828.36	1083.81
828.68	1086.13
829.00	1085.89
829.32	1087.09
829.64	1087.69
829.96	1089.64
830.28	1087.51
830.59	1088.37
830.91	1085.35
831.23	1088.09
831.55	1088.40
831.87	1087.23
832.19	1089.57
832.50	1091.53
832.82	1087.74
833.14	1087.67
833.46	1088.77
833.78	1089.36
834.09	1089.36
834.41	1089.64
834.73	1090.92
835.05	1092.19
835.36	1092.23
835.68	1094.27
836.00	1091.58
836.32	1091.56
836.63	1090.20
836.95	1084.93
837.27	1083.11
837.59	1082.45
837.90	1080.98
838.22	1079.88
838.54	1081.68
838.85	1079.15
839.17	1083.60
839.49	1084.44
839.80	1087.06
840.12	1089.94
840.44	1089.00
840.76	1086.94
841.07	1084.53
841.39	1083.90
841.71	1081.28
842.02	1086.15
842.34	1084.07
842.65	1085.84
842.97	1085.49
843.29	1084.84
843.60	1082.33
843.92	1086.57
844.24	1085.56
844.55	1086.29
844.87	1089.54
845.18	1089.05
845.50	1086.97
845.82	1089.10
846.13	1087.20
846.45	1084.70
846.76	1082.29
847.08	1083.71
847.40	1080.53
847.71	1081.87
848.03	1083.25
848.34	1082.59
848.66	1079.15
848.97	1082.03
849.29	1080.98
849.60	1079.24
849.92	1081.28
850.24	1083.57
850.55	1083.81
850.87	1086.80
851.18	1088.51
851.50	1092.02
851.81	1094.36
852.13	1095.00
852.44	1093.05
852.76	1094.79
853.07	1094.67
853.39	1092.80
853.70	1091.30
854.01	1089.61
854.33	1087.76
854.64	1087.51
854.96	1088.86
855.27	1090.48
855.59	1091.65
855.90	1091.72
856.22	1093.69
856.53	1092.91
856.84	1091.88
857.16	1092.75
857.47	1093.26
857.79	1090.39
858.10	1088.30
858.41	1088.28
858.73	1087.88
859.04	1085.49
859.36	1082.15
859.67	1083.41
859.98	1083.36
860.30	1084.74
860.61	1086.27
860.92	1088.58
861.24	1089.47
861.55	1084.89
861.87	1083.15
862.18	1083.88
862.49	1084.49
862.81	1086.73
863.12	1088.33
863.43	1088.86
863.74	1087.18
864.06	1087.48
864.37	1082.12
864.68	1084.56
865.00	1083.97
865.31	1084.72
865.62	1084.21
865.94	1088.40
866.25	1087.81
866.56	1086.22
866.87	1084.72
867.19	1085.61
867.50	1084.37
867.81	1086.43
868.12	1089.10
868.44	1092.91
868.75	1093.33
869.06	1093.15
869.37	1092.37
869.68	1090.10
870.00	1087.32
870.31	1085.49
870.62	1083.43
870.93	1081.14
871.24	1085.12
871.56	1084.51
871.87	1086.29
872.18	1088.07
872.49	1088.56
872.80	1081.75
873.12	1081.61
873.43	1081.89
873.74	1078.96
874.05	1079.76
874.36	1085.52
874.67	1083.20
874.98	1080.56
875.29	1083.50
875.61	1084.58
875.92	1084.49
876.23	1085.17
876.54	1087.90
876.85	1087.88
877.16	1087.62
877.47	1087.18
877.78	1089.43
878.09	1088.86
878.40	1089.59
878.72	1084.16
879.03	1081.33
879.34	1083.97
879.65	1082.90
879.96	1081.87
880.27	1086.43
880.58	1087.74
880.89	1085.05
881.20	1085.66
881.51	1084.04
881.82	1085.14
882.13	1087.23
882.44	1087.81
882.75	1089.40
883.06	1090.32
883.37	1087.44
883.68	1083.53
883.99	1083.60
884.30	1083.11
884.61	1086.76
884.92	1087.13
885.23	1087.39
885.54	1087.69
885.85	1087.72
886.16	1086.22
886.47	1086.94
886.78	1091.34
887.08	1091.63
887.39	1090.34
887.70	1088.96
888.01	1091.20
888.32	1087.72
888.63	1084.30
888.94	1083.74
889.25	1084.30
889.56	1082.59
889.87	1083.62
890.17	1084.98
890.48	1086.62
890.79	1085.03
891.10	1086.20
891.41	1088.54
891.72	1090.71
892.03	1090.03
892.34	1089.45
892.64	1090.22
892.95	1086.10
893.26	1084.00
893.57	1080.23
893.88	1081.91
894.18	1080.53
894.49	1082.05
894.80	1082.61
895.11	1085.40
895.42	1084.65
895.72	1087.02
896.03	1088.02
896.34	1087.44
896.65	1086.64
896.96	1088.49
897.26	1085.19
897.57	1087.32
897.88	1086.76
898.19	1086.87
898.49	1086.69
898.80	1089.59
899.11	1087.04
899.41	1089.75
899.72	1088.96
900.03	1089.61
900.34	1087.86
900.64	1085.38
900.95	1083.74
901.26	1085.12
901.56	1081.26
901.87	1080.18
902.18	1079.85
902.48	1082.31
902.79	1083.53
903.10	1087.39
903.40	1088.68
903.71	1092.66
904.02	1092.16
904.32	1092.80
904.63	1090.83
904.94	1087.30
905.24	1088.37
905.55	1086.27
905.85	1083.25
906.16	1082.78
906.47	1085.38
906.77	1084.14
907.08	1086.38
907.38	1089.38
907.69	1091.16
908.00	1093.15
908.30	1094.29
908.61	1089.10
908.91	1085.52
909.22	1082.52
909.52	1077.72
909.83	1078.24
910.14	1080.93
910.44	1082.33
910.75	1084.32
911.05	1086.73
911.36	1084.56
911.66	1087.23
911.97	1089.57
912.27	1088.04
912.58	1091.27
912.88	1091.77
913.19	1087.51
913.49	1082.31
913.80	1080.58
914.10	1076.55
914.41	1074.07
914.71	1077.82
915.01	1082.43
915.32	1084.84
915.62	1086.57
915.93	1089.52
916.23	1087.90
916.54	1085.26
916.84	1086.71
917.15	1085.40
917.45	1083.34
917.75	1083.36
918.06	1084.16
918.36	1082.57
918.67	1082.57
918.97	1083.93
919.27	1083.36
919.58	1084.70
919.88	1084.23
920.18	1080.95
920.49	1079.27
920.79	1081.28
921.10	1080.16
921.40	1080.91
921.70	1086.01
922.01	1086.78
922.31	1088.37
922.61	1088.49
922.92	1087.95
923.22	1088.42
923.52	1087.13
923.82	1082.57
924.13	1081.91
924.43	1082.85
924.73	1082.15
925.04	1081.54
925.34	1082.12
925.64	1082.17
925.94	1078.21
926.25	1074.66
926.55	1074.45
926.85	1072.95
927.15	1071.87
927.46	1076.11
927.76	1081.61
928.06	1084.44
928.36	1084.91
928.67	1087.81
928.97	1086.20
929.27	1080.09
929.57	1077.23
929.87	1076.65
930.18	1076.69
930.48	1079.46
930.78	1080.20
931.08	1081.54
931.38	1082.01
931.69	1080.16
931.99	1079.17
932.29	1079.41
932.59	1078.78
932.89	1080.72
933.19	1079.81
933.49	1080.27
933.80	1083.04
934.10	1084.00
934.40	1084.89
934.70	1086.29
935.00	1086.97
935.30	1087.44
935.60	1089.24
935.90	1087.79
936.20	1089.26
936.50	1087.34
936.81	1085.24
937.11	1082.50
937.41	1084.65
937.71	1082.19
938.01	1084.11
938.31	1085.77
938.61	1086.55
938.91	1084.81
939.21	1086.50
939.51	1085.19
939.81	1082.94
940.11	1081.66
940.41	1081.26
940.71	1079.78
941.01	1078.68
941.31	1081.02
941.61	1082.12
941.91	1083.62
942.21	1085.26
942.51	1086.20
942.81	1085.56
943.11	1087.27
943.41	1084.37
943.71	1082.19
944.01	1081.07
944.31	1081.37
944.61	1080.60
944.90	1083.43
945.20	1084.56
945.50	1084.46
945.80	1083.97
946.10	1083.34
946.40	1082.97
946.70	1083.34
947.00	1085.56
947.30	1084.00
947.60	1080.11
947.89	1076.62
948.19	1075.15
948.49	1074.45
948.79	1076.55
949.09	1079.43
949.39	1085.00
949.69	1086.83
949.98	1085.66
950.28	1087.65
950.58	1089.29
950.88	1086.52
951.18	1086.62
951.48	1088.77
951.77	1085.45
952.07	1085.56
952.37	1088.33
952.67	1088.84
952.97	1087.18
953.26	1088.37
953.56	1086.59
953.86	1083.64
954.16	1082.87
954.45	1084.49
954.75	1083.69
955.05	1087.97
955.35	1089.78
955.64	1092.21
955.94	1091.46
956.24	1092.68
956.54	1090.99
956.83	1090.29
957.13	1087.25
957.43	1085.10
957.72	1084.42
958.02	1084.53
958.32	1084.23
958.61	1084.74
958.91	1084.77
959.21	1088.09
959.50	1086.99
959.80	1084.28
960.10	1088.16
960.39	1091.44
960.69	1091.23
960.99	1090.24
961.28	1092.98
961.58	1088.28
961.87	1085.21
962.17	1079.20
962.47	1078.64
962.76	1077.37
963.06	1077.61
963.36	1076.95
963.65	1081.89
963.95	1082.08
964.24	1087.23
964.54	1087.60
964.83	1090.13
965.13	1087.76
965.42	1086.73
965.72	1084.51
966.02	1087.37
966.31	1083.64
966.61	1085.40
966.90	1086.71
967.20	1085.05
967.49	1080.32
967.79	1084.14
968.08	1084.18
968.38	1087.53
968.67	1090.69
968.97	1094.08
969.26	1092.02
969.56	1090.17
969.85	1086.87
970.15	1084.65
970.44	1084.25
970.74	1084.86
971.03	1086.76
971.32	1086.76
971.62	1085.82
971.91	1083.81
972.21	1085.33
972.50	1081.73
972.80	1079.99
973.09	1077.47
973.38	1078.33
973.68	1079.08
973.97	1081.07
974.27	1081.66
974.56	1083.74
974.85	1085.40
975.15	1083.04
975.44	1080.93
975.73	1083.25
976.03	1086.15
976.32	1088.14
976.61	1090.76
976.91	1094.39
977.20	1094.25
977.49	1092.21
977.79	1090.13
978.08	1091.30
978.37	1087.11
978.67	1084.65
978.96	1083.81
979.25	1081.87
979.55	1080.27
979.84	1084.56
980.13	1087.39
980.42	1086.97
980.72	1086.36
981.01	1084.79
981.30	1082.57
981.59	1082.45
981.89	1086.62
982.18	1088.65
982.47	1089.85
982.76	1091.30
983.06	1091.42
983.35	1087.88
983.64	1085.84
983.93	1083.32
984.22	1083.90
984.52	1083.62
984.81	1082.52
985.10	1085.28
985.39	1086.45
985.68	1084.00
985.97	1086.08
986.27	1088.21
986.56	1087.88
986.85	1086.45
987.14	1087.32
987.43	1085.35
987.72	1084.56
988.01	1083.53
988.31	1084.32
988.60	1086.62
988.89	1083.97
989.18	1083.90
989.47	1084.60
989.76	1087.41
990.05	1082.26
990.34	1083.11
990.63	1080.63
990.92	1079.55
991.21	1078.68
991.51	1082.36
991.80	1082.90
992.09	1084.65
992.38	1087.25
992.67	1086.17
992.96	1084.74
993.25	1086.48
993.54	1085.31
993.83	1083.64
994.12	1082.24
994.41	1083.81
994.70	1083.48
994.99	1085.99
995.28	1087.67
995.57	1089.73
995.86	1088.86
996.15	1088.02
996.44	1087.34
996.73	1084.77
997.02	1085.28
997.31	1086.69
997.59	1086.69
997.88	1087.55
998.17	1084.49
998.46	1083.57
998.75	1084.53
999.04	1086.24
999.33	1084.81
999.62	1087.79
999.91	1088.16
1000.20	1087.41
1000.49	1083.27
1000.77	1084.58
1001.06	1084.46
1001.35	1084.02
1001.64	1085.00
1001.93	1090.69
1002.22	1091.30
1002.51	1091.23
1002.79	1090.32
1003.08	1089.80
1003.37	1086.36
1003.66	1084.02
1003.95	1085.03
1004.23	1086.20
1004.52	1081.68
1004.81	1079.03
1005.10	1079.97
1005.39	1079.17
1005.67	1079.43
1005.96	1080.95
1006.25	1084.63
1006.54	1084.77
1006.83	1087.53
1007.11	1085.17
1007.40	1086.08
1007.69	1085.38
1007.97	1083.27
1008.26	1081.44
1008.55	1082.33
1008.84	1081.87
1009.12	1082.57
1009.41	1085.94
1009.70	1085.66
1009.98	1084.93
1010.27	1086.71
1010.56	1088.96
1010.85	1087.20
1011.13	1085.80
1011.42	1085.26
1011.71	1082.12
1011.99	1076.72
1012.28	1074.89
1012.56	1078.00
1012.85	1079.31
1013.14	1082.50
1013.42	1083.20
1013.71	1086.73
1014.00	1086.71
1014.28	1085.40
1014.57	1085.42
1014.85	1085.24
1015.14	1083.39
1015.43	1079.71
1015.71	1079.43
1016.00	1076.30
1016.28	1078.03
1016.57	1076.46
1016.85	1077.68
1017.14	1078.73
1017.43	1077.25
1017.71	1077.56
1018.00	1077.82
1018.28	1076.25
1018.57	1076.86
1018.85	1079.36
1019.14	1079.81
1019.42	1081.51
1019.71	1081.73
1019.99	1080.98
1020.28	1080.32
1020.56	1081.09
1020.85	1080.39
1021.13	1081.54
1021.42	1082.05
1021.70	1085.63
1021.99	1082.43
1022.27	1082.90
1022.55	1075.83
1022.84	1083.79
>>>>>End Processed Spectral Data<<<<<
