SpectraSuite Data File
++++++++++++++++++++++++++++++++++++
Date: Mon Aug 26 10:26:24 PDT 2019
User: corrico
Dark Spectrum Present: No
Reference Spectrum Present: No
Number of Sampled Component Spectra: 1
Spectrometers: USB2+H06089
Integration Time (usec): 10000 (USB2+H06089)
Spectra Averaged: 20 (USB2+H06089)
Boxcar Smoothing: 2 (USB2+H06089)
Correct for Electrical Dark: No (USB2+H06089)
Strobe/Lamp Enabled: No (USB2+H06089)
Correct for Detector Non-linearity: No (USB2+H06089)
Correct for Stray Light: No (USB2+H06089)
Number of Pixels in Processed Spectrum: 2048
>>>>>Begin Processed Spectral Data<<<<<
339.70	1037.79
340.07	1037.79
340.45	1000.51
340.82	978.39
341.19	954.47
341.57	928.02
341.94	918.71
342.31	909.86
342.69	904.15
343.06	903.35
343.43	904.69
343.81	903.38
344.18	909.02
344.55	911.85
344.93	912.34
345.30	915.69
345.67	924.58
346.04	930.22
346.42	940.43
346.79	950.09
347.16	957.09
347.54	964.00
347.91	975.49
348.28	986.65
348.65	998.43
349.03	1014.27
349.40	1025.60
349.77	1033.30
350.14	1037.63
350.52	1041.54
350.89	1041.75
351.26	1047.48
351.63	1050.46
352.01	1055.93
352.38	1059.02
352.75	1063.94
353.12	1067.17
353.50	1073.23
353.87	1076.13
354.24	1081.19
354.61	1082.38
354.98	1083.39
355.36	1084.81
355.73	1087.23
356.10	1088.09
356.47	1088.70
356.84	1088.54
357.22	1087.55
357.59	1086.85
357.96	1084.37
358.33	1085.45
358.70	1084.86
359.08	1084.79
359.45	1085.56
359.82	1089.22
360.19	1090.27
360.56	1091.60
360.94	1094.83
361.31	1093.05
361.68	1088.65
362.05	1087.20
362.42	1086.50
362.79	1081.94
363.16	1082.33
363.54	1084.02
363.91	1084.89
364.28	1081.70
364.65	1083.18
365.02	1081.07
365.39	1079.64
365.76	1076.53
366.14	1079.08
366.51	1078.61
366.88	1078.14
367.25	1080.06
367.62	1085.33
367.99	1082.03
368.36	1076.37
368.73	1075.80
369.10	1075.31
369.48	1071.01
369.85	1076.55
370.22	1076.34
370.59	1078.19
370.96	1080.72
371.33	1081.12
371.70	1078.17
372.07	1083.90
372.44	1083.22
372.81	1080.81
373.18	1085.35
373.55	1086.27
373.93	1084.72
374.30	1084.37
374.67	1082.54
375.04	1081.00
375.41	1078.07
375.78	1078.40
376.15	1078.75
376.52	1082.92
376.89	1081.84
377.26	1086.01
377.63	1083.60
378.00	1081.94
378.37	1077.42
378.74	1078.66
379.11	1076.95
379.48	1079.69
379.85	1081.33
380.22	1086.76
380.59	1084.89
380.96	1086.06
381.33	1086.69
381.70	1088.33
382.07	1085.12
382.44	1086.69
382.81	1085.70
383.18	1085.73
383.55	1086.64
383.92	1088.16
384.29	1087.58
384.66	1087.88
385.03	1085.99
385.40	1084.79
385.77	1085.87
386.14	1086.57
386.51	1087.97
386.88	1089.33
387.25	1086.97
387.62	1082.57
387.99	1083.01
388.36	1082.69
388.73	1082.99
389.10	1084.32
389.46	1088.79
389.83	1088.40
390.20	1090.24
390.57	1092.45
390.94	1094.08
391.31	1092.47
391.68	1093.29
392.05	1093.01
392.42	1090.29
392.79	1087.74
393.16	1087.25
393.53	1085.35
393.89	1083.64
394.26	1083.60
394.63	1086.59
395.00	1087.27
395.37	1088.07
395.74	1088.63
396.11	1087.16
396.48	1087.95
396.84	1092.52
397.21	1092.91
397.58	1093.50
397.95	1098.83
398.32	1096.12
398.69	1091.18
399.06	1091.88
399.42	1091.49
399.79	1090.78
400.16	1093.08
400.53	1092.14
400.90	1092.49
401.27	1090.97
401.64	1089.75
402.00	1090.46
402.37	1092.14
402.74	1088.23
403.11	1088.75
403.48	1089.66
403.84	1092.82
404.21	1091.88
404.58	1094.39
404.95	1096.63
405.32	1095.14
405.68	1091.79
406.05	1092.09
406.42	1091.13
406.79	1093.17
407.16	1092.89
407.52	1094.41
407.89	1098.86
408.26	1100.38
408.63	1099.09
408.99	1099.63
409.36	1098.76
409.73	1094.72
410.10	1096.56
410.47	1094.04
410.83	1095.98
411.20	1097.34
411.57	1100.08
411.94	1097.83
412.30	1099.93
412.67	1099.47
413.04	1098.44
413.40	1096.89
413.77	1102.30
414.14	1103.49
414.51	1104.94
414.87	1104.57
415.24	1106.68
415.61	1102.81
415.97	1100.61
416.34	1098.67
416.71	1100.64
417.08	1100.68
417.44	1101.74
417.81	1104.10
418.18	1104.24
418.54	1103.21
418.91	1105.20
419.28	1105.62
419.64	1107.38
420.01	1110.07
420.38	1111.03
420.74	1106.86
421.11	1106.09
421.48	1103.40
421.84	1103.54
422.21	1104.29
422.58	1108.97
422.94	1110.37
423.31	1111.52
423.68	1111.17
424.04	1111.05
424.41	1110.42
424.77	1111.08
425.14	1112.97
425.51	1112.18
425.87	1114.28
426.24	1113.28
426.61	1113.16
426.97	1113.77
427.34	1116.81
427.70	1115.22
428.07	1115.48
428.44	1115.62
428.80	1117.02
429.17	1115.80
429.53	1117.42
429.90	1117.91
430.27	1116.62
430.63	1113.07
431.00	1114.82
431.36	1112.29
431.73	1112.34
432.09	1112.43
432.46	1113.70
432.83	1112.67
433.19	1110.65
433.56	1111.73
433.92	1110.05
434.29	1111.59
434.65	1109.60
435.02	1111.92
435.38	1112.39
435.75	1113.67
436.11	1111.64
436.48	1113.70
436.84	1116.15
437.21	1113.70
437.57	1117.02
437.94	1116.83
438.30	1114.14
438.67	1109.72
439.03	1109.25
439.40	1106.35
439.76	1106.35
440.13	1110.02
440.49	1111.54
440.86	1109.51
441.22	1111.08
441.59	1111.73
441.95	1111.12
442.32	1109.58
442.68	1112.97
443.05	1112.50
443.41	1110.16
443.78	1107.61
444.14	1108.13
444.51	1106.23
444.87	1105.22
445.24	1108.10
445.60	1109.16
445.96	1111.54
446.33	1114.35
446.69	1115.48
447.06	1113.42
447.42	1111.43
447.79	1111.82
448.15	1109.95
448.51	1108.43
448.88	1105.65
449.24	1106.30
449.61	1106.04
449.97	1106.54
450.33	1109.13
450.70	1110.21
451.06	1111.12
451.43	1111.29
451.79	1110.47
452.15	1109.55
452.52	1112.06
452.88	1114.24
453.24	1112.64
453.61	1114.56
453.97	1113.44
454.34	1113.81
454.70	1110.87
455.06	1112.78
455.43	1111.19
455.79	1112.08
456.15	1111.31
456.52	1113.86
456.88	1113.04
457.24	1113.04
457.61	1112.01
457.97	1114.75
458.33	1114.40
458.70	1115.01
459.06	1114.56
459.42	1115.03
459.79	1113.39
460.15	1112.13
460.51	1113.11
460.88	1115.92
461.24	1115.01
461.60	1119.29
461.96	1121.84
462.33	1122.10
462.69	1120.18
463.05	1123.90
463.42	1120.70
463.78	1119.45
464.14	1120.02
464.50	1119.48
464.87	1119.97
465.23	1121.40
465.59	1121.80
465.95	1122.33
466.32	1123.76
466.68	1126.45
467.04	1127.55
467.40	1129.68
467.77	1128.84
468.13	1133.19
468.49	1131.27
468.85	1130.85
469.22	1135.07
469.58	1138.25
469.94	1140.24
470.30	1140.85
470.66	1143.21
471.03	1144.90
471.39	1146.61
471.75	1144.90
472.11	1150.44
472.47	1154.89
472.84	1155.19
473.20	1156.67
473.56	1163.64
473.92	1162.90
474.28	1164.81
474.65	1168.65
475.01	1172.02
475.37	1172.47
475.73	1178.79
476.09	1181.62
476.45	1185.34
476.81	1191.82
477.18	1197.86
477.54	1201.70
477.90	1208.72
478.26	1214.67
478.62	1223.96
478.98	1234.75
479.34	1246.08
479.71	1250.64
480.07	1260.03
480.43	1269.48
480.79	1279.88
481.15	1288.51
481.51	1301.78
481.87	1315.10
482.23	1322.15
482.59	1331.11
482.96	1345.48
483.32	1362.07
483.68	1378.60
484.04	1399.06
484.40	1418.55
484.76	1437.56
485.12	1455.81
485.48	1470.77
485.84	1488.28
486.20	1509.01
486.56	1533.92
486.92	1560.36
487.28	1587.44
487.64	1616.75
488.00	1645.14
488.37	1673.72
488.73	1705.43
489.09	1746.37
489.45	1785.10
489.81	1825.71
490.17	1867.09
490.53	1914.89
490.89	1954.98
491.25	2001.88
491.61	2050.26
491.97	2101.31
492.33	2153.64
492.69	2208.13
493.05	2267.46
493.41	2332.13
493.77	2399.84
494.13	2469.34
494.49	2539.36
494.85	2616.34
495.21	2697.87
495.57	2782.36
495.93	2869.73
496.29	2967.28
496.64	3069.14
497.00	3165.22
497.36	3272.96
497.72	3388.16
498.08	3511.76
498.44	3637.01
498.80	3773.01
499.16	3918.10
499.52	4067.57
499.88	4225.74
500.24	4388.53
500.60	4566.67
500.96	4737.08
501.32	4902.95
501.68	5063.75
502.03	5250.69
502.39	5451.74
502.75	5665.69
503.11	5911.02
503.47	6178.71
503.83	6456.58
504.19	6731.24
504.55	7026.97
504.91	7310.66
505.26	7607.51
505.62	7929.81
505.98	8299.70
506.34	8657.13
506.70	9051.60
507.06	9491.46
507.42	9924.01
507.78	10321.29
508.13	10779.66
508.49	11255.17
508.85	11754.99
509.21	12267.96
509.57	12787.61
509.93	13317.44
510.28	13907.93
510.64	14506.85
511.00	15110.36
511.36	15766.74
511.72	16493.08
512.07	17242.19
512.43	17960.66
512.79	18766.49
513.15	19581.06
513.51	20301.27
513.86	21010.90
514.22	21858.36
514.58	22674.31
514.94	23457.46
515.30	24391.96
515.65	25416.30
516.01	26290.42
516.37	27130.83
516.73	28019.42
517.08	28751.89
517.44	29345.66
517.80	30108.09
518.16	30964.82
518.51	31840.41
518.87	32763.73
519.23	33785.94
519.59	34748.39
519.94	35683.64
520.30	36585.36
520.66	37385.61
521.01	38132.73
521.37	38769.66
521.73	39310.12
522.09	39793.23
522.44	40415.93
522.80	40918.81
523.16	41307.06
523.51	41622.31
523.87	42018.30
524.23	42259.59
524.58	42468.76
524.94	42913.93
525.30	43235.22
525.65	43282.66
526.01	43254.13
526.37	43382.34
526.72	43389.13
527.08	43311.87
527.44	43244.53
527.79	43184.22
528.15	42968.54
528.51	42646.76
528.86	42407.51
529.22	42163.30
529.58	41878.13
529.93	41488.73
530.29	40943.74
530.65	40484.85
531.00	40041.67
531.36	39475.57
531.71	38943.33
532.07	38592.77
532.43	38019.47
532.78	37384.67
533.14	36833.55
533.49	36256.70
533.85	35560.88
534.21	35012.17
534.56	34510.87
534.92	33957.97
535.27	33362.32
535.63	32668.21
535.98	31974.06
536.34	31310.82
536.69	30651.12
537.05	30040.33
537.41	29547.02
537.76	28965.49
538.12	28293.29
538.47	27782.37
538.83	27276.42
539.18	26727.77
539.54	26273.82
539.89	25859.06
540.25	25373.70
540.60	24889.56
540.96	24370.85
541.31	23889.47
541.67	23519.15
542.02	23104.72
542.38	22689.25
542.73	22276.91
543.09	21870.69
543.44	21419.08
543.80	20986.11
544.15	20553.34
544.51	20232.01
544.86	19838.40
545.22	19486.39
545.57	19158.08
545.93	18778.09
546.28	18414.38
546.64	18088.64
546.99	17746.55
547.35	17409.65
547.70	17111.98
548.05	16762.07
548.41	16398.85
548.76	15978.30
549.12	15576.55
549.47	15217.55
549.83	14905.00
550.18	14604.73
550.53	14298.38
550.89	13953.71
551.24	13630.60
551.60	13350.91
551.95	13094.29
552.30	12871.21
552.66	12699.72
553.01	12503.31
553.37	12259.59
553.72	11980.64
554.07	11707.66
554.43	11435.53
554.78	11158.48
555.13	10901.19
555.49	10640.31
555.84	10394.16
556.19	10148.68
556.55	9893.07
556.90	9631.80
557.26	9433.41
557.61	9251.11
557.96	9054.15
558.32	8868.66
558.67	8681.91
559.02	8475.01
559.37	8284.70
559.73	8111.08
560.08	7943.92
560.43	7765.36
560.79	7595.04
561.14	7409.04
561.49	7239.89
561.85	7061.96
562.20	6906.69
562.55	6777.54
562.90	6644.45
563.26	6505.43
563.61	6379.41
563.96	6251.34
564.32	6099.46
564.67	5969.84
565.02	5867.14
565.37	5768.04
565.73	5632.64
566.08	5518.49
566.43	5404.30
566.78	5265.60
567.14	5129.05
567.49	5038.89
567.84	4935.07
568.19	4831.17
568.54	4740.61
568.90	4659.30
569.25	4572.14
569.60	4492.33
569.95	4419.05
570.31	4340.34
570.66	4266.61
571.01	4180.41
571.36	4097.34
571.71	4009.36
572.06	3930.13
572.42	3850.27
572.77	3776.81
573.12	3710.31
573.47	3649.27
573.82	3592.70
574.18	3534.65
574.53	3474.53
574.88	3422.38
575.23	3361.97
575.58	3299.52
575.93	3243.42
576.28	3193.26
576.64	3135.85
576.99	3082.65
577.34	3034.64
577.69	2979.57
578.04	2923.63
578.39	2869.87
578.74	2820.51
579.09	2769.86
579.44	2723.17
579.80	2684.99
580.15	2643.49
580.50	2603.24
580.85	2563.80
581.20	2527.59
581.55	2486.89
581.90	2449.42
582.25	2408.25
582.60	2361.79
582.95	2322.19
583.30	2294.68
583.65	2262.34
584.00	2233.60
584.35	2210.36
584.71	2181.24
585.06	2147.84
585.41	2119.45
585.76	2094.78
586.11	2068.24
586.46	2046.80
586.81	2019.62
587.16	1996.41
587.51	1975.25
587.86	1952.85
588.21	1933.52
588.56	1913.13
588.91	1896.00
589.26	1871.87
589.61	1851.97
589.96	1828.10
590.31	1809.28
590.66	1784.71
591.01	1770.47
591.36	1755.80
591.71	1737.66
592.06	1719.90
592.41	1705.29
592.76	1687.13
593.10	1671.87
593.45	1659.21
593.80	1648.77
594.15	1636.83
594.50	1625.83
594.85	1614.17
595.20	1600.11
595.55	1585.60
595.90	1574.85
596.25	1563.22
596.60	1549.48
596.95	1536.59
597.30	1527.11
597.64	1571.18
597.99	1562.87
598.34	1554.30
598.69	1547.23
599.04	1537.29
599.39	1473.41
599.74	1464.15
600.09	1454.39
600.44	1446.78
600.78	1438.31
601.13	1430.84
601.48	1418.43
601.83	1409.12
602.18	1399.90
602.53	1391.50
602.88	1382.04
603.22	1375.23
603.57	1368.68
603.92	1358.42
604.27	1350.63
604.62	1346.70
604.97	1343.72
605.31	1341.36
605.66	1338.41
606.01	1333.38
606.36	1327.32
606.71	1317.39
607.05	1307.77
607.40	1300.94
607.75	1297.69
608.10	1294.36
608.44	1292.82
608.79	1292.44
609.14	1287.67
609.49	1277.68
609.84	1270.61
610.18	1264.52
610.53	1258.58
610.88	1253.03
611.23	1254.69
611.57	1250.15
611.92	1246.73
612.27	1244.28
612.62	1240.32
612.96	1236.18
613.31	1234.23
613.66	1228.38
614.00	1221.34
614.35	1221.64
614.70	1217.62
615.05	1214.74
615.39	1215.53
615.74	1214.34
616.09	1212.05
616.43	1206.85
616.78	1199.31
617.13	1196.39
617.47	1191.78
617.82	1186.25
618.17	1187.12
618.51	1184.94
618.86	1182.49
619.21	1180.89
619.55	1180.64
619.90	1174.50
620.25	1174.83
620.59	1170.08
620.94	1168.02
621.29	1168.25
621.63	1169.61
621.98	1166.38
622.32	1167.15
622.67	1166.48
623.02	1161.70
623.36	1158.31
623.71	1159.62
624.05	1156.39
624.40	1154.14
624.75	1157.77
625.09	1159.67
625.44	1155.15
625.78	1154.47
626.13	1153.93
626.48	1149.79
626.82	1146.14
627.17	1142.84
627.51	1141.15
627.86	1138.81
628.20	1134.39
628.55	1133.08
628.89	1132.21
629.24	1131.04
629.58	1131.34
629.93	1134.95
630.28	1134.55
630.62	1137.48
630.97	1138.04
631.31	1137.99
631.66	1134.97
632.00	1132.66
632.35	1128.47
632.69	1129.75
633.04	1123.95
633.38	1123.76
633.73	1123.20
634.07	1125.54
634.42	1125.19
634.76	1128.16
635.11	1127.60
635.45	1126.45
635.79	1128.84
636.14	1124.39
636.48	1124.46
636.83	1122.22
637.17	1121.89
637.52	1121.14
637.86	1122.12
638.21	1121.14
638.55	1117.35
638.89	1113.81
639.24	1109.04
639.58	1107.12
639.93	1105.36
640.27	1111.36
640.61	1114.19
640.96	1114.07
641.30	1112.90
641.65	1114.47
641.99	1108.43
642.33	1106.93
642.68	1107.89
643.02	1107.38
643.37	1103.23
643.71	1105.81
644.05	1106.30
644.40	1107.47
644.74	1107.92
645.08	1108.17
645.43	1107.92
645.77	1105.83
646.11	1104.55
646.46	1102.39
646.80	1103.19
647.14	1100.78
647.49	1102.21
647.83	1101.34
648.17	1102.21
648.52	1106.02
648.86	1104.29
649.20	1104.01
649.55	1103.31
649.89	1103.14
650.23	1096.89
650.57	1097.78
650.92	1096.70
651.26	1096.14
651.60	1095.42
651.95	1096.14
652.29	1097.88
652.63	1099.30
652.97	1100.64
653.32	1101.76
653.66	1100.96
654.00	1100.50
654.34	1101.08
654.69	1099.70
655.03	1099.00
655.37	1100.29
655.71	1101.81
656.05	1098.53
656.40	1095.32
656.74	1096.99
657.08	1093.01
657.42	1088.47
657.76	1088.23
658.11	1090.15
658.45	1089.54
658.79	1095.16
659.13	1095.86
659.47	1094.08
659.82	1093.97
660.16	1090.64
660.50	1088.86
660.84	1088.33
661.18	1089.87
661.52	1089.22
661.87	1092.87
662.21	1091.72
662.55	1094.34
662.89	1092.84
663.23	1096.70
663.57	1095.02
663.91	1097.08
664.25	1096.31
664.60	1098.48
664.94	1094.79
665.28	1095.98
665.62	1093.97
665.96	1092.26
666.30	1091.34
666.64	1092.16
666.98	1091.63
667.32	1091.27
667.66	1092.68
668.01	1092.07
668.35	1091.02
668.69	1090.08
669.03	1091.95
669.37	1090.69
669.71	1094.60
670.05	1094.04
670.39	1092.45
670.73	1089.66
671.07	1091.13
671.41	1089.26
671.75	1091.60
672.09	1094.86
672.43	1097.41
672.77	1097.69
673.11	1096.31
673.45	1093.43
673.79	1093.36
674.13	1090.57
674.47	1089.73
674.81	1092.87
675.15	1092.68
675.49	1088.47
675.83	1090.10
676.17	1089.03
676.51	1088.37
676.85	1088.82
677.19	1088.47
677.53	1086.62
677.87	1087.90
678.21	1085.52
678.55	1088.21
678.89	1090.17
679.23	1090.78
679.57	1091.11
679.90	1089.05
680.24	1087.16
680.58	1087.95
680.92	1087.81
681.26	1088.54
681.60	1088.54
681.94	1089.68
682.28	1088.02
682.62	1088.30
682.96	1086.43
683.29	1087.11
683.63	1085.47
683.97	1084.96
684.31	1086.64
684.65	1086.22
684.99	1085.66
685.33	1083.50
685.67	1085.03
686.00	1084.91
686.34	1087.09
686.68	1089.66
687.02	1092.66
687.36	1093.33
687.70	1090.20
688.03	1085.61
688.37	1087.16
688.71	1087.20
689.05	1087.58
689.39	1087.97
689.72	1090.27
690.06	1089.82
690.40	1090.67
690.74	1088.23
691.08	1088.14
691.41	1089.85
691.75	1089.71
692.09	1089.12
692.43	1088.19
692.76	1088.54
693.10	1087.88
693.44	1088.96
693.78	1088.44
694.11	1091.86
694.45	1094.67
694.79	1092.98
695.13	1091.70
695.46	1091.67
695.80	1090.57
696.14	1089.82
696.48	1092.19
696.81	1090.15
697.15	1089.66
697.49	1087.37
697.82	1085.00
698.16	1082.87
698.50	1083.81
698.83	1083.60
699.17	1083.88
699.51	1088.21
699.84	1088.28
700.18	1087.46
700.52	1087.46
700.85	1088.96
701.19	1086.50
701.53	1086.71
701.86	1087.46
702.20	1088.12
702.54	1089.52
702.87	1089.07
703.21	1090.78
703.55	1089.36
703.88	1089.96
704.22	1086.99
704.55	1086.87
704.89	1085.75
705.23	1089.07
705.56	1088.40
705.90	1092.21
706.23	1092.26
706.57	1087.95
706.91	1086.73
707.24	1087.23
707.58	1080.88
707.91	1081.19
708.25	1086.22
708.58	1085.54
708.92	1086.52
709.26	1093.38
709.59	1094.25
709.93	1095.32
710.26	1097.13
710.60	1095.07
710.93	1093.15
711.27	1090.32
711.60	1086.27
711.94	1085.49
712.27	1086.10
712.61	1086.10
712.94	1088.86
713.28	1088.89
713.61	1088.09
713.95	1085.10
714.28	1082.64
714.62	1080.65
714.95	1084.49
715.29	1082.66
715.62	1082.47
715.96	1084.14
716.29	1086.06
716.63	1082.64
716.96	1082.47
717.29	1082.52
717.63	1084.70
717.96	1084.67
718.30	1088.86
718.63	1092.05
718.97	1096.17
719.30	1098.23
719.63	1099.49
719.97	1095.72
720.30	1093.50
720.64	1092.33
720.97	1086.01
721.30	1080.37
721.64	1083.36
721.97	1085.03
722.31	1083.34
722.64	1083.55
722.97	1089.07
723.31	1088.23
723.64	1089.80
723.97	1092.30
724.31	1094.34
724.64	1093.29
724.98	1092.75
725.31	1089.33
725.64	1087.02
725.98	1085.12
726.31	1082.54
726.64	1083.86
726.97	1086.34
727.31	1089.14
727.64	1091.88
727.97	1093.87
728.31	1093.15
728.64	1092.12
728.97	1091.60
729.31	1091.42
729.64	1092.19
729.97	1094.18
730.30	1092.54
730.64	1091.93
730.97	1091.39
731.30	1093.24
731.63	1086.41
731.97	1083.79
732.30	1084.32
732.63	1085.91
732.96	1082.71
733.30	1089.36
733.63	1093.03
733.96	1089.92
734.29	1086.94
734.63	1087.02
734.96	1083.88
735.29	1083.64
735.62	1085.99
735.95	1087.67
736.29	1087.58
736.62	1086.78
736.95	1087.39
737.28	1086.80
737.61	1083.81
737.94	1084.42
738.28	1085.99
738.61	1086.62
738.94	1085.82
739.27	1089.87
739.60	1089.89
739.93	1092.37
740.27	1092.61
740.60	1091.70
740.93	1089.73
741.26	1089.19
741.59	1087.41
741.92	1084.30
742.25	1085.07
742.58	1084.79
742.91	1084.86
743.25	1083.57
743.58	1086.41
743.91	1086.01
744.24	1086.10
744.57	1086.08
744.90	1086.03
745.23	1085.03
745.56	1083.95
745.89	1084.67
746.22	1086.43
746.55	1084.42
746.88	1085.87
747.21	1088.30
747.54	1085.12
747.87	1082.31
748.20	1088.26
748.53	1089.24
748.87	1087.83
749.20	1090.69
749.53	1092.30
749.86	1086.17
750.19	1081.68
750.52	1083.97
750.85	1082.43
751.18	1081.91
751.51	1088.30
751.84	1089.19
752.16	1086.83
752.49	1089.75
752.82	1093.62
753.15	1087.88
753.48	1088.68
753.81	1087.13
754.14	1086.48
754.47	1081.23
754.80	1082.22
755.13	1082.71
755.46	1085.03
755.79	1085.24
756.12	1089.87
756.45	1091.81
756.78	1092.73
757.11	1092.09
757.43	1088.12
757.76	1082.80
758.09	1081.07
758.42	1081.30
758.75	1084.37
759.08	1088.86
759.41	1092.30
759.74	1094.97
760.07	1092.23
760.39	1089.82
760.72	1088.23
761.05	1085.61
761.38	1085.49
761.71	1087.27
762.04	1088.51
762.36	1092.77
762.69	1093.43
763.02	1091.20
763.35	1089.99
763.68	1086.64
764.01	1080.32
764.33	1081.87
764.66	1082.15
764.99	1083.60
765.32	1083.13
765.65	1086.34
765.97	1086.20
766.30	1084.44
766.63	1081.80
766.96	1086.06
767.28	1085.03
767.61	1081.44
767.94	1080.67
768.27	1083.64
768.59	1083.13
768.92	1083.69
769.25	1087.51
769.58	1085.54
769.90	1083.29
770.23	1081.89
770.56	1080.39
770.89	1077.40
771.21	1083.39
771.54	1085.24
771.87	1083.39
772.19	1084.37
772.52	1086.57
772.85	1088.42
773.17	1089.85
773.50	1091.04
773.83	1091.25
774.15	1090.74
774.48	1086.03
774.81	1084.86
775.13	1088.42
775.46	1086.31
775.79	1085.00
776.11	1087.97
776.44	1089.19
776.77	1086.76
777.09	1087.60
777.42	1090.13
777.74	1087.93
778.07	1085.94
778.40	1086.24
778.72	1088.37
779.05	1089.75
779.37	1092.19
779.70	1093.29
780.03	1092.84
780.35	1088.89
780.68	1081.73
781.00	1078.71
781.33	1077.44
781.65	1078.57
781.98	1084.23
782.31	1087.27
782.63	1088.23
782.96	1087.06
783.28	1086.20
783.61	1082.73
783.93	1083.15
784.26	1082.29
784.58	1081.51
784.91	1080.25
785.23	1080.79
785.56	1083.50
785.88	1085.14
786.21	1090.43
786.53	1091.88
786.86	1091.20
787.18	1089.33
787.51	1086.43
787.83	1082.99
788.16	1082.17
788.48	1087.09
788.81	1084.93
789.13	1085.33
789.46	1087.02
789.78	1087.93
790.10	1084.14
790.43	1085.10
790.75	1084.23
791.08	1084.46
791.40	1083.34
791.73	1088.42
792.05	1090.43
792.37	1092.16
792.70	1089.71
793.02	1090.10
793.35	1082.08
793.67	1079.67
793.99	1082.36
794.32	1083.46
794.64	1084.04
794.96	1085.61
795.29	1086.31
795.61	1084.32
795.93	1085.40
796.26	1085.61
796.58	1089.07
796.91	1090.57
797.23	1089.52
797.55	1087.53
797.87	1086.73
798.20	1083.27
798.52	1083.83
798.84	1082.01
799.17	1079.22
799.49	1080.60
799.81	1081.35
800.14	1081.68
800.46	1084.18
800.78	1086.71
801.10	1084.81
801.43	1081.61
801.75	1079.03
802.07	1079.48
802.40	1080.39
802.72	1083.06
803.04	1083.76
803.36	1084.39
803.69	1084.07
804.01	1082.92
804.33	1079.10
804.65	1079.83
804.97	1079.43
805.30	1081.68
805.62	1081.00
805.94	1081.12
806.26	1085.19
806.58	1087.25
806.91	1085.38
807.23	1088.00
807.55	1091.58
807.87	1088.02
808.19	1088.89
808.52	1084.53
808.84	1081.80
809.16	1081.73
809.48	1085.91
809.80	1083.43
810.12	1085.49
810.44	1085.91
810.77	1079.24
811.09	1075.17
811.41	1074.24
811.73	1075.57
812.05	1077.89
812.37	1084.60
812.69	1086.22
813.01	1088.82
813.33	1090.39
813.66	1091.30
813.98	1089.61
814.30	1089.03
814.62	1085.82
814.94	1083.79
815.26	1081.61
815.58	1078.99
815.90	1078.96
816.22	1082.99
816.54	1085.26
816.86	1087.06
817.18	1089.66
817.50	1093.33
817.82	1091.44
818.14	1090.08
818.46	1089.17
818.78	1088.91
819.10	1085.07
819.42	1085.19
819.74	1083.81
820.06	1086.20
820.38	1084.60
820.70	1082.99
821.02	1080.84
821.34	1082.59
821.66	1080.04
821.98	1082.99
822.30	1083.36
822.62	1082.12
822.94	1081.96
823.26	1082.57
823.58	1081.35
823.90	1085.49
824.22	1088.07
824.54	1086.94
824.86	1087.83
825.18	1087.86
825.50	1086.13
825.81	1086.64
826.13	1088.58
826.45	1086.06
826.77	1086.59
827.09	1084.58
827.41	1082.99
827.73	1082.24
828.05	1081.30
828.36	1082.54
828.68	1079.62
829.00	1081.73
829.32	1081.89
829.64	1080.81
829.96	1078.96
830.28	1081.91
830.59	1081.26
830.91	1080.58
831.23	1084.02
831.55	1082.40
831.87	1080.95
832.19	1078.96
832.50	1077.84
832.82	1078.10
833.14	1079.34
833.46	1079.69
833.78	1078.75
834.09	1080.23
834.41	1079.41
834.73	1081.12
835.05	1083.34
835.36	1084.53
835.68	1087.25
836.00	1087.02
836.32	1086.85
836.63	1087.86
836.95	1087.32
837.27	1084.86
837.59	1084.60
837.90	1082.54
838.22	1081.21
838.54	1084.21
838.85	1080.70
839.17	1080.41
839.49	1082.94
839.80	1082.76
840.12	1081.49
840.44	1080.77
840.76	1081.91
841.07	1084.09
841.39	1082.01
841.71	1084.09
842.02	1092.75
842.34	1092.07
842.65	1089.47
842.97	1093.01
843.29	1092.66
843.60	1089.82
843.92	1090.48
844.24	1090.39
844.55	1090.39
844.87	1090.39
845.18	1089.14
845.50	1088.35
845.82	1089.31
846.13	1088.14
846.45	1087.72
846.76	1088.84
847.08	1089.47
847.40	1086.90
847.71	1086.59
848.03	1086.20
848.34	1083.20
848.66	1081.44
848.97	1079.99
849.29	1078.64
849.60	1080.53
849.92	1080.04
850.24	1081.23
850.55	1084.96
850.87	1084.93
851.18	1081.87
851.50	1084.23
851.81	1083.71
852.13	1086.10
852.44	1089.75
852.76	1089.45
853.07	1087.02
853.39	1086.97
853.70	1085.00
854.01	1081.63
854.33	1081.19
854.64	1084.23
854.96	1085.26
855.27	1082.05
855.59	1082.57
855.90	1082.52
856.22	1080.67
856.53	1080.02
856.84	1082.50
857.16	1083.57
857.47	1085.73
857.79	1086.52
858.10	1084.11
858.41	1081.40
858.73	1079.92
859.04	1078.14
859.36	1078.36
859.67	1082.99
859.98	1087.02
860.30	1085.80
860.61	1087.11
860.92	1086.24
861.24	1085.21
861.55	1082.85
861.87	1085.73
862.18	1087.39
862.49	1085.89
862.81	1084.11
863.12	1084.02
863.43	1083.69
863.74	1082.24
864.06	1083.36
864.37	1084.18
864.68	1082.12
865.00	1082.69
865.31	1083.64
865.62	1080.18
865.94	1080.58
866.25	1080.20
866.56	1076.13
866.87	1073.81
867.19	1078.52
867.50	1078.47
867.81	1080.86
868.12	1080.63
868.44	1079.76
868.75	1077.11
869.06	1074.54
869.37	1073.28
869.68	1076.27
870.00	1077.40
870.31	1079.64
870.62	1081.54
870.93	1085.52
871.24	1084.89
871.56	1084.67
871.87	1084.32
872.18	1082.76
872.49	1079.48
872.80	1081.12
873.12	1080.04
873.43	1080.32
873.74	1080.51
874.05	1083.34
874.36	1081.87
874.67	1084.77
874.98	1085.56
875.29	1085.73
875.61	1081.14
875.92	1080.74
876.23	1080.04
876.54	1079.99
876.85	1081.61
877.16	1083.67
877.47	1084.93
877.78	1083.50
878.09	1082.22
878.40	1080.23
878.72	1077.14
879.03	1077.00
879.34	1079.22
879.65	1078.33
879.96	1079.15
880.27	1081.82
880.58	1078.40
880.89	1074.38
881.20	1075.64
881.51	1079.01
881.82	1077.35
882.13	1080.53
882.44	1081.05
882.75	1079.48
883.06	1077.42
883.37	1077.89
883.68	1076.88
883.99	1080.20
884.30	1080.65
884.61	1081.00
884.92	1081.21
885.23	1081.77
885.54	1079.69
885.85	1082.85
886.16	1080.58
886.47	1080.91
886.78	1083.11
887.08	1084.84
887.39	1086.10
887.70	1087.11
888.01	1087.25
888.32	1085.77
888.63	1084.65
888.94	1083.01
889.25	1081.14
889.56	1084.96
889.87	1084.72
890.17	1086.99
890.48	1087.20
890.79	1089.14
891.10	1085.40
891.41	1085.03
891.72	1082.92
892.03	1083.13
892.34	1085.59
892.64	1087.02
892.95	1089.59
893.26	1089.87
893.57	1088.30
893.88	1089.54
894.18	1091.06
894.49	1085.91
894.80	1083.88
895.11	1087.13
895.42	1082.71
895.72	1080.77
896.03	1082.87
896.34	1082.01
896.65	1078.59
896.96	1077.47
897.26	1075.01
897.57	1076.95
897.88	1079.06
898.19	1077.16
898.49	1075.92
898.80	1079.22
899.11	1077.21
899.41	1077.35
899.72	1078.92
900.03	1082.31
900.34	1079.64
900.64	1081.30
900.95	1082.47
901.26	1083.79
901.56	1083.08
901.87	1085.84
902.18	1085.96
902.48	1086.50
902.79	1082.85
903.10	1080.81
903.40	1080.23
903.71	1078.87
904.02	1077.16
904.32	1077.56
904.63	1079.81
904.94	1079.20
905.24	1081.91
905.55	1084.14
905.85	1084.81
906.16	1086.01
906.47	1083.55
906.77	1081.51
907.08	1079.15
907.38	1079.01
907.69	1077.89
908.00	1081.84
908.30	1083.60
908.61	1086.69
908.91	1088.42
909.22	1088.04
909.52	1083.93
909.83	1084.58
910.14	1081.02
910.44	1081.47
910.75	1085.45
911.05	1088.30
911.36	1086.97
911.66	1088.44
911.97	1088.82
912.27	1085.28
912.58	1087.76
912.88	1086.85
913.19	1086.20
913.49	1087.39
913.80	1087.34
914.10	1085.66
914.41	1086.06
914.71	1086.20
915.01	1085.96
915.32	1085.84
915.62	1085.26
915.93	1085.91
916.23	1086.73
916.54	1086.71
916.84	1087.72
917.15	1086.71
917.45	1086.24
917.75	1084.37
918.06	1081.70
918.36	1081.56
918.67	1081.35
918.97	1077.82
919.27	1077.18
919.58	1077.21
919.88	1076.69
920.18	1076.93
920.49	1078.73
920.79	1079.03
921.10	1080.48
921.40	1078.85
921.70	1079.88
922.01	1081.61
922.31	1084.53
922.61	1081.63
922.92	1085.75
923.22	1084.39
923.52	1086.17
923.82	1084.81
924.13	1086.15
924.43	1083.29
924.73	1081.23
925.04	1079.22
925.34	1078.96
925.64	1078.28
925.94	1079.99
926.25	1081.26
926.55	1081.70
926.85	1080.93
927.15	1081.66
927.46	1078.03
927.76	1081.23
928.06	1078.73
928.36	1079.15
928.67	1076.39
928.97	1077.44
929.27	1076.23
929.57	1078.73
929.87	1080.65
930.18	1084.65
930.48	1088.23
930.78	1088.56
931.08	1086.59
931.38	1085.68
931.69	1083.90
931.99	1079.29
932.29	1079.24
932.59	1081.77
932.89	1080.11
933.19	1081.05
933.49	1083.50
933.80	1082.99
934.10	1082.01
934.40	1082.50
934.70	1083.08
935.00	1082.08
935.30	1083.22
935.60	1082.76
935.90	1083.29
936.20	1080.16
936.50	1081.63
936.81	1080.91
937.11	1081.58
937.41	1081.35
937.71	1085.61
938.01	1086.03
938.31	1085.03
938.61	1081.54
938.91	1081.42
939.21	1079.76
939.51	1080.34
939.81	1081.16
940.11	1084.70
940.41	1082.29
940.71	1082.99
941.01	1080.30
941.31	1079.15
941.61	1080.95
941.91	1081.33
942.21	1080.86
942.51	1079.85
942.81	1079.99
943.11	1077.91
943.41	1080.77
943.71	1077.89
944.01	1079.46
944.31	1079.60
944.61	1079.38
944.90	1078.50
945.20	1079.34
945.50	1079.57
945.80	1082.01
946.10	1080.67
946.40	1082.17
946.70	1084.25
947.00	1082.33
947.30	1080.81
947.60	1080.09
947.89	1077.82
948.19	1078.40
948.49	1082.90
948.79	1082.12
949.09	1083.08
949.39	1086.64
949.69	1086.66
949.98	1086.15
950.28	1086.38
950.58	1083.53
950.88	1080.84
951.18	1081.63
951.48	1078.36
951.77	1078.12
952.07	1081.84
952.37	1081.26
952.67	1079.20
952.97	1079.88
953.26	1080.63
953.56	1080.86
953.86	1083.57
954.16	1085.07
954.45	1085.12
954.75	1081.96
955.05	1084.28
955.35	1083.25
955.64	1080.60
955.94	1080.09
956.24	1086.52
956.54	1081.26
956.83	1083.60
957.13	1087.30
957.43	1086.17
957.72	1083.25
958.02	1083.53
958.32	1077.77
958.61	1076.48
958.91	1078.80
959.21	1075.69
959.50	1077.58
959.80	1078.31
960.10	1079.10
960.39	1080.58
960.69	1082.43
960.99	1084.44
961.28	1084.91
961.58	1082.12
961.87	1078.19
962.17	1080.77
962.47	1077.70
962.76	1080.02
963.06	1082.01
963.36	1086.57
963.65	1083.13
963.95	1083.15
964.24	1082.69
964.54	1082.59
964.83	1077.72
965.13	1081.63
965.42	1083.29
965.72	1083.01
966.02	1082.47
966.31	1084.77
966.61	1081.49
966.90	1080.91
967.20	1080.16
967.49	1081.68
967.79	1084.42
968.08	1086.41
968.38	1087.90
968.67	1089.68
968.97	1092.42
969.26	1089.05
969.56	1088.54
969.85	1088.07
970.15	1087.58
970.44	1083.27
970.74	1082.78
971.03	1082.19
971.32	1083.29
971.62	1085.05
971.91	1083.32
972.21	1085.87
972.50	1085.61
972.80	1084.58
973.09	1079.46
973.38	1079.90
973.68	1079.99
973.97	1080.84
974.27	1080.91
974.56	1084.25
974.85	1084.77
975.15	1083.79
975.44	1082.87
975.73	1082.50
976.03	1079.92
976.32	1082.45
976.61	1083.57
976.91	1084.16
977.20	1084.91
977.49	1087.32
977.79	1086.24
978.08	1086.20
978.37	1086.99
978.67	1089.40
978.96	1090.55
979.25	1089.10
979.55	1086.29
979.84	1086.29
980.13	1081.23
980.42	1077.61
980.72	1078.71
981.01	1080.60
981.30	1081.82
981.59	1082.85
981.89	1085.54
982.18	1082.10
982.47	1082.85
982.76	1080.58
983.06	1081.09
983.35	1079.38
983.64	1083.81
983.93	1083.55
984.22	1084.46
984.52	1083.32
984.81	1086.24
985.10	1086.76
985.39	1084.91
985.68	1085.75
985.97	1088.79
986.27	1084.89
986.56	1077.98
986.85	1079.78
987.14	1074.70
987.43	1070.80
987.72	1072.04
988.01	1076.65
988.31	1075.57
988.60	1079.53
988.89	1082.24
989.18	1086.08
989.47	1085.40
989.76	1083.97
990.05	1086.43
990.34	1086.17
990.63	1084.39
990.92	1084.32
991.21	1088.65
991.51	1083.29
991.80	1081.73
992.09	1080.51
992.38	1081.66
992.67	1080.60
992.96	1082.43
993.25	1083.04
993.54	1080.98
993.83	1082.61
994.12	1080.02
994.41	1079.71
994.70	1080.70
994.99	1083.34
995.28	1080.25
995.57	1079.69
995.86	1081.51
996.15	1081.47
996.44	1079.62
996.73	1079.31
997.02	1078.45
997.31	1078.12
997.59	1078.92
997.88	1081.70
998.17	1084.14
998.46	1085.91
998.75	1085.21
999.04	1085.28
999.33	1083.90
999.62	1080.79
999.91	1083.83
1000.20	1083.95
1000.49	1080.09
1000.77	1080.56
1001.06	1083.18
1001.35	1079.71
1001.64	1077.61
1001.93	1080.34
1002.22	1077.68
1002.51	1075.62
1002.79	1078.45
1003.08	1080.58
1003.37	1078.54
1003.66	1080.77
1003.95	1084.42
1004.23	1085.66
1004.52	1081.61
1004.81	1083.34
1005.10	1084.32
1005.39	1082.61
1005.67	1078.85
1005.96	1082.08
1006.25	1082.45
1006.54	1082.05
1006.83	1083.81
1007.11	1086.38
1007.40	1087.46
1007.69	1086.17
1007.97	1087.86
1008.26	1085.89
1008.55	1085.96
1008.84	1084.09
1009.12	1086.01
1009.41	1086.73
1009.70	1088.04
1009.98	1084.77
1010.27	1085.14
1010.56	1082.05
1010.85	1081.58
1011.13	1080.65
1011.42	1078.61
1011.71	1080.74
1011.99	1082.61
1012.28	1082.99
1012.56	1080.48
1012.85	1084.02
1013.14	1082.43
1013.42	1085.28
1013.71	1083.55
1014.00	1086.24
1014.28	1086.64
1014.57	1087.62
1014.85	1082.64
1015.14	1077.98
1015.43	1077.49
1015.71	1077.00
1016.00	1074.07
1016.28	1076.62
1016.57	1081.96
1016.85	1080.65
1017.14	1081.23
1017.43	1085.33
1017.71	1085.07
1018.00	1082.54
1018.28	1082.38
1018.57	1085.24
1018.85	1081.68
1019.14	1081.91
1019.42	1082.10
1019.71	1083.71
1019.99	1081.75
1020.28	1084.51
1020.56	1085.68
1020.85	1085.82
1021.13	1087.20
1021.42	1086.22
1021.70	1085.91
1021.99	1085.82
1022.27	1082.03
1022.55	1088.58
1022.84	1062.14
>>>>>End Processed Spectral Data<<<<<
