SpectraSuite Data File
++++++++++++++++++++++++++++++++++++
Date: Mon Aug 26 10:26:39 PDT 2019
User: corrico
Dark Spectrum Present: No
Reference Spectrum Present: No
Number of Sampled Component Spectra: 1
Spectrometers: USB2+H06089
Integration Time (usec): 10000 (USB2+H06089)
Spectra Averaged: 20 (USB2+H06089)
Boxcar Smoothing: 2 (USB2+H06089)
Correct for Electrical Dark: No (USB2+H06089)
Strobe/Lamp Enabled: No (USB2+H06089)
Correct for Detector Non-linearity: No (USB2+H06089)
Correct for Stray Light: No (USB2+H06089)
Number of Pixels in Processed Spectrum: 2048
>>>>>Begin Processed Spectral Data<<<<<
339.70	1034.17
340.07	1034.17
340.45	1002.01
340.82	979.65
341.19	957.19
341.57	932.89
341.94	922.52
342.31	916.34
342.69	912.01
343.06	907.07
343.43	906.30
343.81	904.50
344.18	902.35
344.55	908.03
344.93	913.67
345.30	920.86
345.67	929.08
346.04	939.05
346.42	946.42
346.79	955.66
347.16	961.47
347.54	972.80
347.91	980.36
348.28	988.43
348.65	996.81
349.03	1005.52
349.40	1014.25
349.77	1025.97
350.14	1032.55
350.52	1040.74
350.89	1048.16
351.26	1051.70
351.63	1056.21
352.01	1061.76
352.38	1066.14
352.75	1070.70
353.12	1072.83
353.50	1072.85
353.87	1077.28
354.24	1078.78
354.61	1081.35
354.98	1085.00
355.36	1089.64
355.73	1089.38
356.10	1093.03
356.47	1093.17
356.84	1094.18
357.22	1093.87
357.59	1093.43
357.96	1091.20
358.33	1088.77
358.70	1088.61
359.08	1085.45
359.45	1086.10
359.82	1086.17
360.19	1087.48
360.56	1083.71
360.94	1083.29
361.31	1082.57
361.68	1081.80
362.05	1081.94
362.42	1084.72
362.79	1085.94
363.16	1085.75
363.54	1085.26
363.91	1083.76
364.28	1082.54
364.65	1080.39
365.02	1080.13
365.39	1079.97
365.76	1081.09
366.14	1081.23
366.51	1082.36
366.88	1082.85
367.25	1078.28
367.62	1076.62
367.99	1075.29
368.36	1072.62
368.73	1068.45
369.10	1072.06
369.48	1071.08
369.85	1072.39
370.22	1074.66
370.59	1078.61
370.96	1078.82
371.33	1077.96
371.70	1078.36
372.07	1077.93
372.44	1077.70
372.81	1077.25
373.18	1077.82
373.55	1076.32
373.93	1078.78
374.30	1077.35
374.67	1078.31
375.04	1080.95
375.41	1080.39
375.78	1077.28
376.15	1080.16
376.52	1079.10
376.89	1081.21
377.26	1083.29
377.63	1083.34
378.00	1082.43
378.37	1081.40
378.74	1078.24
379.11	1078.33
379.48	1080.79
379.85	1081.77
380.22	1083.53
380.59	1082.73
380.96	1084.39
381.33	1083.11
381.70	1081.19
382.07	1080.46
382.44	1080.81
382.81	1078.43
383.18	1079.83
383.55	1080.48
383.92	1084.74
384.29	1084.63
384.66	1087.04
385.03	1089.10
385.40	1090.88
385.77	1087.23
386.14	1090.17
386.51	1092.59
386.88	1089.24
387.25	1087.81
387.62	1088.09
387.99	1086.34
388.36	1082.29
388.73	1082.19
389.10	1082.59
389.46	1085.35
389.83	1084.30
390.20	1087.13
390.57	1088.98
390.94	1089.14
391.31	1088.75
391.68	1089.36
392.05	1085.80
392.42	1085.14
392.79	1084.58
393.16	1084.89
393.53	1087.60
393.89	1091.86
394.26	1095.25
394.63	1095.82
395.00	1095.98
395.37	1093.99
395.74	1092.12
396.11	1089.57
396.48	1090.74
396.84	1089.78
397.21	1091.25
397.58	1093.22
397.95	1094.93
398.32	1095.70
398.69	1094.97
399.06	1095.04
399.42	1092.98
399.79	1089.38
400.16	1088.12
400.53	1090.62
400.90	1093.78
401.27	1092.89
401.64	1094.81
402.00	1096.87
402.37	1096.05
402.74	1091.58
403.11	1092.68
403.48	1093.66
403.84	1090.78
404.21	1090.20
404.58	1090.95
404.95	1090.97
405.32	1091.34
405.68	1090.39
406.05	1089.31
406.42	1089.66
406.79	1088.33
407.16	1085.26
407.52	1085.63
407.89	1089.22
408.26	1086.52
408.63	1091.04
408.99	1093.43
409.36	1094.29
409.73	1092.05
410.10	1094.29
410.47	1093.33
410.83	1091.60
411.20	1096.28
411.57	1098.09
411.94	1101.22
412.30	1103.77
412.67	1109.84
413.04	1108.13
413.40	1108.17
413.77	1109.72
414.14	1107.33
414.51	1103.07
414.87	1102.98
415.24	1100.36
415.61	1102.37
415.97	1105.44
416.34	1103.80
416.71	1101.67
417.08	1104.73
417.44	1103.47
417.81	1100.50
418.18	1105.13
418.54	1106.11
418.91	1107.05
419.28	1103.59
419.64	1104.24
420.01	1104.83
420.38	1108.78
420.74	1109.20
421.11	1113.02
421.48	1115.55
421.84	1113.67
422.21	1113.42
422.58	1112.74
422.94	1111.71
423.31	1109.62
423.68	1108.90
424.04	1107.82
424.41	1107.31
424.77	1105.81
425.14	1107.47
425.51	1110.05
425.87	1108.78
426.24	1111.40
426.61	1111.61
426.97	1111.92
427.34	1109.48
427.70	1113.28
428.07	1108.76
428.44	1113.42
428.80	1112.06
429.17	1112.83
429.53	1111.57
429.90	1115.69
430.27	1113.21
430.63	1114.47
431.00	1115.41
431.36	1114.31
431.73	1111.80
432.09	1110.19
432.46	1108.20
432.83	1112.92
433.19	1114.70
433.56	1115.90
433.92	1116.90
434.29	1118.26
434.65	1114.54
435.02	1111.29
435.38	1110.89
435.75	1110.65
436.11	1113.23
436.48	1117.30
436.84	1119.67
437.21	1119.36
437.57	1119.24
437.94	1116.81
438.30	1110.63
438.67	1108.34
439.03	1107.87
439.40	1106.61
439.76	1106.02
440.13	1107.96
440.49	1111.19
440.86	1109.81
441.22	1111.33
441.59	1108.76
441.95	1108.50
442.32	1105.65
442.68	1106.68
443.05	1108.38
443.41	1112.57
443.78	1114.63
444.14	1113.21
444.51	1113.37
444.87	1112.36
445.24	1109.16
445.60	1108.10
445.96	1110.16
446.33	1111.24
446.69	1112.27
447.06	1113.37
447.42	1112.90
447.79	1113.09
448.15	1112.88
448.51	1110.23
448.88	1110.82
449.24	1106.11
449.61	1103.47
449.97	1103.80
450.33	1103.38
450.70	1102.46
451.06	1104.59
451.43	1106.04
451.79	1107.10
452.15	1108.81
452.52	1110.40
452.88	1115.92
453.24	1114.96
453.61	1115.20
453.97	1113.42
454.34	1109.79
454.70	1106.75
455.06	1107.78
455.43	1104.52
455.79	1106.70
456.15	1109.25
456.52	1112.43
456.88	1112.27
457.24	1111.92
457.61	1110.87
457.97	1109.65
458.33	1106.61
458.70	1104.73
459.06	1105.95
459.42	1103.19
459.79	1102.51
460.15	1103.40
460.51	1107.61
460.88	1108.48
461.24	1112.27
461.60	1112.57
461.96	1113.98
462.33	1114.05
462.69	1114.19
463.05	1115.27
463.42	1117.77
463.78	1117.11
464.14	1116.90
464.50	1120.32
464.87	1120.39
465.23	1120.06
465.59	1121.26
465.95	1121.65
466.32	1120.72
466.68	1121.80
467.04	1122.12
467.40	1122.36
467.77	1123.81
468.13	1125.66
468.49	1127.18
468.85	1130.24
469.22	1134.46
469.58	1135.65
469.94	1135.46
470.30	1136.66
470.66	1135.98
471.03	1133.52
471.39	1136.77
471.75	1140.73
472.11	1143.12
472.47	1146.89
472.84	1148.62
473.20	1149.48
473.56	1151.89
473.92	1158.64
474.28	1165.38
474.65	1169.71
475.01	1175.30
475.37	1175.98
475.73	1176.91
476.09	1177.71
476.45	1182.23
476.81	1182.04
477.18	1188.90
477.54	1192.90
477.90	1197.63
478.26	1203.43
478.62	1214.27
478.98	1222.67
479.34	1229.67
479.71	1239.10
480.07	1250.55
480.43	1262.98
480.79	1272.55
481.15	1282.47
481.51	1290.45
481.87	1296.05
482.23	1300.50
482.59	1310.35
482.96	1323.74
483.32	1339.70
483.68	1357.77
484.04	1376.56
484.40	1395.15
484.76	1413.54
485.12	1430.30
485.48	1446.43
485.84	1466.49
486.20	1487.27
486.56	1509.67
486.92	1535.18
487.28	1562.21
487.64	1587.12
488.00	1614.60
488.37	1644.25
488.73	1675.54
489.09	1706.93
489.45	1744.00
489.81	1779.67
490.17	1813.96
490.53	1856.28
490.89	1896.96
491.25	1938.27
491.61	1981.71
491.97	2032.87
492.33	2080.69
492.69	2135.04
493.05	2192.12
493.41	2254.38
493.77	2313.03
494.13	2377.21
494.49	2444.78
494.85	2518.72
495.21	2588.73
495.57	2666.36
495.93	2749.08
496.29	2830.08
496.64	2921.81
497.00	3010.09
497.36	3109.85
497.72	3212.13
498.08	3326.30
498.44	3439.77
498.80	3571.12
499.16	3704.06
499.52	3842.41
499.88	3995.27
500.24	4141.81
500.60	4297.15
500.96	4460.57
501.32	4637.33
501.68	4807.37
502.03	5000.88
502.39	5205.35
502.75	5417.24
503.11	5636.99
503.47	5865.48
503.83	6098.45
504.19	6348.66
504.55	6615.52
504.91	6886.02
505.26	7171.17
505.62	7486.60
505.98	7810.23
506.34	8141.32
506.70	8508.64
507.06	8901.20
507.42	9297.75
507.78	9703.81
508.13	10110.37
508.49	10531.52
508.85	10975.94
509.21	11453.48
509.57	11976.17
509.93	12551.90
510.28	13142.69
510.64	13761.60
511.00	14375.31
511.36	14937.98
511.72	15520.16
512.07	16168.14
512.43	16783.84
512.79	17438.61
513.15	18187.58
513.51	18928.19
513.86	19653.69
514.22	20478.99
514.58	21286.96
514.94	22114.06
515.30	22974.79
515.65	23785.74
516.01	24637.13
516.37	25479.31
516.73	26260.41
517.08	27112.41
517.44	27971.27
517.80	28746.58
518.16	29577.21
518.51	30389.45
518.87	31134.88
519.23	31979.28
519.59	32864.96
519.94	33706.43
520.30	34589.21
520.66	35356.27
521.01	36166.36
521.37	36833.31
521.73	37437.34
522.09	38021.93
522.44	38652.59
522.80	39055.77
523.16	39396.18
523.51	39668.05
523.87	39957.44
524.23	40241.30
524.58	40508.28
524.94	40912.77
525.30	41255.55
525.65	41436.19
526.01	41476.10
526.37	41476.19
526.72	41396.84
527.08	41268.30
527.44	41100.04
527.79	40928.08
528.15	40816.51
528.51	40574.43
528.86	40359.43
529.22	40121.67
529.58	39880.04
529.93	39474.70
530.29	39028.71
530.65	38647.30
531.00	38292.19
531.36	37850.16
531.71	37416.55
532.07	36955.40
532.43	36368.79
532.78	35719.43
533.14	35145.79
533.49	34560.33
533.85	33944.25
534.21	33335.52
534.56	32775.43
534.92	32165.28
535.27	31540.36
535.63	30940.36
535.98	30347.99
536.34	29718.65
536.69	29064.00
537.05	28471.77
537.41	27959.71
537.76	27453.41
538.12	26903.83
538.47	26440.47
538.83	25974.19
539.18	25500.35
539.54	25019.16
539.89	24543.91
540.25	24015.25
540.60	23533.81
540.96	23023.55
541.31	22537.28
541.67	22131.22
542.02	21744.49
542.38	21317.27
542.73	20874.51
543.09	20462.37
543.44	20105.93
543.80	19756.93
544.15	19362.57
544.51	19040.09
544.86	18746.75
545.22	18375.55
545.57	17995.70
545.93	17642.68
546.28	17330.73
546.64	17011.58
546.99	16671.50
547.35	16350.14
547.70	16059.84
548.05	15736.12
548.41	15410.32
548.76	15119.11
549.12	14836.19
549.47	14551.04
549.83	14293.07
550.18	13977.68
550.53	13650.80
550.89	13375.46
551.24	13103.16
551.60	12800.53
551.95	12557.98
552.30	12344.15
552.66	12103.21
553.01	11852.85
553.37	11588.83
553.72	11312.25
554.07	11044.85
554.43	10747.23
554.78	10467.23
555.13	10209.18
555.49	9986.06
555.84	9786.65
556.19	9607.92
556.55	9410.66
556.90	9219.98
557.26	9012.70
557.61	8789.04
557.96	8546.84
558.32	8352.88
558.67	8154.94
559.02	7939.78
559.37	7751.69
559.73	7609.15
560.08	7452.69
560.43	7296.03
560.79	7170.61
561.14	7024.79
561.49	6862.19
561.85	6700.16
562.20	6556.71
562.55	6419.04
562.90	6286.70
563.26	6165.02
563.61	6053.23
563.96	5943.77
564.32	5829.31
564.67	5704.94
565.02	5588.40
565.37	5464.71
565.73	5354.56
566.08	5252.40
566.43	5154.84
566.78	5043.74
567.14	4946.68
567.49	4838.64
567.84	4727.86
568.19	4618.93
568.54	4537.46
568.90	4449.36
569.25	4365.75
569.60	4298.58
569.95	4231.43
570.31	4146.87
570.66	4071.32
571.01	3990.61
571.36	3899.36
571.71	3821.67
572.06	3755.83
572.42	3692.12
572.77	3633.89
573.12	3578.56
573.47	3519.30
573.82	3455.68
574.18	3394.57
574.53	3334.73
574.88	3274.53
575.23	3222.89
575.58	3180.91
575.93	3128.48
576.28	3076.10
576.64	3025.54
576.99	2968.36
577.34	2900.51
577.69	2848.41
578.04	2796.66
578.39	2749.83
578.74	2711.74
579.09	2675.84
579.44	2637.01
579.80	2601.67
580.15	2560.66
580.50	2521.53
580.85	2485.93
581.20	2451.99
581.55	2418.41
581.90	2388.00
582.25	2358.91
582.60	2327.83
582.95	2292.09
583.30	2249.33
583.65	2217.21
584.00	2179.27
584.35	2146.81
584.71	2119.03
585.06	2095.93
585.41	2065.62
585.76	2040.48
586.11	2012.37
586.46	1987.75
586.81	1966.12
587.16	1944.68
587.51	1924.67
587.86	1907.07
588.21	1893.03
588.56	1872.43
588.91	1852.09
589.26	1832.38
589.61	1813.47
589.96	1788.80
590.31	1771.55
590.66	1758.82
591.01	1744.96
591.36	1731.79
591.71	1711.68
592.06	1694.50
592.41	1677.81
592.76	1661.22
593.10	1642.31
593.45	1630.67
593.80	1617.61
594.15	1598.16
594.50	1585.64
594.85	1575.51
595.20	1565.16
595.55	1555.94
595.90	1547.56
596.25	1536.12
596.60	1521.16
596.95	1508.15
597.30	1495.16
597.64	1535.09
597.99	1530.45
598.34	1525.42
598.69	1515.94
599.04	1506.35
599.39	1448.98
599.74	1437.11
600.09	1426.65
600.44	1419.93
600.78	1413.85
601.13	1407.46
601.48	1397.30
601.83	1390.02
602.18	1381.10
602.53	1376.28
602.88	1373.66
603.22	1366.57
603.57	1362.92
603.92	1355.08
604.27	1346.09
604.62	1336.66
604.97	1328.91
605.31	1320.79
605.66	1321.40
606.01	1315.22
606.36	1306.42
606.71	1302.23
607.05	1297.43
607.40	1289.56
607.75	1286.85
608.10	1285.42
608.44	1280.55
608.79	1275.80
609.14	1271.64
609.49	1265.55
609.84	1264.15
610.18	1266.02
610.53	1267.12
610.88	1265.20
611.23	1265.55
611.57	1259.04
611.92	1253.87
612.27	1247.74
612.62	1244.46
612.96	1238.49
613.31	1233.65
613.66	1227.73
614.00	1219.82
614.35	1213.94
614.70	1209.26
615.05	1206.85
615.39	1205.89
615.74	1201.58
616.09	1199.76
616.43	1199.36
616.78	1195.24
617.13	1191.99
617.47	1195.57
617.82	1192.43
618.17	1189.25
618.51	1190.28
618.86	1187.24
619.21	1181.06
619.55	1180.19
619.90	1177.92
620.25	1171.84
620.59	1167.20
620.94	1167.62
621.29	1165.07
621.63	1162.12
621.98	1163.32
622.32	1164.18
622.67	1160.86
623.02	1161.49
623.36	1161.19
623.71	1160.72
624.05	1158.78
624.40	1159.36
624.75	1153.21
625.09	1152.20
625.44	1149.95
625.78	1148.78
626.13	1145.08
626.48	1147.00
626.82	1143.87
627.17	1143.14
627.51	1140.87
627.86	1138.62
628.20	1138.65
628.55	1137.55
628.89	1136.73
629.24	1136.42
629.58	1138.04
629.93	1134.55
630.28	1133.85
630.62	1132.73
630.97	1130.85
631.31	1128.16
631.66	1127.04
632.00	1129.12
632.35	1124.39
632.69	1127.81
633.04	1126.57
633.38	1125.03
633.73	1125.40
634.07	1126.99
634.42	1121.30
634.76	1119.45
635.11	1123.22
635.45	1120.46
635.79	1120.84
636.14	1119.95
636.48	1122.47
636.83	1119.48
637.17	1118.12
637.52	1117.11
637.86	1118.03
638.21	1116.46
638.55	1116.88
638.89	1116.32
639.24	1113.63
639.58	1113.56
639.93	1113.44
640.27	1112.32
640.61	1110.72
640.96	1112.92
641.30	1112.13
641.65	1112.76
641.99	1112.55
642.33	1112.41
642.68	1113.16
643.02	1111.29
643.37	1110.54
643.71	1108.85
644.05	1106.54
644.40	1104.19
644.74	1102.58
645.08	1101.32
645.43	1100.33
645.77	1103.61
646.11	1104.03
646.46	1105.76
646.80	1105.72
647.14	1104.62
647.49	1104.52
647.83	1103.73
648.17	1104.29
648.52	1103.21
648.86	1102.30
649.20	1099.16
649.55	1096.31
649.89	1094.13
650.23	1093.50
650.57	1092.75
650.92	1093.26
651.26	1093.80
651.60	1093.22
651.95	1095.35
652.29	1094.43
652.63	1093.92
652.97	1096.14
653.32	1098.23
653.66	1098.06
654.00	1099.07
654.34	1098.48
654.69	1098.93
655.03	1100.75
655.37	1098.53
655.71	1099.23
656.05	1100.61
656.40	1098.41
656.74	1097.88
657.08	1100.15
657.42	1101.97
657.76	1101.06
658.11	1099.86
658.45	1094.69
658.79	1093.47
659.13	1090.48
659.47	1092.68
659.82	1093.05
660.16	1096.85
660.50	1093.78
660.84	1096.92
661.18	1093.73
661.52	1095.82
661.87	1094.81
662.21	1099.47
662.55	1096.73
662.89	1097.41
663.23	1095.91
663.57	1098.86
663.91	1095.72
664.25	1098.16
664.60	1095.44
664.94	1093.99
665.28	1091.44
665.62	1090.03
665.96	1089.75
666.30	1093.59
666.64	1095.11
666.98	1094.11
667.32	1096.56
667.66	1094.55
668.01	1094.13
668.35	1094.67
668.69	1095.44
669.03	1095.30
669.37	1096.80
669.71	1092.56
670.05	1091.84
670.39	1091.37
670.73	1091.53
671.07	1089.57
671.41	1092.59
671.75	1093.31
672.09	1095.51
672.43	1094.06
672.77	1095.93
673.11	1093.85
673.45	1092.89
673.79	1092.02
674.13	1091.79
674.47	1088.84
674.81	1093.83
675.15	1094.01
675.49	1091.86
675.83	1093.24
676.17	1096.03
676.51	1091.42
676.85	1093.36
677.19	1095.35
677.53	1093.59
677.87	1091.23
678.21	1092.87
678.55	1087.30
678.89	1084.37
679.23	1086.10
679.57	1085.26
679.90	1086.41
680.24	1088.37
680.58	1091.91
680.92	1090.20
681.26	1090.32
681.60	1090.62
681.94	1090.55
682.28	1086.97
682.62	1088.37
682.96	1088.77
683.29	1085.42
683.63	1087.83
683.97	1089.05
684.31	1088.47
684.65	1089.03
684.99	1089.33
685.33	1088.96
685.67	1092.19
686.00	1094.97
686.34	1097.69
686.68	1097.24
687.02	1096.42
687.36	1092.23
687.70	1090.83
688.03	1089.47
688.37	1091.23
688.71	1090.95
689.05	1091.37
689.39	1088.84
689.72	1088.91
690.06	1090.36
690.40	1092.05
690.74	1091.53
691.08	1091.58
691.41	1092.82
691.75	1093.45
692.09	1090.97
692.43	1093.26
692.76	1094.08
693.10	1092.21
693.44	1088.51
693.78	1087.60
694.11	1087.97
694.45	1085.52
694.79	1085.40
695.13	1086.01
695.46	1088.93
695.80	1088.04
696.14	1087.93
696.48	1084.84
696.81	1083.25
697.15	1081.87
697.49	1082.78
697.82	1087.88
698.16	1092.45
698.50	1094.65
698.83	1094.18
699.17	1093.55
699.51	1090.03
699.84	1088.79
700.18	1089.89
700.52	1093.73
700.85	1091.23
701.19	1089.82
701.53	1088.79
701.86	1088.12
702.20	1084.91
702.54	1087.39
702.87	1089.17
703.21	1089.36
703.55	1088.63
703.88	1087.13
704.22	1085.87
704.55	1087.37
704.89	1088.26
705.23	1088.49
705.56	1091.63
705.90	1093.85
706.23	1090.71
706.57	1088.51
706.91	1090.03
707.24	1087.04
707.58	1084.09
707.91	1088.75
708.25	1092.75
708.58	1092.33
708.92	1090.74
709.26	1093.31
709.59	1089.78
709.93	1089.12
710.26	1091.09
710.60	1092.80
710.93	1091.72
711.27	1094.72
711.60	1089.47
711.94	1087.48
712.27	1085.66
712.61	1085.05
712.94	1083.67
713.28	1086.13
713.61	1082.17
713.95	1084.02
714.28	1084.39
714.62	1086.38
714.95	1087.32
715.29	1093.15
715.62	1095.63
715.96	1097.71
716.29	1097.78
716.63	1097.29
716.96	1093.12
717.29	1093.97
717.63	1094.20
717.96	1090.88
718.30	1090.97
718.63	1093.52
718.97	1089.14
719.30	1086.20
719.63	1088.54
719.97	1090.41
720.30	1090.81
720.64	1091.13
720.97	1092.61
721.30	1093.50
721.64	1091.79
721.97	1089.22
722.31	1089.99
722.64	1091.02
722.97	1091.30
723.31	1094.04
723.64	1094.34
723.97	1092.63
724.31	1089.26
724.64	1087.48
724.98	1084.74
725.31	1085.45
725.64	1086.43
725.98	1085.80
726.31	1084.39
726.64	1086.20
726.97	1084.58
727.31	1085.87
727.64	1088.23
727.97	1088.33
728.31	1090.76
728.64	1094.65
728.97	1094.88
729.31	1092.54
729.64	1094.18
729.97	1089.80
730.30	1086.08
730.64	1086.17
730.97	1090.24
731.30	1089.05
731.63	1087.16
731.97	1088.79
732.30	1089.68
732.63	1088.19
732.96	1085.40
733.30	1089.40
733.63	1089.68
733.96	1090.08
734.29	1086.73
734.63	1089.12
734.96	1088.00
735.29	1088.44
735.62	1084.44
735.95	1085.99
736.29	1085.70
736.62	1085.10
736.95	1082.87
737.28	1084.28
737.61	1086.41
737.94	1086.94
738.28	1088.07
738.61	1087.58
738.94	1091.98
739.27	1090.95
739.60	1088.35
739.93	1087.53
740.27	1088.02
740.60	1084.09
740.93	1083.06
741.26	1084.16
741.59	1084.16
741.92	1082.94
742.25	1082.24
742.58	1085.21
742.91	1086.62
743.25	1085.73
743.58	1088.16
743.91	1088.63
744.24	1084.32
744.57	1084.44
744.90	1085.49
745.23	1087.27
745.56	1087.51
745.89	1092.00
746.22	1093.92
746.55	1094.86
746.88	1091.20
747.21	1092.21
747.54	1091.11
747.87	1089.92
748.20	1089.85
748.53	1091.56
748.87	1089.50
749.20	1085.99
749.53	1083.29
749.86	1081.82
750.19	1082.29
750.52	1083.20
750.85	1083.48
751.18	1083.06
751.51	1081.19
751.84	1082.31
752.16	1082.05
752.49	1082.45
752.82	1086.76
753.15	1088.21
753.48	1084.58
753.81	1088.65
754.14	1090.53
754.47	1091.46
754.80	1088.49
755.13	1089.78
755.46	1085.99
755.79	1086.06
756.12	1088.12
756.45	1091.77
756.78	1092.45
757.11	1090.48
757.43	1089.10
757.76	1082.57
758.09	1078.68
758.42	1078.73
758.75	1080.11
759.08	1082.01
759.41	1085.49
759.74	1089.99
760.07	1089.05
760.39	1087.23
760.72	1086.62
761.05	1087.16
761.38	1089.33
761.71	1092.61
762.04	1095.84
762.36	1095.37
762.69	1092.12
763.02	1090.74
763.35	1090.24
763.68	1087.72
764.01	1087.67
764.33	1088.16
764.66	1088.00
764.99	1085.05
765.32	1086.45
765.65	1084.23
765.97	1084.84
766.30	1084.86
766.63	1085.19
766.96	1085.38
767.28	1087.86
767.61	1083.95
767.94	1080.79
768.27	1080.37
768.59	1080.27
768.92	1078.87
769.25	1082.36
769.58	1084.07
769.90	1083.04
770.23	1083.86
770.56	1086.90
770.89	1086.24
771.21	1084.72
771.54	1087.39
771.87	1088.54
772.19	1086.71
772.52	1085.87
772.85	1086.57
773.17	1083.64
773.50	1082.12
773.83	1084.49
774.15	1086.66
774.48	1088.96
774.81	1090.90
775.13	1090.24
775.46	1088.07
775.79	1088.82
776.11	1087.37
776.44	1088.51
776.77	1088.98
777.09	1088.19
777.42	1085.52
777.74	1087.25
778.07	1083.18
778.40	1083.53
778.72	1082.83
779.05	1084.93
779.37	1083.60
779.70	1089.66
780.03	1088.72
780.35	1090.03
780.68	1085.05
781.00	1085.35
781.33	1082.80
781.65	1083.50
781.98	1082.76
782.31	1084.21
782.63	1082.45
782.96	1083.88
783.28	1085.38
783.61	1083.95
783.93	1086.85
784.26	1088.65
784.58	1086.94
784.91	1083.81
785.23	1083.93
785.56	1086.01
785.88	1084.04
786.21	1083.90
786.53	1085.19
786.86	1085.75
787.18	1081.51
787.51	1081.91
787.83	1083.90
788.16	1082.29
788.48	1082.57
788.81	1086.41
789.13	1085.56
789.46	1083.69
789.78	1085.00
790.10	1086.62
790.43	1083.39
790.75	1088.19
791.08	1087.18
791.40	1086.80
791.73	1090.34
792.05	1088.35
792.37	1086.48
792.70	1087.79
793.02	1090.43
793.35	1086.13
793.67	1088.91
793.99	1085.26
794.32	1082.03
794.64	1080.56
794.96	1079.31
795.29	1080.63
795.61	1082.05
795.93	1084.14
796.26	1084.16
796.58	1085.42
796.91	1082.66
797.23	1084.74
797.55	1089.36
797.87	1089.03
798.20	1089.96
798.52	1088.44
798.84	1085.33
799.17	1082.64
799.49	1085.73
799.81	1084.11
800.14	1088.96
800.46	1090.81
800.78	1090.17
801.10	1085.40
801.43	1086.03
801.75	1081.61
802.07	1082.19
802.40	1083.97
802.72	1084.37
803.04	1084.51
803.36	1085.89
803.69	1085.40
804.01	1082.45
804.33	1087.95
804.65	1088.04
804.97	1090.32
805.30	1089.54
805.62	1088.79
805.94	1084.07
806.26	1083.90
806.58	1083.18
806.91	1081.58
807.23	1084.65
807.55	1088.28
807.87	1089.47
808.19	1088.16
808.52	1090.27
808.84	1087.09
809.16	1084.98
809.48	1086.31
809.80	1084.30
810.12	1086.31
810.44	1087.81
810.77	1087.53
811.09	1085.47
811.41	1085.89
811.73	1086.27
812.05	1086.78
812.37	1085.17
812.69	1085.70
813.01	1088.70
813.33	1084.14
813.66	1083.74
813.98	1087.34
814.30	1088.72
814.62	1089.10
814.94	1093.17
815.26	1093.43
815.58	1092.16
815.90	1090.62
816.22	1091.27
816.54	1088.14
816.86	1089.17
817.18	1088.51
817.50	1086.41
817.82	1083.71
818.14	1084.67
818.46	1085.12
818.78	1083.13
819.10	1082.38
819.42	1082.05
819.74	1077.49
820.06	1077.25
820.38	1078.57
820.70	1080.88
821.02	1081.37
821.34	1085.26
821.66	1082.24
821.98	1084.49
822.30	1084.49
822.62	1085.54
822.94	1087.60
823.26	1088.51
823.58	1086.03
823.90	1084.89
824.22	1083.64
824.54	1082.52
824.86	1083.86
825.18	1084.37
825.50	1086.62
825.81	1085.40
826.13	1086.06
826.45	1085.59
826.77	1082.43
827.09	1084.23
827.41	1086.48
827.73	1088.72
828.05	1088.14
828.36	1090.74
828.68	1088.44
829.00	1088.86
829.32	1085.33
829.64	1086.80
829.96	1089.33
830.28	1086.62
830.59	1085.61
830.91	1088.84
831.23	1087.86
831.55	1084.93
831.87	1088.93
832.19	1089.12
832.50	1086.50
832.82	1086.10
833.14	1087.44
833.46	1084.32
833.78	1082.38
834.09	1084.04
834.41	1086.24
834.73	1083.46
835.05	1085.96
835.36	1090.41
835.68	1086.15
836.00	1083.41
836.32	1087.23
836.63	1082.73
836.95	1077.89
837.27	1079.24
837.59	1079.90
837.90	1078.68
838.22	1079.67
838.54	1083.64
838.85	1087.46
839.17	1086.87
839.49	1087.58
839.80	1089.89
840.12	1087.67
840.44	1085.42
840.76	1086.20
841.07	1083.86
841.39	1084.86
841.71	1084.18
842.02	1084.07
842.34	1083.25
842.65	1083.62
842.97	1082.47
843.29	1083.41
843.60	1084.32
843.92	1084.51
844.24	1084.30
844.55	1082.66
844.87	1081.05
845.18	1080.72
845.50	1080.41
845.82	1080.98
846.13	1079.97
846.45	1085.89
846.76	1085.00
847.08	1084.72
847.40	1085.14
847.71	1087.06
848.03	1082.38
848.34	1082.08
848.66	1082.73
848.97	1081.68
849.29	1082.29
849.60	1084.51
849.92	1083.93
850.24	1083.69
850.55	1087.20
850.87	1087.25
851.18	1083.46
851.50	1084.42
851.81	1085.54
852.13	1083.41
852.44	1080.81
852.76	1083.50
853.07	1083.74
853.39	1084.60
853.70	1084.96
854.01	1085.52
854.33	1085.66
854.64	1086.31
854.96	1083.18
855.27	1082.10
855.59	1081.73
855.90	1082.59
856.22	1081.02
856.53	1083.53
856.84	1085.70
857.16	1087.27
857.47	1085.45
857.79	1087.58
858.10	1085.66
858.41	1083.11
858.73	1086.34
859.04	1088.33
859.36	1085.68
859.67	1087.79
859.98	1085.94
860.30	1081.33
860.61	1079.60
860.92	1080.63
861.24	1080.16
861.55	1080.23
861.87	1084.02
862.18	1083.90
862.49	1083.25
862.81	1085.31
863.12	1086.85
863.43	1085.14
863.74	1085.28
864.06	1088.21
864.37	1083.13
864.68	1081.82
865.00	1081.44
865.31	1081.61
865.62	1076.69
865.94	1078.66
866.25	1080.23
866.56	1079.64
866.87	1078.14
867.19	1079.97
867.50	1080.72
867.81	1081.47
868.12	1084.35
868.44	1086.90
868.75	1088.42
869.06	1086.20
869.37	1084.58
869.68	1081.96
870.00	1080.58
870.31	1079.27
870.62	1083.88
870.93	1083.88
871.24	1085.12
871.56	1086.36
871.87	1086.76
872.18	1084.98
872.49	1086.27
872.80	1083.60
873.12	1083.50
873.43	1084.70
873.74	1083.15
874.05	1084.51
874.36	1087.79
874.67	1084.58
874.98	1082.26
875.29	1080.95
875.61	1078.45
875.92	1075.69
876.23	1081.05
876.54	1080.53
876.85	1082.01
877.16	1083.43
877.47	1083.97
877.78	1081.77
878.09	1082.52
878.40	1085.96
878.72	1084.39
879.03	1083.97
879.34	1082.10
879.65	1081.33
879.96	1080.79
880.27	1082.92
880.58	1084.86
880.89	1084.44
881.20	1086.78
881.51	1082.90
881.82	1079.71
882.13	1078.73
882.44	1078.12
882.75	1073.65
883.06	1074.24
883.37	1075.01
883.68	1071.59
883.99	1074.87
884.30	1079.36
884.61	1080.65
884.92	1078.96
885.23	1086.27
885.54	1087.58
885.85	1087.72
886.16	1089.24
886.47	1094.20
886.78	1088.63
887.08	1084.16
887.39	1080.60
887.70	1077.11
888.01	1077.18
888.32	1081.42
888.63	1084.09
888.94	1085.14
889.25	1086.78
889.56	1086.29
889.87	1083.90
890.17	1084.35
890.48	1085.99
890.79	1084.39
891.10	1083.06
891.41	1084.11
891.72	1083.22
892.03	1084.09
892.34	1087.09
892.64	1088.35
892.95	1086.08
893.26	1084.07
893.57	1081.68
893.88	1080.70
894.18	1079.10
894.49	1082.12
894.80	1084.53
895.11	1087.20
895.42	1086.92
895.72	1087.32
896.03	1087.88
896.34	1087.90
896.65	1086.73
896.96	1092.96
897.26	1095.02
897.57	1092.30
897.88	1092.40
898.19	1089.68
898.49	1086.78
898.80	1083.22
899.11	1081.68
899.41	1080.13
899.72	1083.93
900.03	1080.02
900.34	1082.10
900.64	1086.71
900.95	1088.77
901.26	1088.47
901.56	1089.45
901.87	1087.72
902.18	1085.77
902.48	1082.78
902.79	1082.59
903.10	1082.71
903.40	1083.83
903.71	1083.29
904.02	1082.19
904.32	1082.05
904.63	1079.67
904.94	1080.34
905.24	1080.44
905.55	1083.13
905.85	1084.11
906.16	1087.20
906.47	1087.93
906.77	1086.97
907.08	1087.76
907.38	1087.04
907.69	1085.75
908.00	1081.82
908.30	1081.91
908.61	1082.66
908.91	1081.68
909.22	1079.97
909.52	1082.08
909.83	1083.64
910.14	1082.29
910.44	1080.79
910.75	1082.99
911.05	1083.71
911.36	1079.92
911.66	1082.19
911.97	1085.66
912.27	1084.00
912.58	1082.61
912.88	1085.10
913.19	1081.51
913.49	1078.24
913.80	1078.68
914.10	1079.41
914.41	1081.68
914.71	1082.85
915.01	1086.76
915.32	1087.11
915.62	1089.22
915.93	1088.68
916.23	1090.53
916.54	1090.36
916.84	1092.21
917.15	1091.37
917.45	1090.27
917.75	1087.18
918.06	1085.24
918.36	1081.82
918.67	1079.62
918.97	1078.07
919.27	1077.86
919.58	1078.12
919.88	1079.92
920.18	1081.96
920.49	1082.33
920.79	1084.60
921.10	1084.84
921.40	1084.70
921.70	1084.91
922.01	1083.74
922.31	1082.69
922.61	1080.18
922.92	1079.15
923.22	1077.98
923.52	1081.23
923.82	1083.04
924.13	1083.50
924.43	1085.07
924.73	1082.90
925.04	1082.17
925.34	1081.87
925.64	1083.25
925.94	1082.08
926.25	1084.37
926.55	1083.88
926.85	1083.36
927.15	1082.31
927.46	1084.46
927.76	1086.52
928.06	1086.15
928.36	1085.42
928.67	1085.10
928.97	1084.67
929.27	1083.29
929.57	1084.07
929.87	1084.04
930.18	1084.65
930.48	1082.76
930.78	1082.08
931.08	1083.01
931.38	1082.50
931.69	1080.98
931.99	1080.46
932.29	1082.61
932.59	1079.88
932.89	1081.77
933.19	1083.46
933.49	1084.37
933.80	1080.53
934.10	1082.54
934.40	1082.24
934.70	1080.95
935.00	1079.48
935.30	1080.04
935.60	1079.92
935.90	1081.54
936.20	1081.63
936.50	1083.97
936.81	1081.82
937.11	1081.35
937.41	1078.89
937.71	1079.62
938.01	1076.58
938.31	1080.34
938.61	1078.80
938.91	1077.77
939.21	1075.97
939.51	1083.01
939.81	1080.39
940.11	1079.67
940.41	1079.22
940.71	1080.84
941.01	1077.18
941.31	1079.43
941.61	1083.71
941.91	1088.35
942.21	1092.52
942.51	1092.80
942.81	1092.59
943.11	1091.42
943.41	1086.90
943.71	1084.18
944.01	1083.57
944.31	1084.32
944.61	1082.57
944.90	1083.67
945.20	1083.04
945.50	1081.80
945.80	1078.38
946.10	1077.25
946.40	1076.60
946.70	1075.08
947.00	1076.23
947.30	1077.98
947.60	1079.57
947.89	1079.43
948.19	1080.63
948.49	1082.97
948.79	1083.36
949.09	1082.69
949.39	1084.44
949.69	1085.24
949.98	1082.69
950.28	1085.61
950.58	1085.59
950.88	1084.32
951.18	1083.60
951.48	1083.69
951.77	1078.57
952.07	1082.38
952.37	1083.22
952.67	1083.29
952.97	1082.76
953.26	1085.84
953.56	1082.87
953.86	1083.60
954.16	1085.54
954.45	1087.18
954.75	1087.39
955.05	1087.02
955.35	1087.51
955.64	1084.49
955.94	1086.08
956.24	1086.08
956.54	1086.10
956.83	1086.31
957.13	1092.09
957.43	1088.70
957.72	1087.23
958.02	1086.38
958.32	1085.26
958.61	1082.43
958.91	1083.83
959.21	1085.82
959.50	1086.31
959.80	1084.67
960.10	1085.33
960.39	1086.20
960.69	1085.19
960.99	1085.84
961.28	1087.69
961.58	1085.66
961.87	1084.39
962.17	1086.10
962.47	1085.87
962.76	1084.09
963.06	1084.72
963.36	1083.04
963.65	1082.80
963.95	1084.60
964.24	1088.12
964.54	1088.47
964.83	1087.79
965.13	1087.74
965.42	1086.52
965.72	1082.03
966.02	1081.33
966.31	1084.04
966.61	1082.17
966.90	1080.46
967.20	1083.97
967.49	1087.11
967.79	1087.48
968.08	1089.61
968.38	1089.75
968.67	1088.65
968.97	1087.34
969.26	1084.35
969.56	1082.92
969.85	1082.22
970.15	1082.47
970.44	1081.82
970.74	1083.08
971.03	1084.11
971.32	1085.70
971.62	1084.67
971.91	1083.57
972.21	1082.52
972.50	1078.54
972.80	1080.06
973.09	1078.59
973.38	1080.27
973.68	1081.00
973.97	1083.60
974.27	1081.61
974.56	1080.53
974.85	1075.55
975.15	1077.04
975.44	1078.61
975.73	1077.28
976.03	1078.38
976.32	1080.88
976.61	1080.30
976.91	1077.98
977.20	1082.33
977.49	1083.04
977.79	1084.07
978.08	1085.26
978.37	1084.60
978.67	1084.04
978.96	1084.93
979.25	1084.16
979.55	1080.72
979.84	1081.40
980.13	1077.09
980.42	1076.20
980.72	1076.41
981.01	1077.77
981.30	1077.58
981.59	1079.46
981.89	1081.98
982.18	1079.50
982.47	1078.89
982.76	1077.00
983.06	1078.92
983.35	1077.79
983.64	1076.25
983.93	1078.21
984.22	1081.30
984.52	1080.18
984.81	1079.81
985.10	1084.09
985.39	1083.29
985.68	1082.61
985.97	1079.64
986.27	1079.48
986.56	1076.27
986.85	1074.26
987.14	1076.30
987.43	1078.96
987.72	1079.78
988.01	1083.93
988.31	1086.38
988.60	1083.15
988.89	1083.06
989.18	1081.19
989.47	1077.56
989.76	1077.61
990.05	1078.92
990.34	1078.21
990.63	1077.61
990.92	1082.52
991.21	1083.32
991.51	1082.47
991.80	1084.74
992.09	1082.92
992.38	1078.92
992.67	1076.83
992.96	1077.63
993.25	1079.55
993.54	1082.22
993.83	1081.73
994.12	1082.05
994.41	1083.90
994.70	1079.95
994.99	1078.85
995.28	1077.79
995.57	1079.62
995.86	1077.86
996.15	1082.33
996.44	1083.48
996.73	1086.27
997.02	1085.31
997.31	1085.35
997.59	1079.95
997.88	1078.26
998.17	1075.80
998.46	1074.75
998.75	1075.90
999.04	1077.11
999.33	1079.81
999.62	1082.15
999.91	1083.97
1000.20	1081.56
1000.49	1081.94
1000.77	1082.47
1001.06	1083.01
1001.35	1079.95
1001.64	1082.40
1001.93	1079.31
1002.22	1075.83
1002.51	1075.50
1002.79	1076.11
1003.08	1074.19
1003.37	1080.20
1003.66	1082.10
1003.95	1086.31
1004.23	1086.94
1004.52	1086.48
1004.81	1082.80
1005.10	1080.93
1005.39	1076.74
1005.67	1076.93
1005.96	1078.45
1006.25	1079.50
1006.54	1082.33
1006.83	1082.69
1007.11	1083.01
1007.40	1081.77
1007.69	1078.68
1007.97	1081.44
1008.26	1081.02
1008.55	1079.62
1008.84	1078.33
1009.12	1081.54
1009.41	1076.41
1009.70	1073.91
1009.98	1076.06
1010.27	1078.61
1010.56	1079.34
1010.85	1082.17
1011.13	1082.80
1011.42	1080.32
1011.71	1080.39
1011.99	1080.91
1012.28	1078.00
1012.56	1079.67
1012.85	1081.84
1013.14	1081.19
1013.42	1081.14
1013.71	1082.17
1014.00	1084.77
1014.28	1084.37
1014.57	1083.90
1014.85	1084.35
1015.14	1082.94
1015.43	1077.84
1015.71	1077.84
1016.00	1077.61
1016.28	1076.41
1016.57	1077.44
1016.85	1081.00
1017.14	1082.17
1017.43	1080.84
1017.71	1080.32
1018.00	1082.97
1018.28	1080.23
1018.57	1081.14
1018.85	1081.47
1019.14	1079.85
1019.42	1078.82
1019.71	1079.62
1019.99	1077.14
1020.28	1077.63
1020.56	1080.09
1020.85	1081.98
1021.13	1083.06
1021.42	1084.93
1021.70	1087.30
1021.99	1085.42
1022.27	1085.07
1022.55	1078.40
1022.84	1090.46
>>>>>End Processed Spectral Data<<<<<
