SpectraSuite Data File
++++++++++++++++++++++++++++++++++++
Date: Mon Aug 26 10:26:19 PDT 2019
User: corrico
Dark Spectrum Present: No
Reference Spectrum Present: No
Number of Sampled Component Spectra: 1
Spectrometers: USB2+H06089
Integration Time (usec): 10000 (USB2+H06089)
Spectra Averaged: 20 (USB2+H06089)
Boxcar Smoothing: 2 (USB2+H06089)
Correct for Electrical Dark: No (USB2+H06089)
Strobe/Lamp Enabled: No (USB2+H06089)
Correct for Detector Non-linearity: No (USB2+H06089)
Correct for Stray Light: No (USB2+H06089)
Number of Pixels in Processed Spectrum: 2048
>>>>>Begin Processed Spectral Data<<<<<
339.70	1029.48
340.07	1029.48
340.45	997.70
340.82	978.20
341.19	953.46
341.57	929.17
341.94	918.33
342.31	910.84
342.69	903.94
343.06	902.49
343.43	902.28
343.81	901.93
344.18	904.43
344.55	908.69
344.93	914.56
345.30	918.36
345.67	925.85
346.04	934.13
346.42	942.04
346.79	951.62
347.16	964.04
347.54	972.82
347.91	981.43
348.28	992.88
348.65	1002.10
349.03	1012.47
349.40	1024.27
349.77	1034.66
350.14	1041.14
350.52	1046.95
350.89	1048.98
351.26	1050.10
351.63	1049.68
352.01	1053.97
352.38	1059.02
352.75	1063.63
353.12	1069.11
353.50	1075.85
353.87	1077.89
354.24	1081.09
354.61	1084.23
354.98	1087.23
355.36	1090.32
355.73	1092.21
356.10	1090.50
356.47	1088.68
356.84	1091.63
357.22	1089.12
357.59	1088.28
357.96	1089.82
358.33	1093.43
358.70	1088.56
359.08	1089.75
359.45	1090.60
359.82	1093.12
360.19	1090.81
360.56	1092.00
360.94	1090.50
361.31	1090.22
361.68	1086.90
362.05	1085.59
362.42	1086.29
362.79	1087.20
363.16	1087.41
363.54	1087.04
363.91	1086.17
364.28	1084.63
364.65	1086.27
365.02	1083.50
365.39	1081.77
365.76	1081.94
366.14	1082.05
366.51	1081.33
366.88	1081.30
367.25	1078.71
367.62	1079.17
367.99	1078.14
368.36	1075.08
368.73	1078.94
369.10	1084.91
369.48	1085.87
369.85	1088.93
370.22	1090.78
370.59	1090.10
370.96	1088.21
371.33	1086.71
371.70	1085.56
372.07	1082.01
372.44	1078.82
372.81	1079.27
373.18	1079.78
373.55	1077.02
373.93	1076.95
374.30	1077.91
374.67	1078.87
375.04	1080.84
375.41	1084.65
375.78	1088.70
376.15	1089.61
376.52	1088.04
376.89	1088.23
377.26	1084.74
377.63	1081.73
378.00	1082.83
378.37	1082.78
378.74	1080.58
379.11	1081.21
379.48	1084.11
379.85	1083.69
380.22	1085.28
380.59	1084.93
380.96	1085.89
381.33	1086.31
381.70	1086.29
382.07	1085.52
382.44	1088.19
382.81	1087.97
383.18	1086.52
383.55	1084.81
383.92	1085.59
384.29	1088.04
384.66	1089.59
385.03	1091.98
385.40	1094.88
385.77	1091.81
386.14	1088.77
386.51	1089.52
386.88	1086.55
387.25	1085.38
387.62	1087.69
387.99	1087.81
388.36	1084.49
388.73	1087.18
389.10	1084.63
389.46	1083.79
389.83	1083.11
390.20	1084.51
390.57	1083.08
390.94	1085.56
391.31	1088.77
391.68	1090.83
392.05	1091.79
392.42	1091.81
392.79	1091.88
393.16	1090.50
393.53	1090.95
393.89	1093.19
394.26	1093.47
394.63	1093.92
395.00	1090.29
395.37	1088.65
395.74	1086.34
396.11	1086.57
396.48	1084.14
396.84	1091.11
397.21	1094.34
397.58	1095.00
397.95	1092.05
398.32	1093.92
398.69	1089.47
399.06	1086.34
399.42	1085.17
399.79	1089.36
400.16	1090.71
400.53	1092.35
400.90	1093.50
401.27	1094.39
401.64	1092.35
402.00	1092.59
402.37	1091.67
402.74	1090.39
403.11	1088.82
403.48	1089.66
403.84	1088.68
404.21	1092.21
404.58	1093.40
404.95	1097.80
405.32	1100.66
405.68	1103.14
406.05	1101.67
406.42	1103.66
406.79	1102.44
407.16	1101.25
407.52	1102.06
407.89	1102.91
408.26	1103.42
408.63	1105.55
408.99	1105.15
409.36	1103.82
409.73	1103.87
410.10	1103.31
410.47	1102.09
410.83	1101.60
411.20	1102.06
411.57	1100.54
411.94	1101.03
412.30	1100.36
412.67	1103.47
413.04	1101.97
413.40	1101.25
413.77	1100.38
414.14	1101.29
414.51	1103.12
414.87	1104.43
415.24	1104.22
415.61	1101.95
415.97	1101.53
416.34	1101.13
416.71	1103.05
417.08	1106.11
417.44	1112.29
417.81	1113.11
418.18	1111.38
418.54	1112.71
418.91	1113.95
419.28	1110.28
419.64	1113.11
420.01	1115.55
420.38	1112.97
420.74	1112.90
421.11	1116.11
421.48	1116.83
421.84	1113.53
422.21	1114.98
422.58	1112.48
422.94	1112.32
423.31	1109.37
423.68	1113.72
424.04	1115.57
424.41	1117.61
424.77	1117.63
425.14	1118.12
425.51	1114.14
425.87	1113.67
426.24	1115.52
426.61	1112.83
426.97	1112.92
427.34	1116.72
427.70	1115.34
428.07	1113.84
428.44	1117.00
428.80	1117.91
429.17	1117.28
429.53	1115.83
429.90	1117.21
430.27	1113.77
430.63	1114.61
431.00	1113.39
431.36	1117.23
431.73	1114.56
432.09	1114.82
432.46	1110.94
432.83	1113.04
433.19	1110.33
433.56	1111.24
433.92	1114.17
434.29	1117.11
434.65	1116.30
435.02	1118.71
435.38	1122.26
435.75	1124.23
436.11	1124.07
436.48	1122.26
436.84	1119.69
437.21	1119.48
437.57	1117.25
437.94	1119.45
438.30	1121.23
438.67	1121.40
439.03	1115.45
439.40	1114.77
439.76	1113.07
440.13	1112.41
440.49	1111.38
440.86	1116.53
441.22	1113.95
441.59	1114.21
441.95	1113.32
442.32	1117.63
442.68	1115.15
443.05	1117.65
443.41	1115.12
443.78	1116.15
444.14	1113.42
444.51	1111.05
444.87	1110.47
445.24	1112.83
445.60	1113.84
445.96	1113.93
446.33	1115.99
446.69	1115.34
447.06	1113.53
447.42	1111.61
447.79	1110.68
448.15	1111.85
448.51	1111.59
448.88	1112.60
449.24	1114.02
449.61	1114.26
449.97	1114.35
450.33	1114.56
450.70	1115.62
451.06	1115.55
451.43	1115.31
451.79	1117.61
452.15	1117.86
452.52	1116.51
452.88	1117.54
453.24	1121.42
453.61	1119.95
453.97	1121.40
454.34	1118.75
454.70	1117.82
455.06	1118.33
455.43	1115.05
455.79	1113.56
456.15	1117.93
456.52	1117.47
456.88	1114.24
457.24	1118.03
457.61	1121.12
457.97	1118.99
458.33	1119.97
458.70	1120.93
459.06	1118.94
459.42	1120.23
459.79	1122.01
460.15	1122.31
460.51	1123.86
460.88	1125.05
461.24	1123.95
461.60	1122.71
461.96	1123.08
462.33	1128.70
462.69	1130.43
463.05	1126.45
463.42	1128.93
463.78	1125.40
464.14	1120.39
464.50	1122.12
464.87	1126.31
465.23	1129.03
465.59	1133.62
465.95	1135.18
466.32	1134.18
466.68	1137.52
467.04	1136.52
467.40	1137.59
467.77	1135.74
468.13	1137.41
468.49	1137.34
468.85	1139.30
469.22	1142.20
469.58	1146.65
469.94	1148.95
470.30	1153.11
470.66	1153.28
471.03	1154.61
471.39	1157.25
471.75	1157.98
472.11	1157.54
472.47	1161.07
472.84	1167.32
473.20	1169.87
473.56	1174.88
473.92	1179.84
474.28	1183.80
474.65	1182.81
475.01	1187.17
475.37	1189.76
475.73	1193.18
476.09	1198.56
476.45	1206.97
476.81	1213.08
477.18	1221.60
477.54	1230.93
477.90	1240.53
478.26	1248.09
478.62	1253.82
478.98	1261.53
479.34	1269.60
479.71	1275.73
480.07	1279.22
480.43	1292.09
480.79	1303.68
481.15	1311.24
481.51	1325.56
481.87	1344.29
482.23	1356.60
482.59	1372.02
482.96	1394.00
483.32	1412.42
483.68	1426.58
484.04	1444.74
484.40	1462.60
484.76	1481.37
485.12	1499.75
485.48	1525.49
485.84	1550.04
486.20	1573.19
486.56	1598.26
486.92	1628.78
487.28	1661.57
487.64	1690.62
488.00	1728.16
488.37	1763.15
488.73	1799.50
489.09	1834.30
489.45	1876.64
489.81	1918.56
490.17	1961.93
490.53	2009.51
490.89	2058.27
491.25	2114.21
491.61	2171.53
491.97	2233.39
492.33	2289.28
492.69	2352.38
493.05	2415.85
493.41	2485.95
493.77	2556.89
494.13	2635.23
494.49	2713.85
494.85	2802.09
495.21	2887.82
495.57	2984.14
495.93	3089.93
496.29	3198.69
496.64	3312.23
497.00	3434.92
497.36	3555.67
497.72	3683.72
498.08	3820.88
498.44	3965.57
498.80	4105.98
499.16	4275.62
499.52	4447.81
499.88	4624.29
500.24	4798.07
500.60	4992.48
500.96	5186.04
501.32	5370.85
501.68	5567.69
502.03	5789.03
502.39	6017.54
502.75	6254.29
503.11	6534.96
503.47	6819.83
503.83	7124.01
504.19	7434.62
504.55	7772.85
504.91	8103.12
505.26	8433.84
505.62	8805.28
505.98	9221.78
506.34	9620.80
506.70	10052.51
507.06	10548.77
507.42	11027.83
507.78	11496.76
508.13	12031.78
508.49	12562.08
508.85	13124.16
509.21	13693.37
509.57	14285.97
509.93	14888.33
510.28	15554.55
510.64	16263.91
511.00	16988.68
511.36	17734.87
511.72	18547.79
512.07	19390.54
512.43	20207.04
512.79	21136.37
513.15	22074.90
513.51	22868.13
513.86	23693.08
514.22	24621.99
514.58	25541.33
514.94	26425.09
515.30	27496.57
515.65	28606.87
516.01	29625.64
516.37	30577.41
516.73	31625.27
517.08	32552.03
517.44	33335.69
517.80	34214.35
518.16	35183.66
518.51	36117.95
518.87	37084.66
519.23	38163.63
519.59	39158.19
519.94	40140.14
520.30	41113.52
520.66	41944.62
521.01	42749.04
521.37	43583.65
521.73	44216.51
522.09	44822.55
522.44	45586.82
522.80	46155.81
523.16	46493.83
523.51	46849.24
523.87	47206.10
524.23	47506.44
524.58	47767.38
524.94	48186.27
525.30	48492.25
525.65	48630.74
526.01	48609.60
526.37	48780.25
526.72	48899.67
527.08	48917.85
527.44	48840.61
527.79	48738.03
528.15	48559.84
528.51	48230.34
528.86	47978.24
529.22	47655.76
529.58	47291.23
529.93	46823.54
530.29	46265.77
530.65	45773.81
531.00	45322.37
531.36	44726.28
531.71	44124.79
532.07	43699.79
532.43	42970.39
532.78	42235.65
533.14	41653.18
533.49	40988.47
533.85	40200.32
534.21	39649.85
534.56	39102.39
534.92	38451.63
535.27	37773.63
535.63	36994.53
535.98	36217.54
536.34	35434.77
536.69	34699.05
537.05	33992.40
537.41	33421.28
537.76	32790.27
538.12	32082.68
538.47	31441.33
538.83	30870.71
539.18	30274.97
539.54	29686.09
539.89	29183.55
540.25	28687.29
540.60	28167.74
540.96	27557.47
541.31	27042.85
541.67	26640.59
542.02	26174.37
542.38	25719.37
542.73	25276.10
543.09	24780.14
543.44	24237.75
543.80	23744.08
544.15	23241.71
544.51	22869.33
544.86	22434.20
545.22	22071.23
545.57	21707.65
545.93	21266.15
546.28	20821.69
546.64	20466.44
546.99	20061.36
547.35	19657.93
547.70	19320.58
548.05	18933.69
548.41	18532.06
548.76	18071.37
549.12	17639.07
549.47	17247.20
549.83	16915.89
550.18	16543.12
550.53	16193.84
550.89	15809.31
551.24	15408.52
551.60	15051.21
551.95	14753.47
552.30	14485.32
552.66	14269.73
553.01	14068.16
553.37	13792.00
553.72	13502.74
554.07	13206.52
554.43	12888.02
554.78	12552.13
555.13	12258.09
555.49	11935.35
555.84	11644.75
556.19	11383.57
556.55	11101.77
556.90	10813.74
557.26	10599.89
557.61	10394.97
557.96	10157.29
558.32	9948.54
558.67	9733.89
559.02	9494.43
559.37	9271.70
559.73	9081.02
560.08	8896.77
560.43	8701.48
560.79	8507.50
561.14	8297.60
561.49	8089.17
561.85	7868.90
562.20	7692.66
562.55	7553.96
562.90	7400.91
563.26	7255.85
563.61	7127.38
563.96	6962.95
564.32	6775.34
564.67	6621.26
565.02	6480.97
565.37	6355.82
565.73	6219.55
566.08	6101.36
566.43	5981.31
566.78	5838.26
567.14	5697.73
567.49	5582.81
567.84	5455.32
568.19	5333.96
568.54	5235.50
568.90	5140.73
569.25	5043.85
569.60	4960.23
569.95	4874.80
570.31	4793.04
570.66	4706.82
571.01	4613.01
571.36	4516.93
571.71	4423.94
572.06	4334.67
572.42	4253.06
572.77	4173.78
573.12	4097.90
573.47	4029.26
573.82	3962.78
574.18	3889.32
574.53	3825.91
574.88	3768.05
575.23	3692.97
575.58	3617.81
575.93	3547.53
576.28	3481.15
576.64	3419.87
576.99	3365.32
577.34	3308.84
577.69	3247.26
578.04	3178.82
578.39	3114.86
578.74	3054.02
579.09	2995.86
579.44	2936.60
579.80	2894.19
580.15	2847.87
580.50	2802.91
580.85	2756.99
581.20	2718.79
581.55	2677.85
581.90	2632.35
582.25	2586.92
582.60	2542.62
582.95	2504.84
583.30	2468.31
583.65	2432.33
584.00	2402.21
584.35	2376.09
584.71	2343.16
585.06	2309.38
585.41	2276.33
585.76	2242.94
586.11	2208.81
586.46	2177.73
586.81	2145.26
587.16	2117.20
587.51	2093.00
587.86	2069.55
588.21	2051.36
588.56	2036.22
588.91	2018.99
589.26	1999.99
589.61	1976.91
589.96	1952.38
590.31	1923.59
590.66	1900.21
591.01	1876.85
591.36	1860.61
591.71	1837.16
592.06	1817.75
592.41	1798.07
592.76	1775.69
593.10	1752.90
593.45	1740.09
593.80	1725.07
594.15	1707.16
594.50	1699.95
594.85	1689.59
595.20	1675.36
595.55	1664.99
595.90	1651.95
596.25	1633.88
596.60	1617.38
596.95	1603.83
597.30	1590.07
597.64	1633.04
597.99	1624.54
598.34	1614.90
598.69	1603.90
599.04	1591.40
599.39	1528.14
599.74	1514.35
600.09	1503.56
600.44	1493.59
600.78	1485.47
601.13	1477.46
601.48	1468.26
601.83	1454.15
602.18	1441.35
602.53	1428.17
602.88	1419.09
603.22	1408.35
603.57	1406.59
603.92	1399.69
604.27	1395.83
604.62	1390.35
604.97	1384.17
605.31	1378.97
605.66	1375.58
606.01	1369.42
606.36	1360.69
606.71	1358.63
607.05	1349.97
607.40	1344.68
607.75	1337.43
608.10	1330.64
608.44	1325.70
608.79	1323.10
609.14	1315.08
609.49	1314.12
609.84	1308.20
610.18	1303.30
610.53	1296.33
610.88	1293.47
611.23	1287.08
611.57	1285.35
611.92	1279.55
612.27	1272.39
612.62	1267.66
612.96	1258.93
613.31	1250.62
613.66	1246.59
614.00	1244.14
614.35	1239.95
614.70	1239.59
615.05	1239.95
615.39	1236.46
615.74	1233.63
616.09	1231.68
616.43	1228.62
616.78	1222.86
617.13	1218.51
617.47	1214.69
617.82	1209.03
618.17	1204.42
618.51	1203.06
618.86	1199.57
619.21	1197.54
619.55	1195.85
619.90	1192.97
620.25	1189.41
620.59	1188.06
620.94	1184.22
621.29	1182.88
621.63	1184.05
621.98	1182.42
622.32	1179.12
622.67	1179.12
623.02	1177.24
623.36	1170.03
623.71	1170.41
624.05	1172.91
624.40	1169.68
624.75	1164.30
625.09	1165.10
625.44	1164.25
625.78	1159.71
626.13	1161.98
626.48	1163.71
626.82	1164.98
627.17	1163.27
627.51	1162.33
627.86	1156.55
628.20	1155.03
628.55	1151.22
628.89	1150.61
629.24	1146.96
629.58	1147.12
629.93	1145.60
630.28	1145.11
630.62	1143.16
630.97	1142.70
631.31	1140.22
631.66	1139.23
632.00	1137.57
632.35	1133.15
632.69	1132.70
633.04	1134.27
633.38	1130.71
633.73	1129.61
634.07	1129.94
634.42	1130.48
634.76	1129.10
635.11	1129.19
635.45	1127.93
635.79	1127.30
636.14	1127.27
636.48	1125.63
636.83	1126.45
637.17	1126.38
637.52	1126.50
637.86	1122.33
638.21	1121.35
638.55	1119.57
638.89	1120.11
639.24	1120.06
639.58	1122.22
639.93	1121.09
640.27	1122.68
640.61	1119.81
640.96	1117.82
641.30	1117.11
641.65	1116.72
641.99	1114.42
642.33	1115.12
642.68	1115.29
643.02	1111.92
643.37	1112.34
643.71	1110.00
644.05	1110.84
644.40	1111.71
644.74	1113.11
645.08	1110.51
645.43	1114.54
645.77	1111.57
646.11	1107.17
646.46	1107.12
646.80	1106.49
647.14	1103.49
647.49	1103.21
647.83	1104.90
648.17	1103.70
648.52	1103.47
648.86	1105.48
649.20	1107.14
649.55	1106.28
649.89	1105.08
650.23	1107.33
650.57	1104.78
650.92	1101.46
651.26	1100.43
651.60	1101.01
651.95	1099.47
652.29	1099.12
652.63	1101.55
652.97	1101.11
653.32	1100.99
653.66	1101.50
654.00	1102.37
654.34	1101.50
654.69	1104.03
655.03	1104.08
655.37	1101.67
655.71	1104.29
656.05	1105.11
656.40	1104.69
656.74	1102.42
657.08	1100.78
657.42	1097.92
657.76	1097.01
658.11	1096.78
658.45	1096.82
658.79	1101.92
659.13	1099.58
659.47	1098.16
659.82	1098.34
660.16	1100.24
660.50	1094.76
660.84	1094.83
661.18	1096.10
661.52	1093.80
661.87	1095.93
662.21	1099.23
662.55	1099.91
662.89	1098.39
663.23	1098.11
663.57	1096.59
663.91	1094.97
664.25	1094.53
664.60	1094.01
664.94	1096.92
665.28	1097.69
665.62	1096.63
665.96	1094.83
666.30	1092.75
666.64	1088.70
666.98	1086.73
667.32	1087.88
667.66	1090.13
668.01	1090.99
668.35	1092.26
668.69	1091.95
669.03	1092.28
669.37	1092.21
669.71	1095.51
670.05	1095.84
670.39	1098.58
670.73	1099.65
671.07	1101.64
671.41	1098.27
671.75	1102.88
672.09	1100.99
672.43	1100.89
672.77	1096.38
673.11	1096.35
673.45	1092.82
673.79	1090.69
674.13	1089.47
674.47	1095.11
674.81	1099.84
675.15	1097.95
675.49	1097.97
675.83	1096.92
676.17	1090.50
676.51	1089.38
676.85	1090.03
677.19	1089.03
677.53	1092.30
677.87	1094.86
678.21	1093.15
678.55	1095.42
678.89	1097.69
679.23	1094.22
679.57	1092.02
679.90	1090.39
680.24	1086.45
680.58	1086.36
680.92	1089.26
681.26	1092.42
681.60	1093.85
681.94	1094.53
682.28	1094.46
682.62	1093.38
682.96	1092.33
683.29	1090.41
683.63	1089.57
683.97	1090.60
684.31	1089.94
684.65	1088.33
684.99	1088.37
685.33	1090.60
685.67	1089.29
686.00	1087.86
686.34	1090.64
686.68	1093.36
687.02	1090.67
687.36	1091.37
687.70	1091.49
688.03	1091.37
688.37	1089.80
688.71	1092.75
689.05	1092.89
689.39	1095.60
689.72	1096.45
690.06	1096.52
690.40	1097.73
690.74	1095.11
691.08	1095.96
691.41	1093.78
691.75	1092.75
692.09	1091.98
692.43	1093.80
692.76	1094.08
693.10	1098.51
693.44	1100.68
693.78	1103.21
694.11	1102.23
694.45	1102.46
694.79	1097.06
695.13	1098.95
695.46	1094.36
695.80	1094.93
696.14	1091.30
696.48	1093.08
696.81	1089.68
697.15	1090.46
697.49	1091.27
697.82	1091.13
698.16	1089.40
698.50	1091.02
698.83	1092.66
699.17	1088.79
699.51	1090.43
699.84	1090.06
700.18	1089.59
700.52	1089.10
700.85	1093.08
701.19	1090.17
701.53	1095.77
701.86	1092.16
702.20	1093.08
702.54	1089.96
702.87	1092.45
703.21	1089.94
703.55	1093.62
703.88	1090.85
704.22	1095.21
704.55	1094.67
704.89	1093.33
705.23	1089.75
705.56	1091.58
705.90	1091.53
706.23	1093.26
706.57	1091.25
706.91	1097.36
707.24	1096.38
707.58	1096.73
707.91	1093.85
708.25	1097.08
708.58	1094.57
708.92	1092.84
709.26	1091.60
709.59	1093.29
709.93	1092.49
710.26	1095.16
710.60	1095.42
710.93	1094.81
711.27	1091.70
711.60	1092.47
711.94	1089.85
712.27	1091.53
712.61	1089.87
712.94	1091.42
713.28	1091.67
713.61	1090.29
713.95	1088.82
714.28	1091.56
714.62	1090.46
714.95	1087.76
715.29	1086.78
715.62	1083.64
715.96	1083.86
716.29	1083.79
716.63	1085.00
716.96	1085.31
717.29	1089.00
717.63	1089.22
717.96	1091.93
718.30	1090.85
718.63	1093.55
718.97	1092.98
719.30	1091.53
719.63	1091.51
719.97	1093.50
720.30	1091.98
720.64	1092.73
720.97	1093.52
721.30	1092.40
721.64	1090.90
721.97	1089.36
722.31	1088.02
722.64	1087.69
722.97	1095.00
723.31	1094.69
723.64	1096.07
723.97	1096.42
724.31	1094.67
724.64	1087.62
724.98	1089.31
725.31	1087.76
725.64	1087.79
725.98	1088.54
726.31	1086.69
726.64	1085.56
726.97	1087.86
727.31	1093.15
727.64	1092.45
727.97	1095.04
728.31	1094.32
728.64	1094.41
728.97	1090.32
729.31	1090.43
729.64	1091.06
729.97	1091.49
730.30	1092.28
730.64	1092.84
730.97	1096.10
731.30	1094.15
731.63	1091.91
731.97	1091.04
732.30	1089.82
732.63	1087.95
732.96	1085.38
733.30	1087.83
733.63	1086.90
733.96	1085.26
734.29	1085.99
734.63	1089.54
734.96	1092.14
735.29	1089.94
735.62	1094.46
735.95	1092.02
736.29	1090.01
736.62	1086.62
736.95	1087.39
737.28	1085.56
737.61	1085.82
737.94	1085.70
738.28	1082.92
738.61	1085.77
738.94	1087.37
739.27	1086.57
739.60	1090.24
739.93	1092.54
740.27	1087.90
740.60	1086.34
740.93	1086.03
741.26	1083.11
741.59	1081.44
741.92	1081.30
742.25	1081.70
742.58	1083.50
742.91	1087.58
743.25	1090.01
743.58	1095.93
743.91	1095.84
744.24	1095.65
744.57	1093.50
744.90	1094.43
745.23	1095.07
745.56	1093.87
745.89	1095.25
746.22	1094.46
746.55	1089.92
746.88	1083.71
747.21	1081.70
747.54	1079.15
747.87	1080.63
748.20	1080.98
748.53	1080.32
748.87	1082.54
749.20	1082.59
749.53	1080.86
749.86	1088.02
750.19	1090.03
750.52	1091.58
750.85	1091.09
751.18	1091.06
751.51	1085.66
751.84	1088.26
752.16	1085.87
752.49	1084.96
752.82	1084.23
753.15	1086.17
753.48	1082.59
753.81	1083.41
754.14	1084.25
754.47	1086.52
754.80	1084.16
755.13	1087.06
755.46	1085.45
755.79	1085.00
756.12	1085.61
756.45	1089.10
756.78	1089.82
757.11	1088.21
757.43	1092.00
757.76	1084.32
758.09	1084.81
758.42	1084.65
758.75	1085.61
759.08	1085.40
759.41	1094.34
759.74	1092.33
760.07	1092.91
760.39	1096.07
760.72	1096.14
761.05	1093.12
761.38	1093.40
761.71	1095.04
762.04	1094.57
762.36	1091.25
762.69	1089.59
763.02	1091.30
763.35	1087.48
763.68	1087.58
764.01	1089.43
764.33	1094.27
764.66	1091.65
764.99	1091.13
765.32	1091.23
765.65	1091.84
765.97	1089.36
766.30	1090.95
766.63	1089.99
766.96	1089.73
767.28	1087.60
767.61	1086.29
767.94	1085.42
768.27	1090.27
768.59	1089.73
768.92	1090.76
769.25	1092.02
769.58	1092.77
769.90	1089.89
770.23	1088.77
770.56	1087.37
770.89	1088.77
771.21	1087.83
771.54	1088.19
771.87	1090.48
772.19	1093.29
772.52	1092.84
772.85	1090.95
773.17	1093.10
773.50	1091.56
773.83	1089.33
774.15	1086.55
774.48	1088.44
774.81	1085.96
775.13	1085.63
775.46	1087.37
775.79	1087.32
776.11	1087.62
776.44	1091.51
776.77	1091.09
777.09	1087.65
777.42	1089.50
777.74	1090.03
778.07	1085.77
778.40	1086.36
778.72	1089.45
779.05	1087.97
779.37	1089.43
779.70	1091.98
780.03	1094.50
780.35	1093.94
780.68	1093.38
781.00	1092.45
781.33	1088.86
781.65	1087.27
781.98	1086.06
782.31	1089.73
782.63	1087.76
782.96	1087.04
783.28	1085.75
783.61	1087.09
783.93	1085.17
784.26	1083.43
784.58	1085.68
784.91	1086.27
785.23	1086.31
785.56	1088.44
785.88	1092.84
786.21	1092.54
786.53	1089.87
786.86	1086.62
787.18	1085.82
787.51	1084.77
787.83	1084.98
788.16	1085.94
788.48	1086.45
788.81	1084.70
789.13	1082.38
789.46	1082.05
789.78	1082.87
790.10	1085.56
790.43	1085.61
790.75	1085.75
791.08	1087.67
791.40	1090.15
791.73	1092.66
792.05	1093.73
792.37	1092.73
792.70	1092.52
793.02	1091.49
793.35	1089.50
793.67	1087.86
793.99	1088.40
794.32	1087.44
794.64	1089.03
794.96	1086.97
795.29	1087.27
795.61	1089.64
795.93	1089.96
796.26	1085.38
796.58	1085.73
796.91	1087.34
797.23	1085.24
797.55	1084.44
797.87	1087.32
798.20	1088.61
798.52	1085.38
798.84	1085.38
799.17	1083.01
799.49	1081.19
799.81	1081.44
800.14	1085.52
800.46	1088.21
800.78	1090.10
801.10	1091.20
801.43	1090.46
801.75	1086.01
802.07	1081.02
802.40	1082.10
802.72	1080.84
803.04	1079.55
803.36	1079.62
803.69	1081.23
804.01	1084.67
804.33	1087.44
804.65	1087.48
804.97	1091.44
805.30	1092.82
805.62	1089.36
805.94	1087.25
806.26	1087.41
806.58	1085.84
806.91	1085.99
807.23	1084.98
807.55	1086.71
807.87	1086.48
808.19	1086.08
808.52	1082.94
808.84	1084.42
809.16	1082.66
809.48	1084.39
809.80	1085.05
810.12	1087.18
810.44	1084.44
810.77	1088.77
811.09	1090.13
811.41	1087.72
811.73	1088.09
812.05	1088.93
812.37	1088.07
812.69	1088.40
813.01	1092.00
813.33	1093.69
813.66	1094.27
813.98	1091.67
814.30	1090.15
814.62	1088.93
814.94	1087.51
815.26	1089.57
815.58	1092.02
815.90	1090.29
816.22	1088.89
816.54	1087.86
816.86	1086.17
817.18	1082.90
817.50	1083.18
817.82	1084.56
818.14	1086.90
818.46	1089.03
818.78	1086.69
819.10	1087.25
819.42	1087.67
819.74	1085.66
820.06	1082.64
820.38	1083.62
820.70	1083.15
821.02	1083.46
821.34	1086.76
821.66	1086.99
821.98	1088.35
822.30	1090.83
822.62	1091.13
822.94	1091.39
823.26	1091.20
823.58	1090.95
823.90	1086.48
824.22	1082.64
824.54	1080.39
824.86	1079.83
825.18	1077.04
825.50	1080.34
825.81	1080.81
826.13	1079.53
826.45	1079.85
826.77	1081.77
827.09	1083.20
827.41	1085.12
827.73	1084.46
828.05	1086.20
828.36	1089.17
828.68	1083.67
829.00	1081.94
829.32	1084.21
829.64	1082.78
829.96	1078.78
830.28	1080.81
830.59	1082.10
830.91	1082.54
831.23	1083.60
831.55	1087.04
831.87	1086.69
832.19	1088.40
832.50	1087.81
832.82	1088.54
833.14	1089.54
833.46	1090.78
833.78	1088.09
834.09	1086.99
834.41	1084.91
834.73	1082.15
835.05	1084.51
835.36	1087.62
835.68	1090.15
836.00	1090.90
836.32	1092.14
836.63	1093.38
836.95	1090.99
837.27	1089.80
837.59	1090.10
837.90	1087.62
838.22	1084.32
838.54	1084.35
838.85	1083.27
839.17	1083.48
839.49	1089.96
839.80	1091.11
840.12	1089.99
840.44	1087.16
840.76	1085.89
841.07	1082.94
841.39	1081.47
841.71	1080.51
842.02	1083.01
842.34	1083.81
842.65	1084.84
842.97	1084.46
843.29	1088.98
843.60	1092.30
843.92	1090.29
844.24	1089.36
844.55	1087.41
844.87	1083.86
845.18	1080.63
845.50	1081.91
845.82	1080.46
846.13	1082.45
846.45	1083.25
846.76	1084.07
847.08	1082.66
847.40	1083.71
847.71	1085.75
848.03	1085.94
848.34	1086.45
848.66	1087.09
848.97	1087.76
849.29	1088.33
849.60	1085.28
849.92	1083.83
850.24	1085.73
850.55	1082.99
850.87	1080.44
851.18	1084.81
851.50	1085.82
851.81	1084.09
852.13	1085.12
852.44	1085.89
852.76	1085.94
853.07	1082.97
853.39	1084.84
853.70	1081.12
854.01	1079.99
854.33	1076.72
854.64	1077.75
854.96	1077.72
855.27	1080.95
855.59	1083.53
855.90	1085.24
856.22	1091.95
856.53	1090.81
856.84	1090.88
857.16	1091.65
857.47	1092.96
857.79	1088.65
858.10	1089.94
858.41	1090.62
858.73	1083.88
859.04	1083.71
859.36	1081.87
859.67	1082.54
859.98	1081.35
860.30	1084.60
860.61	1084.02
860.92	1086.45
861.24	1084.35
861.55	1087.09
861.87	1092.07
862.18	1094.60
862.49	1093.62
862.81	1091.86
863.12	1089.29
863.43	1084.96
863.74	1082.52
864.06	1083.18
864.37	1085.96
864.68	1087.06
865.00	1089.17
865.31	1090.69
865.62	1090.06
865.94	1090.08
866.25	1091.49
866.56	1090.29
866.87	1088.12
867.19	1086.83
867.50	1087.02
867.81	1085.91
868.12	1086.57
868.44	1086.43
868.75	1090.55
869.06	1091.46
869.37	1091.09
869.68	1087.30
870.00	1088.19
870.31	1087.62
870.62	1088.89
870.93	1086.52
871.24	1086.29
871.56	1086.85
871.87	1082.64
872.18	1077.11
872.49	1080.67
872.80	1084.04
873.12	1084.30
873.43	1081.68
873.74	1083.71
874.05	1080.93
874.36	1082.33
874.67	1080.93
874.98	1085.35
875.29	1086.50
875.61	1087.23
875.92	1083.67
876.23	1085.94
876.54	1087.16
876.85	1088.86
877.16	1091.60
877.47	1092.80
877.78	1089.64
878.09	1088.16
878.40	1085.45
878.72	1082.38
879.03	1083.13
879.34	1083.50
879.65	1083.79
879.96	1083.43
880.27	1085.03
880.58	1087.32
880.89	1087.79
881.20	1088.91
881.51	1088.47
881.82	1086.29
882.13	1081.58
882.44	1079.71
882.75	1075.41
883.06	1073.65
883.37	1072.15
883.68	1074.52
883.99	1076.93
884.30	1077.61
884.61	1079.34
884.92	1079.78
885.23	1081.75
885.54	1081.42
885.85	1082.83
886.16	1082.50
886.47	1084.28
886.78	1079.08
887.08	1078.00
887.39	1077.72
887.70	1080.16
888.01	1080.41
888.32	1083.57
888.63	1086.83
888.94	1087.83
889.25	1086.62
889.56	1083.22
889.87	1082.71
890.17	1081.68
890.48	1080.65
890.79	1082.64
891.10	1087.30
891.41	1086.03
891.72	1084.65
892.03	1085.42
892.34	1085.14
892.64	1086.43
892.95	1086.48
893.26	1088.72
893.57	1091.49
893.88	1089.17
894.18	1085.17
894.49	1087.69
894.80	1086.29
895.11	1083.62
895.42	1084.51
895.72	1086.41
896.03	1085.38
896.34	1084.91
896.65	1083.01
896.96	1080.91
897.26	1080.74
897.57	1082.92
897.88	1079.60
898.19	1081.21
898.49	1083.71
898.80	1082.85
899.11	1077.84
899.41	1080.46
899.72	1083.88
900.03	1083.95
900.34	1086.52
900.64	1086.85
900.95	1084.60
901.26	1081.30
901.56	1079.76
901.87	1077.84
902.18	1079.99
902.48	1083.01
902.79	1088.04
903.10	1089.82
903.40	1090.60
903.71	1088.72
904.02	1088.33
904.32	1086.99
904.63	1085.75
904.94	1084.51
905.24	1086.45
905.55	1083.88
905.85	1079.57
906.16	1081.98
906.47	1081.77
906.77	1082.61
907.08	1083.25
907.38	1082.64
907.69	1078.19
908.00	1079.78
908.30	1077.75
908.61	1079.10
908.91	1082.47
909.22	1087.11
909.52	1085.73
909.83	1085.40
910.14	1086.55
910.44	1086.06
910.75	1082.80
911.05	1082.05
911.36	1081.21
911.66	1079.97
911.97	1078.24
912.27	1081.05
912.58	1083.22
912.88	1085.42
913.19	1084.72
913.49	1084.70
913.80	1082.36
914.10	1079.92
914.41	1081.98
914.71	1081.63
915.01	1084.14
915.32	1085.96
915.62	1086.94
915.93	1085.91
916.23	1085.68
916.54	1084.44
916.84	1081.30
917.15	1081.68
917.45	1084.81
917.75	1084.44
918.06	1084.53
918.36	1082.87
918.67	1085.12
918.97	1082.05
919.27	1084.25
919.58	1081.89
919.88	1084.58
920.18	1080.46
920.49	1079.29
920.79	1079.95
921.10	1081.80
921.40	1080.81
921.70	1083.60
922.01	1080.44
922.31	1080.93
922.61	1080.18
922.92	1081.42
923.22	1082.90
923.52	1087.41
923.82	1087.39
924.13	1085.54
924.43	1083.39
924.73	1080.77
925.04	1081.58
925.34	1079.97
925.64	1079.50
925.94	1083.46
926.25	1084.72
926.55	1082.52
926.85	1082.83
927.15	1084.81
927.46	1081.21
927.76	1080.23
928.06	1081.94
928.36	1082.90
928.67	1082.71
928.97	1086.57
929.27	1088.96
929.57	1090.27
929.87	1089.66
930.18	1092.49
930.48	1090.62
930.78	1089.43
931.08	1085.05
931.38	1086.55
931.69	1085.33
931.99	1086.57
932.29	1085.12
932.59	1085.07
932.89	1085.00
933.19	1083.08
933.49	1083.36
933.80	1084.00
934.10	1088.84
934.40	1086.59
934.70	1086.94
935.00	1085.87
935.30	1086.99
935.60	1084.63
935.90	1083.97
936.20	1084.02
936.50	1085.10
936.81	1084.86
937.11	1084.86
937.41	1086.52
937.71	1087.97
938.01	1084.96
938.31	1082.54
938.61	1081.26
938.91	1083.55
939.21	1083.32
939.51	1087.13
939.81	1087.13
940.11	1089.24
940.41	1086.52
940.71	1086.71
941.01	1085.14
941.31	1084.67
941.61	1087.81
941.91	1088.35
942.21	1085.63
942.51	1087.83
942.81	1089.78
943.11	1085.80
943.41	1085.47
943.71	1089.89
944.01	1089.03
944.31	1088.44
944.61	1087.30
944.90	1090.90
945.20	1089.57
945.50	1088.61
945.80	1090.39
946.10	1092.07
946.40	1089.33
946.70	1088.04
947.00	1086.03
947.30	1086.01
947.60	1083.27
947.89	1081.63
948.19	1080.63
948.49	1081.19
948.79	1081.82
949.09	1084.93
949.39	1085.94
949.69	1088.54
949.98	1086.85
950.28	1086.08
950.58	1085.07
950.88	1083.83
951.18	1082.43
951.48	1084.86
951.77	1087.55
952.07	1086.62
952.37	1087.86
952.67	1087.62
952.97	1085.45
953.26	1081.91
953.56	1081.07
953.86	1078.03
954.16	1076.13
954.45	1079.57
954.75	1078.68
955.05	1078.36
955.35	1077.14
955.64	1079.57
955.94	1079.97
956.24	1080.11
956.54	1082.15
956.83	1085.21
957.13	1085.75
957.43	1082.59
957.72	1082.01
958.02	1080.86
958.32	1082.33
958.61	1081.16
958.91	1082.29
959.21	1084.86
959.50	1086.48
959.80	1086.94
960.10	1087.51
960.39	1087.04
960.69	1086.31
960.99	1083.25
961.28	1081.70
961.58	1081.54
961.87	1080.48
962.17	1082.85
962.47	1084.84
962.76	1085.82
963.06	1086.29
963.36	1086.83
963.65	1083.95
963.95	1085.91
964.24	1084.86
964.54	1083.93
964.83	1086.57
965.13	1087.88
965.42	1086.94
965.72	1089.07
966.02	1087.27
966.31	1084.21
966.61	1080.18
966.90	1075.87
967.20	1075.17
967.49	1077.77
967.79	1079.55
968.08	1083.69
968.38	1087.81
968.67	1092.00
968.97	1089.14
969.26	1085.84
969.56	1083.46
969.85	1084.11
970.15	1080.02
970.44	1082.22
970.74	1083.15
971.03	1082.92
971.32	1079.01
971.62	1078.33
971.91	1078.96
972.21	1081.42
972.50	1080.70
972.80	1085.94
973.09	1086.17
973.38	1085.89
973.68	1084.00
973.97	1083.76
974.27	1081.51
974.56	1082.87
974.85	1083.55
975.15	1082.97
975.44	1083.29
975.73	1081.68
976.03	1080.13
976.32	1080.56
976.61	1081.33
976.91	1083.18
977.20	1084.44
977.49	1084.42
977.79	1084.23
978.08	1087.93
978.37	1085.99
978.67	1086.80
978.96	1086.34
979.25	1085.87
979.55	1085.94
979.84	1088.16
980.13	1087.16
980.42	1088.33
980.72	1086.15
981.01	1082.87
981.30	1080.51
981.59	1078.17
981.89	1078.12
982.18	1080.51
982.47	1081.05
982.76	1084.18
983.06	1086.92
983.35	1089.43
983.64	1091.16
983.93	1093.38
984.22	1093.99
984.52	1092.07
984.81	1088.40
985.10	1083.81
985.39	1079.67
985.68	1077.11
985.97	1079.60
986.27	1083.13
986.56	1084.39
986.85	1083.86
987.14	1082.19
987.43	1079.17
987.72	1075.17
988.01	1074.61
988.31	1079.74
988.60	1081.61
988.89	1080.81
989.18	1083.41
989.47	1087.32
989.76	1084.98
990.05	1085.00
990.34	1088.96
990.63	1088.12
990.92	1085.94
991.21	1084.81
991.51	1085.77
991.80	1083.79
992.09	1081.07
992.38	1080.56
992.67	1082.61
992.96	1082.45
993.25	1084.49
993.54	1089.00
993.83	1089.22
994.12	1089.05
994.41	1086.34
994.70	1083.34
994.99	1079.74
995.28	1081.70
995.57	1078.75
995.86	1083.34
996.15	1087.13
996.44	1086.38
996.73	1082.57
997.02	1086.36
997.31	1086.48
997.59	1080.58
997.88	1083.39
998.17	1083.34
998.46	1081.02
998.75	1076.18
999.04	1079.62
999.33	1076.62
999.62	1079.60
999.91	1077.93
1000.20	1078.71
1000.49	1076.39
1000.77	1079.48
1001.06	1078.14
1001.35	1081.66
1001.64	1083.60
1001.93	1085.54
1002.22	1084.14
1002.51	1086.43
1002.79	1085.75
1003.08	1085.45
1003.37	1086.80
1003.66	1086.97
1003.95	1084.49
1004.23	1081.98
1004.52	1081.16
1004.81	1080.84
1005.10	1080.27
1005.39	1078.26
1005.67	1078.80
1005.96	1079.50
1006.25	1078.52
1006.54	1080.67
1006.83	1083.46
1007.11	1083.32
1007.40	1082.54
1007.69	1081.26
1007.97	1079.97
1008.26	1074.94
1008.55	1078.38
1008.84	1080.18
1009.12	1079.53
1009.41	1079.48
1009.70	1084.28
1009.98	1081.58
1010.27	1077.25
1010.56	1081.21
1010.85	1082.97
1011.13	1082.73
1011.42	1083.67
1011.71	1086.43
1011.99	1082.73
1012.28	1078.96
1012.56	1077.96
1012.85	1078.43
1013.14	1079.06
1013.42	1081.00
1013.71	1081.42
1014.00	1082.64
1014.28	1082.59
1014.57	1082.05
1014.85	1081.87
1015.14	1084.91
1015.43	1085.99
1015.71	1086.57
1016.00	1088.77
1016.28	1089.45
1016.57	1087.41
1016.85	1087.69
1017.14	1089.26
1017.43	1089.22
1017.71	1094.06
1018.00	1095.63
1018.28	1094.53
1018.57	1094.55
1018.85	1091.65
1019.14	1084.46
1019.42	1083.53
1019.71	1083.36
1019.99	1083.64
1020.28	1083.95
1020.56	1084.49
1020.85	1084.35
1021.13	1084.14
1021.42	1079.81
1021.70	1081.28
1021.99	1086.29
1022.27	1087.20
1022.55	1099.58
1022.84	1089.17
>>>>>End Processed Spectral Data<<<<<
