SpectraSuite Data File
++++++++++++++++++++++++++++++++++++
Date: Mon Aug 26 10:26:28 PDT 2019
User: corrico
Dark Spectrum Present: No
Reference Spectrum Present: No
Number of Sampled Component Spectra: 1
Spectrometers: USB2+H06089
Integration Time (usec): 10000 (USB2+H06089)
Spectra Averaged: 20 (USB2+H06089)
Boxcar Smoothing: 2 (USB2+H06089)
Correct for Electrical Dark: No (USB2+H06089)
Strobe/Lamp Enabled: No (USB2+H06089)
Correct for Detector Non-linearity: No (USB2+H06089)
Correct for Stray Light: No (USB2+H06089)
Number of Pixels in Processed Spectrum: 2048
>>>>>Begin Processed Spectral Data<<<<<
339.70	1036.51
340.07	1036.51
340.45	1004.86
340.82	984.90
341.19	960.63
341.57	934.48
341.94	919.50
342.31	909.51
342.69	904.15
343.06	904.17
343.43	903.10
343.81	903.63
344.18	906.91
344.55	907.66
344.93	908.20
345.30	913.89
345.67	924.04
346.04	934.04
346.42	944.27
346.79	953.35
347.16	964.49
347.54	968.61
347.91	976.10
348.28	984.90
348.65	998.47
349.03	1010.29
349.40	1023.68
349.77	1034.03
350.14	1041.12
350.52	1045.87
350.89	1049.24
351.26	1052.38
351.63	1057.55
352.01	1063.52
352.38	1067.54
352.75	1070.19
353.12	1072.43
353.50	1075.17
353.87	1079.43
354.24	1082.24
354.61	1085.10
354.98	1091.13
355.36	1094.29
355.73	1096.42
356.10	1095.21
356.47	1096.05
356.84	1094.50
357.22	1091.56
357.59	1090.62
357.96	1093.22
358.33	1092.59
358.70	1090.71
359.08	1092.56
359.45	1089.57
359.82	1089.31
360.19	1090.29
360.56	1090.20
360.94	1088.04
361.31	1089.33
361.68	1088.07
362.05	1083.39
362.42	1082.54
362.79	1082.05
363.16	1078.43
363.54	1077.11
363.91	1078.43
364.28	1081.00
364.65	1082.33
365.02	1082.59
365.39	1081.96
365.76	1080.91
366.14	1076.58
366.51	1077.72
366.88	1076.60
367.25	1076.13
367.62	1075.83
367.99	1075.48
368.36	1071.71
368.73	1072.13
369.10	1071.92
369.48	1072.76
369.85	1077.77
370.22	1080.25
370.59	1081.12
370.96	1083.81
371.33	1084.91
371.70	1081.00
372.07	1081.42
372.44	1081.21
372.81	1079.48
373.18	1077.72
373.55	1081.16
373.93	1077.61
374.30	1078.71
374.67	1079.01
375.04	1080.41
375.41	1076.51
375.78	1079.43
376.15	1081.37
376.52	1084.39
376.89	1088.49
377.26	1089.40
377.63	1086.57
378.00	1083.67
378.37	1080.11
378.74	1076.46
379.11	1077.75
379.48	1079.08
379.85	1080.88
380.22	1082.38
380.59	1083.15
380.96	1083.90
381.33	1083.55
381.70	1081.96
382.07	1080.23
382.44	1079.53
382.81	1080.46
383.18	1084.79
383.55	1083.83
383.92	1086.55
384.29	1085.63
384.66	1086.69
385.03	1084.09
385.40	1083.55
385.77	1085.70
386.14	1088.79
386.51	1089.14
386.88	1092.89
387.25	1095.14
387.62	1090.39
387.99	1090.69
388.36	1091.23
388.73	1087.90
389.10	1088.54
389.46	1093.36
389.83	1094.39
390.20	1093.57
390.57	1095.44
390.94	1096.38
391.31	1091.27
391.68	1088.30
392.05	1086.29
392.42	1084.72
392.79	1082.10
393.16	1083.64
393.53	1086.90
393.89	1088.42
394.26	1091.79
394.63	1098.30
395.00	1099.75
395.37	1096.96
395.74	1098.81
396.11	1091.63
396.48	1090.20
396.84	1086.97
397.21	1087.18
397.58	1086.64
397.95	1090.85
398.32	1087.18
398.69	1087.27
399.06	1088.70
399.42	1085.84
399.79	1085.19
400.16	1087.83
400.53	1092.45
400.90	1091.16
401.27	1092.40
401.64	1090.74
402.00	1091.09
402.37	1089.05
402.74	1088.68
403.11	1091.34
403.48	1094.69
403.84	1095.42
404.21	1098.44
404.58	1101.13
404.95	1099.21
405.32	1099.84
405.68	1098.37
406.05	1097.69
406.42	1098.09
406.79	1096.78
407.16	1096.14
407.52	1096.63
407.89	1097.36
408.26	1093.55
408.63	1095.72
408.99	1095.86
409.36	1094.60
409.73	1095.32
410.10	1097.92
410.47	1098.11
410.83	1099.23
411.20	1098.86
411.57	1096.38
411.94	1100.57
412.30	1098.74
412.67	1099.07
413.04	1099.61
413.40	1099.21
413.77	1095.21
414.14	1097.36
414.51	1095.98
414.87	1100.33
415.24	1100.64
415.61	1103.73
415.97	1104.97
416.34	1107.80
416.71	1106.46
417.08	1107.82
417.44	1106.00
417.81	1103.89
418.18	1100.24
418.54	1099.68
418.91	1101.34
419.28	1101.15
419.64	1103.68
420.01	1108.20
420.38	1110.19
420.74	1109.44
421.11	1111.50
421.48	1111.22
421.84	1108.27
422.21	1108.90
422.58	1108.38
422.94	1110.49
423.31	1112.34
423.68	1114.31
424.04	1113.98
424.41	1111.12
424.77	1107.89
425.14	1110.65
425.51	1111.43
425.87	1110.87
426.24	1118.07
426.61	1120.34
426.97	1117.51
427.34	1116.53
427.70	1117.18
428.07	1116.67
428.44	1113.58
428.80	1112.99
429.17	1114.26
429.53	1114.21
429.90	1114.96
430.27	1115.55
430.63	1117.04
431.00	1117.16
431.36	1117.32
431.73	1115.05
432.09	1118.50
432.46	1118.82
432.83	1116.62
433.19	1115.31
433.56	1112.97
433.92	1112.06
434.29	1109.86
434.65	1109.74
435.02	1111.24
435.38	1113.88
435.75	1112.74
436.11	1113.67
436.48	1118.17
436.84	1118.75
437.21	1119.55
437.57	1122.50
437.94	1120.84
438.30	1119.29
438.67	1118.99
439.03	1118.82
439.40	1118.10
439.76	1117.35
440.13	1117.49
440.49	1116.13
440.86	1116.20
441.22	1113.84
441.59	1114.19
441.95	1112.92
442.32	1112.60
442.68	1109.77
443.05	1110.77
443.41	1114.84
443.78	1116.51
444.14	1114.82
444.51	1113.74
444.87	1114.33
445.24	1112.13
445.60	1109.16
445.96	1109.23
446.33	1112.01
446.69	1109.37
447.06	1109.23
447.42	1110.68
447.79	1110.19
448.15	1108.10
448.51	1108.50
448.88	1106.65
449.24	1106.04
449.61	1107.94
449.97	1109.51
450.33	1109.60
450.70	1110.23
451.06	1107.64
451.43	1110.07
451.79	1109.93
452.15	1112.08
452.52	1111.66
452.88	1115.71
453.24	1115.85
453.61	1117.18
453.97	1115.03
454.34	1118.57
454.70	1116.30
455.06	1112.41
455.43	1109.74
455.79	1109.98
456.15	1108.83
456.52	1111.89
456.88	1115.12
457.24	1116.53
457.61	1117.25
457.97	1114.70
458.33	1114.73
458.70	1112.88
459.06	1110.87
459.42	1110.44
459.79	1114.94
460.15	1114.19
460.51	1116.18
460.88	1119.62
461.24	1121.89
461.60	1121.14
461.96	1119.95
462.33	1117.91
462.69	1118.47
463.05	1115.59
463.42	1115.45
463.78	1117.72
464.14	1120.32
464.50	1121.09
464.87	1124.58
465.23	1124.96
465.59	1122.31
465.95	1123.08
466.32	1122.94
466.68	1123.22
467.04	1127.48
467.40	1128.93
467.77	1130.06
468.13	1128.49
468.49	1128.23
468.85	1126.90
469.22	1133.10
469.58	1134.64
469.94	1139.86
470.30	1144.66
470.66	1143.16
471.03	1140.38
471.39	1141.06
471.75	1142.44
472.11	1143.80
472.47	1147.82
472.84	1152.64
473.20	1156.93
473.56	1159.83
473.92	1161.33
474.28	1163.55
474.65	1166.31
475.01	1167.34
475.37	1171.25
475.73	1177.50
476.09	1184.90
476.45	1190.42
476.81	1197.84
477.18	1202.78
477.54	1205.73
477.90	1210.55
478.26	1213.47
478.62	1220.54
478.98	1227.45
479.34	1237.16
479.71	1246.01
480.07	1254.22
480.43	1262.72
480.79	1272.43
481.15	1281.30
481.51	1291.18
481.87	1304.87
482.23	1318.42
482.59	1332.82
482.96	1348.41
483.32	1362.92
483.68	1378.86
484.04	1390.65
484.40	1406.19
484.76	1421.66
485.12	1439.92
485.48	1456.00
485.84	1478.52
486.20	1500.94
486.56	1522.61
486.92	1545.55
487.28	1572.58
487.64	1597.91
488.00	1624.00
488.37	1652.72
488.73	1682.47
489.09	1715.19
489.45	1753.34
489.81	1789.88
490.17	1827.56
490.53	1872.69
490.89	1912.62
491.25	1954.98
491.61	2000.60
491.97	2049.86
492.33	2099.32
492.69	2158.42
493.05	2218.57
493.41	2278.35
493.77	2342.06
494.13	2410.40
494.49	2479.61
494.85	2549.78
495.21	2630.93
495.57	2710.97
495.93	2790.22
496.29	2874.51
496.64	2967.03
497.00	3050.26
497.36	3149.00
497.72	3252.29
498.08	3366.63
498.44	3481.38
498.80	3618.30
499.16	3758.92
499.52	3903.31
499.88	4055.63
500.24	4212.73
500.60	4369.10
500.96	4529.08
501.32	4706.07
501.68	4877.68
502.03	5070.05
502.39	5278.52
502.75	5496.79
503.11	5725.75
503.47	5966.52
503.83	6221.21
504.19	6483.45
504.55	6757.97
504.91	7038.72
505.26	7319.42
505.62	7622.61
505.98	7943.68
506.34	8293.13
506.70	8674.26
507.06	9081.21
507.42	9481.32
507.78	9894.94
508.13	10310.32
508.49	10741.65
508.85	11222.33
509.21	11734.39
509.57	12266.05
509.93	12850.90
510.28	13466.37
510.64	14095.81
511.00	14725.64
511.36	15342.73
511.72	15940.71
512.07	16610.74
512.43	17237.74
512.79	17920.26
513.15	18651.85
513.51	19397.26
513.86	20111.03
514.22	20931.69
514.58	21704.68
514.94	22525.36
515.30	23388.51
515.65	24207.81
516.01	25073.97
516.37	25969.60
516.73	26813.25
517.08	27730.08
517.44	28627.30
517.80	29472.68
518.16	30369.01
518.51	31222.98
518.87	31966.85
519.23	32845.28
519.59	33760.33
519.94	34595.36
520.30	35475.71
520.66	36286.40
521.01	37080.90
521.37	37743.10
521.73	38416.97
522.09	39062.98
522.44	39735.79
522.80	40151.59
523.16	40543.58
523.51	40773.49
523.87	41044.76
524.23	41270.39
524.58	41560.89
524.94	41974.91
525.30	42338.96
525.65	42567.18
526.01	42663.85
526.37	42701.37
526.72	42600.28
527.08	42489.59
527.44	42310.40
527.79	42178.42
528.15	42083.04
528.51	41880.52
528.86	41641.97
529.22	41398.41
529.58	41111.56
529.93	40714.67
530.29	40249.28
530.65	39866.34
531.00	39495.93
531.36	39077.72
531.71	38627.55
532.07	38156.47
532.43	37570.44
532.78	36834.67
533.14	36169.12
533.49	35524.11
533.85	34881.35
534.21	34263.69
534.56	33733.51
534.92	33177.35
535.27	32623.11
535.63	32016.00
535.98	31357.65
536.34	30742.23
536.69	30084.71
537.05	29393.48
537.41	28868.96
537.76	28373.66
538.12	27791.99
538.47	27292.52
538.83	26854.07
539.18	26355.34
539.54	25869.36
539.89	25408.74
540.25	24857.66
540.60	24343.47
540.96	23799.99
541.31	23292.50
541.67	22844.12
542.02	22417.96
542.38	21973.00
542.73	21498.64
543.09	21095.67
543.44	20739.35
543.80	20415.37
544.15	20018.25
544.51	19702.98
544.86	19375.17
545.22	18972.99
545.57	18558.29
545.93	18174.68
546.28	17843.31
546.64	17523.22
546.99	17174.24
547.35	16836.06
547.70	16541.71
548.05	16212.35
548.41	15872.46
548.76	15582.21
549.12	15318.74
549.47	15025.09
549.83	14771.24
550.18	14459.64
550.53	14138.38
550.89	13848.81
551.24	13589.92
551.60	13272.29
551.95	12991.14
552.30	12752.41
552.66	12493.80
553.01	12215.37
553.37	11941.79
553.72	11671.29
554.07	11387.71
554.43	11092.06
554.78	10791.46
555.13	10520.94
555.49	10292.51
555.84	10104.87
556.19	9909.55
556.55	9724.41
556.90	9533.31
557.26	9316.41
557.61	9087.69
557.96	8850.88
558.32	8646.22
558.67	8438.97
559.02	8225.93
559.37	8025.98
559.73	7878.90
560.08	7713.66
560.43	7549.68
560.79	7414.72
561.14	7251.99
561.49	7073.43
561.85	6910.10
562.20	6760.64
562.55	6623.93
562.90	6501.31
563.26	6376.95
563.61	6263.02
563.96	6139.41
564.32	6004.83
564.67	5870.41
565.02	5740.19
565.37	5623.16
565.73	5520.72
566.08	5418.93
566.43	5318.33
566.78	5210.41
567.14	5101.88
567.49	4988.55
567.84	4880.34
568.19	4770.13
568.54	4679.67
568.90	4584.01
569.25	4501.11
569.60	4423.80
569.95	4343.19
570.31	4260.90
570.66	4181.02
571.01	4091.42
571.36	4003.30
571.71	3927.58
572.06	3861.77
572.42	3799.74
572.77	3737.81
573.12	3679.32
573.47	3616.10
573.82	3548.06
574.18	3480.68
574.53	3419.12
574.88	3358.58
575.23	3308.02
575.58	3254.35
575.93	3204.52
576.28	3149.64
576.64	3097.07
576.99	3041.36
577.34	2985.47
577.69	2926.02
578.04	2879.65
578.39	2828.68
578.74	2784.18
579.09	2739.92
579.44	2701.63
579.80	2656.04
580.15	2616.51
580.50	2571.94
580.85	2539.32
581.20	2508.38
581.55	2480.87
581.90	2450.68
582.25	2417.68
582.60	2378.03
582.95	2336.04
583.30	2292.81
583.65	2250.66
584.00	2218.48
584.35	2186.34
584.71	2156.43
585.06	2129.93
585.41	2104.75
585.76	2076.20
586.11	2051.41
586.46	2024.24
586.81	2000.43
587.16	1979.65
587.51	1961.11
587.86	1939.44
588.21	1922.80
588.56	1902.79
588.91	1876.15
589.26	1852.77
589.61	1836.74
589.96	1820.47
590.31	1804.25
590.66	1790.11
591.01	1773.42
591.36	1751.28
591.71	1727.29
592.06	1709.11
592.41	1692.53
592.76	1675.94
593.10	1664.52
593.45	1652.96
593.80	1638.12
594.15	1623.82
594.50	1612.00
594.85	1596.60
595.20	1582.13
595.55	1568.32
595.90	1558.68
596.25	1548.57
596.60	1536.16
596.95	1523.41
597.30	1512.27
597.64	1557.72
597.99	1549.65
598.34	1542.58
598.69	1537.59
599.04	1533.80
599.39	1465.53
599.74	1453.68
600.09	1444.63
600.44	1436.25
600.78	1425.15
601.13	1420.82
601.48	1411.76
601.83	1404.95
602.18	1396.78
602.53	1389.13
602.88	1380.85
603.22	1373.40
603.57	1364.06
603.92	1356.04
604.27	1349.27
604.62	1343.91
604.97	1339.68
605.31	1332.89
605.66	1329.66
606.01	1321.56
606.36	1313.49
606.71	1308.80
607.05	1304.24
607.40	1296.12
607.75	1299.23
608.10	1296.24
608.44	1286.52
608.79	1282.12
609.14	1278.26
609.49	1270.72
609.84	1264.03
610.18	1267.80
610.53	1264.92
610.88	1262.98
611.23	1257.48
611.57	1257.20
611.92	1249.87
612.27	1247.44
612.62	1243.41
612.96	1239.43
613.31	1235.05
613.66	1231.22
614.00	1227.03
614.35	1223.40
614.70	1221.53
615.05	1218.13
615.39	1211.25
615.74	1210.45
616.09	1206.36
616.43	1203.55
616.78	1202.54
617.13	1205.35
617.47	1199.27
617.82	1198.14
618.17	1197.46
618.51	1192.92
618.86	1188.76
619.21	1187.94
619.55	1183.77
619.90	1178.93
620.25	1177.01
620.59	1175.42
620.94	1174.48
621.29	1176.10
621.63	1171.95
621.98	1168.51
622.32	1165.61
622.67	1164.74
623.02	1160.23
623.36	1160.51
623.71	1161.56
624.05	1162.36
624.40	1158.92
624.75	1159.69
625.09	1158.07
625.44	1152.62
625.78	1148.95
626.13	1146.35
626.48	1141.62
626.82	1141.78
627.17	1140.94
627.51	1139.19
627.86	1142.46
628.20	1142.28
628.55	1138.93
628.89	1141.01
629.24	1140.87
629.58	1137.38
629.93	1138.60
630.28	1138.67
630.62	1138.88
630.97	1139.51
631.31	1138.62
631.66	1135.32
632.00	1133.24
632.35	1128.33
632.69	1124.07
633.04	1122.54
633.38	1123.76
633.73	1124.63
634.07	1127.55
634.42	1127.32
634.76	1124.30
635.11	1123.53
635.45	1121.82
635.79	1121.44
636.14	1122.85
636.48	1123.62
636.83	1125.40
637.17	1124.53
637.52	1122.99
637.86	1121.35
638.21	1124.04
638.55	1120.20
638.89	1121.28
639.24	1119.83
639.58	1121.12
639.93	1116.51
640.27	1114.10
640.61	1114.14
640.96	1115.12
641.30	1112.08
641.65	1110.72
641.99	1113.44
642.33	1111.45
642.68	1109.34
643.02	1108.41
643.37	1110.51
643.71	1108.97
644.05	1109.32
644.40	1108.08
644.74	1108.43
645.08	1107.47
645.43	1105.22
645.77	1104.01
646.11	1106.07
646.46	1103.12
646.80	1100.08
647.14	1103.91
647.49	1104.83
647.83	1103.91
648.17	1107.94
648.52	1110.16
648.86	1109.60
649.20	1110.35
649.55	1108.71
649.89	1108.22
650.23	1111.22
650.57	1107.49
650.92	1105.08
651.26	1105.76
651.60	1105.20
651.95	1101.01
652.29	1105.51
652.63	1104.33
652.97	1102.88
653.32	1104.26
653.66	1106.09
654.00	1105.25
654.34	1104.66
654.69	1103.16
655.03	1102.91
655.37	1101.15
655.71	1095.60
656.05	1094.32
656.40	1093.31
656.74	1090.99
657.08	1089.50
657.42	1092.37
657.76	1093.29
658.11	1093.40
658.45	1092.30
658.79	1091.63
659.13	1089.45
659.47	1090.55
659.82	1092.26
660.16	1092.33
660.50	1093.64
660.84	1097.52
661.18	1098.67
661.52	1098.41
661.87	1096.54
662.21	1096.10
662.55	1091.93
662.89	1089.68
663.23	1087.67
663.57	1089.59
663.91	1094.69
664.25	1095.04
664.60	1096.03
664.94	1093.80
665.28	1094.57
665.62	1092.49
665.96	1093.80
666.30	1092.40
666.64	1098.44
666.98	1098.65
667.32	1096.52
667.66	1096.75
668.01	1099.14
668.35	1096.94
668.69	1097.24
669.03	1096.19
669.37	1093.66
669.71	1093.78
670.05	1094.88
670.39	1092.49
670.73	1093.36
671.07	1093.12
671.41	1092.66
671.75	1090.76
672.09	1090.97
672.43	1092.33
672.77	1092.42
673.11	1088.02
673.45	1088.14
673.79	1090.74
674.13	1090.34
674.47	1090.50
674.81	1091.04
675.15	1088.84
675.49	1085.17
675.83	1085.24
676.17	1084.44
676.51	1089.12
676.85	1091.53
677.19	1092.84
677.53	1089.31
677.87	1093.73
678.21	1090.64
678.55	1092.42
678.89	1092.21
679.23	1096.24
679.57	1090.99
679.90	1092.91
680.24	1093.01
680.58	1092.91
680.92	1088.79
681.26	1090.60
681.60	1090.17
681.94	1091.16
682.28	1092.98
682.62	1096.42
682.96	1096.49
683.29	1096.73
683.63	1096.28
683.97	1095.04
684.31	1093.59
684.65	1093.15
684.99	1091.74
685.33	1091.46
685.67	1090.97
686.00	1090.06
686.34	1089.80
686.68	1092.75
687.02	1090.48
687.36	1091.37
687.70	1091.86
688.03	1094.76
688.37	1093.38
688.71	1092.42
689.05	1093.76
689.39	1092.26
689.72	1092.00
690.06	1093.05
690.40	1095.09
690.74	1091.51
691.08	1094.86
691.41	1093.31
691.75	1093.43
692.09	1092.77
692.43	1097.64
692.76	1096.75
693.10	1097.76
693.44	1096.82
693.78	1097.66
694.11	1094.97
694.45	1093.29
694.79	1090.62
695.13	1088.40
695.46	1087.90
695.80	1087.90
696.14	1090.50
696.48	1093.26
696.81	1095.79
697.15	1094.32
697.49	1096.73
697.82	1094.08
698.16	1092.96
698.50	1090.06
698.83	1089.29
699.17	1089.80
699.51	1093.29
699.84	1095.65
700.18	1097.22
700.52	1098.18
700.85	1092.16
701.19	1087.06
701.53	1083.34
701.86	1082.54
702.20	1082.57
702.54	1086.36
702.87	1088.37
703.21	1087.79
703.55	1084.96
703.88	1087.74
704.22	1088.49
704.55	1088.14
704.89	1089.14
705.23	1087.16
705.56	1084.49
705.90	1082.12
706.23	1078.99
706.57	1081.16
706.91	1085.84
707.24	1086.80
707.58	1089.24
707.91	1092.84
708.25	1091.18
708.58	1091.72
708.92	1093.26
709.26	1090.67
709.59	1089.45
709.93	1087.30
710.26	1084.56
710.60	1084.56
710.93	1083.97
711.27	1084.42
711.60	1085.84
711.94	1086.76
712.27	1085.84
712.61	1085.31
712.94	1085.66
713.28	1087.95
713.61	1085.59
713.95	1085.99
714.28	1089.71
714.62	1090.78
714.95	1089.14
715.29	1091.49
715.62	1090.78
715.96	1086.71
716.29	1085.05
716.63	1085.19
716.96	1085.17
717.29	1083.20
717.63	1086.71
717.96	1089.24
718.30	1088.89
718.63	1089.14
718.97	1089.07
719.30	1088.58
719.63	1086.03
719.97	1088.02
720.30	1090.01
720.64	1091.74
720.97	1092.35
721.30	1092.56
721.64	1090.97
721.97	1086.64
722.31	1088.09
722.64	1085.80
722.97	1087.62
723.31	1089.24
723.64	1092.47
723.97	1091.79
724.31	1091.84
724.64	1089.80
724.98	1086.73
725.31	1085.87
725.64	1080.63
725.98	1080.70
726.31	1080.91
726.64	1082.31
726.97	1082.92
727.31	1086.36
727.64	1087.27
727.97	1087.69
728.31	1090.29
728.64	1088.89
728.97	1087.90
729.31	1086.52
729.64	1085.54
729.97	1081.82
730.30	1085.00
730.64	1087.06
730.97	1085.28
731.30	1086.50
731.63	1088.00
731.97	1087.60
732.30	1086.20
732.63	1089.24
732.96	1090.27
733.30	1088.56
733.63	1086.57
733.96	1089.92
734.29	1088.51
734.63	1085.47
734.96	1087.55
735.29	1086.52
735.62	1085.00
735.95	1084.70
736.29	1085.31
736.62	1083.62
736.95	1085.42
737.28	1083.39
737.61	1083.57
737.94	1088.26
738.28	1085.96
738.61	1086.55
738.94	1088.37
739.27	1088.21
739.60	1084.93
739.93	1088.51
740.27	1085.91
740.60	1085.63
740.93	1088.28
741.26	1092.70
741.59	1092.63
741.92	1093.29
742.25	1092.16
742.58	1087.23
742.91	1083.15
743.25	1081.58
743.58	1082.17
743.91	1082.87
744.24	1084.65
744.57	1084.49
744.90	1082.54
745.23	1081.91
745.56	1081.35
745.89	1082.08
746.22	1083.43
746.55	1087.51
746.88	1090.71
747.21	1089.85
747.54	1091.95
747.87	1091.56
748.20	1089.22
748.53	1088.82
748.87	1089.52
749.20	1085.66
749.53	1083.01
749.86	1083.18
750.19	1080.81
750.52	1080.88
750.85	1085.19
751.18	1086.15
751.51	1086.29
751.84	1087.65
752.16	1088.49
752.49	1087.51
752.82	1088.16
753.15	1091.18
753.48	1089.96
753.81	1089.54
754.14	1088.00
754.47	1088.89
754.80	1088.61
755.13	1088.77
755.46	1088.49
755.79	1087.95
756.12	1091.42
756.45	1087.86
756.78	1088.58
757.11	1089.66
757.43	1091.27
757.76	1083.50
758.09	1084.46
758.42	1082.36
758.75	1083.79
759.08	1082.05
759.41	1086.99
759.74	1088.54
760.07	1090.78
760.39	1090.64
760.72	1093.73
761.05	1091.51
761.38	1091.04
761.71	1090.34
762.04	1085.89
762.36	1082.52
762.69	1082.38
763.02	1080.91
763.35	1081.47
763.68	1084.91
764.01	1085.38
764.33	1085.21
764.66	1087.51
764.99	1086.94
765.32	1086.66
765.65	1086.38
765.97	1086.66
766.30	1089.12
766.63	1090.27
766.96	1087.83
767.28	1091.72
767.61	1093.80
767.94	1089.54
768.27	1087.25
768.59	1089.12
768.92	1083.81
769.25	1080.44
769.58	1079.17
769.90	1076.65
770.23	1077.51
770.56	1080.84
770.89	1083.81
771.21	1087.32
771.54	1091.32
771.87	1091.34
772.19	1091.25
772.52	1088.91
772.85	1089.50
773.17	1090.17
773.50	1087.74
773.83	1085.73
774.15	1082.12
774.48	1079.62
774.81	1078.52
775.13	1081.42
775.46	1083.90
775.79	1089.99
776.11	1090.55
776.44	1089.73
776.77	1088.19
777.09	1087.93
777.42	1084.53
777.74	1083.41
778.07	1084.21
778.40	1086.06
778.72	1086.13
779.05	1090.17
779.37	1090.67
779.70	1089.43
780.03	1082.54
780.35	1080.23
780.68	1077.47
781.00	1076.72
781.33	1078.89
781.65	1086.17
781.98	1086.31
782.31	1087.02
782.63	1086.31
782.96	1085.91
783.28	1086.01
783.61	1087.51
783.93	1086.43
784.26	1087.51
784.58	1089.96
784.91	1088.70
785.23	1087.02
785.56	1086.83
785.88	1088.56
786.21	1090.32
786.53	1088.40
786.86	1089.03
787.18	1090.48
787.51	1087.60
787.83	1081.42
788.16	1079.53
788.48	1078.78
788.81	1079.27
789.13	1083.34
789.46	1089.22
789.78	1094.01
790.10	1096.40
790.43	1095.86
790.75	1093.22
791.08	1086.17
791.40	1085.52
791.73	1088.96
792.05	1089.61
792.37	1090.08
792.70	1092.56
793.02	1090.43
793.35	1086.78
793.67	1085.19
793.99	1085.63
794.32	1085.94
794.64	1085.35
794.96	1084.77
795.29	1087.02
795.61	1085.84
795.93	1086.80
796.26	1088.23
796.58	1088.63
796.91	1085.28
797.23	1085.82
797.55	1086.83
797.87	1087.23
798.20	1088.07
798.52	1090.71
798.84	1089.73
799.17	1089.99
799.49	1091.60
799.81	1091.77
800.14	1090.53
800.46	1092.30
800.78	1091.02
801.10	1088.37
801.43	1086.83
801.75	1087.06
802.07	1084.98
802.40	1084.84
802.72	1085.54
803.04	1086.99
803.36	1088.51
803.69	1090.43
804.01	1089.66
804.33	1090.64
804.65	1086.08
804.97	1083.62
805.30	1084.39
805.62	1087.04
805.94	1087.23
806.26	1091.27
806.58	1092.47
806.91	1091.58
807.23	1088.51
807.55	1087.16
807.87	1086.22
808.19	1088.28
808.52	1089.45
808.84	1089.14
809.16	1088.91
809.48	1088.30
809.80	1085.54
810.12	1084.39
810.44	1084.02
810.77	1084.00
811.09	1084.28
811.41	1085.24
811.73	1085.31
812.05	1088.37
812.37	1088.37
812.69	1087.06
813.01	1089.05
813.33	1088.79
813.66	1085.28
813.98	1084.58
814.30	1083.32
814.62	1081.80
814.94	1079.85
815.26	1079.67
815.58	1081.30
815.90	1083.67
816.22	1082.47
816.54	1083.32
816.86	1085.91
817.18	1085.10
817.50	1084.63
817.82	1084.98
818.14	1085.68
818.46	1085.49
818.78	1087.25
819.10	1086.92
819.42	1087.44
819.74	1089.05
820.06	1088.47
820.38	1085.99
820.70	1088.14
821.02	1087.46
821.34	1086.71
821.66	1086.71
821.98	1085.77
822.30	1085.82
822.62	1087.18
822.94	1086.62
823.26	1083.29
823.58	1085.05
823.90	1085.49
824.22	1085.03
824.54	1083.79
824.86	1086.73
825.18	1085.96
825.50	1084.77
825.81	1082.05
826.13	1081.87
826.45	1081.47
826.77	1081.26
827.09	1080.56
827.41	1081.47
827.73	1082.19
828.05	1085.38
828.36	1083.83
828.68	1083.34
829.00	1081.00
829.32	1081.40
829.64	1080.60
829.96	1083.64
830.28	1082.52
830.59	1083.08
830.91	1083.04
831.23	1083.67
831.55	1085.10
831.87	1088.68
832.19	1091.70
832.50	1090.55
832.82	1087.55
833.14	1086.20
833.46	1086.01
833.78	1086.55
834.09	1090.36
834.41	1089.47
834.73	1088.26
835.05	1088.07
835.36	1090.24
835.68	1086.31
836.00	1089.96
836.32	1089.92
836.63	1089.10
836.95	1083.04
837.27	1084.74
837.59	1080.74
837.90	1080.34
838.22	1079.90
838.54	1083.76
838.85	1081.56
839.17	1085.82
839.49	1083.95
839.80	1083.90
840.12	1082.38
840.44	1082.38
840.76	1083.60
841.07	1087.20
841.39	1088.84
841.71	1092.00
842.02	1095.84
842.34	1091.09
842.65	1088.98
842.97	1088.75
843.29	1085.35
843.60	1083.11
843.92	1083.64
844.24	1085.73
844.55	1083.60
844.87	1085.73
845.18	1089.14
845.50	1091.39
845.82	1091.13
846.13	1093.05
846.45	1094.41
846.76	1091.09
847.08	1088.35
847.40	1085.77
847.71	1083.60
848.03	1082.40
848.34	1080.23
848.66	1080.09
848.97	1082.80
849.29	1084.93
849.60	1083.50
849.92	1090.39
850.24	1088.40
850.55	1087.18
850.87	1085.68
851.18	1083.88
851.50	1079.38
851.81	1083.69
852.13	1083.95
852.44	1083.90
852.76	1085.59
853.07	1086.66
853.39	1086.01
853.70	1085.49
854.01	1085.14
854.33	1083.22
854.64	1081.00
854.96	1081.35
855.27	1083.62
855.59	1082.52
855.90	1083.55
856.22	1085.96
856.53	1084.25
856.84	1080.34
857.16	1080.37
857.47	1081.63
857.79	1082.03
858.10	1081.63
858.41	1082.43
858.73	1084.28
859.04	1081.80
859.36	1080.04
859.67	1081.96
859.98	1081.87
860.30	1080.58
860.61	1082.36
860.92	1083.57
861.24	1082.24
861.55	1086.41
861.87	1088.77
862.18	1091.20
862.49	1090.83
862.81	1090.67
863.12	1088.49
863.43	1088.42
863.74	1089.68
864.06	1088.35
864.37	1090.06
864.68	1091.11
865.00	1090.24
865.31	1085.75
865.62	1087.02
865.94	1085.47
866.25	1085.10
866.56	1084.93
866.87	1085.89
867.19	1083.69
867.50	1082.90
867.81	1080.67
868.12	1079.46
868.44	1081.05
868.75	1083.41
869.06	1083.83
869.37	1084.98
869.68	1083.55
870.00	1082.76
870.31	1082.73
870.62	1083.90
870.93	1080.58
871.24	1082.90
871.56	1081.14
871.87	1081.68
872.18	1081.58
872.49	1084.09
872.80	1086.66
873.12	1086.90
873.43	1082.45
873.74	1082.52
874.05	1082.40
874.36	1078.82
874.67	1080.23
874.98	1081.23
875.29	1081.51
875.61	1079.22
875.92	1080.81
876.23	1083.08
876.54	1085.54
876.85	1084.14
877.16	1085.33
877.47	1084.84
877.78	1083.67
878.09	1079.67
878.40	1079.88
878.72	1079.92
879.03	1078.87
879.34	1078.80
879.65	1081.58
879.96	1080.04
880.27	1080.95
880.58	1083.48
880.89	1080.02
881.20	1081.49
881.51	1082.52
881.82	1082.92
882.13	1078.94
882.44	1079.31
882.75	1077.11
883.06	1077.25
883.37	1076.60
883.68	1077.04
883.99	1080.51
884.30	1083.39
884.61	1084.21
884.92	1084.32
885.23	1087.48
885.54	1086.03
885.85	1084.32
886.16	1084.84
886.47	1085.66
886.78	1084.98
887.08	1083.83
887.39	1084.84
887.70	1086.43
888.01	1083.90
888.32	1082.10
888.63	1084.42
888.94	1084.46
889.25	1082.87
889.56	1086.38
889.87	1089.29
890.17	1086.90
890.48	1085.77
890.79	1087.69
891.10	1084.28
891.41	1082.71
891.72	1084.65
892.03	1086.24
892.34	1083.06
892.64	1085.70
892.95	1084.04
893.26	1081.58
893.57	1079.71
893.88	1078.26
894.18	1077.30
894.49	1079.24
894.80	1079.53
895.11	1077.30
895.42	1081.68
895.72	1082.69
896.03	1084.18
896.34	1084.39
896.65	1083.22
896.96	1082.54
897.26	1083.18
897.57	1080.56
897.88	1084.37
898.19	1089.36
898.49	1087.16
898.80	1087.65
899.11	1084.91
899.41	1081.82
899.72	1079.22
900.03	1079.95
900.34	1076.58
900.64	1076.67
900.95	1078.17
901.26	1078.96
901.56	1079.10
901.87	1082.31
902.18	1084.93
902.48	1082.24
902.79	1083.50
903.10	1082.71
903.40	1081.00
903.71	1084.30
904.02	1085.82
904.32	1090.15
904.63	1089.82
904.94	1090.32
905.24	1089.03
905.55	1086.59
905.85	1081.87
906.16	1083.22
906.47	1079.78
906.77	1081.68
907.08	1084.04
907.38	1086.52
907.69	1085.91
908.00	1090.60
908.30	1086.17
908.61	1084.96
908.91	1084.79
909.22	1085.59
909.52	1084.44
909.83	1088.40
910.14	1088.86
910.44	1085.24
910.75	1085.19
911.05	1084.30
911.36	1081.44
911.66	1082.92
911.97	1085.52
912.27	1084.74
912.58	1084.89
912.88	1084.63
913.19	1086.29
913.49	1085.07
913.80	1083.15
914.10	1082.24
914.41	1084.21
914.71	1077.00
915.01	1073.44
915.32	1073.93
915.62	1072.85
915.93	1071.22
916.23	1074.42
916.54	1078.07
916.84	1078.75
917.15	1081.66
917.45	1082.08
917.75	1080.44
918.06	1080.88
918.36	1084.07
918.67	1083.41
918.97	1085.52
919.27	1088.09
919.58	1087.34
919.88	1085.35
920.18	1085.21
920.49	1081.54
920.79	1078.52
921.10	1079.50
921.40	1079.53
921.70	1078.05
922.01	1079.95
922.31	1084.46
922.61	1085.07
922.92	1085.61
923.22	1088.33
923.52	1088.49
923.82	1087.02
924.13	1082.38
924.43	1084.56
924.73	1082.22
925.04	1082.19
925.34	1080.88
925.64	1082.52
925.94	1079.22
926.25	1079.74
926.55	1081.51
926.85	1084.30
927.15	1082.45
927.46	1081.94
927.76	1082.69
928.06	1078.21
928.36	1076.76
928.67	1081.49
928.97	1083.06
929.27	1082.90
929.57	1083.95
929.87	1083.48
930.18	1084.39
930.48	1083.25
930.78	1080.06
931.08	1080.79
931.38	1082.01
931.69	1078.17
931.99	1077.82
932.29	1083.86
932.59	1083.83
932.89	1080.88
933.19	1081.94
933.49	1083.81
933.80	1082.22
934.10	1083.64
934.40	1087.30
934.70	1089.05
935.00	1089.96
935.30	1088.89
935.60	1087.37
935.90	1085.47
936.20	1083.22
936.50	1079.76
936.81	1080.81
937.11	1082.24
937.41	1084.09
937.71	1083.13
938.01	1085.28
938.31	1082.83
938.61	1078.59
938.91	1076.69
939.21	1078.00
939.51	1076.69
939.81	1078.61
940.11	1081.54
940.41	1084.44
940.71	1083.04
941.01	1084.49
941.31	1085.31
941.61	1089.96
941.91	1087.53
942.21	1088.09
942.51	1085.42
942.81	1083.93
943.11	1079.46
943.41	1079.10
943.71	1082.69
944.01	1084.14
944.31	1082.78
944.61	1083.79
944.90	1084.30
945.20	1081.44
945.50	1080.41
945.80	1080.67
946.10	1080.81
946.40	1080.23
946.70	1080.34
947.00	1079.97
947.30	1081.30
947.60	1081.51
947.89	1081.56
948.19	1079.69
948.49	1080.39
948.79	1079.69
949.09	1080.74
949.39	1083.64
949.69	1084.04
949.98	1084.70
950.28	1085.63
950.58	1082.10
950.88	1078.94
951.18	1082.26
951.48	1084.14
951.77	1082.05
952.07	1081.49
952.37	1081.63
952.67	1080.06
952.97	1076.81
953.26	1078.21
953.56	1079.97
953.86	1080.39
954.16	1080.74
954.45	1081.98
954.75	1080.91
955.05	1080.70
955.35	1079.48
955.64	1077.47
955.94	1076.93
956.24	1079.90
956.54	1083.04
956.83	1083.22
957.13	1087.16
957.43	1087.16
957.72	1085.14
958.02	1082.59
958.32	1082.61
958.61	1080.13
958.91	1077.63
959.21	1076.60
959.50	1077.09
959.80	1078.28
960.10	1078.40
960.39	1084.07
960.69	1086.69
960.99	1085.59
961.28	1086.99
961.58	1087.72
961.87	1085.19
962.17	1084.46
962.47	1085.49
962.76	1084.30
963.06	1083.04
963.36	1082.97
963.65	1082.24
963.95	1081.96
964.24	1082.38
964.54	1082.83
964.83	1084.91
965.13	1082.87
965.42	1082.43
965.72	1081.30
966.02	1079.83
966.31	1077.07
966.61	1078.03
966.90	1077.21
967.20	1078.26
967.49	1079.29
967.79	1083.95
968.08	1086.38
968.38	1088.30
968.67	1089.40
968.97	1091.86
969.26	1088.28
969.56	1086.41
969.85	1084.74
970.15	1083.97
970.44	1080.86
970.74	1082.29
971.03	1084.21
971.32	1083.43
971.62	1083.86
971.91	1085.28
972.21	1085.35
972.50	1081.89
972.80	1083.13
973.09	1080.23
973.38	1079.31
973.68	1078.78
973.97	1082.31
974.27	1082.59
974.56	1084.74
974.85	1087.81
975.15	1087.11
975.44	1087.02
975.73	1085.59
976.03	1084.53
976.32	1081.00
976.61	1081.33
976.91	1080.06
977.20	1081.68
977.49	1083.20
977.79	1084.18
978.08	1082.26
978.37	1080.25
978.67	1079.83
978.96	1078.47
979.25	1079.08
979.55	1077.98
979.84	1083.39
980.13	1082.03
980.42	1082.10
980.72	1081.68
981.01	1084.04
981.30	1082.40
981.59	1085.40
981.89	1085.56
982.18	1083.62
982.47	1082.57
982.76	1080.34
983.06	1077.84
983.35	1074.77
983.64	1077.79
983.93	1079.08
984.22	1078.85
984.52	1080.70
984.81	1084.16
985.10	1084.28
985.39	1081.84
985.68	1084.96
985.97	1086.55
986.27	1088.56
986.56	1085.99
986.85	1089.50
987.14	1086.10
987.43	1083.53
987.72	1081.56
988.01	1082.76
988.31	1082.33
988.60	1084.28
988.89	1083.76
989.18	1082.94
989.47	1082.73
989.76	1081.80
990.05	1081.80
990.34	1082.36
990.63	1083.64
990.92	1084.14
991.21	1086.73
991.51	1086.38
991.80	1085.33
992.09	1084.11
992.38	1084.86
992.67	1084.09
992.96	1085.24
993.25	1087.11
993.54	1086.57
993.83	1082.80
994.12	1079.13
994.41	1077.65
994.70	1074.31
994.99	1075.94
995.28	1079.78
995.57	1081.00
995.86	1083.76
996.15	1085.75
996.44	1083.43
996.73	1083.90
997.02	1084.42
997.31	1082.17
997.59	1081.58
997.88	1083.11
998.17	1079.88
998.46	1080.81
998.75	1082.94
999.04	1084.21
999.33	1084.39
999.62	1086.10
999.91	1086.41
1000.20	1083.01
1000.49	1082.57
1000.77	1081.42
1001.06	1079.90
1001.35	1078.31
1001.64	1079.92
1001.93	1079.55
1002.22	1083.62
1002.51	1084.74
1002.79	1084.42
1003.08	1083.50
1003.37	1084.74
1003.66	1083.13
1003.95	1082.52
1004.23	1084.56
1004.52	1086.10
1004.81	1084.67
1005.10	1085.24
1005.39	1086.13
1005.67	1085.31
1005.96	1084.65
1006.25	1087.11
1006.54	1086.38
1006.83	1086.83
1007.11	1085.12
1007.40	1082.22
1007.69	1079.78
1007.97	1075.85
1008.26	1077.96
1008.55	1079.57
1008.84	1079.10
1009.12	1078.78
1009.41	1077.86
1009.70	1075.43
1009.98	1074.77
1010.27	1076.65
1010.56	1077.35
1010.85	1082.22
1011.13	1081.07
1011.42	1079.50
1011.71	1081.00
1011.99	1079.92
1012.28	1076.79
1012.56	1077.23
1012.85	1077.84
1013.14	1078.14
1013.42	1077.16
1013.71	1081.54
1014.00	1083.01
1014.28	1084.18
1014.57	1085.73
1014.85	1086.85
1015.14	1082.52
1015.43	1083.29
1015.71	1082.36
1016.00	1081.28
1016.28	1084.09
1016.57	1086.55
1016.85	1084.67
1017.14	1085.28
1017.43	1085.07
1017.71	1085.66
1018.00	1087.76
1018.28	1089.10
1018.57	1087.58
1018.85	1086.59
1019.14	1086.45
1019.42	1083.18
1019.71	1080.93
1019.99	1082.99
1020.28	1084.98
1020.56	1081.09
1020.85	1083.22
1021.13	1086.97
1021.42	1083.34
1021.70	1082.08
1021.99	1082.40
1022.27	1081.68
1022.55	1075.01
1022.84	1086.24
>>>>>End Processed Spectral Data<<<<<
