SpectraSuite Data File
++++++++++++++++++++++++++++++++++++
Date: Mon Aug 26 10:26:15 PDT 2019
User: corrico
Dark Spectrum Present: No
Reference Spectrum Present: No
Number of Sampled Component Spectra: 1
Spectrometers: USB2+H06089
Integration Time (usec): 10000 (USB2+H06089)
Spectra Averaged: 20 (USB2+H06089)
Boxcar Smoothing: 2 (USB2+H06089)
Correct for Electrical Dark: No (USB2+H06089)
Strobe/Lamp Enabled: No (USB2+H06089)
Correct for Detector Non-linearity: No (USB2+H06089)
Correct for Stray Light: No (USB2+H06089)
Number of Pixels in Processed Spectrum: 2048
>>>>>Begin Processed Spectral Data<<<<<
339.70	1028.90
340.07	1028.90
340.45	994.59
340.82	973.73
341.19	951.05
341.57	928.23
341.94	918.15
342.31	910.73
342.69	904.97
343.06	903.24
343.43	900.22
343.81	903.14
344.18	905.18
344.55	911.31
344.93	913.53
345.30	916.93
345.67	925.94
346.04	934.79
346.42	939.91
346.79	950.21
347.16	964.75
347.54	969.75
347.91	979.30
348.28	994.24
348.65	1005.05
349.03	1016.78
349.40	1027.66
349.77	1035.36
350.14	1041.96
350.52	1046.34
350.89	1049.47
351.26	1055.42
351.63	1063.02
352.01	1065.01
352.38	1074.14
352.75	1074.35
353.12	1078.21
353.50	1078.47
353.87	1083.55
354.24	1083.04
354.61	1088.00
354.98	1088.68
355.36	1092.26
355.73	1094.62
356.10	1094.88
356.47	1095.30
356.84	1094.65
357.22	1091.06
357.59	1087.62
357.96	1088.14
358.33	1087.53
358.70	1084.93
359.08	1087.93
359.45	1087.18
359.82	1086.27
360.19	1087.72
360.56	1086.59
360.94	1082.61
361.31	1082.87
361.68	1084.49
362.05	1080.37
362.42	1084.18
362.79	1086.31
363.16	1086.20
363.54	1083.43
363.91	1086.52
364.28	1085.96
364.65	1085.42
365.02	1085.70
365.39	1084.39
365.76	1085.12
366.14	1082.92
366.51	1080.13
366.88	1078.03
367.25	1079.31
367.62	1077.30
367.99	1076.88
368.36	1080.67
368.73	1082.64
369.10	1082.08
369.48	1081.70
369.85	1082.45
370.22	1080.27
370.59	1079.31
370.96	1081.73
371.33	1078.52
371.70	1078.61
372.07	1078.21
372.44	1076.30
372.81	1075.20
373.18	1079.08
373.55	1078.64
373.93	1078.52
374.30	1077.96
374.67	1077.02
375.04	1073.32
375.41	1075.66
375.78	1077.00
376.15	1082.08
376.52	1083.34
376.89	1089.38
377.26	1088.84
377.63	1089.07
378.00	1088.54
378.37	1085.70
378.74	1083.41
379.11	1082.94
379.48	1083.43
379.85	1081.40
380.22	1085.26
380.59	1086.50
380.96	1088.79
381.33	1092.63
381.70	1094.01
382.07	1092.37
382.44	1089.80
382.81	1088.07
383.18	1086.06
383.55	1086.78
383.92	1090.15
384.29	1093.80
384.66	1096.38
385.03	1096.10
385.40	1090.06
385.77	1088.77
386.14	1087.58
386.51	1083.95
386.88	1083.41
387.25	1089.10
387.62	1086.90
387.99	1088.30
388.36	1089.89
388.73	1092.07
389.10	1092.49
389.46	1094.74
389.83	1094.95
390.20	1097.13
390.57	1097.73
390.94	1097.76
391.31	1099.35
391.68	1096.70
392.05	1096.80
392.42	1096.35
392.79	1094.95
393.16	1090.13
393.53	1090.60
393.89	1090.15
394.26	1089.50
394.63	1091.39
395.00	1094.83
395.37	1094.55
395.74	1095.21
396.11	1094.74
396.48	1096.33
396.84	1093.03
397.21	1095.77
397.58	1094.69
397.95	1094.04
398.32	1092.82
398.69	1098.44
399.06	1096.38
399.42	1096.49
399.79	1096.12
400.16	1094.48
400.53	1090.95
400.90	1090.06
401.27	1092.23
401.64	1092.56
402.00	1091.98
402.37	1094.13
402.74	1100.10
403.11	1098.98
403.48	1102.74
403.84	1103.89
404.21	1103.54
404.58	1098.34
404.95	1097.92
405.32	1093.05
405.68	1094.95
406.05	1097.76
406.42	1102.32
406.79	1102.81
407.16	1107.28
407.52	1106.63
407.89	1104.80
408.26	1100.52
408.63	1102.70
408.99	1104.08
409.36	1106.25
409.73	1107.10
410.10	1110.00
410.47	1107.19
410.83	1104.97
411.20	1103.00
411.57	1104.76
411.94	1102.09
412.30	1100.22
412.67	1099.56
413.04	1102.72
413.40	1100.54
413.77	1103.89
414.14	1107.92
414.51	1108.08
414.87	1104.83
415.24	1104.36
415.61	1104.73
415.97	1105.72
416.34	1108.29
416.71	1110.58
417.08	1112.69
417.44	1109.74
417.81	1109.20
418.18	1107.61
418.54	1107.05
418.91	1109.06
419.28	1112.90
419.64	1114.91
420.01	1117.35
420.38	1117.23
420.74	1115.94
421.11	1115.59
421.48	1116.81
421.84	1115.66
422.21	1116.30
422.58	1115.15
422.94	1115.01
423.31	1113.07
423.68	1113.49
424.04	1114.05
424.41	1113.32
424.77	1116.04
425.14	1115.17
425.51	1115.27
425.87	1116.27
426.24	1117.07
426.61	1116.41
426.97	1120.74
427.34	1124.67
427.70	1124.79
428.07	1127.01
428.44	1125.66
428.80	1123.43
429.17	1122.03
429.53	1119.90
429.90	1118.40
430.27	1121.73
430.63	1118.99
431.00	1117.35
431.36	1122.12
431.73	1119.90
432.09	1115.94
432.46	1119.31
432.83	1120.53
433.19	1116.58
433.56	1121.02
433.92	1121.40
434.29	1120.39
434.65	1118.14
435.02	1118.89
435.38	1117.89
435.75	1120.70
436.11	1121.73
436.48	1123.81
436.84	1123.78
437.21	1121.87
437.57	1120.20
437.94	1116.79
438.30	1115.31
438.67	1116.90
439.03	1117.21
439.40	1117.44
439.76	1118.87
440.13	1120.79
440.49	1122.45
440.86	1124.46
441.22	1122.22
441.59	1120.88
441.95	1119.45
442.32	1116.88
442.68	1117.68
443.05	1123.11
443.41	1126.69
443.78	1127.08
444.14	1125.61
444.51	1122.52
444.87	1119.17
445.24	1117.02
445.60	1117.00
445.96	1118.66
446.33	1122.73
446.69	1122.90
447.06	1120.25
447.42	1116.58
447.79	1115.80
448.15	1109.91
448.51	1107.38
448.88	1108.45
449.24	1108.99
449.61	1108.01
449.97	1110.56
450.33	1110.02
450.70	1110.47
451.06	1112.99
451.43	1113.84
451.79	1114.91
452.15	1117.49
452.52	1118.17
452.88	1116.11
453.24	1113.60
453.61	1111.97
453.97	1110.77
454.34	1111.85
454.70	1115.31
455.06	1116.86
455.43	1119.34
455.79	1118.78
456.15	1118.68
456.52	1116.51
456.88	1119.13
457.24	1117.98
457.61	1121.05
457.97	1120.74
458.33	1122.87
458.70	1122.33
459.06	1122.64
459.42	1124.11
459.79	1123.86
460.15	1122.85
460.51	1122.90
460.88	1121.61
461.24	1120.13
461.60	1122.50
461.96	1122.31
462.33	1123.22
462.69	1122.80
463.05	1122.64
463.42	1121.00
463.78	1122.97
464.14	1123.88
464.50	1127.51
464.87	1125.12
465.23	1129.12
465.59	1130.31
465.95	1130.46
466.32	1131.95
466.68	1137.87
467.04	1137.95
467.40	1140.40
467.77	1144.57
468.13	1145.43
468.49	1143.68
468.85	1142.67
469.22	1144.57
469.58	1144.73
469.94	1147.54
470.30	1150.35
470.66	1155.12
471.03	1157.58
471.39	1159.17
471.75	1160.55
472.11	1166.24
472.47	1168.28
472.84	1173.17
473.20	1179.16
473.56	1185.15
473.92	1188.20
474.28	1192.39
474.65	1194.00
475.01	1199.01
475.37	1201.98
475.73	1206.22
476.09	1214.46
476.45	1220.33
476.81	1224.40
477.18	1230.16
477.54	1236.53
477.90	1243.46
478.26	1252.58
478.62	1260.03
478.98	1271.47
479.34	1281.30
479.71	1293.87
480.07	1303.61
480.43	1315.15
480.79	1325.16
481.15	1340.00
481.51	1350.26
481.87	1364.60
482.23	1379.39
482.59	1394.58
482.96	1413.47
483.32	1431.03
483.68	1451.13
484.04	1471.75
484.40	1497.92
484.76	1517.79
485.12	1545.29
485.48	1573.00
485.84	1601.21
486.20	1624.43
486.56	1655.41
486.92	1688.32
487.28	1723.64
487.64	1754.65
488.00	1795.26
488.37	1839.71
488.73	1876.95
489.09	1910.60
489.45	1963.45
489.81	2012.23
490.17	2058.99
490.53	2111.84
490.89	2169.16
491.25	2223.37
491.61	2287.03
491.97	2351.26
492.33	2419.95
492.69	2491.57
493.05	2564.03
493.41	2642.02
493.77	2726.79
494.13	2817.26
494.49	2905.10
494.85	3004.48
495.21	3097.37
495.57	3199.00
495.93	3310.06
496.29	3431.58
496.64	3562.60
497.00	3694.23
497.36	3826.38
497.72	3964.21
498.08	4115.72
498.44	4274.38
498.80	4449.50
499.16	4636.91
499.52	4824.80
499.88	5028.80
500.24	5231.54
500.60	5438.40
500.96	5652.53
501.32	5867.86
501.68	6087.31
502.03	6327.83
502.39	6588.00
502.75	6870.57
503.11	7177.81
503.47	7493.69
503.83	7834.59
504.19	8171.37
504.55	8527.88
504.91	8887.34
505.26	9248.81
505.62	9657.80
505.98	10105.89
506.34	10546.88
506.70	11030.92
507.06	11574.82
507.42	12105.18
507.78	12643.29
508.13	13257.94
508.49	13879.05
508.85	14512.14
509.21	15159.49
509.57	15858.18
509.93	16537.17
510.28	17228.29
510.64	18003.96
511.00	18782.59
511.36	19570.88
511.72	20423.75
512.07	21388.05
512.43	22304.65
512.79	23300.17
513.15	24313.77
513.51	25251.78
513.86	26140.62
514.22	27183.22
514.58	28269.60
514.94	29295.39
515.30	30478.57
515.65	31747.85
516.01	32881.48
516.37	33970.98
516.73	35159.25
517.08	36208.81
517.44	37135.31
517.80	38106.12
518.16	39092.10
518.51	40035.43
518.87	41041.20
519.23	42174.89
519.59	43245.98
519.94	44334.57
520.30	45451.03
520.66	46366.83
521.01	47188.66
521.37	48062.25
521.73	48742.05
522.09	49329.06
522.44	50083.42
522.80	50674.61
523.16	51035.78
523.51	51339.14
523.87	51696.86
524.23	52063.02
524.58	52327.68
524.94	52679.05
525.30	53004.45
525.65	53157.31
526.01	53121.48
526.37	53312.72
526.72	53510.85
527.08	53597.92
527.44	53554.06
527.79	53478.69
528.15	53256.95
528.51	52938.38
528.86	52691.83
529.22	52381.70
529.58	51952.38
529.93	51511.59
530.29	50913.77
530.65	50344.90
531.00	49885.17
531.36	49299.52
531.71	48640.15
532.07	48091.31
532.43	47293.33
532.78	46377.06
533.14	45676.42
533.49	44941.84
533.85	44193.62
534.21	43624.45
534.56	43167.58
534.92	42488.59
535.27	41786.19
535.63	40971.08
535.98	40144.24
536.34	39228.41
536.69	38419.05
537.05	37668.18
537.41	37014.33
537.76	36326.64
538.12	35547.21
538.47	34839.81
538.83	34202.90
539.18	33539.41
539.54	32859.88
539.89	32352.78
540.25	31864.33
540.60	31292.73
540.96	30601.78
541.31	30019.10
541.67	29545.40
542.02	29009.96
542.38	28493.82
542.73	28010.41
543.09	27480.84
543.44	26836.75
543.80	26262.92
544.15	25692.15
544.51	25292.46
544.86	24852.72
545.22	24468.55
545.57	24025.39
545.93	23510.00
546.28	22979.22
546.64	22550.73
546.99	22094.89
547.35	21676.92
547.70	21298.50
548.05	20875.99
548.41	20430.42
548.76	19934.65
549.12	19456.17
549.47	19044.38
549.83	18685.50
550.18	18287.82
550.53	17903.46
550.89	17510.27
551.24	17073.27
551.60	16664.10
551.95	16294.22
552.30	15996.16
552.66	15708.18
553.01	15448.24
553.37	15138.35
553.72	14809.46
554.07	14460.67
554.43	14129.39
554.78	13796.33
555.13	13475.82
555.49	13126.92
555.84	12813.85
556.19	12500.43
556.55	12165.45
556.90	11848.87
557.26	11631.95
557.61	11394.80
557.96	11146.26
558.32	10917.55
558.67	10670.64
559.02	10385.82
559.37	10123.50
559.73	9911.93
560.08	9715.14
560.43	9501.62
560.79	9290.19
561.14	9075.45
561.49	8840.95
561.85	8612.56
562.20	8434.85
562.55	8280.93
562.90	8099.75
563.26	7947.22
563.61	7797.54
563.96	7605.15
564.32	7396.80
564.67	7218.96
565.02	7053.02
565.37	6900.58
565.73	6746.27
566.08	6605.20
566.43	6457.68
566.78	6289.32
567.14	6135.48
567.49	6012.34
567.84	5878.23
568.19	5763.10
568.54	5656.75
568.90	5539.28
569.25	5439.43
569.60	5348.26
569.95	5273.09
570.31	5180.99
570.66	5089.99
571.01	4987.31
571.36	4890.29
571.71	4783.63
572.06	4697.99
572.42	4605.68
572.77	4511.62
573.12	4424.22
573.47	4342.28
573.82	4267.66
574.18	4202.48
574.53	4130.93
574.88	4070.03
575.23	3991.64
575.58	3905.04
575.93	3828.06
576.28	3760.14
576.64	3690.63
576.99	3622.17
577.34	3558.53
577.69	3488.85
578.04	3412.76
578.39	3332.13
578.74	3266.08
579.09	3198.53
579.44	3131.03
579.80	3077.97
580.15	3029.10
580.50	2975.43
580.85	2927.40
581.20	2886.70
581.55	2844.69
581.90	2792.28
582.25	2749.33
582.60	2705.85
582.95	2666.48
583.30	2619.34
583.65	2585.71
584.00	2543.74
584.35	2508.87
584.71	2465.08
585.06	2432.59
585.41	2404.01
585.76	2375.27
586.11	2342.78
586.46	2308.12
586.81	2274.28
587.16	2240.43
587.51	2211.81
587.86	2184.07
588.21	2159.14
588.56	2129.93
588.91	2104.12
589.26	2084.27
589.61	2058.74
589.96	2039.07
590.31	2015.39
590.66	1986.53
591.01	1960.01
591.36	1933.42
591.71	1901.85
592.06	1882.07
592.41	1863.65
592.76	1842.73
593.10	1822.27
593.45	1807.41
593.80	1791.66
594.15	1777.08
594.50	1760.86
594.85	1751.96
595.20	1742.18
595.55	1725.82
595.90	1708.57
596.25	1691.13
596.60	1674.33
596.95	1659.09
597.30	1646.94
597.64	1687.20
597.99	1679.10
598.34	1665.08
598.69	1648.93
599.04	1638.49
599.39	1574.97
599.74	1557.74
600.09	1545.90
600.44	1540.45
600.78	1529.40
601.13	1521.84
601.48	1518.61
601.83	1510.02
602.18	1496.52
602.53	1484.84
602.88	1473.18
603.22	1458.60
603.57	1453.19
603.92	1442.73
604.27	1434.07
604.62	1426.21
604.97	1417.80
605.31	1408.93
605.66	1403.74
606.01	1395.97
606.36	1388.50
606.71	1383.28
607.05	1371.13
607.40	1362.50
607.75	1355.78
608.10	1350.54
608.44	1340.17
608.79	1336.31
609.14	1328.44
609.49	1326.26
609.84	1320.97
610.18	1319.92
610.53	1315.40
610.88	1313.20
611.23	1305.41
611.57	1297.73
611.92	1294.62
612.27	1289.94
612.62	1283.92
612.96	1280.67
613.31	1274.80
613.66	1266.98
614.00	1265.06
614.35	1262.58
614.70	1255.35
615.05	1253.47
615.39	1249.54
615.74	1244.16
616.09	1239.62
616.43	1241.44
616.78	1237.11
617.13	1234.14
617.47	1231.43
617.82	1230.40
618.17	1220.73
618.51	1215.49
618.86	1216.10
619.21	1212.91
619.55	1208.18
619.90	1208.02
620.25	1205.87
620.59	1203.22
620.94	1199.62
621.29	1193.65
621.63	1193.37
621.98	1192.64
622.32	1188.62
622.67	1187.05
623.02	1184.92
623.36	1178.11
623.71	1177.80
624.05	1175.67
624.40	1171.46
624.75	1171.39
625.09	1173.83
625.44	1172.00
625.78	1169.80
626.13	1167.06
626.48	1168.14
626.82	1163.22
627.17	1160.16
627.51	1158.40
627.86	1159.36
628.20	1154.91
628.55	1154.38
628.89	1149.98
629.24	1146.23
629.58	1143.16
629.93	1142.70
630.28	1145.95
630.62	1146.16
630.97	1147.94
631.31	1147.24
631.66	1144.73
632.00	1143.19
632.35	1142.09
632.69	1141.25
633.04	1142.28
633.38	1143.96
633.73	1140.50
634.07	1141.88
634.42	1141.20
634.76	1138.39
635.11	1135.79
635.45	1134.88
635.79	1133.97
636.14	1132.35
636.48	1132.33
636.83	1134.69
637.17	1134.32
637.52	1131.37
637.86	1129.80
638.21	1128.93
638.55	1126.03
638.89	1124.32
639.24	1124.18
639.58	1121.89
639.93	1118.89
640.27	1118.50
640.61	1116.04
640.96	1116.51
641.30	1117.40
641.65	1119.64
641.99	1119.06
642.33	1120.58
642.68	1119.90
643.02	1121.07
643.37	1122.26
643.71	1119.64
644.05	1116.46
644.40	1116.55
644.74	1114.61
645.08	1110.96
645.43	1110.09
645.77	1112.32
646.11	1112.22
646.46	1111.59
646.80	1113.74
647.14	1114.05
647.49	1112.34
647.83	1106.23
648.17	1107.31
648.52	1102.63
648.86	1103.19
649.20	1103.98
649.55	1110.58
649.89	1108.64
650.23	1111.19
650.57	1111.15
650.92	1112.85
651.26	1108.50
651.60	1108.71
651.95	1108.38
652.29	1108.03
652.63	1108.17
652.97	1109.62
653.32	1113.25
653.66	1111.71
654.00	1113.58
654.34	1109.51
654.69	1108.15
655.03	1102.95
655.37	1104.90
655.71	1102.09
656.05	1101.81
656.40	1101.90
656.74	1102.77
657.08	1103.49
657.42	1102.81
657.76	1105.39
658.11	1106.18
658.45	1103.68
658.79	1100.54
659.13	1102.53
659.47	1102.21
659.82	1101.74
660.16	1105.29
660.50	1104.36
660.84	1101.69
661.18	1100.43
661.52	1097.66
661.87	1094.57
662.21	1096.66
662.55	1094.36
662.89	1094.36
663.23	1094.57
663.57	1093.71
663.91	1092.59
664.25	1097.43
664.60	1098.72
664.94	1099.44
665.28	1099.91
665.62	1099.77
665.96	1099.91
666.30	1096.92
666.64	1093.50
666.98	1096.89
667.32	1094.95
667.66	1091.70
668.01	1089.85
668.35	1095.23
668.69	1091.27
669.03	1093.76
669.37	1092.91
669.71	1094.53
670.05	1093.76
670.39	1097.06
670.73	1096.24
671.07	1098.69
671.41	1100.36
671.75	1099.35
672.09	1097.99
672.43	1100.12
672.77	1094.65
673.11	1093.97
673.45	1093.03
673.79	1091.98
674.13	1087.97
674.47	1093.01
674.81	1092.47
675.15	1091.51
675.49	1091.16
675.83	1091.98
676.17	1089.96
676.51	1088.14
676.85	1091.37
677.19	1090.55
677.53	1092.75
677.87	1093.29
678.21	1092.59
678.55	1090.88
678.89	1092.87
679.23	1089.57
679.57	1089.54
679.90	1092.54
680.24	1094.25
680.58	1096.78
680.92	1096.35
681.26	1097.36
681.60	1095.30
681.94	1092.14
682.28	1085.94
682.62	1086.80
682.96	1084.46
683.29	1086.03
683.63	1089.24
683.97	1092.40
684.31	1092.80
684.65	1093.69
684.99	1094.43
685.33	1093.57
685.67	1090.85
686.00	1090.64
686.34	1091.18
686.68	1088.37
687.02	1087.53
687.36	1092.91
687.70	1091.42
688.03	1093.47
688.37	1096.00
688.71	1094.36
689.05	1089.03
689.39	1088.93
689.72	1086.71
690.06	1085.94
690.40	1087.34
690.74	1088.12
691.08	1091.63
691.41	1091.72
691.75	1088.86
692.09	1085.84
692.43	1085.63
692.76	1081.70
693.10	1081.07
693.44	1083.64
693.78	1089.96
694.11	1092.21
694.45	1094.55
694.79	1093.62
695.13	1092.52
695.46	1090.17
695.80	1089.07
696.14	1089.64
696.48	1090.95
696.81	1088.65
697.15	1086.90
697.49	1090.08
697.82	1091.98
698.16	1094.25
698.50	1099.12
698.83	1101.11
699.17	1101.13
699.51	1097.48
699.84	1096.21
700.18	1096.70
700.52	1095.14
700.85	1093.10
701.19	1091.27
701.53	1089.89
701.86	1088.35
702.20	1087.90
702.54	1087.39
702.87	1090.60
703.21	1094.25
703.55	1092.45
703.88	1094.97
704.22	1096.52
704.55	1095.75
704.89	1090.48
705.23	1090.27
705.56	1087.32
705.90	1085.47
706.23	1085.52
706.57	1087.95
706.91	1087.86
707.24	1086.78
707.58	1084.58
707.91	1084.39
708.25	1083.53
708.58	1088.54
708.92	1090.99
709.26	1095.00
709.59	1095.30
709.93	1095.32
710.26	1092.26
710.60	1092.14
710.93	1087.62
711.27	1088.86
711.60	1092.89
711.94	1090.41
712.27	1091.37
712.61	1094.86
712.94	1093.94
713.28	1094.46
713.61	1097.34
713.95	1094.69
714.28	1092.12
714.62	1089.89
714.95	1085.38
715.29	1083.55
715.62	1087.13
715.96	1085.59
716.29	1089.38
716.63	1089.73
716.96	1091.53
717.29	1090.15
717.63	1093.10
717.96	1090.50
718.30	1089.10
718.63	1090.34
718.97	1088.44
719.30	1089.99
719.63	1089.87
719.97	1090.64
720.30	1089.26
720.64	1090.13
720.97	1086.01
721.30	1087.74
721.64	1087.76
721.97	1086.45
722.31	1088.82
722.64	1092.37
722.97	1091.88
723.31	1092.30
723.64	1091.13
723.97	1086.45
724.31	1085.10
724.64	1087.48
724.98	1082.97
725.31	1082.05
725.64	1083.46
725.98	1081.75
726.31	1079.64
726.64	1083.60
726.97	1087.32
727.31	1088.44
727.64	1092.61
727.97	1092.26
728.31	1090.41
728.64	1086.41
728.97	1087.13
729.31	1082.47
729.64	1083.97
729.97	1085.66
730.30	1088.79
730.64	1087.48
730.97	1090.97
731.30	1091.06
731.63	1090.62
731.97	1091.09
732.30	1092.35
732.63	1091.53
732.96	1087.60
733.30	1089.85
733.63	1090.39
733.96	1089.40
734.29	1090.43
734.63	1093.52
734.96	1091.72
735.29	1088.09
735.62	1088.61
735.95	1084.53
736.29	1083.08
736.62	1084.51
736.95	1088.93
737.28	1090.46
737.61	1091.86
737.94	1093.17
738.28	1092.21
738.61	1090.32
738.94	1089.38
739.27	1094.22
739.60	1094.57
739.93	1092.91
740.27	1093.17
740.60	1092.37
740.93	1091.84
741.26	1087.90
741.59	1087.13
741.92	1085.35
742.25	1082.99
742.58	1079.57
742.91	1080.93
743.25	1083.90
743.58	1087.16
743.91	1089.59
744.24	1090.13
744.57	1091.42
744.90	1093.05
745.23	1087.72
745.56	1088.19
745.89	1091.18
746.22	1092.33
746.55	1090.71
746.88	1091.65
747.21	1091.49
747.54	1085.52
747.87	1083.01
748.20	1079.60
748.53	1081.42
748.87	1082.03
749.20	1085.47
749.53	1087.25
749.86	1090.57
750.19	1088.47
750.52	1085.94
750.85	1087.34
751.18	1087.69
751.51	1084.60
751.84	1086.92
752.16	1087.25
752.49	1082.99
752.82	1081.47
753.15	1085.75
753.48	1086.69
753.81	1085.49
754.14	1086.59
754.47	1089.71
754.80	1086.57
755.13	1085.17
755.46	1088.37
755.79	1088.79
756.12	1091.67
756.45	1093.73
756.78	1094.93
757.11	1095.46
757.43	1094.93
757.76	1089.85
758.09	1090.53
758.42	1087.53
758.75	1087.30
759.08	1092.12
759.41	1093.10
759.74	1091.34
760.07	1094.36
760.39	1092.26
760.72	1087.93
761.05	1084.14
761.38	1084.00
761.71	1082.15
762.04	1083.20
762.36	1084.14
762.69	1086.57
763.02	1085.99
763.35	1083.50
763.68	1083.60
764.01	1081.09
764.33	1081.58
764.66	1082.57
764.99	1084.89
765.32	1083.76
765.65	1087.09
765.97	1086.48
766.30	1085.42
766.63	1090.74
766.96	1091.79
767.28	1088.61
767.61	1086.45
767.94	1088.26
768.27	1086.17
768.59	1085.80
768.92	1088.84
769.25	1090.46
769.58	1089.38
769.90	1085.47
770.23	1084.51
770.56	1083.95
770.89	1082.66
771.21	1080.84
771.54	1081.94
771.87	1082.71
772.19	1083.15
772.52	1084.70
772.85	1090.01
773.17	1089.29
773.50	1091.46
773.83	1089.26
774.15	1088.89
774.48	1082.45
774.81	1081.49
775.13	1080.44
775.46	1080.51
775.79	1079.83
776.11	1087.58
776.44	1091.11
776.77	1089.45
777.09	1091.13
777.42	1092.66
777.74	1087.23
778.07	1087.09
778.40	1090.39
778.72	1089.00
779.05	1087.48
779.37	1086.85
779.70	1087.34
780.03	1083.18
780.35	1084.00
780.68	1083.81
781.00	1085.56
781.33	1085.91
781.65	1084.53
781.98	1083.06
782.31	1083.57
782.63	1083.76
782.96	1082.87
783.28	1089.03
783.61	1087.23
783.93	1088.77
784.26	1089.03
784.58	1084.74
784.91	1082.29
785.23	1088.02
785.56	1089.80
785.88	1090.10
786.21	1093.03
786.53	1092.45
786.86	1087.93
787.18	1083.76
787.51	1082.94
787.83	1085.10
788.16	1085.21
788.48	1084.07
788.81	1084.37
789.13	1081.42
789.46	1079.85
789.78	1077.16
790.10	1078.85
790.43	1078.61
790.75	1081.49
791.08	1082.40
791.40	1083.90
791.73	1092.00
792.05	1093.26
792.37	1093.90
792.70	1090.88
793.02	1089.99
793.35	1081.49
793.67	1085.35
793.99	1083.60
794.32	1087.20
794.64	1090.36
794.96	1092.19
795.29	1090.20
795.61	1092.54
795.93	1090.83
796.26	1087.90
796.58	1090.20
796.91	1090.92
797.23	1089.64
797.55	1085.94
797.87	1083.86
798.20	1080.34
798.52	1078.10
798.84	1078.89
799.17	1084.11
799.49	1085.89
799.81	1086.15
800.14	1086.83
800.46	1084.84
800.78	1083.18
801.10	1087.30
801.43	1086.50
801.75	1082.69
802.07	1081.80
802.40	1081.96
802.72	1080.06
803.04	1084.16
803.36	1086.52
803.69	1088.40
804.01	1087.97
804.33	1087.53
804.65	1087.11
804.97	1087.34
805.30	1089.89
805.62	1091.63
805.94	1091.30
806.26	1092.98
806.58	1093.80
806.91	1091.37
807.23	1089.80
807.55	1092.42
807.87	1089.10
808.19	1090.20
808.52	1088.98
808.84	1090.29
809.16	1085.99
809.48	1086.15
809.80	1083.43
810.12	1081.09
810.44	1077.91
810.77	1079.99
811.09	1078.66
811.41	1077.68
811.73	1082.97
812.05	1086.13
812.37	1083.81
812.69	1086.94
813.01	1088.28
813.33	1085.68
813.66	1086.31
813.98	1088.35
814.30	1082.83
814.62	1086.92
814.94	1087.60
815.26	1085.33
815.58	1087.06
815.90	1092.49
816.22	1090.27
816.54	1091.56
816.86	1091.67
817.18	1091.27
817.50	1090.03
817.82	1088.35
818.14	1089.36
818.46	1090.08
818.78	1091.51
819.10	1089.50
819.42	1090.60
819.74	1090.64
820.06	1089.66
820.38	1089.94
820.70	1092.23
821.02	1092.30
821.34	1089.71
821.66	1092.33
821.98	1088.51
822.30	1090.01
822.62	1088.14
822.94	1090.29
823.26	1086.59
823.58	1089.57
823.90	1085.28
824.22	1084.58
824.54	1081.58
824.86	1083.41
825.18	1078.36
825.50	1079.38
825.81	1080.84
826.13	1079.76
826.45	1081.77
826.77	1083.55
827.09	1083.69
827.41	1086.45
827.73	1090.32
828.05	1087.04
828.36	1090.34
828.68	1089.78
829.00	1086.41
829.32	1087.04
829.64	1088.91
829.96	1086.08
830.28	1086.50
830.59	1086.45
830.91	1084.44
831.23	1082.80
831.55	1087.48
831.87	1085.96
832.19	1089.43
832.50	1087.93
832.82	1085.89
833.14	1081.16
833.46	1083.88
833.78	1080.65
834.09	1083.39
834.41	1082.33
834.73	1080.93
835.05	1078.85
835.36	1081.21
835.68	1078.17
836.00	1083.04
836.32	1084.93
836.63	1085.19
836.95	1085.19
837.27	1086.27
837.59	1085.47
837.90	1084.21
838.22	1085.49
838.54	1084.16
838.85	1084.70
839.17	1085.94
839.49	1086.97
839.80	1086.20
840.12	1084.98
840.44	1082.40
840.76	1078.17
841.07	1078.89
841.39	1081.47
841.71	1083.97
842.02	1087.74
842.34	1091.04
842.65	1088.58
842.97	1084.23
843.29	1080.91
843.60	1079.10
843.92	1076.01
844.24	1083.22
844.55	1086.73
844.87	1088.93
845.18	1088.40
845.50	1091.11
845.82	1084.00
846.13	1083.55
846.45	1081.33
846.76	1082.19
847.08	1083.83
847.40	1086.94
847.71	1085.89
848.03	1087.86
848.34	1087.27
848.66	1084.96
848.97	1082.05
849.29	1083.29
849.60	1084.37
849.92	1085.63
850.24	1086.99
850.55	1089.40
850.87	1087.60
851.18	1085.75
851.50	1084.32
851.81	1083.71
852.13	1081.84
852.44	1082.52
852.76	1082.47
853.07	1081.14
853.39	1083.83
853.70	1086.83
854.01	1088.84
854.33	1090.08
854.64	1093.69
854.96	1092.91
855.27	1088.51
855.59	1088.04
855.90	1089.71
856.22	1086.69
856.53	1083.88
856.84	1088.68
857.16	1085.99
857.47	1084.72
857.79	1084.49
858.10	1085.03
858.41	1082.12
858.73	1084.93
859.04	1082.80
859.36	1083.41
859.67	1083.69
859.98	1084.74
860.30	1079.76
860.61	1079.36
860.92	1079.10
861.24	1079.31
861.55	1079.50
861.87	1080.25
862.18	1083.95
862.49	1081.58
862.81	1080.09
863.12	1080.72
863.43	1080.23
863.74	1079.08
864.06	1080.72
864.37	1081.02
864.68	1079.62
865.00	1083.86
865.31	1086.66
865.62	1087.48
865.94	1086.52
866.25	1087.93
866.56	1086.27
866.87	1081.73
867.19	1085.33
867.50	1088.14
867.81	1086.36
868.12	1086.03
868.44	1088.47
868.75	1088.51
869.06	1085.54
869.37	1083.50
869.68	1085.35
870.00	1083.79
870.31	1079.13
870.62	1080.77
870.93	1081.42
871.24	1082.36
871.56	1084.04
871.87	1085.05
872.18	1087.04
872.49	1090.46
872.80	1089.19
873.12	1090.92
873.43	1093.71
873.74	1092.45
874.05	1092.98
874.36	1092.05
874.67	1092.33
874.98	1089.87
875.29	1088.09
875.61	1086.27
875.92	1087.76
876.23	1084.14
876.54	1084.44
876.85	1084.98
877.16	1082.64
877.47	1079.81
877.78	1084.07
878.09	1086.29
878.40	1087.20
878.72	1089.40
879.03	1090.90
879.34	1088.61
879.65	1086.45
879.96	1086.48
880.27	1086.38
880.58	1088.21
880.89	1087.18
881.20	1085.73
881.51	1082.85
881.82	1083.88
882.13	1081.98
882.44	1079.60
882.75	1081.00
883.06	1082.45
883.37	1080.79
883.68	1080.46
883.99	1082.12
884.30	1085.42
884.61	1088.33
884.92	1091.44
885.23	1094.48
885.54	1098.51
885.85	1098.44
886.16	1096.07
886.47	1094.95
886.78	1089.00
887.08	1083.48
887.39	1080.51
887.70	1081.77
888.01	1080.81
888.32	1083.76
888.63	1084.11
888.94	1085.80
889.25	1083.04
889.56	1081.73
889.87	1082.94
890.17	1084.53
890.48	1079.74
890.79	1082.19
891.10	1084.21
891.41	1083.81
891.72	1083.39
892.03	1085.63
892.34	1084.04
892.64	1084.25
892.95	1080.67
893.26	1078.38
893.57	1080.27
893.88	1080.27
894.18	1077.51
894.49	1081.35
894.80	1085.47
895.11	1087.69
895.42	1088.93
895.72	1090.76
896.03	1089.80
896.34	1085.70
896.65	1083.79
896.96	1083.64
897.26	1082.50
897.57	1083.46
897.88	1085.40
898.19	1084.56
898.49	1084.16
898.80	1083.69
899.11	1082.92
899.41	1083.76
899.72	1084.07
900.03	1086.24
900.34	1086.87
900.64	1087.76
900.95	1086.66
901.26	1088.19
901.56	1087.18
901.87	1087.20
902.18	1083.55
902.48	1083.79
902.79	1082.03
903.10	1080.48
903.40	1078.64
903.71	1082.01
904.02	1081.56
904.32	1081.54
904.63	1084.53
904.94	1088.09
905.24	1088.42
905.55	1090.74
905.85	1086.69
906.16	1084.98
906.47	1087.18
906.77	1087.53
907.08	1085.68
907.38	1088.19
907.69	1085.80
908.00	1084.42
908.30	1086.52
908.61	1084.02
908.91	1084.79
909.22	1086.90
909.52	1084.93
909.83	1080.23
910.14	1081.21
910.44	1083.32
910.75	1082.29
911.05	1082.03
911.36	1084.96
911.66	1085.84
911.97	1083.64
912.27	1084.49
912.58	1084.23
912.88	1084.09
913.19	1085.66
913.49	1088.91
913.80	1089.19
914.10	1088.56
914.41	1087.97
914.71	1088.26
915.01	1086.06
915.32	1085.99
915.62	1087.06
915.93	1086.06
916.23	1084.86
916.54	1084.46
916.84	1082.73
917.15	1083.25
917.45	1084.81
917.75	1087.46
918.06	1089.07
918.36	1091.46
918.67	1088.56
918.97	1087.11
919.27	1085.75
919.58	1083.43
919.88	1080.65
920.18	1082.08
920.49	1082.87
920.79	1080.98
921.10	1081.35
921.40	1084.28
921.70	1083.95
922.01	1084.18
922.31	1088.23
922.61	1086.66
922.92	1083.76
923.22	1084.37
923.52	1084.81
923.82	1082.38
924.13	1084.46
924.43	1083.74
924.73	1086.64
925.04	1085.45
925.34	1087.37
925.64	1085.82
925.94	1091.30
926.25	1092.37
926.55	1092.87
926.85	1086.55
927.15	1087.58
927.46	1083.93
927.76	1077.96
928.06	1071.97
928.36	1074.33
928.67	1073.04
928.97	1070.12
929.27	1071.68
929.57	1077.16
929.87	1077.18
930.18	1080.60
930.48	1084.11
930.78	1083.90
931.08	1084.00
931.38	1085.19
931.69	1084.18
931.99	1082.59
932.29	1082.92
932.59	1081.98
932.89	1082.22
933.19	1083.22
933.49	1086.99
933.80	1086.85
934.10	1087.30
934.40	1084.74
934.70	1084.11
935.00	1082.19
935.30	1082.24
935.60	1082.90
935.90	1085.05
936.20	1085.10
936.50	1084.46
936.81	1082.36
937.11	1080.27
937.41	1081.63
937.71	1081.82
938.01	1082.19
938.31	1085.56
938.61	1089.36
938.91	1087.62
939.21	1088.44
939.51	1094.04
939.81	1093.52
940.11	1091.67
940.41	1093.85
940.71	1089.14
941.01	1085.54
941.31	1086.03
941.61	1087.83
941.91	1086.03
942.21	1090.34
942.51	1088.09
942.81	1088.47
943.11	1083.08
943.41	1079.22
943.71	1076.76
944.01	1076.74
944.31	1076.90
944.61	1080.18
944.90	1082.08
945.20	1081.12
945.50	1082.47
945.80	1079.90
946.10	1079.69
946.40	1082.47
946.70	1084.39
947.00	1082.45
947.30	1086.80
947.60	1088.56
947.89	1088.04
948.19	1088.51
948.49	1088.75
948.79	1087.09
949.09	1084.91
949.39	1086.17
949.69	1084.60
949.98	1084.98
950.28	1084.98
950.58	1084.11
950.88	1083.22
951.18	1081.35
951.48	1081.42
951.77	1082.59
952.07	1084.32
952.37	1082.10
952.67	1084.53
952.97	1085.07
953.26	1085.63
953.56	1085.45
953.86	1084.72
954.16	1087.30
954.45	1086.06
954.75	1082.92
955.05	1081.00
955.35	1081.80
955.64	1079.08
955.94	1077.86
956.24	1077.61
956.54	1078.68
956.83	1079.97
957.13	1078.57
957.43	1078.45
957.72	1078.28
958.02	1078.26
958.32	1079.41
958.61	1080.84
958.91	1082.54
959.21	1081.44
959.50	1082.17
959.80	1083.93
960.10	1084.18
960.39	1083.83
960.69	1085.52
960.99	1088.07
961.28	1084.49
961.58	1082.99
961.87	1084.70
962.17	1088.84
962.47	1086.03
962.76	1087.69
963.06	1089.38
963.36	1088.89
963.65	1083.95
963.95	1083.50
964.24	1080.56
964.54	1080.95
964.83	1079.53
965.13	1078.78
965.42	1076.97
965.72	1078.24
966.02	1076.15
966.31	1077.23
966.61	1076.67
966.90	1079.27
967.20	1078.89
967.49	1081.94
967.79	1080.20
968.08	1082.61
968.38	1081.91
968.67	1084.89
968.97	1081.63
969.26	1083.25
969.56	1086.08
969.85	1086.52
970.15	1083.27
970.44	1083.22
970.74	1080.95
971.03	1075.24
971.32	1073.02
971.62	1077.37
971.91	1076.76
972.21	1076.74
972.50	1083.22
972.80	1087.18
973.09	1083.76
973.38	1087.25
973.68	1088.72
973.97	1084.72
974.27	1082.08
974.56	1080.25
974.85	1079.83
975.15	1079.60
975.44	1081.37
975.73	1081.28
976.03	1084.96
976.32	1082.57
976.61	1081.96
976.91	1080.70
977.20	1083.08
977.49	1083.76
977.79	1084.72
978.08	1085.42
978.37	1085.70
978.67	1083.20
978.96	1079.29
979.25	1077.37
979.55	1077.91
979.84	1076.04
980.13	1075.66
980.42	1075.43
980.72	1076.95
981.01	1076.83
981.30	1074.91
981.59	1076.55
981.89	1079.53
982.18	1078.73
982.47	1080.95
982.76	1082.73
983.06	1080.79
983.35	1079.48
983.64	1079.81
983.93	1077.56
984.22	1081.96
984.52	1082.01
984.81	1080.60
985.10	1083.11
985.39	1084.37
985.68	1080.20
985.97	1081.28
986.27	1081.84
986.56	1081.82
986.85	1080.20
987.14	1081.12
987.43	1084.79
987.72	1085.12
988.01	1082.83
988.31	1084.89
988.60	1084.63
988.89	1079.46
989.18	1078.45
989.47	1079.27
989.76	1078.33
990.05	1080.25
990.34	1081.75
990.63	1082.31
990.92	1084.49
991.21	1085.28
991.51	1084.91
991.80	1083.08
992.09	1081.54
992.38	1079.62
992.67	1079.85
992.96	1079.99
993.25	1084.21
993.54	1087.16
993.83	1085.80
994.12	1085.33
994.41	1085.61
994.70	1085.61
994.99	1084.60
995.28	1085.03
995.57	1084.51
995.86	1080.95
996.15	1078.87
996.44	1078.43
996.73	1078.96
997.02	1077.63
997.31	1081.35
997.59	1082.45
997.88	1081.56
998.17	1081.09
998.46	1082.12
998.75	1078.82
999.04	1080.88
999.33	1082.19
999.62	1083.34
999.91	1082.52
1000.20	1082.64
1000.49	1079.74
1000.77	1080.09
1001.06	1078.33
1001.35	1078.43
1001.64	1078.31
1001.93	1081.49
1002.22	1081.02
1002.51	1083.36
1002.79	1084.58
1003.08	1084.42
1003.37	1082.01
1003.66	1083.41
1003.95	1081.47
1004.23	1083.27
1004.52	1086.73
1004.81	1086.92
1005.10	1089.57
1005.39	1093.33
1005.67	1091.23
1005.96	1089.52
1006.25	1088.49
1006.54	1084.35
1006.83	1081.00
1007.11	1078.45
1007.40	1079.27
1007.69	1078.21
1007.97	1080.88
1008.26	1082.76
1008.55	1086.38
1008.84	1086.59
1009.12	1086.36
1009.41	1084.60
1009.70	1084.89
1009.98	1086.31
1010.27	1087.48
1010.56	1090.17
1010.85	1087.32
1011.13	1084.46
1011.42	1080.77
1011.71	1079.29
1011.99	1081.35
1012.28	1083.62
1012.56	1086.99
1012.85	1087.55
1013.14	1085.70
1013.42	1083.13
1013.71	1084.25
1014.00	1080.65
1014.28	1081.30
1014.57	1082.52
1014.85	1083.88
1015.14	1084.04
1015.43	1085.26
1015.71	1084.37
1016.00	1083.71
1016.28	1084.28
1016.57	1085.10
1016.85	1085.56
1017.14	1087.51
1017.43	1087.44
1017.71	1084.51
1018.00	1081.07
1018.28	1081.16
1018.57	1077.28
1018.85	1076.48
1019.14	1075.99
1019.42	1076.79
1019.71	1076.67
1019.99	1080.46
1020.28	1082.66
1020.56	1083.83
1020.85	1086.24
1021.13	1088.44
1021.42	1086.78
1021.70	1087.30
1021.99	1084.39
1022.27	1086.83
1022.55	1070.68
1022.84	1100.87
>>>>>End Processed Spectral Data<<<<<
