SpectraSuite Data File
++++++++++++++++++++++++++++++++++++
Date: Mon Aug 26 10:26:33 PDT 2019
User: corrico
Dark Spectrum Present: No
Reference Spectrum Present: No
Number of Sampled Component Spectra: 1
Spectrometers: USB2+H06089
Integration Time (usec): 10000 (USB2+H06089)
Spectra Averaged: 20 (USB2+H06089)
Boxcar Smoothing: 2 (USB2+H06089)
Correct for Electrical Dark: No (USB2+H06089)
Strobe/Lamp Enabled: No (USB2+H06089)
Correct for Detector Non-linearity: No (USB2+H06089)
Correct for Stray Light: No (USB2+H06089)
Number of Pixels in Processed Spectrum: 2048
>>>>>Begin Processed Spectral Data<<<<<
339.70	1033.11
340.07	1033.11
340.45	1000.91
340.82	980.10
341.19	955.92
341.57	931.46
341.94	919.53
342.31	910.40
342.69	902.60
343.06	899.35
343.43	896.10
343.81	899.37
344.18	903.96
344.55	911.05
344.93	916.02
345.30	925.35
345.67	931.14
346.04	939.44
346.42	945.46
346.79	957.70
347.16	963.62
347.54	972.28
347.91	980.71
348.28	992.93
348.65	1000.49
349.03	1011.58
349.40	1019.56
349.77	1026.49
350.14	1034.31
350.52	1038.68
350.89	1043.72
351.26	1051.23
351.63	1057.10
352.01	1060.99
352.38	1068.88
352.75	1074.38
353.12	1075.73
353.50	1078.31
353.87	1077.25
354.24	1079.92
354.61	1082.90
354.98	1086.80
355.36	1087.13
355.73	1091.32
356.10	1092.61
356.47	1089.99
356.84	1090.50
357.22	1093.08
357.59	1094.76
357.96	1092.63
358.33	1091.81
358.70	1089.36
359.08	1086.50
359.45	1084.89
359.82	1082.59
360.19	1085.75
360.56	1084.18
360.94	1086.48
361.31	1086.17
361.68	1085.82
362.05	1084.51
362.42	1087.23
362.79	1084.23
363.16	1084.63
363.54	1087.76
363.91	1086.71
364.28	1084.98
364.65	1087.25
365.02	1082.29
365.39	1081.49
365.76	1083.55
366.14	1085.24
366.51	1082.61
366.88	1086.36
367.25	1083.86
367.62	1081.44
367.99	1078.75
368.36	1078.78
368.73	1078.52
369.10	1078.19
369.48	1076.01
369.85	1074.59
370.22	1074.24
370.59	1073.37
370.96	1075.71
371.33	1078.66
371.70	1082.50
372.07	1084.96
372.44	1082.87
372.81	1080.70
373.18	1081.40
373.55	1077.79
373.93	1077.65
374.30	1079.69
374.67	1079.15
375.04	1079.20
375.41	1082.83
375.78	1079.76
376.15	1080.37
376.52	1079.10
376.89	1077.82
377.26	1077.82
377.63	1081.54
378.00	1083.83
378.37	1088.21
378.74	1088.93
379.11	1086.62
379.48	1083.67
379.85	1078.85
380.22	1078.82
380.59	1076.76
380.96	1077.70
381.33	1079.48
381.70	1084.35
382.07	1083.88
382.44	1088.12
382.81	1090.17
383.18	1089.78
383.55	1088.65
383.92	1087.09
384.29	1084.79
384.66	1081.33
385.03	1083.11
385.40	1082.43
385.77	1085.52
386.14	1085.56
386.51	1087.34
386.88	1087.06
387.25	1085.33
387.62	1083.88
387.99	1083.76
388.36	1087.18
388.73	1085.49
389.10	1089.14
389.46	1090.62
389.83	1090.43
390.20	1086.08
390.57	1087.53
390.94	1085.68
391.31	1085.96
391.68	1085.05
392.05	1089.29
392.42	1088.16
392.79	1089.00
393.16	1085.49
393.53	1090.53
393.89	1086.29
394.26	1087.48
394.63	1086.97
395.00	1090.69
395.37	1090.01
395.74	1090.99
396.11	1094.43
396.48	1098.48
396.84	1101.71
397.21	1101.64
397.58	1101.25
397.95	1098.41
398.32	1096.75
398.69	1094.25
399.06	1093.78
399.42	1092.80
399.79	1091.56
400.16	1089.59
400.53	1088.84
400.90	1089.19
401.27	1089.68
401.64	1092.54
402.00	1091.93
402.37	1092.66
402.74	1090.41
403.11	1094.74
403.48	1095.21
403.84	1096.56
404.21	1099.35
404.58	1101.34
404.95	1101.25
405.32	1099.09
405.68	1100.50
406.05	1093.99
406.42	1092.45
406.79	1094.01
407.16	1093.80
407.52	1093.78
407.89	1099.44
408.26	1101.90
408.63	1100.38
408.99	1103.73
409.36	1100.92
409.73	1100.73
410.10	1099.09
410.47	1101.36
410.83	1098.13
411.20	1098.62
411.57	1099.14
411.94	1098.58
412.30	1096.63
412.67	1098.16
413.04	1100.17
413.40	1099.16
413.77	1101.08
414.14	1104.52
414.51	1104.92
414.87	1107.26
415.24	1106.89
415.61	1107.47
415.97	1102.88
416.34	1104.66
416.71	1104.38
417.08	1105.55
417.44	1106.86
417.81	1106.72
418.18	1105.32
418.54	1102.98
418.91	1101.83
419.28	1103.84
419.64	1106.16
420.01	1108.01
420.38	1109.27
420.74	1109.72
421.11	1110.30
421.48	1112.60
421.84	1111.71
422.21	1112.69
422.58	1118.38
422.94	1116.76
423.31	1116.11
423.68	1119.95
424.04	1122.92
424.41	1117.35
424.77	1117.51
425.14	1116.76
425.51	1113.86
425.87	1111.66
426.24	1113.84
426.61	1113.65
426.97	1117.00
427.34	1116.95
427.70	1119.17
428.07	1117.23
428.44	1119.22
428.80	1116.04
429.17	1117.54
429.53	1113.63
429.90	1116.11
430.27	1114.96
430.63	1113.56
431.00	1114.80
431.36	1116.18
431.73	1115.17
432.09	1113.09
432.46	1116.04
432.83	1114.05
433.19	1114.19
433.56	1111.87
433.92	1114.61
434.29	1117.16
434.65	1113.44
435.02	1112.92
435.38	1116.32
435.75	1113.49
436.11	1110.87
436.48	1116.37
436.84	1117.68
437.21	1115.69
437.57	1119.13
437.94	1116.93
438.30	1115.12
438.67	1115.57
439.03	1116.86
439.40	1114.52
439.76	1111.80
440.13	1111.29
440.49	1110.30
440.86	1108.50
441.22	1108.66
441.59	1113.18
441.95	1113.65
442.32	1115.73
442.68	1116.48
443.05	1115.41
443.41	1116.13
443.78	1115.03
444.14	1114.70
444.51	1116.79
444.87	1117.44
445.24	1115.64
445.60	1115.48
445.96	1112.74
446.33	1112.64
446.69	1112.99
447.06	1111.87
447.42	1113.67
447.79	1115.15
448.15	1113.72
448.51	1113.46
448.88	1114.10
449.24	1113.46
449.61	1110.12
449.97	1111.01
450.33	1108.43
450.70	1107.85
451.06	1107.00
451.43	1109.48
451.79	1110.00
452.15	1114.19
452.52	1115.01
452.88	1115.97
453.24	1117.11
453.61	1113.42
453.97	1111.87
454.34	1111.94
454.70	1108.15
455.06	1105.20
455.43	1108.59
455.79	1107.33
456.15	1111.08
456.52	1117.58
456.88	1120.48
457.24	1113.67
457.61	1116.51
457.97	1112.48
458.33	1108.92
458.70	1107.38
459.06	1115.05
459.42	1112.11
459.79	1113.32
460.15	1115.48
460.51	1116.67
460.88	1113.95
461.24	1117.51
461.60	1118.05
461.96	1118.78
462.33	1119.36
462.69	1118.78
463.05	1117.14
463.42	1116.25
463.78	1115.73
464.14	1114.87
464.50	1117.35
464.87	1117.72
465.23	1120.11
465.59	1119.74
465.95	1122.05
466.32	1123.57
466.68	1125.54
467.04	1126.76
467.40	1128.14
467.77	1129.85
468.13	1132.02
468.49	1131.23
468.85	1133.50
469.22	1135.65
469.58	1134.93
469.94	1134.01
470.30	1138.79
470.66	1138.11
471.03	1140.10
471.39	1139.91
471.75	1144.19
472.11	1148.24
472.47	1150.56
472.84	1151.52
473.20	1157.47
473.56	1158.73
473.92	1158.87
474.28	1163.22
474.65	1169.50
475.01	1172.23
475.37	1177.99
475.73	1183.42
476.09	1188.15
476.45	1191.75
476.81	1198.00
477.18	1199.71
477.54	1202.08
477.90	1207.69
478.26	1216.40
478.62	1224.71
478.98	1232.78
479.34	1242.10
479.71	1248.02
480.07	1253.78
480.43	1260.47
480.79	1271.17
481.15	1282.15
481.51	1293.47
481.87	1304.40
482.23	1313.81
482.59	1323.60
482.96	1334.97
483.32	1348.45
483.68	1361.42
484.04	1379.30
484.40	1398.35
484.76	1415.28
485.12	1432.08
485.48	1453.38
485.84	1476.06
486.20	1496.91
486.56	1519.64
486.92	1546.39
487.28	1571.37
487.64	1599.08
488.00	1630.07
488.37	1654.20
488.73	1684.37
489.09	1716.83
489.45	1745.78
489.81	1777.61
490.17	1820.80
490.53	1860.84
490.89	1902.90
491.25	1947.84
491.61	1992.92
491.97	2042.23
492.33	2096.96
492.69	2149.01
493.05	2204.15
493.41	2265.36
493.77	2330.28
494.13	2394.46
494.49	2461.94
494.85	2535.06
495.21	2612.15
495.57	2685.91
495.93	2765.97
496.29	2852.83
496.64	2949.38
497.00	3043.63
497.36	3144.67
497.72	3247.59
498.08	3362.37
498.44	3476.42
498.80	3601.85
499.16	3737.02
499.52	3875.39
499.88	4031.55
500.24	4193.30
500.60	4353.02
500.96	4516.53
501.32	4689.22
501.68	4860.61
502.03	5040.25
502.39	5256.02
502.75	5472.06
503.11	5706.27
503.47	5936.93
503.83	6190.69
504.19	6438.23
504.55	6704.49
504.91	6990.20
505.26	7274.90
505.62	7580.29
505.98	7893.95
506.34	8251.25
506.70	8616.03
507.06	9012.42
507.42	9414.08
507.78	9827.84
508.13	10238.95
508.49	10666.24
508.85	11133.58
509.21	11627.41
509.57	12166.64
509.93	12726.34
510.28	13338.32
510.64	13974.64
511.00	14596.35
511.36	15191.32
511.72	15783.17
512.07	16438.31
512.43	17066.95
512.79	17744.51
513.15	18481.46
513.51	19248.99
513.86	19971.70
514.22	20790.28
514.58	21582.08
514.94	22414.98
515.30	23264.57
515.65	24124.49
516.01	24976.61
516.37	25863.95
516.73	26684.66
517.08	27574.97
517.44	28419.14
517.80	29246.33
518.16	30096.83
518.51	30914.64
518.87	31679.15
519.23	32541.10
519.59	33450.49
519.94	34316.58
520.30	35210.53
520.66	35981.62
521.01	36785.54
521.37	37461.30
521.73	38091.38
522.09	38692.73
522.44	39362.15
522.80	39773.19
523.16	40123.90
523.51	40372.37
523.87	40657.98
524.23	40915.91
524.58	41203.26
524.94	41588.56
525.30	41949.94
525.65	42153.70
526.01	42198.97
526.37	42208.89
526.72	42108.37
527.08	41961.78
527.44	41778.02
527.79	41615.61
528.15	41491.43
528.51	41255.36
528.86	41020.18
529.22	40776.84
529.58	40506.69
529.93	40114.63
530.29	39689.40
530.65	39297.52
531.00	38941.41
531.36	38504.06
531.71	38049.95
532.07	37560.99
532.43	36961.46
532.78	36272.52
533.14	35669.02
533.49	35072.46
533.85	34466.57
534.21	33880.21
534.56	33328.08
534.92	32738.90
535.27	32111.71
535.63	31490.13
535.98	30834.92
536.34	30209.11
536.69	29552.66
537.05	28934.36
537.41	28406.87
537.76	27923.76
538.12	27349.39
538.47	26850.11
538.83	26392.77
539.18	25916.21
539.54	25418.36
539.89	24943.81
540.25	24415.23
540.60	23906.61
540.96	23384.29
541.31	22906.68
541.67	22494.65
542.02	22096.62
542.38	21669.45
542.73	21226.25
543.09	20820.33
543.44	20464.08
543.80	20120.16
544.15	19717.16
544.51	19373.15
544.86	19039.39
545.22	18643.68
545.57	18242.39
545.93	17880.43
546.28	17560.74
546.64	17239.17
546.99	16905.34
547.35	16576.87
547.70	16265.74
548.05	15937.69
548.41	15612.61
548.76	15309.23
549.12	15039.39
549.47	14778.61
549.83	14510.62
550.18	14199.07
550.53	13876.90
550.89	13585.34
551.24	13306.55
551.60	13010.69
551.95	12752.20
552.30	12517.40
552.66	12280.81
553.01	12008.70
553.37	11743.52
553.72	11467.81
554.07	11189.94
554.43	10886.49
554.78	10614.26
555.13	10347.65
555.49	10121.25
555.84	9930.10
556.19	9746.08
556.55	9542.97
556.90	9349.95
557.26	9147.70
557.61	8922.96
557.96	8686.76
558.32	8485.82
558.67	8289.01
559.02	8061.23
559.37	7875.95
559.73	7725.41
560.08	7573.83
560.43	7414.49
560.79	7299.12
561.14	7143.97
561.49	6977.98
561.85	6807.87
562.20	6649.04
562.55	6506.50
562.90	6380.98
563.26	6255.43
563.61	6141.87
563.96	6027.93
564.32	5897.71
564.67	5766.07
565.02	5643.31
565.37	5532.79
565.73	5428.12
566.08	5321.91
566.43	5213.99
566.78	5111.82
567.14	5000.06
567.49	4884.16
567.84	4786.14
568.19	4684.79
568.54	4587.52
568.90	4503.80
569.25	4429.77
569.60	4353.42
569.95	4281.12
570.31	4204.16
570.66	4124.42
571.01	4039.60
571.36	3951.55
571.71	3873.63
572.06	3807.19
572.42	3743.80
572.77	3683.21
573.12	3625.21
573.47	3567.66
573.82	3502.00
574.18	3435.27
574.53	3376.11
574.88	3327.21
575.23	3274.78
575.58	3224.28
575.93	3174.21
576.28	3117.20
576.64	3055.87
576.99	2996.85
577.34	2945.40
577.69	2892.83
578.04	2845.34
578.39	2795.23
578.74	2754.04
579.09	2711.44
579.44	2670.27
579.80	2629.50
580.15	2589.33
580.50	2553.17
580.85	2517.27
581.20	2481.95
581.55	2451.13
581.90	2424.09
582.25	2390.83
582.60	2353.50
582.95	2319.19
583.30	2276.36
583.65	2232.22
584.00	2195.52
584.35	2164.88
584.71	2132.25
585.06	2108.82
585.41	2084.69
585.76	2058.52
586.11	2031.00
586.46	2005.44
586.81	1984.96
587.16	1963.05
587.51	1941.03
587.86	1918.14
588.21	1899.32
588.56	1872.31
588.91	1852.56
589.26	1832.05
589.61	1816.44
589.96	1797.16
590.31	1782.04
590.66	1765.56
591.01	1747.72
591.36	1729.77
591.71	1712.55
592.06	1697.26
592.41	1679.55
592.76	1664.00
593.10	1647.64
593.45	1632.76
593.80	1617.90
594.15	1605.82
594.50	1594.00
594.85	1581.13
595.20	1571.79
595.55	1560.72
595.90	1551.10
596.25	1539.67
596.60	1530.17
596.95	1519.05
597.30	1506.28
597.64	1546.23
597.99	1541.57
598.34	1535.53
598.69	1530.50
599.04	1524.60
599.39	1463.19
599.74	1451.44
600.09	1437.74
600.44	1425.90
600.78	1415.09
601.13	1407.90
601.48	1402.47
601.83	1399.66
602.18	1389.46
602.53	1380.17
602.88	1375.32
603.22	1366.69
603.57	1359.55
603.92	1354.68
604.27	1352.78
604.62	1347.38
604.97	1340.78
605.31	1335.56
605.66	1326.19
606.01	1318.28
606.36	1308.69
606.71	1303.26
607.05	1290.31
607.40	1289.42
607.75	1285.91
608.10	1283.11
608.44	1278.75
608.79	1279.17
609.14	1275.55
609.49	1272.01
609.84	1270.72
610.18	1266.93
610.53	1264.08
610.88	1260.28
611.23	1256.77
611.57	1251.53
611.92	1248.04
612.27	1247.81
612.62	1246.24
612.96	1238.71
613.31	1232.85
613.66	1227.10
614.00	1218.18
614.35	1215.88
614.70	1217.71
615.05	1215.11
615.39	1214.69
615.74	1210.76
616.09	1199.90
616.43	1195.85
616.78	1194.68
617.13	1192.34
617.47	1196.04
617.82	1199.78
618.17	1198.73
618.51	1200.65
618.86	1196.44
619.21	1191.47
619.55	1187.59
619.90	1185.41
620.25	1176.94
620.59	1175.65
620.94	1173.43
621.29	1169.38
621.63	1166.62
621.98	1165.21
622.32	1164.81
622.67	1165.73
623.02	1167.23
623.36	1167.55
623.71	1166.01
624.05	1161.70
624.40	1157.44
624.75	1152.01
625.09	1147.42
625.44	1147.12
625.78	1146.49
626.13	1145.04
626.48	1146.02
626.82	1144.64
627.17	1142.20
627.51	1143.54
627.86	1142.09
628.20	1143.33
628.55	1140.45
628.89	1140.64
629.24	1141.13
629.58	1139.89
629.93	1136.10
630.28	1136.31
630.62	1135.02
630.97	1132.21
631.31	1131.70
631.66	1134.06
632.00	1134.06
632.35	1134.74
632.69	1133.64
633.04	1129.94
633.38	1123.83
633.73	1122.22
634.07	1121.65
634.42	1117.93
634.76	1121.56
635.11	1122.08
635.45	1123.93
635.79	1118.80
636.14	1118.87
636.48	1117.44
636.83	1118.42
637.17	1112.88
637.52	1114.24
637.86	1113.25
638.21	1113.37
638.55	1112.71
638.89	1116.79
639.24	1117.79
639.58	1117.98
639.93	1114.52
640.27	1114.75
640.61	1113.95
640.96	1110.96
641.30	1109.65
641.65	1110.54
641.99	1108.99
642.33	1106.98
642.68	1106.16
643.02	1109.37
643.37	1110.05
643.71	1110.49
644.05	1109.79
644.40	1110.19
644.74	1107.28
645.08	1106.63
645.43	1106.11
645.77	1104.03
646.11	1102.72
646.46	1104.80
646.80	1104.87
647.14	1104.92
647.49	1105.32
647.83	1104.90
648.17	1102.77
648.52	1101.90
648.86	1101.18
649.20	1104.08
649.55	1103.70
649.89	1103.56
650.23	1105.06
650.57	1107.87
650.92	1109.86
651.26	1110.40
651.60	1106.00
651.95	1103.38
652.29	1096.92
652.63	1093.01
652.97	1093.92
653.32	1097.55
653.66	1099.35
654.00	1100.92
654.34	1099.89
654.69	1101.81
655.03	1101.95
655.37	1098.72
655.71	1101.41
656.05	1102.02
656.40	1100.10
656.74	1100.12
657.08	1100.31
657.42	1097.83
657.76	1097.17
658.11	1097.22
658.45	1098.51
658.79	1097.15
659.13	1096.35
659.47	1099.05
659.82	1096.92
660.16	1094.67
660.50	1096.21
660.84	1094.90
661.18	1094.08
661.52	1097.20
661.87	1098.32
662.21	1097.29
662.55	1098.81
662.89	1100.10
663.23	1097.88
663.57	1098.20
663.91	1099.30
664.25	1099.61
664.60	1098.41
664.94	1097.76
665.28	1095.07
665.62	1095.70
665.96	1095.16
666.30	1093.85
666.64	1093.29
666.98	1096.52
667.32	1094.08
667.66	1090.90
668.01	1090.64
668.35	1092.61
668.69	1090.06
669.03	1091.04
669.37	1092.19
669.71	1087.74
670.05	1086.52
670.39	1087.20
670.73	1087.90
671.07	1088.65
671.41	1090.13
671.75	1091.98
672.09	1092.35
672.43	1092.07
672.77	1094.29
673.11	1094.27
673.45	1089.99
673.79	1087.76
674.13	1085.91
674.47	1081.98
674.81	1086.10
675.15	1088.30
675.49	1087.97
675.83	1088.14
676.17	1093.26
676.51	1090.48
676.85	1091.91
677.19	1091.95
677.53	1092.84
677.87	1089.52
678.21	1088.75
678.55	1089.89
678.89	1091.77
679.23	1090.95
679.57	1094.72
679.90	1098.34
680.24	1094.83
680.58	1091.18
680.92	1092.61
681.26	1090.95
681.60	1087.65
681.94	1089.68
682.28	1092.26
682.62	1095.25
682.96	1093.94
683.29	1096.56
683.63	1098.32
683.97	1095.30
684.31	1091.25
684.65	1092.91
684.99	1092.05
685.33	1089.12
685.67	1091.23
686.00	1090.85
686.34	1087.79
686.68	1088.49
687.02	1092.00
687.36	1092.35
687.70	1095.72
688.03	1094.81
688.37	1094.27
688.71	1089.61
689.05	1090.32
689.39	1089.33
689.72	1094.11
690.06	1094.97
690.40	1097.36
690.74	1098.11
691.08	1095.60
691.41	1094.22
691.75	1091.23
692.09	1090.46
692.43	1088.47
692.76	1090.71
693.10	1090.43
693.44	1093.94
693.78	1092.49
694.11	1098.48
694.45	1097.10
694.79	1096.03
695.13	1094.15
695.46	1097.50
695.80	1092.80
696.14	1094.32
696.48	1098.98
696.81	1098.79
697.15	1095.51
697.49	1092.05
697.82	1089.12
698.16	1086.38
698.50	1084.42
698.83	1087.27
699.17	1092.49
699.51	1096.19
699.84	1093.78
700.18	1094.83
700.52	1093.38
700.85	1092.23
701.19	1088.23
701.53	1089.40
701.86	1091.63
702.20	1089.33
702.54	1084.18
702.87	1086.31
703.21	1087.48
703.55	1086.01
703.88	1089.87
704.22	1095.46
704.55	1094.95
704.89	1095.53
705.23	1095.32
705.56	1094.97
705.90	1093.15
706.23	1095.30
706.57	1095.51
706.91	1096.31
707.24	1093.31
707.58	1090.55
707.91	1088.84
708.25	1086.99
708.58	1084.11
708.92	1085.80
709.26	1090.13
709.59	1088.09
709.93	1085.84
710.26	1087.06
710.60	1085.73
710.93	1084.30
711.27	1085.49
711.60	1090.46
711.94	1091.34
712.27	1092.54
712.61	1091.20
712.94	1088.91
713.28	1084.79
713.61	1084.09
713.95	1085.82
714.28	1088.96
714.62	1093.80
714.95	1093.19
715.29	1092.70
715.62	1091.06
715.96	1091.60
716.29	1091.56
716.63	1092.87
716.96	1095.60
717.29	1092.98
717.63	1091.30
717.96	1089.45
718.30	1089.64
718.63	1084.79
718.97	1086.83
719.30	1085.96
719.63	1086.59
719.97	1086.29
720.30	1089.75
720.64	1090.03
720.97	1089.96
721.30	1089.17
721.64	1089.47
721.97	1089.07
722.31	1088.82
722.64	1089.40
722.97	1087.23
723.31	1088.26
723.64	1087.93
723.97	1088.28
724.31	1089.12
724.64	1088.12
724.98	1086.03
725.31	1082.17
725.64	1080.77
725.98	1080.46
726.31	1083.34
726.64	1085.73
726.97	1089.24
727.31	1091.98
727.64	1090.39
727.97	1089.64
728.31	1087.72
728.64	1089.22
728.97	1087.13
729.31	1085.75
729.64	1088.61
729.97	1087.60
730.30	1085.17
730.64	1083.08
730.97	1086.50
731.30	1085.05
731.63	1086.01
731.97	1090.10
732.30	1091.63
732.63	1089.03
732.96	1086.08
733.30	1087.62
733.63	1088.14
733.96	1089.64
734.29	1090.88
734.63	1091.58
734.96	1088.79
735.29	1087.06
735.62	1087.11
735.95	1085.45
736.29	1084.98
736.62	1089.33
736.95	1088.09
737.28	1088.19
737.61	1091.49
737.94	1094.55
738.28	1092.28
738.61	1091.77
738.94	1090.01
739.27	1089.45
739.60	1088.91
739.93	1085.52
740.27	1084.77
740.60	1083.97
740.93	1082.45
741.26	1081.00
741.59	1082.87
741.92	1084.09
742.25	1084.32
742.58	1081.23
742.91	1084.30
743.25	1082.01
743.58	1081.07
743.91	1080.63
744.24	1083.71
744.57	1080.81
744.90	1086.29
745.23	1083.67
745.56	1086.76
745.89	1090.34
746.22	1090.24
746.55	1087.81
746.88	1093.03
747.21	1092.63
747.54	1087.93
747.87	1091.77
748.20	1090.90
748.53	1090.08
748.87	1085.91
749.20	1087.67
749.53	1084.53
749.86	1083.74
750.19	1083.46
750.52	1090.32
750.85	1088.91
751.18	1090.08
751.51	1092.40
751.84	1093.38
752.16	1091.86
752.49	1090.83
752.82	1090.64
753.15	1086.45
753.48	1082.17
753.81	1077.86
754.14	1079.78
754.47	1075.64
754.80	1080.13
755.13	1084.93
755.46	1088.68
755.79	1090.08
756.12	1094.72
756.45	1094.25
756.78	1091.70
757.11	1089.19
757.43	1086.90
757.76	1086.71
758.09	1084.09
758.42	1081.30
758.75	1079.74
759.08	1079.13
759.41	1077.02
759.74	1078.71
760.07	1080.41
760.39	1084.77
760.72	1084.65
761.05	1082.94
761.38	1086.62
761.71	1089.40
762.04	1089.94
762.36	1090.15
762.69	1093.50
763.02	1090.60
763.35	1090.95
763.68	1088.42
764.01	1091.11
764.33	1090.57
764.66	1090.17
764.99	1086.99
765.32	1088.07
765.65	1088.14
765.97	1086.08
766.30	1083.86
766.63	1083.25
766.96	1082.52
767.28	1081.68
767.61	1084.35
767.94	1087.06
768.27	1089.05
768.59	1088.68
768.92	1087.76
769.25	1086.34
769.58	1088.93
769.90	1089.03
770.23	1089.68
770.56	1088.72
770.89	1088.89
771.21	1087.13
771.54	1084.63
771.87	1083.64
772.19	1085.91
772.52	1086.87
772.85	1085.59
773.17	1087.16
773.50	1085.45
773.83	1083.57
774.15	1081.19
774.48	1080.04
774.81	1080.95
775.13	1085.35
775.46	1085.96
775.79	1086.31
776.11	1087.90
776.44	1087.58
776.77	1085.28
777.09	1085.87
777.42	1084.74
777.74	1083.69
778.07	1082.97
778.40	1084.35
778.72	1085.03
779.05	1088.19
779.37	1090.53
779.70	1091.93
780.03	1090.41
780.35	1088.47
780.68	1086.83
781.00	1087.20
781.33	1086.22
781.65	1086.03
781.98	1084.30
782.31	1085.38
782.63	1082.54
782.96	1082.90
783.28	1083.83
783.61	1086.29
783.93	1083.39
784.26	1081.66
784.58	1082.36
784.91	1081.07
785.23	1081.26
785.56	1083.60
785.88	1084.30
786.21	1086.90
786.53	1087.97
786.86	1086.71
787.18	1084.98
787.51	1086.34
787.83	1084.11
788.16	1084.96
788.48	1086.80
788.81	1088.96
789.13	1088.96
789.46	1088.56
789.78	1089.19
790.10	1089.92
790.43	1092.56
790.75	1091.65
791.08	1089.54
791.40	1088.04
791.73	1090.92
792.05	1086.52
792.37	1088.04
792.70	1089.52
793.02	1090.74
793.35	1086.17
793.67	1087.81
793.99	1088.26
794.32	1087.34
794.64	1084.96
794.96	1085.66
795.29	1085.45
795.61	1085.17
795.93	1084.98
796.26	1087.44
796.58	1087.51
796.91	1087.30
797.23	1084.86
797.55	1086.50
797.87	1083.43
798.20	1082.52
798.52	1082.12
798.84	1081.54
799.17	1078.92
799.49	1081.89
799.81	1081.73
800.14	1084.91
800.46	1087.72
800.78	1086.57
801.10	1084.02
801.43	1084.79
801.75	1081.33
802.07	1084.51
802.40	1088.72
802.72	1088.61
803.04	1087.27
803.36	1088.93
803.69	1084.67
804.01	1084.14
804.33	1085.96
804.65	1088.82
804.97	1090.74
805.30	1092.59
805.62	1090.48
805.94	1087.39
806.26	1085.73
806.58	1084.79
806.91	1078.96
807.23	1079.36
807.55	1083.71
807.87	1081.23
808.19	1079.64
808.52	1085.96
808.84	1087.11
809.16	1084.91
809.48	1087.53
809.80	1092.12
810.12	1091.60
810.44	1091.86
810.77	1091.81
811.09	1091.79
811.41	1087.53
811.73	1088.77
812.05	1088.54
812.37	1087.11
812.69	1087.44
813.01	1089.40
813.33	1089.14
813.66	1089.07
813.98	1091.58
814.30	1091.13
814.62	1088.42
814.94	1088.14
815.26	1084.04
815.58	1084.63
815.90	1084.70
816.22	1084.14
816.54	1081.49
816.86	1085.35
817.18	1083.81
817.50	1083.62
817.82	1086.71
818.14	1087.65
818.46	1086.59
818.78	1089.36
819.10	1088.09
819.42	1086.73
819.74	1084.16
820.06	1083.97
820.38	1079.67
820.70	1082.38
821.02	1082.52
821.34	1081.47
821.66	1082.03
821.98	1083.46
822.30	1081.70
822.62	1080.63
822.94	1082.26
823.26	1084.89
823.58	1083.74
823.90	1086.90
824.22	1088.04
824.54	1093.08
824.86	1087.72
825.18	1086.31
825.50	1082.64
825.81	1082.59
826.13	1080.11
826.45	1084.04
826.77	1083.90
827.09	1089.00
827.41	1086.52
827.73	1084.84
828.05	1088.04
828.36	1093.47
828.68	1086.55
829.00	1087.44
829.32	1089.43
829.64	1084.18
829.96	1083.20
830.28	1084.56
830.59	1087.51
830.91	1087.09
831.23	1084.35
831.55	1080.41
831.87	1084.39
832.19	1081.87
832.50	1081.28
832.82	1082.92
833.14	1085.56
833.46	1082.59
833.78	1084.30
834.09	1084.16
834.41	1085.68
834.73	1085.82
835.05	1086.71
835.36	1085.80
835.68	1086.73
836.00	1089.19
836.32	1088.98
836.63	1088.00
836.95	1086.73
837.27	1085.10
837.59	1083.18
837.90	1084.09
838.22	1086.01
838.54	1085.70
838.85	1087.65
839.17	1087.86
839.49	1086.97
839.80	1087.34
840.12	1091.06
840.44	1092.82
840.76	1095.98
841.07	1094.67
841.39	1090.08
841.71	1084.98
842.02	1082.99
842.34	1081.70
842.65	1083.88
842.97	1085.70
843.29	1086.94
843.60	1085.59
843.92	1082.80
844.24	1080.51
844.55	1081.82
844.87	1085.80
845.18	1086.94
845.50	1086.62
845.82	1087.67
846.13	1087.25
846.45	1082.85
846.76	1082.43
847.08	1085.42
847.40	1081.40
847.71	1081.26
848.03	1084.11
848.34	1082.92
848.66	1081.26
848.97	1082.22
849.29	1081.21
849.60	1081.77
849.92	1084.79
850.24	1082.85
850.55	1086.38
850.87	1083.76
851.18	1081.63
851.50	1080.02
851.81	1081.56
852.13	1080.48
852.44	1082.24
852.76	1080.41
853.07	1080.63
853.39	1079.64
853.70	1081.61
854.01	1081.61
854.33	1079.92
854.64	1079.99
854.96	1082.59
855.27	1081.12
855.59	1086.13
855.90	1088.82
856.22	1087.76
856.53	1084.39
856.84	1082.24
857.16	1080.34
857.47	1080.18
857.79	1080.32
858.10	1082.99
858.41	1082.26
858.73	1078.17
859.04	1080.13
859.36	1081.80
859.67	1084.51
859.98	1087.62
860.30	1089.38
860.61	1086.50
860.92	1087.62
861.24	1084.07
861.55	1083.48
861.87	1085.77
862.18	1088.79
862.49	1084.65
862.81	1084.89
863.12	1086.17
863.43	1086.80
863.74	1085.75
864.06	1088.35
864.37	1086.66
864.68	1086.55
865.00	1083.69
865.31	1083.74
865.62	1082.01
865.94	1080.67
866.25	1081.44
866.56	1082.61
866.87	1083.69
867.19	1085.40
867.50	1088.63
867.81	1092.14
868.12	1093.47
868.44	1091.32
868.75	1090.03
869.06	1093.10
869.37	1088.44
869.68	1085.80
870.00	1085.56
870.31	1088.65
870.62	1087.48
870.93	1089.31
871.24	1092.16
871.56	1094.67
871.87	1089.40
872.18	1090.22
872.49	1087.79
872.80	1085.26
873.12	1085.17
873.43	1086.66
873.74	1083.76
874.05	1085.38
874.36	1084.91
874.67	1085.07
874.98	1086.38
875.29	1086.31
875.61	1085.75
875.92	1083.76
876.23	1078.38
876.54	1076.01
876.85	1076.86
877.16	1075.08
877.47	1077.21
877.78	1081.12
878.09	1082.76
878.40	1083.11
878.72	1084.32
879.03	1084.91
879.34	1084.21
879.65	1086.41
879.96	1085.77
880.27	1086.80
880.58	1085.63
880.89	1087.25
881.20	1085.00
881.51	1082.57
881.82	1080.16
882.13	1082.85
882.44	1081.77
882.75	1084.04
883.06	1086.94
883.37	1086.48
883.68	1085.96
883.99	1086.85
884.30	1085.00
884.61	1085.38
884.92	1085.24
885.23	1086.50
885.54	1086.52
885.85	1087.06
886.16	1085.33
886.47	1085.77
886.78	1086.36
887.08	1084.04
887.39	1082.15
887.70	1080.25
888.01	1082.19
888.32	1078.14
888.63	1077.51
888.94	1077.89
889.25	1079.31
889.56	1077.65
889.87	1077.93
890.17	1077.65
890.48	1076.34
890.79	1076.20
891.10	1075.59
891.41	1077.54
891.72	1081.35
892.03	1083.50
892.34	1085.31
892.64	1088.33
892.95	1086.08
893.26	1085.26
893.57	1085.10
893.88	1084.96
894.18	1085.40
894.49	1087.27
894.80	1087.79
895.11	1088.79
895.42	1088.21
895.72	1085.89
896.03	1086.48
896.34	1087.67
896.65	1086.08
896.96	1086.83
897.26	1087.25
897.57	1085.14
897.88	1084.21
898.19	1085.84
898.49	1084.32
898.80	1088.58
899.11	1090.27
899.41	1087.90
899.72	1087.83
900.03	1088.30
900.34	1080.63
900.64	1079.46
900.95	1080.30
901.26	1080.30
901.56	1079.36
901.87	1084.37
902.18	1084.58
902.48	1085.28
902.79	1084.39
903.10	1083.88
903.40	1083.22
903.71	1084.07
904.02	1082.12
904.32	1082.90
904.63	1089.31
904.94	1090.53
905.24	1089.57
905.55	1093.01
905.85	1090.67
906.16	1084.77
906.47	1084.81
906.77	1086.41
907.08	1084.18
907.38	1086.45
907.69	1088.33
908.00	1087.20
908.30	1088.51
908.61	1088.23
908.91	1086.87
909.22	1086.59
909.52	1085.26
909.83	1081.35
910.14	1082.38
910.44	1084.93
910.75	1086.78
911.05	1088.28
911.36	1088.12
911.66	1088.42
911.97	1088.42
912.27	1084.98
912.58	1083.15
912.88	1087.34
913.19	1085.89
913.49	1084.44
913.80	1085.26
914.10	1085.61
914.41	1083.25
914.71	1083.55
915.01	1083.11
915.32	1083.20
915.62	1082.22
915.93	1081.49
916.23	1081.40
916.54	1080.18
916.84	1081.96
917.15	1085.68
917.45	1087.13
917.75	1084.72
918.06	1086.85
918.36	1086.01
918.67	1082.59
918.97	1078.57
919.27	1079.43
919.58	1080.58
919.88	1081.47
920.18	1081.96
920.49	1085.07
920.79	1086.10
921.10	1084.35
921.40	1082.33
921.70	1083.48
922.01	1083.43
922.31	1085.87
922.61	1083.57
922.92	1086.01
923.22	1085.26
923.52	1084.65
923.82	1081.26
924.13	1081.61
924.43	1076.44
924.73	1077.68
925.04	1079.20
925.34	1080.37
925.64	1080.39
925.94	1084.53
926.25	1082.40
926.55	1083.86
926.85	1080.37
927.15	1081.05
927.46	1077.40
927.76	1078.59
928.06	1075.24
928.36	1079.48
928.67	1079.22
928.97	1080.84
929.27	1082.33
929.57	1081.54
929.87	1080.98
930.18	1082.99
930.48	1087.04
930.78	1085.52
931.08	1083.71
931.38	1086.27
931.69	1083.88
931.99	1079.17
932.29	1078.03
932.59	1083.06
932.89	1085.35
933.19	1087.67
933.49	1090.64
933.80	1091.56
934.10	1089.61
934.40	1082.31
934.70	1083.76
935.00	1081.07
935.30	1079.92
935.60	1081.37
935.90	1084.79
936.20	1084.44
936.50	1086.01
936.81	1088.68
937.11	1083.01
937.41	1082.40
937.71	1079.60
938.01	1079.83
938.31	1081.82
938.61	1089.59
938.91	1089.17
939.21	1089.64
939.51	1087.48
939.81	1087.55
940.11	1084.65
940.41	1085.73
940.71	1085.59
941.01	1084.28
941.31	1080.16
941.61	1084.07
941.91	1086.41
942.21	1086.15
942.51	1090.95
942.81	1093.15
943.11	1087.93
943.41	1086.48
943.71	1088.16
944.01	1087.09
944.31	1085.28
944.61	1085.82
944.90	1081.35
945.20	1074.77
945.50	1074.56
945.80	1073.65
946.10	1075.76
946.40	1077.68
946.70	1083.04
947.00	1084.23
947.30	1086.41
947.60	1084.60
947.89	1084.28
948.19	1085.63
948.49	1084.70
948.79	1084.86
949.09	1087.04
949.39	1086.71
949.69	1085.66
949.98	1087.48
950.28	1084.53
950.58	1081.23
950.88	1083.88
951.18	1084.14
951.48	1081.89
951.77	1083.36
952.07	1084.53
952.37	1083.81
952.67	1084.09
952.97	1083.93
953.26	1082.17
953.56	1082.38
953.86	1081.28
954.16	1078.43
954.45	1078.75
954.75	1080.30
955.05	1079.53
955.35	1081.63
955.64	1084.18
955.94	1082.83
956.24	1083.88
956.54	1085.99
956.83	1082.03
957.13	1080.74
957.43	1080.11
957.72	1077.02
958.02	1073.58
958.32	1073.46
958.61	1073.53
958.91	1075.20
959.21	1075.78
959.50	1076.58
959.80	1080.20
960.10	1080.91
960.39	1082.12
960.69	1086.27
960.99	1089.19
961.28	1087.86
961.58	1087.37
961.87	1083.86
962.17	1079.83
962.47	1080.48
962.76	1081.89
963.06	1083.48
963.36	1085.14
963.65	1087.04
963.95	1082.94
964.24	1083.25
964.54	1082.78
964.83	1083.83
965.13	1082.99
965.42	1085.26
965.72	1084.25
966.02	1085.10
966.31	1083.34
966.61	1084.60
966.90	1083.39
967.20	1081.70
967.49	1080.34
967.79	1080.58
968.08	1081.16
968.38	1083.36
968.67	1084.65
968.97	1081.77
969.26	1083.04
969.56	1084.18
969.85	1081.12
970.15	1080.39
970.44	1085.99
970.74	1085.77
971.03	1084.70
971.32	1087.60
971.62	1089.26
971.91	1080.56
972.21	1084.16
972.50	1082.29
972.80	1081.91
973.09	1080.67
973.38	1087.48
973.68	1084.81
973.97	1086.48
974.27	1085.07
974.56	1083.74
974.85	1082.22
975.15	1080.81
975.44	1080.53
975.73	1082.66
976.03	1083.69
976.32	1087.41
976.61	1089.03
976.91	1085.87
977.20	1082.83
977.49	1082.85
977.79	1078.57
978.08	1078.75
978.37	1083.86
978.67	1086.08
978.96	1087.20
979.25	1087.55
979.55	1084.72
979.84	1082.97
980.13	1082.76
980.42	1084.60
980.72	1084.39
981.01	1083.20
981.30	1081.51
981.59	1082.71
981.89	1080.86
982.18	1080.95
982.47	1083.53
982.76	1082.45
983.06	1080.86
983.35	1079.15
983.64	1079.01
983.93	1077.58
984.22	1080.53
984.52	1081.33
984.81	1079.95
985.10	1081.21
985.39	1081.12
985.68	1079.99
985.97	1079.29
986.27	1083.76
986.56	1080.30
986.85	1079.71
987.14	1078.61
987.43	1077.84
987.72	1076.41
988.01	1077.79
988.31	1077.82
988.60	1076.39
988.89	1075.10
989.18	1076.06
989.47	1076.48
989.76	1077.56
990.05	1080.11
990.34	1085.63
990.63	1086.13
990.92	1088.79
991.21	1091.81
991.51	1093.50
991.80	1088.26
992.09	1086.87
992.38	1087.02
992.67	1087.65
992.96	1087.79
993.25	1087.30
993.54	1087.72
993.83	1087.11
994.12	1083.69
994.41	1084.18
994.70	1086.41
994.99	1088.98
995.28	1088.40
995.57	1086.38
995.86	1085.12
996.15	1083.88
996.44	1081.07
996.73	1081.14
997.02	1085.26
997.31	1080.93
997.59	1079.38
997.88	1078.82
998.17	1079.13
998.46	1074.07
998.75	1076.55
999.04	1076.34
999.33	1077.56
999.62	1076.15
999.91	1081.12
1000.20	1079.27
1000.49	1080.02
1000.77	1080.34
1001.06	1080.74
1001.35	1080.58
1001.64	1083.76
1001.93	1084.44
1002.22	1083.01
1002.51	1085.47
1002.79	1083.67
1003.08	1083.48
1003.37	1081.09
1003.66	1081.02
1003.95	1080.13
1004.23	1081.47
1004.52	1078.59
1004.81	1082.52
1005.10	1085.54
1005.39	1086.06
1005.67	1084.79
1005.96	1087.62
1006.25	1086.55
1006.54	1086.36
1006.83	1084.89
1007.11	1085.42
1007.40	1085.68
1007.69	1084.65
1007.97	1082.61
1008.26	1082.66
1008.55	1084.89
1008.84	1084.98
1009.12	1088.47
1009.41	1087.69
1009.70	1085.80
1009.98	1084.93
1010.27	1082.85
1010.56	1079.41
1010.85	1082.05
1011.13	1083.36
1011.42	1082.85
1011.71	1081.84
1011.99	1083.48
1012.28	1080.60
1012.56	1080.11
1012.85	1078.85
1013.14	1082.17
1013.42	1081.42
1013.71	1084.02
1014.00	1085.33
1014.28	1085.40
1014.57	1081.96
1014.85	1081.00
1015.14	1078.40
1015.43	1079.76
1015.71	1079.97
1016.00	1085.26
1016.28	1085.61
1016.57	1083.69
1016.85	1081.42
1017.14	1082.87
1017.43	1079.53
1017.71	1080.81
1018.00	1083.34
1018.28	1084.18
1018.57	1083.88
1018.85	1087.51
1019.14	1085.59
1019.42	1084.91
1019.71	1084.44
1019.99	1082.45
1020.28	1076.90
1020.56	1078.66
1020.85	1082.05
1021.13	1081.33
1021.42	1081.66
1021.70	1085.12
1021.99	1084.16
1022.27	1080.74
1022.55	1075.94
1022.84	1081.09
>>>>>End Processed Spectral Data<<<<<
