SpectraSuite Data File
++++++++++++++++++++++++++++++++++++
Date: Mon Aug 26 10:26:24 PDT 2019
User: corrico
Dark Spectrum Present: No
Reference Spectrum Present: No
Number of Sampled Component Spectra: 1
Spectrometers: USB2+H06089
Integration Time (usec): 10000 (USB2+H06089)
Spectra Averaged: 20 (USB2+H06089)
Boxcar Smoothing: 2 (USB2+H06089)
Correct for Electrical Dark: No (USB2+H06089)
Strobe/Lamp Enabled: No (USB2+H06089)
Correct for Detector Non-linearity: No (USB2+H06089)
Correct for Stray Light: No (USB2+H06089)
Number of Pixels in Processed Spectrum: 2048
>>>>>Begin Processed Spectral Data<<<<<
339.70	1023.98
340.07	1023.98
340.45	995.38
340.82	975.44
341.19	951.01
341.57	928.63
341.94	917.19
342.31	909.95
342.69	908.64
343.06	908.53
343.43	908.17
343.81	908.27
344.18	910.82
344.55	911.15
344.93	914.17
345.30	921.33
345.67	927.95
346.04	933.12
346.42	940.17
346.79	951.54
347.16	958.59
347.54	968.89
347.91	977.52
348.28	987.12
348.65	996.48
349.03	1006.64
349.40	1015.79
349.77	1028.53
350.14	1036.90
350.52	1043.72
350.89	1050.85
351.26	1055.42
351.63	1060.59
352.01	1067.03
352.38	1070.49
352.75	1072.71
353.12	1075.73
353.50	1079.17
353.87	1080.51
354.24	1083.86
354.61	1087.37
354.98	1085.31
355.36	1087.37
355.73	1088.14
356.10	1085.82
356.47	1083.27
356.84	1088.72
357.22	1087.32
357.59	1090.39
357.96	1086.90
358.33	1084.91
358.70	1084.23
359.08	1086.03
359.45	1082.87
359.82	1087.55
360.19	1091.58
360.56	1094.57
360.94	1090.64
361.31	1091.91
361.68	1091.95
362.05	1090.41
362.42	1086.10
362.79	1086.24
363.16	1085.07
363.54	1084.79
363.91	1084.81
364.28	1086.22
364.65	1084.79
365.02	1083.64
365.39	1083.18
365.76	1084.58
366.14	1081.35
366.51	1083.71
366.88	1083.11
367.25	1085.26
367.62	1081.19
367.99	1080.53
368.36	1077.65
368.73	1078.73
369.10	1078.87
369.48	1080.77
369.85	1081.37
370.22	1079.81
370.59	1080.16
370.96	1079.90
371.33	1078.17
371.70	1076.53
372.07	1075.55
372.44	1073.84
372.81	1070.89
373.18	1072.20
373.55	1071.17
373.93	1075.29
374.30	1078.17
374.67	1079.06
375.04	1078.61
375.41	1083.93
375.78	1083.43
376.15	1081.28
376.52	1082.08
376.89	1084.65
377.26	1081.75
377.63	1081.75
378.00	1081.63
378.37	1079.90
378.74	1079.38
379.11	1078.66
379.48	1079.15
379.85	1080.09
380.22	1080.91
380.59	1078.52
380.96	1083.18
381.33	1082.08
381.70	1084.89
382.07	1084.98
382.44	1086.85
382.81	1084.70
383.18	1086.43
383.55	1085.05
383.92	1085.07
384.29	1083.29
384.66	1082.80
385.03	1081.70
385.40	1082.17
385.77	1082.99
386.14	1083.50
386.51	1085.33
386.88	1087.81
387.25	1084.86
387.62	1082.47
387.99	1086.08
388.36	1085.87
388.73	1083.88
389.10	1085.05
389.46	1086.85
389.83	1085.66
390.20	1086.08
390.57	1086.94
390.94	1085.10
391.31	1085.82
391.68	1084.53
392.05	1082.33
392.42	1082.40
392.79	1084.37
393.16	1085.31
393.53	1086.76
393.89	1085.99
394.26	1082.61
394.63	1083.64
395.00	1084.70
395.37	1083.34
395.74	1083.32
396.11	1088.98
396.48	1088.54
396.84	1088.82
397.21	1089.36
397.58	1092.47
397.95	1086.85
398.32	1086.87
398.69	1086.01
399.06	1088.02
399.42	1087.97
399.79	1090.76
400.16	1091.04
400.53	1093.33
400.90	1093.80
401.27	1094.60
401.64	1098.53
402.00	1098.09
402.37	1092.77
402.74	1092.35
403.11	1089.87
403.48	1090.43
403.84	1090.85
404.21	1095.46
404.58	1095.70
404.95	1097.78
405.32	1097.66
405.68	1099.96
406.05	1098.46
406.42	1099.30
406.79	1102.30
407.16	1098.13
407.52	1096.80
407.89	1095.18
408.26	1091.18
408.63	1087.37
408.99	1088.63
409.36	1088.96
409.73	1091.20
410.10	1096.10
410.47	1099.05
410.83	1098.53
411.20	1099.77
411.57	1100.80
411.94	1099.89
412.30	1101.22
412.67	1104.05
413.04	1106.70
413.40	1107.85
413.77	1109.37
414.14	1108.34
414.51	1107.33
414.87	1107.40
415.24	1105.36
415.61	1101.29
415.97	1099.75
416.34	1100.05
416.71	1096.12
417.08	1098.95
417.44	1100.40
417.81	1101.39
418.18	1101.25
418.54	1100.80
418.91	1099.23
419.28	1100.89
419.64	1103.70
420.01	1108.10
420.38	1112.39
420.74	1118.59
421.11	1118.73
421.48	1117.58
421.84	1115.85
422.21	1114.80
422.58	1111.71
422.94	1109.74
423.31	1109.51
423.68	1110.19
424.04	1105.32
424.41	1102.93
424.77	1106.96
425.14	1106.58
425.51	1104.48
425.87	1108.31
426.24	1109.88
426.61	1107.66
426.97	1107.61
427.34	1107.00
427.70	1109.37
428.07	1110.72
428.44	1111.47
428.80	1115.01
429.17	1117.79
429.53	1117.42
429.90	1117.35
430.27	1115.34
430.63	1111.59
431.00	1110.61
431.36	1111.24
431.73	1109.41
432.09	1109.88
432.46	1111.64
432.83	1114.66
433.19	1112.53
433.56	1113.11
433.92	1112.85
434.29	1113.93
434.65	1111.36
435.02	1113.58
435.38	1111.54
435.75	1114.52
436.11	1114.35
436.48	1114.98
436.84	1112.06
437.21	1114.94
437.57	1113.02
437.94	1110.82
438.30	1108.50
438.67	1109.74
439.03	1110.63
439.40	1110.65
439.76	1112.15
440.13	1117.47
440.49	1118.05
440.86	1116.51
441.22	1118.31
441.59	1118.24
441.95	1115.73
442.32	1116.27
442.68	1117.49
443.05	1116.83
443.41	1115.76
443.78	1112.64
444.14	1112.41
444.51	1112.48
444.87	1111.73
445.24	1111.75
445.60	1113.93
445.96	1113.44
446.33	1112.34
446.69	1113.98
447.06	1111.85
447.42	1111.71
447.79	1110.12
448.15	1109.62
448.51	1110.51
448.88	1112.08
449.24	1110.21
449.61	1112.81
449.97	1111.71
450.33	1110.28
450.70	1112.20
451.06	1113.74
451.43	1110.26
451.79	1112.60
452.15	1115.78
452.52	1114.56
452.88	1111.33
453.24	1115.29
453.61	1113.56
453.97	1110.47
454.34	1110.82
454.70	1114.73
455.06	1112.18
455.43	1111.08
455.79	1110.35
456.15	1108.52
456.52	1107.17
456.88	1108.52
457.24	1107.59
457.61	1105.69
457.97	1107.82
458.33	1108.50
458.70	1105.11
459.06	1106.61
459.42	1111.45
459.79	1111.03
460.15	1114.17
460.51	1117.51
460.88	1118.87
461.24	1116.81
461.60	1117.75
461.96	1116.39
462.33	1118.82
462.69	1119.99
463.05	1122.15
463.42	1122.15
463.78	1124.25
464.14	1124.30
464.50	1122.40
464.87	1121.14
465.23	1124.28
465.59	1122.15
465.95	1125.87
466.32	1127.79
466.68	1128.68
467.04	1124.77
467.40	1127.67
467.77	1128.23
468.13	1129.75
468.49	1130.62
468.85	1136.94
469.22	1136.31
469.58	1135.32
469.94	1136.61
470.30	1139.61
470.66	1139.86
471.03	1143.00
471.39	1146.02
471.75	1149.25
472.11	1150.58
472.47	1151.71
472.84	1155.36
473.20	1151.38
473.56	1155.45
473.92	1160.48
474.28	1162.57
474.65	1163.43
475.01	1173.24
475.37	1174.97
475.73	1175.09
476.09	1179.51
476.45	1185.65
476.81	1190.26
477.18	1195.19
477.54	1205.05
477.90	1210.64
478.26	1216.75
478.62	1226.96
478.98	1238.24
479.34	1247.13
479.71	1256.12
480.07	1265.74
480.43	1271.07
480.79	1279.22
481.15	1291.06
481.51	1304.80
481.87	1314.30
482.23	1325.07
482.59	1339.56
482.96	1350.68
483.32	1367.25
483.68	1384.03
484.04	1403.50
484.40	1417.45
484.76	1434.65
485.12	1452.84
485.48	1474.79
485.84	1493.33
486.20	1517.44
486.56	1542.04
486.92	1562.31
487.28	1589.04
487.64	1616.56
488.00	1647.50
488.37	1680.74
488.73	1712.57
489.09	1744.75
489.45	1785.06
489.81	1823.04
490.17	1867.07
490.53	1916.85
490.89	1960.43
491.25	2006.12
491.61	2054.55
491.97	2103.35
492.33	2155.94
492.69	2213.77
493.05	2271.54
493.41	2335.67
493.77	2397.64
494.13	2472.52
494.49	2547.86
494.85	2626.29
495.21	2703.48
495.57	2791.58
495.93	2877.38
496.29	2966.79
496.64	3068.82
497.00	3173.46
497.36	3283.09
497.72	3390.17
498.08	3512.63
498.44	3639.84
498.80	3772.59
499.16	3914.85
499.52	4073.21
499.88	4234.82
500.24	4399.76
500.60	4575.56
500.96	4749.98
501.32	4916.04
501.68	5081.72
502.03	5272.78
502.39	5473.60
502.75	5681.30
503.11	5927.15
503.47	6189.66
503.83	6472.82
504.19	6754.22
504.55	7064.32
504.91	7356.58
505.26	7659.57
505.62	7976.87
505.98	8354.35
506.34	8711.80
506.70	9097.48
507.06	9537.45
507.42	9965.16
507.78	10356.29
508.13	10809.16
508.49	11293.83
508.85	11790.33
509.21	12297.41
509.57	12825.57
509.93	13353.79
510.28	13929.79
510.64	14537.30
511.00	15154.20
511.36	15799.41
511.72	16524.32
512.07	17279.26
512.43	17996.17
512.79	18806.72
513.15	19629.14
513.51	20345.15
513.86	21071.12
514.22	21889.86
514.58	22715.39
514.94	23508.43
515.30	24429.72
515.65	25421.87
516.01	26316.94
516.37	27146.59
516.73	28038.10
517.08	28822.78
517.44	29453.77
517.80	30217.21
518.16	31065.84
518.51	31934.48
518.87	32821.57
519.23	33821.19
519.59	34767.75
519.94	35711.43
520.30	36624.94
520.66	37443.98
521.01	38197.33
521.37	38869.37
521.73	39407.11
522.09	39875.73
522.44	40509.03
522.80	41032.31
523.16	41443.33
523.51	41808.26
523.87	42208.43
524.23	42461.27
524.58	42669.82
524.94	43075.31
525.30	43353.81
525.65	43408.68
526.01	43363.39
526.37	43493.24
526.72	43528.79
527.08	43474.40
527.44	43406.33
527.79	43349.46
528.15	43114.35
528.51	42772.52
528.86	42503.73
529.22	42269.23
529.58	41994.13
529.93	41609.29
530.29	41079.21
530.65	40643.36
531.00	40192.29
531.36	39615.95
531.71	39108.39
532.07	38770.46
532.43	38176.22
532.78	37560.68
533.14	37021.10
533.49	36447.50
533.85	35758.63
534.21	35218.93
534.56	34685.83
534.92	34122.27
535.27	33512.56
535.63	32789.62
535.98	32099.60
536.34	31448.12
536.69	30769.17
537.05	30153.05
537.41	29674.39
537.76	29100.47
538.12	28410.57
538.47	27905.20
538.83	27391.69
539.18	26859.92
539.54	26407.21
539.89	26013.65
540.25	25530.89
540.60	25051.41
540.96	24509.29
541.31	24034.05
541.67	23662.21
542.02	23223.29
542.38	22801.45
542.73	22376.83
543.09	21938.71
543.44	21475.89
543.80	21069.20
544.15	20640.90
544.51	20316.13
544.86	19947.08
545.22	19591.36
545.57	19261.65
545.93	18887.84
546.28	18536.41
546.64	18201.39
546.99	17841.41
547.35	17499.20
547.70	17200.39
548.05	16856.42
548.41	16482.75
548.76	16086.67
549.12	15697.11
549.47	15338.37
549.83	15013.51
550.18	14709.54
550.53	14402.79
550.89	14061.45
551.24	13733.51
551.60	13443.19
551.95	13187.58
552.30	12954.47
552.66	12770.15
553.01	12574.08
553.37	12343.77
553.72	12077.75
554.07	11814.02
554.43	11541.88
554.78	11265.98
555.13	10993.40
555.49	10718.72
555.84	10472.12
556.19	10226.76
556.55	9960.08
556.90	9701.75
557.26	9520.22
557.61	9335.34
557.96	9141.34
558.32	8966.94
558.67	8784.99
559.02	8565.14
559.37	8375.47
559.73	8197.56
560.08	8020.52
560.43	7832.74
560.79	7654.70
561.14	7455.89
561.49	7272.28
561.85	7092.53
562.20	6939.64
562.55	6806.56
562.90	6680.12
563.26	6550.97
563.61	6428.16
563.96	6294.85
564.32	6151.14
564.67	6017.00
565.02	5902.83
565.37	5798.19
565.73	5668.33
566.08	5553.51
566.43	5444.16
566.78	5312.34
567.14	5185.50
567.49	5096.59
567.84	4982.70
568.19	4880.39
568.54	4789.13
568.90	4705.46
569.25	4621.62
569.60	4546.23
569.95	4464.97
570.31	4392.20
570.66	4308.74
571.01	4219.94
571.36	4140.83
571.71	4054.93
572.06	3976.59
572.42	3896.92
572.77	3820.53
573.12	3745.56
573.47	3683.30
573.82	3616.29
574.18	3556.00
574.53	3494.84
574.88	3438.95
575.23	3380.30
575.58	3321.69
575.93	3269.59
576.28	3221.30
576.64	3169.11
576.99	3118.72
577.34	3069.61
577.69	3011.31
578.04	2953.31
578.39	2900.79
578.74	2846.19
579.09	2790.67
579.44	2746.45
579.80	2701.56
580.15	2657.68
580.50	2613.25
580.85	2572.53
581.20	2528.60
581.55	2488.04
581.90	2449.51
582.25	2412.53
582.60	2374.01
582.95	2339.27
583.30	2309.76
583.65	2280.62
584.00	2249.14
584.35	2218.03
584.71	2188.21
585.06	2160.99
585.41	2131.81
585.76	2109.20
586.11	2082.56
586.46	2052.46
586.81	2023.21
587.16	2000.03
587.51	1975.20
587.86	1955.80
588.21	1939.58
588.56	1916.81
588.91	1895.25
589.26	1874.32
589.61	1854.20
589.96	1837.79
590.31	1819.30
590.66	1798.49
591.01	1780.12
591.36	1762.35
591.71	1735.93
592.06	1723.08
592.41	1706.13
592.76	1691.88
593.10	1676.99
593.45	1666.65
593.80	1650.73
594.15	1636.43
594.50	1622.69
594.85	1612.47
595.20	1602.24
595.55	1591.75
595.90	1581.76
596.25	1569.17
596.60	1557.63
596.95	1543.09
597.30	1534.31
597.64	1577.10
597.99	1569.12
598.34	1559.94
598.69	1550.72
599.04	1537.52
599.39	1477.25
599.74	1464.12
600.09	1454.85
600.44	1446.50
600.78	1436.25
601.13	1427.61
601.48	1419.44
601.83	1409.66
602.18	1403.24
602.53	1393.41
602.88	1385.88
603.22	1380.82
603.57	1374.90
603.92	1367.06
604.27	1363.32
604.62	1355.92
604.97	1348.78
605.31	1343.40
605.66	1340.92
606.01	1334.76
606.36	1328.68
606.71	1325.28
607.05	1317.44
607.40	1310.72
607.75	1307.24
608.10	1303.89
608.44	1296.56
608.79	1290.45
609.14	1286.34
609.49	1280.55
609.84	1274.59
610.18	1267.45
610.53	1263.30
610.88	1260.73
611.23	1260.87
611.57	1257.36
611.92	1256.26
612.27	1255.84
612.62	1246.62
612.96	1240.51
613.31	1232.83
613.66	1229.53
614.00	1224.01
614.35	1221.53
614.70	1213.31
615.05	1213.78
615.39	1211.16
615.74	1207.60
616.09	1206.17
616.43	1209.73
616.78	1206.99
617.13	1202.66
617.47	1201.65
617.82	1198.28
618.17	1191.61
618.51	1190.44
618.86	1188.62
619.21	1183.66
619.55	1182.18
619.90	1180.73
620.25	1177.43
620.59	1176.35
620.94	1174.13
621.29	1168.79
621.63	1169.61
621.98	1165.77
622.32	1163.78
622.67	1165.17
623.02	1166.41
623.36	1160.86
623.71	1160.46
624.05	1156.34
624.40	1151.57
624.75	1148.15
625.09	1149.18
625.44	1150.84
625.78	1149.79
626.13	1148.41
626.48	1148.20
626.82	1144.05
627.17	1138.48
627.51	1141.50
627.86	1144.33
628.20	1146.82
628.55	1146.70
628.89	1145.81
629.24	1141.67
629.58	1139.51
629.93	1136.77
630.28	1135.65
630.62	1139.65
630.97	1137.45
631.31	1133.69
631.66	1130.43
632.00	1130.55
632.35	1125.66
632.69	1126.90
633.04	1127.30
633.38	1126.94
633.73	1124.81
634.07	1125.98
634.42	1123.53
634.76	1121.56
635.11	1118.24
635.45	1119.20
635.79	1118.99
636.14	1118.92
636.48	1117.61
636.83	1121.51
637.17	1120.27
637.52	1118.61
637.86	1116.86
638.21	1117.04
638.55	1110.21
638.89	1110.54
639.24	1109.18
639.58	1114.02
639.93	1113.28
640.27	1118.03
640.61	1116.27
640.96	1117.21
641.30	1113.11
641.65	1114.94
641.99	1113.14
642.33	1113.09
642.68	1111.97
643.02	1111.54
643.37	1109.91
643.71	1112.50
644.05	1110.44
644.40	1107.17
644.74	1106.56
645.08	1104.33
645.43	1102.49
645.77	1102.02
646.11	1107.00
646.46	1104.57
646.80	1107.03
647.14	1108.78
647.49	1108.57
647.83	1104.85
648.17	1105.74
648.52	1102.88
648.86	1100.17
649.20	1103.21
649.55	1104.64
649.89	1102.91
650.23	1105.97
650.57	1107.66
650.92	1107.24
651.26	1106.68
651.60	1106.44
651.95	1104.12
652.29	1101.50
652.63	1099.30
652.97	1101.06
653.32	1100.87
653.66	1099.82
654.00	1099.37
654.34	1100.19
654.69	1096.87
655.03	1099.86
655.37	1100.99
655.71	1101.06
656.05	1101.18
656.40	1102.49
656.74	1102.18
657.08	1100.52
657.42	1096.63
657.76	1095.37
658.11	1092.12
658.45	1090.20
658.79	1091.27
659.13	1096.85
659.47	1094.83
659.82	1096.10
660.16	1097.66
660.50	1097.88
660.84	1095.11
661.18	1098.79
661.52	1097.08
661.87	1095.56
662.21	1096.75
662.55	1097.57
662.89	1095.75
663.23	1096.56
663.57	1093.33
663.91	1092.30
664.25	1088.89
664.60	1086.90
664.94	1090.36
665.28	1096.33
665.62	1096.17
665.96	1099.44
666.30	1098.55
666.64	1095.75
666.98	1093.47
667.32	1094.43
667.66	1095.46
668.01	1096.99
668.35	1094.86
668.69	1094.55
669.03	1090.08
669.37	1088.58
669.71	1090.74
670.05	1093.99
670.39	1094.36
670.73	1096.87
671.07	1095.65
671.41	1094.53
671.75	1092.07
672.09	1089.47
672.43	1089.17
672.77	1092.16
673.11	1091.23
673.45	1092.45
673.79	1093.62
674.13	1093.12
674.47	1091.25
674.81	1091.72
675.15	1091.13
675.49	1090.83
675.83	1091.84
676.17	1092.33
676.51	1091.79
676.85	1093.78
677.19	1096.31
677.53	1095.70
677.87	1093.94
678.21	1094.11
678.55	1093.40
678.89	1091.16
679.23	1092.09
679.57	1093.17
679.90	1090.78
680.24	1088.63
680.58	1088.02
680.92	1085.42
681.26	1083.88
681.60	1088.33
681.94	1088.82
682.28	1087.65
682.62	1087.86
682.96	1088.89
683.29	1087.16
683.63	1085.19
683.97	1085.75
684.31	1088.42
684.65	1086.41
684.99	1083.27
685.33	1086.71
685.67	1089.85
686.00	1089.75
686.34	1092.07
686.68	1095.23
687.02	1096.68
687.36	1095.53
687.70	1092.75
688.03	1091.27
688.37	1092.23
688.71	1087.76
689.05	1084.81
689.39	1088.00
689.72	1090.39
690.06	1090.01
690.40	1093.33
690.74	1097.50
691.08	1093.19
691.41	1092.42
691.75	1089.24
692.09	1087.81
692.43	1084.74
692.76	1086.85
693.10	1088.65
693.44	1091.70
693.78	1091.98
694.11	1093.10
694.45	1096.42
694.79	1093.38
695.13	1090.41
695.46	1089.14
695.80	1087.32
696.14	1085.24
696.48	1085.35
696.81	1089.00
697.15	1087.97
697.49	1090.55
697.82	1091.18
698.16	1091.39
698.50	1091.98
698.83	1092.98
699.17	1094.48
699.51	1093.80
699.84	1094.34
700.18	1094.04
700.52	1096.33
700.85	1091.42
701.19	1093.22
701.53	1093.52
701.86	1090.64
702.20	1087.72
702.54	1088.00
702.87	1085.91
703.21	1084.58
703.55	1085.40
703.88	1082.94
704.22	1086.22
704.55	1085.21
704.89	1085.12
705.23	1083.43
705.56	1088.04
705.90	1086.80
706.23	1086.71
706.57	1086.36
706.91	1088.70
707.24	1088.42
707.58	1090.22
707.91	1091.58
708.25	1093.71
708.58	1094.90
708.92	1094.69
709.26	1094.11
709.59	1091.74
709.93	1091.34
710.26	1090.20
710.60	1090.46
710.93	1088.77
711.27	1093.08
711.60	1092.35
711.94	1091.20
712.27	1091.18
712.61	1091.63
712.94	1087.06
713.28	1087.90
713.61	1088.44
713.95	1089.75
714.28	1089.22
714.62	1090.32
714.95	1088.33
715.29	1089.61
715.62	1087.55
715.96	1088.56
716.29	1092.59
716.63	1093.62
716.96	1090.48
717.29	1092.68
717.63	1093.69
717.96	1089.07
718.30	1088.12
718.63	1090.41
718.97	1089.61
719.30	1090.46
719.63	1091.02
719.97	1096.47
720.30	1097.01
720.64	1095.14
720.97	1092.89
721.30	1093.10
721.64	1087.95
721.97	1086.29
722.31	1087.41
722.64	1087.06
722.97	1087.23
723.31	1087.46
723.64	1090.08
723.97	1087.46
724.31	1086.64
724.64	1085.17
724.98	1082.54
725.31	1082.69
725.64	1086.29
725.98	1090.69
726.31	1091.77
726.64	1095.67
726.97	1094.79
727.31	1093.52
727.64	1093.31
727.97	1092.89
728.31	1092.70
728.64	1091.02
728.97	1089.82
729.31	1087.34
729.64	1088.93
729.97	1084.86
730.30	1082.36
730.64	1085.21
730.97	1085.99
731.30	1084.58
731.63	1088.61
731.97	1088.42
732.30	1085.77
732.63	1085.47
732.96	1086.36
733.30	1085.47
733.63	1090.32
733.96	1092.26
734.29	1091.79
734.63	1092.89
734.96	1092.40
735.29	1090.01
735.62	1087.65
735.95	1088.93
736.29	1087.04
736.62	1089.89
736.95	1094.06
737.28	1095.67
737.61	1096.45
737.94	1094.81
738.28	1088.98
738.61	1086.66
738.94	1086.90
739.27	1087.02
739.60	1088.04
739.93	1090.85
740.27	1091.04
740.60	1090.27
740.93	1085.87
741.26	1091.98
741.59	1092.37
741.92	1091.81
742.25	1088.37
742.58	1090.41
742.91	1083.64
743.25	1082.69
743.58	1079.71
743.91	1082.08
744.24	1081.49
744.57	1082.50
744.90	1084.63
745.23	1087.13
745.56	1084.91
745.89	1085.28
746.22	1082.92
746.55	1080.74
746.88	1077.77
747.21	1079.69
747.54	1078.50
747.87	1082.52
748.20	1082.54
748.53	1083.13
748.87	1084.23
749.20	1084.72
749.53	1083.04
749.86	1085.63
750.19	1088.19
750.52	1088.35
750.85	1088.75
751.18	1087.25
751.51	1084.74
751.84	1082.36
752.16	1083.27
752.49	1082.69
752.82	1082.17
753.15	1084.63
753.48	1085.26
753.81	1083.60
754.14	1080.81
754.47	1084.91
754.80	1084.79
755.13	1085.63
755.46	1085.54
755.79	1089.66
756.12	1092.52
756.45	1089.68
756.78	1089.45
757.11	1088.09
757.43	1087.86
757.76	1084.89
758.09	1083.69
758.42	1085.66
758.75	1090.39
759.08	1088.42
759.41	1085.94
759.74	1085.75
760.07	1084.79
760.39	1082.24
760.72	1083.25
761.05	1085.38
761.38	1087.93
761.71	1086.15
762.04	1086.06
762.36	1085.17
762.69	1085.26
763.02	1084.02
763.35	1085.19
763.68	1085.56
764.01	1087.74
764.33	1087.62
764.66	1085.94
764.99	1085.87
765.32	1084.96
765.65	1084.35
765.97	1082.83
766.30	1086.31
766.63	1086.38
766.96	1088.14
767.28	1086.92
767.61	1087.20
767.94	1088.33
768.27	1089.80
768.59	1087.97
768.92	1090.57
769.25	1089.99
769.58	1088.68
769.90	1088.37
770.23	1087.11
770.56	1087.65
770.89	1090.27
771.21	1093.59
771.54	1092.87
771.87	1092.66
772.19	1091.91
772.52	1089.78
772.85	1086.36
773.17	1086.06
773.50	1086.85
773.83	1086.13
774.15	1087.51
774.48	1086.62
774.81	1086.50
775.13	1086.48
775.46	1082.47
775.79	1081.51
776.11	1079.99
776.44	1079.64
776.77	1080.41
777.09	1082.43
777.42	1082.36
777.74	1085.05
778.07	1084.98
778.40	1085.12
778.72	1085.31
779.05	1083.20
779.37	1081.49
779.70	1081.42
780.03	1082.50
780.35	1083.25
780.68	1083.34
781.00	1085.33
781.33	1082.83
781.65	1082.36
781.98	1084.79
782.31	1085.35
782.63	1084.37
782.96	1086.43
783.28	1087.02
783.61	1083.95
783.93	1082.94
784.26	1082.92
784.58	1082.24
784.91	1080.32
785.23	1080.84
785.56	1084.84
785.88	1084.25
786.21	1085.73
786.53	1086.41
786.86	1085.10
787.18	1084.32
787.51	1085.17
787.83	1085.96
788.16	1085.77
788.48	1086.76
788.81	1083.11
789.13	1083.60
789.46	1079.85
789.78	1082.36
790.10	1085.21
790.43	1085.96
790.75	1090.41
791.08	1092.40
791.40	1089.52
791.73	1093.45
792.05	1093.59
792.37	1087.74
792.70	1089.78
793.02	1090.62
793.35	1085.14
793.67	1086.45
793.99	1085.52
794.32	1082.87
794.64	1080.72
794.96	1079.38
795.29	1079.57
795.61	1080.95
795.93	1081.28
796.26	1083.60
796.58	1084.44
796.91	1084.58
797.23	1084.98
797.55	1085.14
797.87	1087.23
798.20	1088.96
798.52	1087.90
798.84	1084.65
799.17	1085.91
799.49	1084.39
799.81	1081.61
800.14	1082.08
800.46	1088.93
800.78	1087.83
801.10	1087.02
801.43	1085.91
801.75	1085.99
802.07	1082.36
802.40	1083.67
802.72	1084.63
803.04	1088.37
803.36	1087.60
803.69	1088.00
804.01	1087.53
804.33	1087.81
804.65	1085.24
804.97	1088.26
805.30	1086.85
805.62	1086.34
805.94	1083.04
806.26	1083.20
806.58	1083.32
806.91	1084.56
807.23	1084.46
807.55	1083.69
807.87	1086.48
808.19	1083.79
808.52	1083.04
808.84	1080.13
809.16	1080.95
809.48	1077.04
809.80	1080.34
810.12	1080.95
810.44	1082.05
810.77	1084.53
811.09	1087.32
811.41	1084.16
811.73	1083.50
812.05	1084.18
812.37	1080.41
812.69	1077.84
813.01	1077.18
813.33	1078.19
813.66	1079.13
813.98	1083.74
814.30	1085.42
814.62	1085.66
814.94	1086.22
815.26	1089.10
815.58	1087.79
815.90	1088.75
816.22	1089.38
816.54	1085.33
816.86	1083.97
817.18	1082.69
817.50	1080.23
817.82	1078.57
818.14	1079.29
818.46	1079.85
818.78	1080.84
819.10	1082.43
819.42	1081.51
819.74	1083.43
820.06	1079.03
820.38	1079.34
820.70	1079.03
821.02	1080.32
821.34	1080.37
821.66	1081.16
821.98	1078.45
822.30	1081.00
822.62	1082.01
822.94	1083.79
823.26	1085.24
823.58	1091.27
823.90	1084.60
824.22	1082.31
824.54	1080.98
824.86	1084.86
825.18	1081.09
825.50	1082.38
825.81	1084.79
826.13	1083.64
826.45	1080.48
826.77	1081.23
827.09	1080.60
827.41	1080.51
827.73	1080.04
828.05	1078.12
828.36	1080.67
828.68	1081.56
829.00	1081.68
829.32	1080.93
829.64	1083.64
829.96	1085.10
830.28	1088.70
830.59	1089.75
830.91	1092.52
831.23	1091.27
831.55	1087.60
831.87	1085.47
832.19	1085.40
832.50	1083.32
832.82	1082.05
833.14	1081.58
833.46	1084.58
833.78	1081.82
834.09	1084.30
834.41	1088.56
834.73	1086.55
835.05	1083.95
835.36	1085.89
835.68	1084.46
836.00	1078.61
836.32	1081.66
836.63	1080.02
836.95	1080.95
837.27	1079.53
837.59	1084.86
837.90	1085.35
838.22	1086.15
838.54	1086.13
838.85	1089.10
839.17	1087.04
839.49	1084.11
839.80	1085.33
840.12	1085.38
840.44	1084.04
840.76	1083.62
841.07	1084.86
841.39	1085.47
841.71	1085.38
842.02	1085.77
842.34	1081.40
842.65	1078.05
842.97	1077.89
843.29	1075.17
843.60	1077.79
843.92	1081.66
844.24	1084.70
844.55	1085.14
844.87	1088.77
845.18	1086.13
845.50	1088.21
845.82	1086.52
846.13	1085.28
846.45	1086.03
846.76	1085.17
847.08	1082.31
847.40	1085.05
847.71	1083.22
848.03	1079.48
848.34	1077.40
848.66	1078.57
848.97	1078.12
849.29	1079.55
849.60	1078.33
849.92	1080.44
850.24	1079.55
850.55	1079.06
850.87	1080.32
851.18	1083.95
851.50	1084.60
851.81	1084.91
852.13	1085.33
852.44	1083.08
852.76	1080.93
853.07	1077.75
853.39	1077.65
853.70	1074.35
854.01	1078.52
854.33	1079.03
854.64	1082.69
854.96	1083.76
855.27	1086.20
855.59	1083.50
855.90	1084.84
856.22	1082.87
856.53	1084.07
856.84	1085.45
857.16	1085.35
857.47	1084.39
857.79	1086.64
858.10	1083.13
858.41	1083.22
858.73	1082.36
859.04	1080.84
859.36	1083.06
859.67	1086.13
859.98	1085.05
860.30	1086.87
860.61	1086.80
860.92	1081.51
861.24	1081.91
861.55	1082.05
861.87	1080.60
862.18	1085.14
862.49	1088.04
862.81	1088.82
863.12	1089.68
863.43	1088.12
863.74	1085.28
864.06	1082.90
864.37	1080.51
864.68	1079.17
865.00	1083.27
865.31	1084.18
865.62	1086.78
865.94	1089.50
866.25	1089.82
866.56	1086.92
866.87	1084.63
867.19	1084.09
867.50	1083.95
867.81	1080.67
868.12	1082.22
868.44	1087.27
868.75	1088.47
869.06	1086.45
869.37	1089.10
869.68	1088.37
870.00	1085.47
870.31	1080.74
870.62	1081.00
870.93	1080.93
871.24	1083.88
871.56	1083.62
871.87	1084.79
872.18	1085.70
872.49	1085.87
872.80	1083.29
873.12	1080.88
873.43	1081.47
873.74	1080.11
874.05	1079.53
874.36	1080.88
874.67	1082.29
874.98	1085.14
875.29	1083.71
875.61	1086.22
875.92	1082.71
876.23	1083.79
876.54	1084.63
876.85	1086.08
877.16	1082.40
877.47	1085.54
877.78	1086.38
878.09	1084.49
878.40	1083.46
878.72	1083.97
879.03	1082.24
879.34	1082.59
879.65	1083.81
879.96	1086.31
880.27	1085.66
880.58	1088.04
880.89	1089.22
881.20	1085.87
881.51	1081.94
881.82	1083.93
882.13	1082.36
882.44	1081.00
882.75	1083.18
883.06	1082.24
883.37	1084.07
883.68	1085.03
883.99	1084.37
884.30	1085.59
884.61	1086.06
884.92	1082.31
885.23	1082.71
885.54	1082.50
885.85	1083.27
886.16	1087.41
886.47	1091.49
886.78	1090.01
887.08	1091.98
887.39	1088.14
887.70	1083.34
888.01	1080.72
888.32	1078.64
888.63	1074.63
888.94	1077.11
889.25	1081.84
889.56	1084.00
889.87	1082.73
890.17	1083.79
890.48	1083.79
890.79	1080.58
891.10	1079.10
891.41	1083.57
891.72	1084.96
892.03	1084.07
892.34	1086.03
892.64	1084.53
892.95	1084.21
893.26	1085.05
893.57	1087.39
893.88	1086.41
894.18	1086.43
894.49	1086.45
894.80	1083.81
895.11	1083.43
895.42	1085.28
895.72	1086.52
896.03	1087.06
896.34	1087.88
896.65	1087.46
896.96	1086.03
897.26	1086.69
897.57	1089.24
897.88	1091.09
898.19	1089.17
898.49	1086.94
898.80	1086.85
899.11	1081.58
899.41	1081.44
899.72	1082.71
900.03	1083.15
900.34	1084.35
900.64	1088.79
900.95	1088.82
901.26	1088.51
901.56	1093.03
901.87	1089.75
902.18	1085.38
902.48	1084.86
902.79	1083.57
903.10	1082.50
903.40	1086.64
903.71	1087.30
904.02	1085.63
904.32	1085.07
904.63	1082.24
904.94	1079.46
905.24	1078.61
905.55	1078.57
905.85	1080.25
906.16	1082.15
906.47	1081.21
906.77	1082.45
907.08	1078.94
907.38	1076.13
907.69	1075.24
908.00	1072.11
908.30	1071.26
908.61	1072.48
908.91	1074.28
909.22	1074.98
909.52	1079.62
909.83	1083.76
910.14	1085.75
910.44	1085.47
910.75	1085.68
911.05	1084.72
911.36	1082.33
911.66	1084.86
911.97	1084.58
912.27	1082.22
912.58	1082.10
912.88	1080.23
913.19	1079.17
913.49	1080.93
913.80	1080.27
914.10	1079.10
914.41	1082.61
914.71	1080.23
915.01	1078.87
915.32	1082.54
915.62	1084.60
915.93	1082.52
916.23	1085.84
916.54	1086.08
916.84	1085.68
917.15	1082.71
917.45	1084.96
917.75	1080.84
918.06	1081.16
918.36	1082.33
918.67	1082.71
918.97	1082.22
919.27	1082.45
919.58	1084.28
919.88	1081.66
920.18	1083.50
920.49	1081.96
920.79	1084.79
921.10	1079.90
921.40	1080.81
921.70	1080.84
922.01	1077.89
922.31	1076.48
922.61	1079.90
922.92	1079.69
923.22	1078.96
923.52	1080.30
923.82	1080.91
924.13	1080.72
924.43	1078.50
924.73	1081.02
925.04	1083.15
925.34	1082.94
925.64	1082.80
925.94	1088.58
926.25	1088.30
926.55	1087.09
926.85	1087.39
927.15	1085.61
927.46	1083.32
927.76	1081.63
928.06	1083.81
928.36	1084.35
928.67	1083.93
928.97	1080.41
929.27	1079.83
929.57	1076.93
929.87	1074.80
930.18	1078.21
930.48	1080.09
930.78	1080.67
931.08	1080.11
931.38	1078.24
931.69	1077.54
931.99	1073.70
932.29	1073.42
932.59	1073.49
932.89	1076.86
933.19	1075.90
933.49	1079.13
933.80	1082.10
934.10	1082.94
934.40	1080.63
934.70	1082.36
935.00	1085.77
935.30	1084.60
935.60	1083.95
935.90	1082.43
936.20	1082.50
936.50	1077.93
936.81	1077.00
937.11	1077.25
937.41	1079.01
937.71	1074.49
938.01	1076.25
938.31	1078.47
938.61	1083.22
938.91	1083.43
939.21	1086.03
939.51	1087.95
939.81	1086.50
940.11	1082.03
940.41	1082.10
940.71	1082.05
941.01	1081.35
941.31	1081.47
941.61	1087.04
941.91	1089.57
942.21	1091.09
942.51	1089.59
942.81	1091.30
943.11	1085.73
943.41	1083.39
943.71	1084.72
944.01	1086.85
944.31	1085.89
944.61	1084.23
944.90	1088.12
945.20	1085.12
945.50	1083.81
945.80	1083.39
946.10	1086.36
946.40	1085.21
946.70	1083.86
947.00	1085.42
947.30	1087.09
947.60	1088.14
947.89	1089.19
948.19	1092.54
948.49	1094.25
948.79	1092.16
949.09	1091.77
949.39	1089.33
949.69	1089.10
949.98	1083.76
950.28	1084.28
950.58	1082.08
950.88	1079.97
951.18	1080.74
951.48	1082.94
951.77	1080.58
952.07	1080.77
952.37	1080.39
952.67	1080.23
952.97	1080.27
953.26	1083.79
953.56	1083.60
953.86	1083.95
954.16	1084.18
954.45	1082.22
954.75	1081.07
955.05	1081.21
955.35	1086.78
955.64	1084.00
955.94	1084.79
956.24	1079.67
956.54	1080.81
956.83	1079.06
957.13	1078.99
957.43	1080.06
957.72	1084.67
958.02	1084.51
958.32	1084.09
958.61	1081.16
958.91	1081.56
959.21	1079.38
959.50	1077.44
959.80	1081.63
960.10	1085.26
960.39	1086.20
960.69	1088.49
960.99	1089.92
961.28	1082.78
961.58	1082.80
961.87	1080.72
962.17	1080.20
962.47	1077.42
962.76	1076.25
963.06	1075.55
963.36	1073.81
963.65	1073.84
963.95	1076.76
964.24	1084.35
964.54	1083.86
964.83	1084.60
965.13	1086.27
965.42	1088.68
965.72	1082.59
966.02	1086.43
966.31	1086.66
966.61	1082.94
966.90	1082.19
967.20	1081.07
967.49	1078.31
967.79	1080.32
968.08	1083.25
968.38	1079.78
968.67	1082.43
968.97	1082.38
969.26	1080.74
969.56	1079.41
969.85	1080.13
970.15	1077.02
970.44	1080.23
970.74	1082.31
971.03	1082.01
971.32	1085.63
971.62	1087.34
971.91	1083.39
972.21	1084.14
972.50	1083.41
972.80	1081.07
973.09	1080.23
973.38	1081.37
973.68	1079.81
973.97	1079.92
974.27	1081.33
974.56	1082.87
974.85	1082.61
975.15	1078.59
975.44	1079.48
975.73	1078.96
976.03	1078.73
976.32	1079.81
976.61	1082.05
976.91	1081.77
977.20	1079.88
977.49	1078.38
977.79	1079.24
978.08	1078.00
978.37	1077.33
978.67	1078.19
978.96	1078.26
979.25	1076.11
979.55	1075.43
979.84	1077.02
980.13	1079.31
980.42	1081.77
980.72	1082.38
981.01	1086.29
981.30	1089.31
981.59	1086.43
981.89	1086.85
982.18	1088.63
982.47	1088.37
982.76	1083.79
983.06	1083.39
983.35	1081.00
983.64	1078.87
983.93	1077.65
984.22	1077.16
984.52	1077.21
984.81	1078.50
985.10	1074.52
985.39	1075.76
985.68	1077.33
985.97	1079.74
986.27	1078.50
986.56	1079.38
986.85	1082.29
987.14	1083.22
987.43	1079.90
987.72	1082.05
988.01	1085.99
988.31	1083.36
988.60	1082.19
988.89	1080.91
989.18	1080.67
989.47	1078.40
989.76	1077.04
990.05	1073.53
990.34	1073.28
990.63	1072.20
990.92	1072.15
991.21	1073.88
991.51	1078.28
991.80	1079.27
992.09	1080.11
992.38	1083.13
992.67	1083.15
992.96	1084.28
993.25	1084.02
993.54	1081.87
993.83	1079.88
994.12	1077.07
994.41	1074.21
994.70	1074.19
994.99	1072.97
995.28	1072.76
995.57	1072.95
995.86	1073.79
996.15	1075.03
996.44	1077.21
996.73	1080.27
997.02	1080.98
997.31	1080.70
997.59	1082.61
997.88	1082.01
998.17	1079.48
998.46	1080.91
998.75	1083.86
999.04	1080.16
999.33	1082.50
999.62	1080.88
999.91	1079.31
1000.20	1075.76
1000.49	1078.80
1000.77	1079.08
1001.06	1079.36
1001.35	1081.51
1001.64	1083.86
1001.93	1080.56
1002.22	1081.63
1002.51	1083.93
1002.79	1084.79
1003.08	1084.93
1003.37	1087.25
1003.66	1083.71
1003.95	1082.94
1004.23	1077.89
1004.52	1076.39
1004.81	1076.76
1005.10	1079.46
1005.39	1078.50
1005.67	1083.81
1005.96	1085.17
1006.25	1084.49
1006.54	1084.35
1006.83	1085.75
1007.11	1081.30
1007.40	1079.08
1007.69	1080.13
1007.97	1077.07
1008.26	1078.80
1008.55	1083.11
1008.84	1081.47
1009.12	1082.43
1009.41	1084.07
1009.70	1078.57
1009.98	1076.20
1010.27	1078.75
1010.56	1077.37
1010.85	1076.41
1011.13	1078.85
1011.42	1078.59
1011.71	1075.24
1011.99	1074.21
1012.28	1077.93
1012.56	1079.34
1012.85	1076.18
1013.14	1076.69
1013.42	1078.12
1013.71	1075.73
1014.00	1074.07
1014.28	1078.24
1014.57	1080.79
1014.85	1082.47
1015.14	1083.95
1015.43	1083.55
1015.71	1083.62
1016.00	1084.32
1016.28	1083.71
1016.57	1080.88
1016.85	1085.35
1017.14	1083.62
1017.43	1083.57
1017.71	1084.49
1018.00	1085.99
1018.28	1079.85
1018.57	1082.10
1018.85	1081.44
1019.14	1079.99
1019.42	1080.95
1019.71	1083.79
1019.99	1083.43
1020.28	1084.14
1020.56	1086.83
1020.85	1084.65
1021.13	1088.07
1021.42	1090.06
1021.70	1090.24
1021.99	1086.41
1022.27	1084.89
1022.55	1077.11
1022.84	1068.34
>>>>>End Processed Spectral Data<<<<<
