SpectraSuite Data File
++++++++++++++++++++++++++++++++++++
Date: Mon Aug 26 10:26:55 PDT 2019
User: corrico
Dark Spectrum Present: No
Reference Spectrum Present: No
Number of Sampled Component Spectra: 1
Spectrometers: USB2+H06089
Integration Time (usec): 10000 (USB2+H06089)
Spectra Averaged: 20 (USB2+H06089)
Boxcar Smoothing: 2 (USB2+H06089)
Correct for Electrical Dark: No (USB2+H06089)
Strobe/Lamp Enabled: No (USB2+H06089)
Correct for Detector Non-linearity: No (USB2+H06089)
Correct for Stray Light: No (USB2+H06089)
Number of Pixels in Processed Spectrum: 2048
>>>>>Begin Processed Spectral Data<<<<<
339.70	1031.01
340.07	1031.01
340.45	999.08
340.82	974.93
341.19	952.53
341.57	928.16
341.94	916.74
342.31	904.41
342.69	904.01
343.06	900.36
343.43	900.33
343.81	901.95
344.18	907.43
344.55	909.09
344.93	914.42
345.30	918.40
345.67	926.22
346.04	932.56
346.42	941.11
346.79	950.61
347.16	957.58
347.54	967.74
347.91	976.03
348.28	985.88
348.65	991.68
349.03	1005.00
349.40	1013.31
349.77	1022.95
350.14	1030.23
350.52	1039.01
350.89	1045.28
351.26	1051.91
351.63	1058.72
352.01	1061.57
352.38	1067.64
352.75	1070.63
353.12	1071.26
353.50	1073.14
353.87	1076.44
354.24	1076.93
354.61	1080.77
354.98	1081.26
355.36	1082.43
355.73	1084.30
356.10	1087.27
356.47	1086.64
356.84	1089.29
357.22	1089.75
357.59	1089.47
357.96	1084.89
358.33	1079.34
358.70	1080.18
359.08	1080.37
359.45	1078.87
359.82	1083.32
360.19	1087.69
360.56	1089.50
360.94	1090.34
361.31	1093.03
361.68	1089.05
362.05	1086.08
362.42	1080.67
362.79	1078.38
363.16	1077.68
363.54	1077.14
363.91	1077.75
364.28	1079.88
364.65	1080.32
365.02	1077.56
365.39	1078.40
365.76	1080.74
366.14	1077.77
366.51	1076.20
366.88	1076.60
367.25	1079.15
367.62	1080.09
367.99	1076.06
368.36	1077.40
368.73	1078.68
369.10	1077.18
369.48	1072.48
369.85	1080.02
370.22	1079.53
370.59	1078.00
370.96	1077.61
371.33	1081.35
371.70	1078.17
372.07	1075.94
372.44	1077.89
372.81	1076.76
373.18	1073.14
373.55	1073.25
373.93	1073.93
374.30	1072.34
374.67	1075.80
375.04	1076.60
375.41	1078.54
375.78	1080.20
376.15	1083.81
376.52	1082.47
376.89	1081.89
377.26	1080.81
377.63	1080.70
378.00	1077.77
378.37	1078.64
378.74	1084.39
379.11	1083.93
379.48	1087.67
379.85	1088.33
380.22	1088.65
380.59	1085.33
380.96	1084.44
381.33	1084.16
381.70	1078.66
382.07	1076.81
382.44	1077.75
382.81	1078.19
383.18	1075.27
383.55	1081.44
383.92	1079.81
384.29	1079.88
384.66	1082.76
385.03	1086.66
385.40	1088.91
385.77	1090.78
386.14	1088.61
386.51	1087.88
386.88	1085.47
387.25	1083.74
387.62	1085.63
387.99	1088.86
388.36	1087.23
388.73	1087.37
389.10	1087.41
389.46	1086.73
389.83	1088.79
390.20	1094.65
390.57	1096.61
390.94	1095.07
391.31	1094.43
391.68	1091.04
392.05	1087.09
392.42	1083.13
392.79	1084.02
393.16	1088.26
393.53	1086.10
393.89	1086.27
394.26	1089.07
394.63	1089.40
395.00	1087.97
395.37	1089.89
395.74	1092.40
396.11	1090.60
396.48	1090.99
396.84	1086.78
397.21	1087.18
397.58	1086.20
397.95	1086.20
398.32	1086.27
398.69	1087.20
399.06	1087.83
399.42	1086.99
399.79	1085.70
400.16	1085.26
400.53	1084.49
400.90	1085.70
401.27	1085.70
401.64	1086.17
402.00	1085.96
402.37	1088.58
402.74	1087.83
403.11	1091.09
403.48	1093.36
403.84	1095.98
404.21	1095.82
404.58	1098.98
404.95	1096.31
405.32	1096.56
405.68	1093.76
406.05	1093.43
406.42	1089.12
406.79	1088.30
407.16	1086.52
407.52	1089.52
407.89	1090.90
408.26	1091.84
408.63	1092.84
408.99	1095.32
409.36	1094.55
409.73	1092.47
410.10	1092.70
410.47	1093.71
410.83	1092.68
411.20	1093.12
411.57	1096.26
411.94	1095.39
412.30	1097.48
412.67	1099.14
413.04	1099.68
413.40	1100.66
413.77	1101.43
414.14	1098.32
414.51	1096.14
414.87	1095.30
415.24	1093.83
415.61	1096.96
415.97	1097.38
416.34	1102.51
416.71	1102.13
417.08	1101.34
417.44	1098.32
417.81	1098.67
418.18	1095.14
418.54	1094.69
418.91	1096.56
419.28	1097.80
419.64	1101.97
420.01	1104.64
420.38	1106.37
420.74	1104.52
421.11	1105.25
421.48	1102.93
421.84	1102.56
422.21	1102.23
422.58	1108.41
422.94	1107.33
423.31	1107.96
423.68	1108.71
424.04	1108.97
424.41	1103.07
424.77	1105.27
425.14	1104.69
425.51	1102.04
425.87	1100.85
426.24	1105.27
426.61	1104.36
426.97	1109.09
427.34	1114.89
427.70	1119.88
428.07	1117.70
428.44	1118.89
428.80	1113.51
429.17	1107.35
429.53	1104.48
429.90	1105.39
430.27	1105.55
430.63	1107.12
431.00	1109.98
431.36	1110.00
431.73	1107.96
432.09	1108.99
432.46	1109.48
432.83	1107.87
433.19	1109.27
433.56	1110.44
433.92	1104.90
434.29	1102.11
434.65	1104.99
435.02	1103.19
435.38	1100.08
435.75	1103.61
436.11	1107.52
436.48	1105.01
436.84	1103.77
437.21	1105.15
437.57	1105.93
437.94	1102.16
438.30	1102.30
438.67	1104.66
439.03	1106.91
439.40	1105.48
439.76	1106.98
440.13	1105.20
440.49	1105.13
440.86	1104.62
441.22	1105.69
441.59	1105.15
441.95	1108.85
442.32	1108.64
442.68	1109.46
443.05	1111.26
443.41	1110.33
443.78	1105.44
444.14	1105.13
444.51	1102.72
444.87	1100.89
445.24	1102.11
445.60	1107.07
445.96	1105.88
446.33	1105.69
446.69	1105.62
447.06	1104.38
447.42	1100.64
447.79	1101.62
448.15	1103.80
448.51	1100.92
448.88	1103.33
449.24	1106.00
449.61	1106.75
449.97	1105.83
450.33	1107.87
450.70	1108.38
451.06	1107.64
451.43	1106.79
451.79	1107.03
452.15	1109.62
452.52	1105.55
452.88	1106.44
453.24	1106.28
453.61	1105.53
453.97	1102.46
454.34	1103.77
454.70	1098.32
455.06	1100.82
455.43	1104.52
455.79	1105.04
456.15	1107.40
456.52	1114.47
456.88	1114.00
457.24	1106.72
457.61	1107.66
457.97	1110.47
458.33	1106.21
458.70	1105.72
459.06	1109.86
459.42	1110.63
459.79	1105.25
460.15	1106.51
460.51	1103.94
460.88	1106.28
461.24	1106.00
461.60	1107.38
461.96	1108.01
462.33	1108.03
462.69	1104.12
463.05	1105.15
463.42	1107.80
463.78	1108.90
464.14	1110.40
464.50	1115.24
464.87	1115.50
465.23	1116.62
465.59	1118.28
465.95	1120.23
466.32	1121.61
466.68	1122.38
467.04	1119.29
467.40	1121.47
467.77	1121.73
468.13	1122.85
468.49	1122.90
468.85	1126.97
469.22	1123.53
469.58	1126.71
469.94	1124.60
470.30	1126.87
470.66	1128.65
471.03	1132.26
471.39	1133.12
471.75	1135.21
472.11	1136.66
472.47	1135.67
472.84	1136.31
473.20	1138.39
473.56	1145.60
473.92	1148.57
474.28	1152.55
474.65	1156.39
475.01	1158.45
475.37	1155.73
475.73	1158.19
476.09	1161.68
476.45	1165.42
476.81	1169.64
477.18	1173.87
477.54	1179.23
477.90	1185.46
478.26	1193.58
478.62	1196.53
478.98	1204.18
479.34	1210.78
479.71	1217.64
480.07	1223.61
480.43	1235.33
480.79	1241.70
481.15	1251.13
481.51	1258.27
481.87	1263.77
482.23	1273.20
482.59	1282.87
482.96	1290.34
483.32	1302.51
483.68	1318.14
484.04	1329.56
484.40	1346.02
484.76	1362.59
485.12	1378.15
485.48	1391.10
485.84	1408.16
486.20	1425.11
486.56	1439.94
486.92	1458.29
487.28	1479.08
487.64	1501.06
488.00	1524.51
488.37	1551.80
488.73	1578.57
489.09	1608.35
489.45	1638.26
489.81	1667.68
490.17	1700.09
490.53	1732.96
490.89	1769.59
491.25	1804.67
491.61	1841.51
491.97	1881.02
492.33	1922.89
492.69	1965.16
493.05	2014.17
493.41	2064.66
493.77	2119.12
494.13	2176.75
494.49	2232.29
494.85	2293.70
495.21	2356.26
495.57	2422.27
495.93	2487.10
496.29	2558.53
496.64	2632.82
497.00	2714.16
497.36	2796.36
497.72	2883.61
498.08	2972.41
498.44	3064.21
498.80	3164.31
499.16	3271.06
499.52	3383.60
499.88	3516.21
500.24	3652.73
500.60	3789.26
500.96	3928.96
501.32	4079.18
501.68	4220.69
502.03	4375.33
502.39	4535.44
502.75	4707.89
503.11	4894.48
503.47	5088.11
503.83	5291.86
504.19	5514.56
504.55	5738.95
504.91	5969.77
505.26	6210.10
505.62	6448.48
505.98	6710.32
506.34	7005.06
506.70	7306.75
507.06	7608.71
507.42	7951.55
507.78	8290.11
508.13	8626.07
508.49	8981.03
508.85	9383.23
509.21	9780.14
509.57	10206.96
509.93	10662.15
510.28	11127.47
510.64	11619.85
511.00	12133.27
511.36	12639.17
511.72	13139.60
512.07	13714.13
512.43	14238.18
512.79	14782.19
513.15	15384.83
513.51	16045.66
513.86	16690.17
514.22	17374.08
514.58	18077.60
514.94	18786.90
515.30	19462.98
515.65	20119.92
516.01	20865.15
516.37	21639.73
516.73	22352.12
517.08	23109.35
517.44	23855.68
517.80	24538.29
518.16	25221.94
518.51	25933.11
518.87	26605.81
519.23	27385.53
519.59	28106.84
519.94	28725.21
520.30	29356.96
520.66	29924.52
521.01	30437.85
521.37	31017.83
521.73	31599.03
522.09	32189.41
522.44	32727.76
522.80	33106.25
523.16	33440.29
523.51	33686.65
523.87	33980.86
524.23	34291.80
524.58	34631.64
524.94	34918.92
525.30	35244.54
525.65	35417.83
526.01	35511.05
526.37	35496.31
526.72	35485.96
527.08	35366.99
527.44	35164.68
527.79	34928.07
528.15	34836.91
528.51	34686.83
528.86	34568.43
529.22	34387.64
529.58	34196.28
529.93	33860.88
530.29	33406.98
530.65	32896.77
531.00	32471.47
531.36	32003.69
531.71	31514.52
532.07	31116.18
532.43	30717.38
532.78	30210.44
533.14	29807.92
533.49	29447.19
533.85	28976.25
534.21	28459.56
534.56	28016.87
534.92	27489.47
535.27	26909.70
535.63	26367.52
535.98	25862.76
536.34	25359.59
536.69	24863.60
537.05	24409.47
537.41	23956.65
537.76	23535.16
538.12	23099.96
538.47	22660.62
538.83	22203.66
539.18	21826.78
539.54	21404.57
539.89	20966.78
540.25	20539.30
540.60	20153.96
540.96	19699.33
541.31	19313.66
541.67	18969.95
542.02	18649.32
542.38	18302.29
542.73	17938.33
543.09	17560.20
543.44	17193.29
543.80	16900.03
544.15	16595.64
544.51	16352.97
544.86	16110.28
545.22	15821.88
545.57	15495.61
545.93	15143.22
546.28	14840.54
546.64	14542.15
546.99	14269.73
547.35	13970.07
547.70	13730.96
548.05	13489.19
548.41	13273.93
548.76	13044.74
549.12	12848.23
549.47	12617.69
549.83	12369.15
550.18	12112.44
550.53	11834.80
550.89	11575.70
551.24	11319.70
551.60	11059.90
551.95	10808.22
552.30	10586.48
552.66	10380.72
553.01	10186.08
553.37	9989.50
553.72	9794.11
554.07	9600.67
554.43	9377.17
554.78	9168.21
555.13	8954.77
555.49	8744.62
555.84	8546.79
556.19	8358.43
556.55	8173.31
556.90	7987.15
557.26	7799.91
557.61	7616.36
557.96	7427.27
558.32	7258.82
558.67	7094.23
559.02	6930.47
559.37	6790.83
559.73	6667.69
560.08	6528.11
560.43	6395.49
560.79	6277.97
561.14	6142.64
561.49	6004.22
561.85	5879.12
562.20	5759.45
562.55	5644.65
562.90	5542.74
563.26	5433.39
563.61	5323.69
563.96	5217.73
564.32	5116.86
564.67	5006.20
565.02	4904.87
565.37	4813.78
565.73	4719.08
566.08	4634.66
566.43	4554.05
566.78	4475.85
567.14	4393.77
567.49	4311.81
567.84	4223.85
568.19	4144.08
568.54	4066.70
568.90	3991.55
569.25	3920.63
569.60	3847.75
569.95	3772.94
570.31	3703.83
570.66	3634.55
571.01	3562.18
571.36	3503.78
571.71	3451.61
572.06	3392.77
572.42	3336.22
572.77	3284.97
573.12	3226.03
573.47	3164.78
573.82	3107.69
574.18	3056.11
574.53	3005.53
574.88	2962.86
575.23	2921.76
575.58	2886.56
575.93	2850.00
576.28	2818.52
576.64	2769.13
576.99	2722.49
577.34	2673.10
577.69	2620.23
578.04	2568.71
578.39	2528.81
578.74	2493.30
579.09	2463.74
579.44	2431.42
579.80	2399.45
580.15	2369.35
580.50	2337.77
580.85	2300.58
581.20	2273.81
581.55	2246.40
581.90	2209.18
582.25	2171.69
582.60	2140.02
582.95	2104.63
583.30	2069.81
583.65	2048.13
584.00	2024.54
584.35	1994.28
584.71	1966.31
585.06	1944.70
585.41	1915.21
585.76	1892.25
586.11	1873.46
586.46	1855.34
586.81	1830.06
587.16	1814.27
587.51	1797.06
587.86	1783.96
588.21	1766.89
588.56	1751.68
588.91	1736.26
589.26	1719.94
589.61	1698.92
589.96	1683.59
590.31	1670.44
590.66	1652.89
591.01	1638.45
591.36	1626.98
591.71	1612.02
592.06	1596.15
592.41	1589.27
592.76	1578.22
593.10	1564.84
593.45	1552.17
593.80	1541.64
594.15	1525.30
594.50	1514.72
594.85	1500.00
595.20	1491.74
595.55	1484.51
595.90	1477.70
596.25	1469.67
596.60	1469.32
596.95	1461.43
597.30	1449.10
597.64	1486.38
597.99	1479.80
598.34	1468.22
598.69	1458.88
599.04	1452.40
599.39	1395.66
599.74	1384.31
600.09	1377.29
600.44	1372.79
600.78	1369.45
601.13	1363.95
601.48	1358.31
601.83	1350.79
602.18	1345.13
602.53	1336.00
602.88	1333.82
603.22	1329.14
603.57	1324.04
603.92	1313.32
604.27	1312.53
604.62	1303.84
604.97	1297.38
605.31	1291.65
605.66	1289.92
606.01	1278.96
606.36	1272.10
606.71	1267.61
607.05	1262.77
607.40	1262.70
607.75	1261.95
608.10	1260.38
608.44	1257.24
608.79	1255.91
609.14	1249.78
609.49	1249.03
609.84	1247.15
610.18	1244.02
610.53	1241.72
610.88	1238.03
611.23	1234.30
611.57	1233.39
611.92	1228.55
612.27	1224.78
612.62	1219.77
612.96	1214.13
613.31	1210.20
613.66	1205.82
614.00	1203.62
614.35	1204.11
614.70	1201.00
615.05	1193.93
615.39	1195.41
615.74	1195.80
616.09	1191.36
616.43	1191.43
616.78	1190.58
617.13	1186.09
617.47	1177.15
617.82	1174.90
618.17	1172.68
618.51	1170.27
618.86	1167.11
619.21	1167.20
619.55	1167.41
619.90	1162.17
620.25	1159.85
620.59	1155.97
620.94	1152.90
621.29	1147.78
621.63	1147.68
621.98	1146.28
622.32	1147.12
622.67	1147.56
623.02	1146.89
623.36	1147.47
623.71	1146.61
624.05	1146.18
624.40	1146.04
624.75	1145.93
625.09	1143.91
625.44	1142.91
625.78	1138.20
626.13	1134.34
626.48	1136.21
626.82	1131.84
627.17	1130.81
627.51	1132.07
627.86	1134.83
628.20	1129.36
628.55	1128.96
628.89	1127.46
629.24	1128.00
629.58	1122.75
629.93	1126.15
630.28	1125.31
630.62	1124.07
630.97	1119.85
631.31	1118.66
631.66	1112.43
632.00	1111.52
632.35	1111.61
632.69	1114.40
633.04	1115.59
633.38	1117.65
633.73	1122.94
634.07	1124.60
634.42	1124.72
634.76	1124.51
635.11	1122.54
635.45	1120.70
635.79	1119.48
636.14	1118.64
636.48	1118.94
636.83	1118.92
637.17	1113.49
637.52	1113.28
637.86	1111.82
638.21	1107.52
638.55	1106.68
638.89	1106.79
639.24	1106.32
639.58	1106.82
639.93	1109.98
640.27	1111.47
640.61	1111.78
640.96	1109.60
641.30	1106.68
641.65	1103.89
641.99	1099.75
642.33	1101.22
642.68	1100.52
643.02	1100.26
643.37	1102.60
643.71	1101.13
644.05	1097.06
644.40	1096.89
644.74	1097.08
645.08	1093.45
645.43	1096.10
645.77	1098.02
646.11	1098.69
646.46	1093.64
646.80	1096.14
647.14	1097.62
647.49	1094.20
647.83	1093.12
648.17	1100.03
648.52	1099.19
648.86	1096.75
649.20	1101.64
649.55	1100.54
649.89	1100.33
650.23	1096.80
650.57	1096.78
650.92	1093.05
651.26	1095.18
651.60	1092.61
651.95	1097.38
652.29	1096.96
652.63	1095.32
652.97	1094.76
653.32	1093.22
653.66	1092.91
654.00	1099.89
654.34	1099.58
654.69	1098.32
655.03	1095.32
655.37	1093.24
655.71	1086.10
656.05	1089.19
656.40	1092.05
656.74	1098.53
657.08	1100.64
657.42	1101.81
657.76	1100.05
658.11	1095.30
658.45	1096.21
658.79	1093.87
659.13	1092.73
659.47	1094.95
659.82	1096.92
660.16	1090.36
660.50	1087.20
660.84	1088.12
661.18	1087.44
661.52	1085.66
661.87	1092.49
662.21	1096.17
662.55	1095.09
662.89	1095.72
663.23	1095.96
663.57	1090.46
663.91	1088.70
664.25	1088.12
664.60	1090.67
664.94	1092.05
665.28	1093.15
665.62	1094.93
665.96	1097.73
666.30	1095.18
666.64	1094.32
666.98	1095.67
667.32	1096.59
667.66	1094.06
668.01	1092.94
668.35	1092.70
668.69	1092.16
669.03	1091.18
669.37	1092.77
669.71	1092.70
670.05	1092.42
670.39	1093.50
670.73	1091.11
671.07	1092.07
671.41	1091.44
671.75	1091.37
672.09	1092.56
672.43	1090.39
672.77	1089.19
673.11	1085.40
673.45	1085.89
673.79	1083.20
674.13	1088.07
674.47	1085.33
674.81	1090.57
675.15	1089.73
675.49	1089.19
675.83	1083.86
676.17	1080.95
676.51	1082.33
676.85	1083.27
677.19	1084.21
677.53	1086.76
677.87	1089.33
678.21	1088.44
678.55	1087.60
678.89	1087.16
679.23	1085.26
679.57	1087.67
679.90	1086.24
680.24	1086.34
680.58	1085.47
680.92	1090.57
681.26	1088.09
681.60	1087.58
681.94	1086.90
682.28	1084.91
682.62	1083.50
682.96	1087.72
683.29	1085.94
683.63	1085.91
683.97	1088.63
684.31	1086.92
684.65	1083.93
684.99	1084.28
685.33	1085.38
685.67	1086.69
686.00	1087.16
686.34	1088.70
686.68	1088.58
687.02	1089.26
687.36	1087.23
687.70	1087.25
688.03	1084.04
688.37	1085.70
688.71	1085.28
689.05	1086.38
689.39	1087.67
689.72	1091.53
690.06	1087.09
690.40	1085.61
690.74	1084.81
691.08	1082.90
691.41	1081.89
691.75	1087.30
692.09	1088.96
692.43	1088.91
692.76	1088.68
693.10	1086.36
693.44	1087.27
693.78	1088.68
694.11	1089.19
694.45	1088.30
694.79	1088.42
695.13	1087.04
695.46	1085.75
695.80	1083.83
696.14	1085.38
696.48	1089.12
696.81	1087.67
697.15	1085.05
697.49	1084.63
697.82	1085.63
698.16	1081.66
698.50	1081.68
698.83	1082.99
699.17	1084.16
699.51	1082.08
699.84	1084.51
700.18	1084.18
700.52	1081.16
700.85	1081.91
701.19	1083.43
701.53	1084.86
701.86	1086.13
702.20	1089.19
702.54	1089.87
702.87	1089.38
703.21	1089.75
703.55	1086.24
703.88	1092.21
704.22	1092.19
704.55	1095.39
704.89	1092.96
705.23	1095.35
705.56	1090.85
705.90	1090.78
706.23	1087.25
706.57	1087.23
706.91	1087.62
707.24	1084.79
707.58	1085.47
707.91	1088.65
708.25	1089.47
708.58	1090.64
708.92	1092.09
709.26	1092.14
709.59	1091.02
709.93	1088.33
710.26	1087.44
710.60	1086.83
710.93	1084.25
711.27	1080.06
711.60	1082.50
711.94	1083.20
712.27	1084.39
712.61	1088.33
712.94	1092.02
713.28	1091.32
713.61	1092.61
713.95	1094.83
714.28	1095.72
714.62	1097.59
714.95	1098.02
715.29	1094.55
715.62	1090.55
715.96	1084.67
716.29	1081.07
716.63	1081.28
716.96	1081.89
717.29	1085.05
717.63	1086.15
717.96	1089.24
718.30	1087.16
718.63	1086.73
718.97	1086.29
719.30	1087.37
719.63	1081.84
719.97	1083.27
720.30	1085.75
720.64	1083.67
720.97	1080.53
721.30	1084.30
721.64	1082.12
721.97	1080.16
722.31	1081.02
722.64	1083.11
722.97	1079.95
723.31	1080.09
723.64	1079.60
723.97	1076.81
724.31	1074.33
724.64	1074.77
724.98	1075.34
725.31	1078.78
725.64	1082.66
725.98	1083.95
726.31	1086.78
726.64	1088.98
726.97	1087.86
727.31	1086.78
727.64	1088.44
727.97	1086.57
728.31	1086.50
728.64	1083.71
728.97	1080.70
729.31	1079.13
729.64	1083.34
729.97	1078.07
730.30	1076.55
730.64	1082.22
730.97	1084.32
731.30	1083.18
731.63	1089.05
731.97	1092.87
732.30	1092.02
732.63	1092.49
732.96	1089.17
733.30	1090.39
733.63	1090.08
733.96	1086.83
734.29	1084.98
734.63	1087.79
734.96	1083.04
735.29	1080.70
735.62	1081.73
735.95	1083.55
736.29	1082.31
736.62	1083.39
736.95	1085.14
737.28	1085.47
737.61	1087.48
737.94	1086.71
738.28	1088.00
738.61	1086.15
738.94	1088.65
739.27	1084.30
739.60	1085.42
739.93	1089.12
740.27	1086.90
740.60	1082.71
740.93	1085.61
741.26	1084.35
741.59	1081.00
741.92	1084.81
742.25	1085.94
742.58	1085.70
742.91	1086.48
743.25	1086.36
743.58	1085.94
743.91	1087.34
744.24	1086.62
744.57	1085.19
744.90	1085.59
745.23	1085.07
745.56	1083.60
745.89	1082.38
746.22	1081.23
746.55	1081.35
746.88	1084.70
747.21	1082.61
747.54	1082.45
747.87	1084.09
748.20	1082.05
748.53	1079.41
748.87	1081.63
749.20	1081.16
749.53	1083.67
749.86	1083.93
750.19	1083.86
750.52	1083.53
750.85	1084.67
751.18	1081.77
751.51	1080.32
751.84	1080.88
752.16	1081.98
752.49	1082.71
752.82	1086.22
753.15	1087.60
753.48	1086.90
753.81	1085.45
754.14	1085.38
754.47	1081.47
754.80	1084.63
755.13	1085.63
755.46	1088.51
755.79	1089.73
756.12	1091.63
756.45	1090.20
756.78	1088.16
757.11	1086.31
757.43	1085.52
757.76	1084.16
758.09	1080.93
758.42	1084.39
758.75	1085.24
759.08	1084.49
759.41	1084.32
759.74	1083.32
760.07	1081.84
760.39	1081.63
760.72	1081.02
761.05	1081.07
761.38	1083.39
761.71	1084.93
762.04	1081.00
762.36	1078.96
762.69	1080.48
763.02	1076.65
763.35	1075.29
763.68	1079.10
764.01	1080.51
764.33	1079.29
764.66	1081.58
764.99	1078.68
765.32	1078.03
765.65	1080.30
765.97	1084.42
766.30	1087.76
766.63	1091.81
766.96	1090.74
767.28	1090.39
767.61	1086.87
767.94	1088.14
768.27	1088.98
768.59	1089.52
768.92	1089.96
769.25	1091.65
769.58	1089.92
769.90	1084.25
770.23	1081.42
770.56	1085.45
770.89	1084.18
771.21	1084.53
771.54	1086.78
771.87	1092.33
772.19	1086.71
772.52	1085.10
772.85	1083.11
773.17	1084.11
773.50	1080.93
773.83	1083.39
774.15	1080.34
774.48	1081.40
774.81	1083.64
775.13	1084.51
775.46	1082.15
775.79	1086.97
776.11	1083.79
776.44	1082.38
776.77	1083.53
777.09	1082.26
777.42	1078.52
777.74	1081.07
778.07	1081.28
778.40	1080.48
778.72	1081.61
779.05	1084.02
779.37	1083.86
779.70	1084.63
780.03	1080.63
780.35	1082.83
780.68	1082.38
781.00	1088.00
781.33	1086.85
781.65	1092.56
781.98	1090.64
782.31	1091.44
782.63	1087.51
782.96	1085.99
783.28	1080.25
783.61	1079.41
783.93	1078.54
784.26	1075.99
784.58	1076.93
784.91	1080.39
785.23	1078.96
785.56	1080.77
785.88	1080.95
786.21	1082.26
786.53	1083.36
786.86	1085.40
787.18	1085.26
787.51	1085.47
787.83	1085.54
788.16	1083.55
788.48	1081.77
788.81	1080.86
789.13	1082.57
789.46	1078.78
789.78	1081.51
790.10	1081.96
790.43	1078.38
790.75	1077.56
791.08	1078.87
791.40	1077.58
791.73	1083.01
792.05	1087.67
792.37	1089.87
792.70	1090.24
793.02	1089.14
793.35	1087.16
793.67	1089.47
793.99	1087.51
794.32	1086.45
794.64	1086.71
794.96	1082.99
795.29	1079.43
795.61	1078.73
795.93	1077.91
796.26	1077.96
796.58	1080.04
796.91	1080.51
797.23	1081.58
797.55	1081.09
797.87	1080.48
798.20	1081.07
798.52	1080.60
798.84	1079.95
799.17	1084.93
799.49	1083.06
799.81	1081.09
800.14	1081.84
800.46	1082.99
800.78	1080.25
801.10	1082.59
801.43	1084.02
801.75	1086.06
802.07	1086.83
802.40	1086.24
802.72	1086.92
803.04	1087.53
803.36	1083.67
803.69	1083.50
804.01	1086.27
804.33	1085.28
804.65	1084.23
804.97	1083.79
805.30	1084.04
805.62	1081.19
805.94	1080.46
806.26	1081.61
806.58	1085.63
806.91	1084.81
807.23	1087.53
807.55	1091.02
807.87	1090.36
808.19	1090.46
808.52	1090.29
808.84	1087.11
809.16	1086.22
809.48	1085.38
809.80	1084.00
810.12	1082.59
810.44	1081.23
810.77	1078.80
811.09	1080.93
811.41	1079.01
811.73	1081.00
812.05	1085.07
812.37	1086.97
812.69	1086.66
813.01	1088.70
813.33	1085.63
813.66	1082.94
813.98	1083.22
814.30	1083.18
814.62	1082.03
814.94	1083.71
815.26	1083.81
815.58	1084.49
815.90	1083.60
816.22	1082.99
816.54	1082.47
816.86	1082.85
817.18	1081.87
817.50	1080.81
817.82	1080.34
818.14	1079.27
818.46	1081.96
818.78	1083.13
819.10	1084.98
819.42	1085.47
819.74	1085.14
820.06	1084.56
820.38	1080.95
820.70	1081.07
821.02	1082.08
821.34	1086.31
821.66	1084.32
821.98	1085.31
822.30	1084.65
822.62	1085.21
822.94	1082.59
823.26	1086.41
823.58	1087.79
823.90	1086.36
824.22	1087.06
824.54	1088.68
824.86	1086.43
825.18	1085.96
825.50	1088.54
825.81	1090.13
826.13	1087.25
826.45	1086.85
826.77	1083.62
827.09	1083.11
827.41	1079.27
827.73	1081.98
828.05	1081.96
828.36	1086.31
828.68	1085.96
829.00	1089.50
829.32	1087.93
829.64	1088.37
829.96	1088.77
830.28	1089.14
830.59	1086.13
830.91	1084.84
831.23	1087.44
831.55	1087.74
831.87	1084.51
832.19	1087.67
832.50	1090.32
832.82	1085.24
833.14	1083.46
833.46	1084.23
833.78	1082.73
834.09	1081.40
834.41	1082.76
834.73	1083.97
835.05	1086.78
835.36	1087.37
835.68	1089.87
836.00	1088.91
836.32	1090.90
836.63	1090.55
836.95	1090.22
837.27	1088.02
837.59	1088.93
837.90	1085.00
838.22	1086.17
838.54	1084.09
838.85	1084.46
839.17	1085.00
839.49	1083.29
839.80	1082.78
840.12	1083.62
840.44	1084.53
840.76	1084.79
841.07	1087.46
841.39	1084.89
841.71	1083.27
842.02	1082.52
842.34	1081.87
842.65	1080.84
842.97	1081.05
843.29	1084.37
843.60	1083.46
843.92	1084.14
844.24	1086.15
844.55	1090.69
844.87	1089.66
845.18	1087.37
845.50	1085.80
845.82	1085.59
846.13	1079.60
846.45	1081.68
846.76	1084.93
847.08	1087.32
847.40	1087.27
847.71	1090.17
848.03	1086.55
848.34	1085.19
848.66	1083.08
848.97	1083.48
849.29	1082.24
849.60	1080.04
849.92	1076.18
850.24	1074.68
850.55	1071.75
850.87	1073.60
851.18	1078.28
851.50	1083.25
851.81	1086.62
852.13	1087.53
852.44	1087.25
852.76	1088.51
853.07	1085.91
853.39	1085.54
853.70	1085.80
854.01	1085.96
854.33	1083.90
854.64	1085.03
854.96	1084.67
855.27	1086.85
855.59	1082.08
855.90	1079.24
856.22	1078.78
856.53	1078.87
856.84	1074.24
857.16	1078.21
857.47	1079.41
857.79	1079.08
858.10	1079.90
858.41	1081.02
858.73	1082.47
859.04	1082.99
859.36	1085.07
859.67	1082.85
859.98	1085.19
860.30	1081.51
860.61	1078.38
860.92	1078.05
861.24	1079.48
861.55	1080.18
861.87	1081.91
862.18	1086.90
862.49	1085.28
862.81	1085.99
863.12	1085.54
863.43	1086.15
863.74	1082.94
864.06	1083.83
864.37	1083.79
864.68	1083.20
865.00	1081.42
865.31	1084.74
865.62	1086.90
865.94	1085.45
866.25	1083.93
866.56	1084.74
866.87	1085.66
867.19	1086.17
867.50	1086.66
867.81	1087.02
868.12	1087.11
868.44	1083.36
868.75	1080.06
869.06	1078.33
869.37	1078.59
869.68	1075.13
870.00	1074.49
870.31	1074.63
870.62	1076.53
870.93	1077.11
871.24	1081.87
871.56	1084.91
871.87	1087.83
872.18	1085.84
872.49	1086.62
872.80	1085.61
873.12	1086.64
873.43	1085.84
873.74	1087.32
874.05	1087.72
874.36	1085.45
874.67	1082.10
874.98	1082.94
875.29	1082.15
875.61	1079.81
875.92	1081.21
876.23	1081.26
876.54	1081.00
876.85	1081.33
877.16	1082.87
877.47	1083.71
877.78	1081.68
878.09	1081.87
878.40	1081.56
878.72	1082.80
879.03	1082.01
879.34	1082.85
879.65	1081.05
879.96	1080.74
880.27	1079.17
880.58	1083.18
880.89	1088.16
881.20	1087.06
881.51	1090.10
881.82	1091.30
882.13	1086.55
882.44	1085.87
882.75	1085.66
883.06	1085.99
883.37	1085.75
883.68	1088.49
883.99	1087.79
884.30	1090.27
884.61	1088.54
884.92	1087.58
885.23	1086.92
885.54	1084.91
885.85	1085.28
886.16	1084.67
886.47	1085.91
886.78	1082.57
887.08	1084.79
887.39	1081.75
887.70	1080.65
888.01	1079.17
888.32	1082.05
888.63	1082.85
888.94	1082.54
889.25	1086.64
889.56	1088.61
889.87	1085.00
890.17	1082.73
890.48	1084.60
890.79	1084.35
891.10	1084.72
891.41	1088.28
891.72	1086.85
892.03	1089.85
892.34	1087.55
892.64	1085.52
892.95	1083.41
893.26	1084.46
893.57	1080.09
893.88	1079.95
894.18	1079.81
894.49	1081.68
894.80	1082.43
895.11	1082.52
895.42	1082.87
895.72	1084.49
896.03	1086.57
896.34	1084.44
896.65	1087.79
896.96	1090.41
897.26	1087.67
897.57	1083.13
897.88	1086.48
898.19	1085.49
898.49	1083.41
898.80	1082.22
899.11	1084.35
899.41	1080.53
899.72	1080.81
900.03	1077.00
900.34	1076.93
900.64	1078.28
900.95	1081.21
901.26	1077.25
901.56	1081.75
901.87	1083.36
902.18	1083.25
902.48	1082.78
902.79	1086.36
903.10	1084.60
903.40	1084.32
903.71	1084.51
904.02	1084.16
904.32	1084.96
904.63	1085.03
904.94	1085.80
905.24	1086.01
905.55	1086.59
905.85	1085.77
906.16	1085.91
906.47	1086.78
906.77	1086.10
907.08	1084.14
907.38	1084.14
907.69	1083.04
908.00	1082.83
908.30	1082.64
908.61	1082.38
908.91	1080.02
909.22	1078.10
909.52	1079.36
909.83	1076.90
910.14	1079.34
910.44	1080.86
910.75	1084.23
911.05	1080.46
911.36	1080.56
911.66	1082.29
911.97	1079.15
912.27	1080.77
912.58	1082.33
912.88	1084.49
913.19	1080.65
913.49	1082.76
913.80	1080.44
914.10	1080.63
914.41	1080.23
914.71	1082.69
915.01	1087.44
915.32	1087.44
915.62	1089.89
915.93	1090.99
916.23	1090.83
916.54	1087.34
916.84	1089.78
917.15	1088.23
917.45	1085.70
917.75	1084.00
918.06	1080.34
918.36	1077.49
918.67	1076.51
918.97	1076.34
919.27	1076.81
919.58	1081.82
919.88	1083.71
920.18	1083.34
920.49	1085.14
920.79	1089.12
921.10	1088.14
921.40	1084.58
921.70	1088.61
922.01	1087.74
922.31	1084.04
922.61	1081.56
922.92	1082.31
923.22	1080.25
923.52	1079.50
923.82	1081.33
924.13	1082.01
924.43	1082.15
924.73	1081.23
925.04	1080.46
925.34	1073.60
925.64	1074.98
925.94	1077.75
926.25	1078.96
926.55	1079.06
926.85	1084.60
927.15	1083.15
927.46	1079.85
927.76	1077.70
928.06	1079.22
928.36	1077.44
928.67	1079.03
928.97	1080.88
929.27	1080.44
929.57	1083.22
929.87	1083.71
930.18	1084.14
930.48	1083.88
930.78	1084.51
931.08	1084.32
931.38	1084.79
931.69	1081.70
931.99	1081.28
932.29	1083.27
932.59	1080.51
932.89	1082.59
933.19	1082.78
933.49	1082.05
933.80	1079.17
934.10	1079.81
934.40	1080.46
934.70	1080.53
935.00	1081.94
935.30	1083.32
935.60	1084.25
935.90	1082.52
936.20	1084.51
936.50	1082.45
936.81	1085.00
937.11	1082.36
937.41	1082.05
937.71	1080.13
938.01	1081.12
938.31	1078.61
938.61	1078.40
938.91	1077.16
939.21	1077.42
939.51	1076.93
939.81	1078.10
940.11	1076.76
940.41	1076.97
940.71	1079.69
941.01	1081.40
941.31	1080.95
941.61	1089.52
941.91	1088.63
942.21	1086.87
942.51	1087.34
942.81	1088.49
943.11	1081.07
943.41	1080.16
943.71	1080.72
944.01	1081.26
944.31	1080.86
944.61	1084.53
944.90	1085.19
945.20	1085.66
945.50	1083.34
945.80	1082.90
946.10	1081.16
946.40	1082.43
946.70	1082.26
947.00	1084.02
947.30	1083.48
947.60	1085.24
947.89	1084.09
948.19	1083.41
948.49	1081.80
948.79	1081.00
949.09	1080.25
949.39	1081.42
949.69	1082.33
949.98	1084.14
950.28	1087.41
950.58	1086.80
950.88	1085.07
951.18	1085.12
951.48	1084.16
951.77	1080.67
952.07	1078.78
952.37	1080.95
952.67	1080.51
952.97	1080.37
953.26	1078.71
953.56	1081.07
953.86	1083.15
954.16	1082.36
954.45	1082.19
954.75	1083.90
955.05	1082.61
955.35	1083.53
955.64	1085.66
955.94	1085.54
956.24	1086.99
956.54	1085.89
956.83	1082.99
957.13	1081.23
957.43	1080.93
957.72	1080.46
958.02	1081.51
958.32	1079.92
958.61	1078.61
958.91	1076.30
959.21	1074.17
959.50	1075.17
959.80	1077.77
960.10	1077.86
960.39	1083.20
960.69	1081.66
960.99	1079.71
961.28	1077.49
961.58	1078.87
961.87	1074.49
962.17	1078.38
962.47	1080.53
962.76	1082.92
963.06	1079.90
963.36	1083.13
963.65	1081.56
963.95	1081.23
964.24	1077.14
964.54	1078.66
964.83	1076.06
965.13	1075.41
965.42	1073.49
965.72	1076.88
966.02	1076.41
966.31	1078.66
966.61	1081.14
966.90	1084.84
967.20	1082.85
967.49	1086.83
967.79	1087.20
968.08	1085.54
968.38	1086.66
968.67	1086.76
968.97	1083.79
969.26	1084.32
969.56	1084.11
969.85	1080.81
970.15	1081.94
970.44	1081.23
970.74	1079.29
971.03	1079.10
971.32	1079.34
971.62	1077.51
971.91	1079.67
972.21	1080.02
972.50	1079.41
972.80	1079.90
973.09	1080.51
973.38	1078.45
973.68	1076.74
973.97	1076.30
974.27	1076.55
974.56	1077.23
974.85	1077.14
975.15	1078.80
975.44	1080.51
975.73	1078.89
976.03	1077.84
976.32	1079.74
976.61	1079.64
976.91	1078.99
977.20	1078.54
977.49	1079.95
977.79	1079.90
978.08	1079.95
978.37	1079.78
978.67	1080.48
978.96	1078.59
979.25	1078.43
979.55	1077.51
979.84	1078.24
980.13	1078.92
980.42	1080.84
980.72	1079.34
981.01	1081.80
981.30	1082.57
981.59	1084.81
981.89	1084.49
982.18	1085.07
982.47	1083.83
982.76	1082.71
983.06	1079.55
983.35	1078.24
983.64	1082.61
983.93	1083.67
984.22	1084.72
984.52	1083.34
984.81	1087.44
985.10	1085.70
985.39	1083.36
985.68	1085.38
985.97	1085.94
986.27	1083.39
986.56	1081.00
986.85	1081.91
987.14	1079.74
987.43	1081.84
987.72	1081.91
988.01	1082.10
988.31	1080.30
988.60	1079.81
988.89	1077.56
989.18	1074.05
989.47	1073.51
989.76	1075.57
990.05	1075.90
990.34	1078.66
990.63	1083.36
990.92	1082.24
991.21	1080.93
991.51	1080.04
991.80	1075.48
992.09	1074.73
992.38	1073.91
992.67	1081.40
992.96	1082.59
993.25	1086.22
993.54	1086.52
993.83	1087.93
994.12	1083.74
994.41	1085.17
994.70	1083.48
994.99	1080.60
995.28	1081.40
995.57	1078.33
995.86	1076.53
996.15	1078.57
996.44	1080.04
996.73	1080.63
997.02	1082.59
997.31	1083.04
997.59	1084.67
997.88	1081.75
998.17	1081.28
998.46	1082.24
998.75	1083.06
999.04	1082.57
999.33	1086.03
999.62	1086.31
999.91	1082.45
1000.20	1081.68
1000.49	1079.34
1000.77	1080.44
1001.06	1079.76
1001.35	1080.84
1001.64	1078.26
1001.93	1080.74
1002.22	1082.66
1002.51	1081.56
1002.79	1083.95
1003.08	1088.21
1003.37	1084.86
1003.66	1081.49
1003.95	1084.56
1004.23	1082.80
1004.52	1081.96
1004.81	1084.11
1005.10	1084.18
1005.39	1084.96
1005.67	1085.94
1005.96	1081.98
1006.25	1080.13
1006.54	1079.88
1006.83	1079.15
1007.11	1079.20
1007.40	1084.11
1007.69	1085.84
1007.97	1086.31
1008.26	1085.77
1008.55	1085.17
1008.84	1078.68
1009.12	1079.50
1009.41	1080.63
1009.70	1078.07
1009.98	1077.51
1010.27	1082.90
1010.56	1078.12
1010.85	1077.72
1011.13	1081.30
1011.42	1080.91
1011.71	1083.48
1011.99	1088.72
1012.28	1087.09
1012.56	1085.05
1012.85	1084.30
1013.14	1080.34
1013.42	1080.67
1013.71	1081.07
1014.00	1083.06
1014.28	1088.72
1014.57	1089.82
1014.85	1087.55
1015.14	1089.71
1015.43	1085.26
1015.71	1080.41
1016.00	1077.65
1016.28	1075.83
1016.57	1073.32
1016.85	1076.37
1017.14	1076.90
1017.43	1077.37
1017.71	1079.53
1018.00	1082.01
1018.28	1081.09
1018.57	1082.43
1018.85	1080.02
1019.14	1079.64
1019.42	1078.66
1019.71	1078.75
1019.99	1078.12
1020.28	1079.78
1020.56	1078.64
1020.85	1077.91
1021.13	1079.46
1021.42	1077.77
1021.70	1078.85
1021.99	1079.67
1022.27	1081.66
1022.55	1078.75
1022.84	1090.34
>>>>>End Processed Spectral Data<<<<<
