SpectraSuite Data File
++++++++++++++++++++++++++++++++++++
Date: Mon Aug 26 10:26:58 PDT 2019
User: corrico
Dark Spectrum Present: No
Reference Spectrum Present: No
Number of Sampled Component Spectra: 1
Spectrometers: USB2+H06089
Integration Time (usec): 10000 (USB2+H06089)
Spectra Averaged: 20 (USB2+H06089)
Boxcar Smoothing: 2 (USB2+H06089)
Correct for Electrical Dark: No (USB2+H06089)
Strobe/Lamp Enabled: No (USB2+H06089)
Correct for Detector Non-linearity: No (USB2+H06089)
Correct for Stray Light: No (USB2+H06089)
Number of Pixels in Processed Spectrum: 2048
>>>>>Begin Processed Spectral Data<<<<<
339.70	1027.26
340.07	1027.26
340.45	990.84
340.82	970.20
341.19	946.70
341.57	925.59
341.94	918.92
342.31	914.52
342.69	911.59
343.06	910.75
343.43	911.15
343.81	910.23
344.18	911.47
344.55	915.36
344.93	919.18
345.30	918.92
345.67	928.47
346.04	934.25
346.42	941.93
346.79	952.39
347.16	962.55
347.54	969.22
347.91	980.52
348.28	987.10
348.65	994.96
349.03	1003.46
349.40	1007.88
349.77	1013.94
350.14	1023.17
350.52	1028.50
350.89	1036.06
351.26	1044.72
351.63	1049.36
352.01	1050.64
352.38	1054.46
352.75	1057.29
353.12	1060.82
353.50	1063.87
353.87	1069.81
354.24	1075.64
354.61	1079.15
354.98	1083.22
355.36	1084.91
355.73	1086.94
356.10	1087.13
356.47	1087.93
356.84	1086.99
357.22	1087.41
357.59	1087.37
357.96	1084.30
358.33	1083.55
358.70	1083.11
359.08	1080.39
359.45	1077.07
359.82	1077.93
360.19	1075.52
360.56	1072.92
360.94	1073.70
361.31	1074.19
361.68	1070.44
362.05	1067.00
362.42	1068.38
362.79	1070.44
363.16	1070.33
363.54	1069.95
363.91	1073.30
364.28	1074.05
364.65	1070.33
365.02	1068.62
365.39	1072.32
365.76	1069.44
366.14	1069.27
366.51	1070.51
366.88	1070.26
367.25	1069.81
367.62	1070.14
367.99	1069.65
368.36	1066.09
368.73	1064.01
369.10	1062.21
369.48	1064.41
369.85	1064.90
370.22	1066.02
370.59	1068.92
370.96	1071.50
371.33	1073.02
371.70	1071.19
372.07	1070.89
372.44	1069.91
372.81	1066.84
373.18	1065.37
373.55	1062.72
373.93	1065.93
374.30	1066.42
374.67	1065.76
375.04	1068.01
375.41	1071.15
375.78	1072.81
376.15	1074.91
376.52	1077.84
376.89	1076.74
377.26	1074.56
377.63	1070.09
378.00	1067.35
378.37	1066.16
378.74	1067.00
379.11	1068.57
379.48	1069.58
379.85	1071.85
380.22	1073.95
380.59	1071.66
380.96	1070.91
381.33	1073.09
381.70	1072.43
382.07	1069.06
382.44	1069.91
382.81	1070.75
383.18	1073.51
383.55	1075.55
383.92	1078.33
384.29	1075.90
384.66	1075.92
385.03	1071.47
385.40	1070.94
385.77	1071.36
386.14	1076.23
386.51	1076.23
386.88	1078.96
387.25	1079.34
387.62	1078.21
387.99	1072.25
388.36	1072.13
388.73	1072.32
389.10	1068.08
389.46	1067.17
389.83	1069.53
390.20	1071.80
390.57	1071.40
390.94	1070.26
391.31	1069.37
391.68	1071.01
392.05	1071.03
392.42	1069.37
392.79	1074.89
393.16	1075.97
393.53	1073.79
393.89	1073.09
394.26	1076.60
394.63	1076.41
395.00	1078.21
395.37	1079.55
395.74	1083.08
396.11	1083.71
396.48	1082.87
396.84	1080.02
397.21	1083.43
397.58	1078.33
397.95	1073.81
398.32	1075.90
398.69	1077.89
399.06	1077.07
399.42	1081.09
399.79	1084.79
400.16	1084.67
400.53	1083.08
400.90	1078.96
401.27	1075.55
401.64	1074.87
402.00	1071.08
402.37	1070.98
402.74	1074.82
403.11	1073.00
403.48	1071.87
403.84	1071.99
404.21	1076.46
404.58	1076.48
404.95	1079.29
405.32	1077.98
405.68	1076.55
406.05	1074.84
406.42	1075.05
406.79	1074.52
407.16	1076.18
407.52	1077.23
407.89	1073.63
408.26	1070.80
408.63	1071.52
408.99	1070.40
409.36	1070.89
409.73	1071.94
410.10	1072.90
410.47	1071.17
410.83	1072.50
411.20	1072.34
411.57	1072.39
411.94	1072.04
412.30	1076.51
412.67	1075.92
413.04	1078.14
413.40	1082.66
413.77	1081.19
414.14	1079.15
414.51	1080.51
414.87	1077.56
415.24	1075.62
415.61	1077.98
415.97	1078.38
416.34	1075.57
416.71	1078.17
417.08	1076.86
417.44	1076.06
417.81	1074.94
418.18	1077.79
418.54	1078.28
418.91	1080.09
419.28	1079.22
419.64	1080.98
420.01	1080.98
420.38	1078.21
420.74	1078.10
421.11	1080.30
421.48	1079.48
421.84	1076.13
422.21	1078.99
422.58	1077.70
422.94	1076.51
423.31	1073.74
423.68	1076.51
424.04	1075.73
424.41	1074.33
424.77	1077.61
425.14	1079.03
425.51	1078.43
425.87	1081.96
426.24	1083.64
426.61	1083.90
426.97	1085.07
427.34	1086.87
427.70	1081.80
428.07	1080.63
428.44	1078.03
428.80	1079.17
429.17	1077.93
429.53	1080.88
429.90	1081.44
430.27	1081.00
430.63	1077.84
431.00	1076.81
431.36	1074.40
431.73	1073.93
432.09	1072.34
432.46	1075.27
432.83	1073.30
433.19	1075.80
433.56	1073.18
433.92	1074.70
434.29	1071.87
434.65	1074.84
435.02	1071.52
435.38	1076.67
435.75	1077.37
436.11	1079.01
436.48	1081.37
436.84	1083.34
437.21	1081.40
437.57	1080.79
437.94	1081.61
438.30	1076.72
438.67	1077.86
439.03	1076.58
439.40	1078.54
439.76	1077.28
440.13	1082.17
440.49	1080.13
440.86	1085.38
441.22	1084.16
441.59	1083.22
441.95	1077.93
442.32	1079.92
442.68	1075.94
443.05	1074.89
443.41	1077.58
443.78	1080.48
444.14	1078.96
444.51	1082.50
444.87	1084.79
445.24	1083.48
445.60	1084.14
445.96	1085.75
446.33	1083.20
446.69	1081.07
447.06	1078.75
447.42	1079.06
447.79	1078.80
448.15	1078.24
448.51	1078.54
448.88	1082.59
449.24	1082.24
449.61	1080.09
449.97	1078.82
450.33	1079.27
450.70	1073.93
451.06	1074.98
451.43	1076.46
451.79	1079.34
452.15	1077.93
452.52	1081.82
452.88	1079.99
453.24	1082.45
453.61	1082.52
453.97	1084.49
454.34	1084.58
454.70	1083.97
455.06	1077.33
455.43	1074.54
455.79	1075.01
456.15	1076.93
456.52	1080.58
456.88	1086.01
457.24	1085.84
457.61	1088.00
457.97	1084.72
458.33	1081.49
458.70	1080.60
459.06	1081.14
459.42	1080.72
459.79	1084.35
460.15	1087.39
460.51	1088.23
460.88	1089.47
461.24	1084.93
461.60	1083.79
461.96	1083.34
462.33	1079.46
462.69	1078.38
463.05	1077.23
463.42	1076.65
463.78	1075.01
464.14	1075.48
464.50	1075.34
464.87	1077.11
465.23	1073.77
465.59	1071.64
465.95	1073.67
466.32	1074.80
466.68	1077.93
467.04	1080.09
467.40	1084.25
467.77	1083.64
468.13	1081.40
468.49	1077.98
468.85	1079.31
469.22	1080.04
469.58	1082.66
469.94	1084.39
470.30	1087.06
470.66	1086.27
471.03	1082.71
471.39	1081.82
471.75	1081.05
472.11	1079.69
472.47	1076.34
472.84	1079.10
473.20	1076.67
473.56	1077.23
473.92	1077.04
474.28	1080.30
474.65	1077.63
475.01	1079.55
475.37	1079.97
475.73	1081.40
476.09	1081.89
476.45	1081.28
476.81	1079.92
477.18	1080.09
477.54	1077.72
477.90	1078.10
478.26	1079.74
478.62	1078.92
478.98	1079.27
479.34	1078.24
479.71	1076.76
480.07	1074.47
480.43	1076.04
480.79	1075.03
481.15	1077.77
481.51	1076.37
481.87	1076.97
482.23	1077.93
482.59	1079.55
482.96	1078.89
483.32	1080.79
483.68	1080.79
484.04	1080.98
484.40	1081.44
484.76	1083.06
485.12	1084.02
485.48	1085.77
485.84	1084.53
486.20	1083.01
486.56	1081.40
486.92	1079.08
487.28	1077.35
487.64	1078.33
488.00	1081.07
488.37	1083.08
488.73	1083.90
489.09	1087.27
489.45	1089.40
489.81	1087.25
490.17	1084.67
490.53	1088.21
490.89	1085.45
491.25	1084.23
491.61	1084.18
491.97	1086.78
492.33	1084.86
492.69	1084.44
493.05	1082.08
493.41	1084.21
493.77	1081.19
494.13	1080.13
494.49	1082.03
494.85	1082.92
495.21	1081.56
495.57	1084.04
495.93	1083.13
496.29	1081.05
496.64	1080.95
497.00	1081.42
497.36	1083.41
497.72	1084.42
498.08	1084.63
498.44	1085.70
498.80	1082.54
499.16	1079.08
499.52	1078.54
499.88	1077.58
500.24	1076.51
500.60	1076.53
500.96	1077.23
501.32	1077.91
501.68	1081.26
502.03	1080.79
502.39	1082.22
502.75	1080.67
503.11	1079.29
503.47	1077.82
503.83	1077.25
504.19	1079.67
504.55	1078.24
504.91	1080.34
505.26	1081.21
505.62	1082.03
505.98	1077.93
506.34	1082.36
506.70	1083.74
507.06	1082.45
507.42	1080.70
507.78	1083.20
508.13	1080.13
508.49	1081.14
508.85	1083.11
509.21	1084.98
509.57	1086.17
509.93	1088.82
510.28	1087.04
510.64	1085.17
511.00	1085.45
511.36	1084.81
511.72	1083.39
512.07	1082.05
512.43	1084.63
512.79	1084.81
513.15	1082.19
513.51	1084.35
513.86	1084.32
514.22	1081.19
514.58	1083.41
514.94	1082.12
515.30	1079.62
515.65	1081.26
516.01	1081.82
516.37	1080.70
516.73	1083.43
517.08	1084.65
517.44	1083.29
517.80	1082.17
518.16	1080.81
518.51	1083.08
518.87	1082.17
519.23	1083.69
519.59	1084.74
519.94	1083.74
520.30	1079.24
520.66	1079.43
521.01	1077.63
521.37	1079.50
521.73	1079.55
522.09	1083.18
522.44	1083.04
522.80	1082.24
523.16	1078.59
523.51	1078.28
523.87	1077.56
524.23	1077.77
524.58	1075.94
524.94	1081.05
525.30	1081.89
525.65	1081.54
526.01	1084.04
526.37	1090.24
526.72	1084.67
527.08	1084.44
527.44	1085.26
527.79	1081.28
528.15	1077.51
528.51	1079.08
528.86	1079.06
529.22	1077.23
529.58	1079.71
529.93	1079.43
530.29	1080.51
530.65	1081.21
531.00	1084.67
531.36	1083.97
531.71	1084.42
532.07	1083.74
532.43	1083.32
532.78	1081.14
533.14	1081.63
533.49	1083.34
533.85	1085.66
534.21	1085.33
534.56	1085.17
534.92	1082.19
535.27	1082.40
535.63	1080.02
535.98	1078.12
536.34	1077.84
536.69	1079.10
537.05	1077.98
537.41	1082.15
537.76	1084.32
538.12	1082.50
538.47	1081.07
538.83	1080.63
539.18	1078.36
539.54	1079.60
539.89	1077.65
540.25	1078.87
540.60	1077.98
540.96	1077.42
541.31	1078.05
541.67	1082.33
542.02	1083.86
542.38	1085.19
542.73	1085.77
543.09	1083.81
543.44	1082.76
543.80	1086.41
544.15	1086.64
544.51	1085.26
544.86	1086.03
545.22	1089.54
545.57	1087.39
545.93	1088.40
546.28	1092.09
546.64	1095.70
546.99	1092.47
547.35	1090.50
547.70	1090.78
548.05	1088.16
548.41	1084.44
548.76	1086.50
549.12	1083.95
549.47	1083.11
549.83	1081.58
550.18	1082.76
550.53	1082.10
550.89	1083.64
551.24	1081.94
551.60	1081.94
551.95	1081.02
552.30	1078.82
552.66	1082.61
553.01	1086.52
553.37	1088.26
553.72	1089.29
554.07	1089.43
554.43	1087.62
554.78	1082.87
555.13	1084.21
555.49	1083.04
555.84	1084.11
556.19	1084.16
556.55	1084.56
556.90	1083.46
557.26	1085.45
557.61	1085.52
557.96	1085.17
558.32	1086.71
558.67	1087.65
559.02	1085.59
559.37	1084.81
559.73	1086.27
560.08	1086.38
560.43	1086.71
560.79	1088.61
561.14	1089.59
561.49	1088.19
561.85	1090.20
562.20	1089.12
562.55	1087.86
562.90	1086.10
563.26	1084.74
563.61	1081.44
563.96	1079.64
564.32	1079.92
564.67	1082.05
565.02	1080.44
565.37	1081.54
565.73	1081.63
566.08	1081.14
566.43	1081.61
566.78	1084.23
567.14	1084.32
567.49	1085.99
567.84	1086.27
568.19	1087.02
568.54	1086.13
568.90	1086.80
569.25	1086.66
569.60	1085.73
569.95	1084.96
570.31	1086.06
570.66	1083.97
571.01	1083.34
571.36	1083.01
571.71	1081.84
572.06	1080.53
572.42	1085.00
572.77	1084.00
573.12	1085.47
573.47	1084.00
573.82	1085.63
574.18	1084.14
574.53	1083.57
574.88	1083.41
575.23	1086.62
575.58	1084.16
575.93	1082.64
576.28	1084.39
576.64	1082.92
576.99	1083.04
577.34	1083.97
577.69	1084.53
578.04	1082.94
578.39	1082.01
578.74	1083.20
579.09	1081.23
579.44	1083.83
579.80	1085.33
580.15	1088.58
580.50	1084.60
580.85	1086.83
581.20	1081.87
581.55	1081.28
581.90	1077.23
582.25	1078.21
582.60	1081.09
582.95	1082.29
583.30	1085.47
583.65	1088.37
584.00	1086.62
584.35	1081.75
584.71	1081.84
585.06	1081.35
585.41	1080.41
585.76	1084.16
586.11	1087.25
586.46	1084.23
586.81	1082.15
587.16	1082.76
587.51	1083.86
587.86	1080.93
588.21	1085.14
588.56	1082.71
588.91	1082.36
589.26	1082.38
589.61	1086.66
589.96	1087.62
590.31	1093.55
590.66	1093.97
591.01	1093.33
591.36	1090.20
591.71	1088.02
592.06	1086.52
592.41	1085.63
592.76	1083.95
593.10	1085.31
593.45	1085.84
593.80	1082.59
594.15	1081.80
594.50	1082.15
594.85	1079.53
595.20	1081.70
595.55	1083.06
595.90	1083.97
596.25	1083.55
596.60	1084.28
596.95	1080.65
597.30	1083.60
597.64	1134.79
597.99	1137.64
598.34	1139.75
598.69	1142.23
599.04	1138.16
599.39	1089.85
599.74	1088.19
600.09	1087.65
600.44	1090.08
600.78	1092.26
601.13	1089.66
601.48	1089.19
601.83	1091.34
602.18	1088.65
602.53	1087.37
602.88	1092.21
603.22	1089.38
603.57	1087.02
603.92	1085.82
604.27	1084.70
604.62	1081.61
604.97	1082.99
605.31	1085.24
605.66	1085.19
606.01	1085.61
606.36	1084.60
606.71	1087.97
607.05	1088.30
607.40	1088.23
607.75	1089.38
608.10	1089.82
608.44	1089.57
608.79	1089.96
609.14	1091.25
609.49	1094.15
609.84	1096.28
610.18	1097.76
610.53	1096.70
610.88	1099.09
611.23	1099.68
611.57	1102.06
611.92	1102.95
612.27	1105.93
612.62	1103.66
612.96	1102.23
613.31	1097.01
613.66	1095.63
614.00	1092.40
614.35	1091.91
614.70	1085.70
615.05	1085.31
615.39	1081.40
615.74	1079.74
616.09	1079.10
616.43	1084.21
616.78	1082.73
617.13	1084.65
617.47	1085.03
617.82	1085.42
618.17	1083.57
618.51	1084.30
618.86	1084.00
619.21	1084.11
619.55	1083.81
619.90	1085.77
620.25	1085.96
620.59	1083.90
620.94	1084.30
621.29	1082.87
621.63	1079.71
621.98	1081.84
622.32	1085.12
622.67	1083.90
623.02	1088.28
623.36	1092.75
623.71	1092.89
624.05	1090.78
624.40	1094.79
624.75	1092.98
625.09	1091.32
625.44	1090.06
625.78	1089.40
626.13	1085.45
626.48	1083.81
626.82	1082.31
627.17	1083.18
627.51	1085.52
627.86	1085.70
628.20	1088.54
628.55	1089.99
628.89	1089.57
629.24	1087.39
629.58	1088.79
629.93	1085.59
630.28	1084.30
630.62	1086.15
630.97	1085.61
631.31	1082.92
631.66	1084.00
632.00	1081.35
632.35	1082.10
632.69	1081.87
633.04	1084.58
633.38	1084.74
633.73	1089.59
634.07	1085.73
634.42	1086.45
634.76	1085.17
635.11	1087.46
635.45	1085.47
635.79	1085.40
636.14	1087.04
636.48	1090.39
636.83	1088.75
637.17	1088.28
637.52	1091.06
637.86	1091.53
638.21	1087.48
638.55	1084.91
638.89	1085.14
639.24	1082.61
639.58	1079.01
639.93	1079.53
640.27	1080.27
640.61	1082.19
640.96	1085.40
641.30	1085.19
641.65	1082.80
641.99	1082.90
642.33	1079.81
642.68	1076.67
643.02	1076.86
643.37	1076.72
643.71	1076.01
644.05	1078.57
644.40	1079.55
644.74	1081.73
645.08	1084.42
645.43	1085.26
645.77	1083.83
646.11	1081.96
646.46	1082.26
646.80	1083.27
647.14	1084.67
647.49	1085.52
647.83	1085.77
648.17	1083.36
648.52	1082.10
648.86	1080.60
649.20	1083.43
649.55	1086.27
649.89	1088.49
650.23	1087.37
650.57	1088.61
650.92	1086.22
651.26	1087.30
651.60	1085.89
651.95	1086.27
652.29	1084.86
652.63	1082.71
652.97	1078.43
653.32	1079.53
653.66	1079.60
654.00	1081.19
654.34	1082.78
654.69	1083.64
655.03	1084.44
655.37	1082.97
655.71	1080.84
656.05	1078.66
656.40	1080.23
656.74	1077.96
657.08	1080.04
657.42	1080.91
657.76	1081.49
658.11	1079.41
658.45	1078.00
658.79	1078.71
659.13	1078.94
659.47	1077.47
659.82	1076.04
660.16	1079.90
660.50	1079.55
660.84	1080.44
661.18	1082.03
661.52	1081.37
661.87	1077.21
662.21	1078.54
662.55	1075.64
662.89	1078.03
663.23	1082.47
663.57	1084.84
663.91	1084.63
664.25	1084.37
664.60	1079.57
664.94	1077.86
665.28	1076.20
665.62	1077.35
665.96	1080.18
666.30	1084.74
666.64	1086.06
666.98	1087.02
667.32	1083.11
667.66	1081.09
668.01	1081.82
668.35	1080.63
668.69	1080.67
669.03	1080.09
669.37	1080.65
669.71	1078.00
670.05	1077.37
670.39	1077.68
670.73	1081.12
671.07	1082.50
671.41	1082.73
671.75	1084.32
672.09	1083.25
672.43	1080.74
672.77	1077.33
673.11	1076.69
673.45	1077.70
673.79	1080.81
674.13	1080.53
674.47	1085.42
674.81	1086.99
675.15	1085.99
675.49	1085.40
675.83	1085.80
676.17	1081.98
676.51	1083.06
676.85	1082.66
677.19	1080.53
677.53	1080.39
677.87	1082.17
678.21	1080.13
678.55	1079.78
678.89	1082.22
679.23	1081.35
679.57	1080.25
679.90	1083.04
680.24	1084.46
680.58	1084.18
680.92	1086.87
681.26	1089.36
681.60	1085.35
681.94	1084.70
682.28	1084.02
682.62	1082.50
682.96	1080.34
683.29	1080.13
683.63	1079.22
683.97	1081.51
684.31	1086.27
684.65	1086.38
684.99	1085.94
685.33	1085.19
685.67	1080.56
686.00	1075.13
686.34	1076.93
686.68	1080.93
687.02	1081.19
687.36	1084.28
687.70	1086.64
688.03	1086.08
688.37	1082.03
688.71	1081.12
689.05	1079.88
689.39	1078.45
689.72	1076.15
690.06	1076.32
690.40	1079.74
690.74	1081.51
691.08	1080.93
691.41	1085.03
691.75	1088.47
692.09	1086.20
692.43	1084.79
692.76	1085.19
693.10	1081.68
693.44	1078.73
693.78	1076.25
694.11	1075.73
694.45	1078.38
694.79	1077.25
695.13	1074.80
695.46	1074.80
695.80	1075.78
696.14	1076.23
696.48	1078.78
696.81	1081.40
697.15	1086.38
697.49	1087.25
697.82	1088.28
698.16	1088.86
698.50	1089.03
698.83	1085.21
699.17	1081.66
699.51	1078.43
699.84	1079.31
700.18	1080.46
700.52	1081.63
700.85	1086.73
701.19	1087.53
701.53	1085.10
701.86	1083.97
702.20	1081.84
702.54	1078.66
702.87	1078.33
703.21	1077.89
703.55	1075.85
703.88	1078.59
704.22	1081.80
704.55	1080.51
704.89	1080.44
705.23	1081.96
705.56	1081.84
705.90	1077.65
706.23	1076.74
706.57	1077.65
706.91	1079.78
707.24	1077.72
707.58	1080.95
707.91	1083.15
708.25	1085.45
708.58	1086.52
708.92	1088.82
709.26	1085.94
709.59	1087.88
709.93	1086.17
710.26	1081.80
710.60	1082.80
710.93	1081.35
711.27	1078.14
711.60	1078.07
711.94	1080.18
712.27	1076.04
712.61	1077.18
712.94	1076.39
713.28	1075.15
713.61	1076.44
713.95	1077.77
714.28	1078.03
714.62	1078.03
714.95	1081.66
715.29	1082.08
715.62	1085.00
715.96	1083.27
716.29	1087.34
716.63	1084.56
716.96	1081.58
717.29	1080.79
717.63	1081.51
717.96	1081.12
718.30	1081.80
718.63	1082.10
718.97	1079.67
719.30	1080.74
719.63	1079.20
719.97	1080.32
720.30	1082.40
720.64	1084.98
720.97	1085.31
721.30	1087.83
721.64	1087.67
721.97	1087.97
722.31	1087.44
722.64	1083.79
722.97	1080.74
723.31	1078.10
723.64	1078.66
723.97	1080.88
724.31	1084.07
724.64	1086.03
724.98	1083.95
725.31	1083.95
725.64	1081.70
725.98	1081.02
726.31	1077.84
726.64	1080.72
726.97	1080.04
727.31	1080.70
727.64	1082.69
727.97	1081.14
728.31	1082.15
728.64	1084.02
728.97	1082.61
729.31	1084.23
729.64	1089.87
729.97	1089.10
730.30	1085.66
730.64	1084.21
730.97	1084.70
731.30	1080.04
731.63	1078.94
731.97	1079.83
732.30	1083.76
732.63	1079.81
732.96	1080.39
733.30	1081.30
733.63	1078.57
733.96	1077.42
734.29	1080.18
734.63	1082.31
734.96	1082.78
735.29	1086.24
735.62	1086.15
735.95	1083.62
736.29	1084.56
736.62	1083.18
736.95	1082.12
737.28	1081.54
737.61	1083.11
737.94	1080.25
738.28	1082.15
738.61	1082.05
738.94	1082.40
739.27	1080.30
739.60	1081.51
739.93	1076.83
740.27	1075.15
740.60	1079.60
740.93	1079.67
741.26	1077.42
741.59	1081.12
741.92	1085.80
742.25	1081.47
742.58	1082.97
742.91	1084.04
743.25	1082.29
743.58	1078.68
743.91	1076.32
744.24	1073.88
744.57	1074.00
744.90	1075.45
745.23	1076.32
745.56	1077.16
745.89	1079.17
746.22	1078.85
746.55	1079.27
746.88	1079.46
747.21	1079.46
747.54	1076.72
747.87	1077.35
748.20	1078.45
748.53	1080.25
748.87	1083.32
749.20	1086.55
749.53	1089.07
749.86	1089.10
750.19	1084.77
750.52	1081.87
750.85	1081.35
751.18	1082.38
751.51	1081.09
751.84	1082.33
752.16	1086.97
752.49	1089.24
752.82	1087.23
753.15	1089.36
753.48	1091.39
753.81	1088.65
754.14	1086.73
754.47	1084.98
754.80	1080.86
755.13	1078.71
755.46	1077.89
755.79	1077.58
756.12	1078.38
756.45	1081.40
756.78	1082.90
757.11	1082.76
757.43	1081.91
757.76	1080.86
758.09	1080.91
758.42	1081.70
758.75	1081.37
759.08	1085.10
759.41	1086.38
759.74	1084.02
760.07	1081.82
760.39	1082.78
760.72	1076.69
761.05	1075.80
761.38	1077.56
761.71	1078.96
762.04	1077.33
762.36	1081.21
762.69	1082.71
763.02	1083.15
763.35	1084.07
763.68	1085.77
764.01	1089.10
764.33	1086.83
764.66	1090.03
764.99	1087.30
765.32	1087.53
765.65	1082.50
765.97	1082.87
766.30	1081.02
766.63	1082.01
766.96	1080.63
767.28	1081.82
767.61	1083.11
767.94	1082.61
768.27	1082.19
768.59	1083.13
768.92	1083.11
769.25	1082.87
769.58	1079.85
769.90	1079.15
770.23	1075.31
770.56	1076.93
770.89	1078.57
771.21	1079.29
771.54	1080.98
771.87	1084.91
772.19	1082.59
772.52	1080.18
772.85	1085.19
773.17	1082.43
773.50	1080.86
773.83	1081.98
774.15	1083.08
774.48	1078.52
774.81	1082.10
775.13	1083.97
775.46	1084.86
775.79	1082.52
776.11	1081.35
776.44	1080.98
776.77	1079.27
777.09	1076.08
777.42	1078.05
777.74	1078.59
778.07	1076.72
778.40	1078.03
778.72	1079.60
779.05	1081.30
779.37	1080.79
779.70	1082.40
780.03	1084.32
780.35	1085.82
780.68	1084.93
781.00	1087.09
781.33	1083.20
781.65	1083.60
781.98	1083.04
782.31	1083.41
782.63	1084.91
782.96	1091.81
783.28	1090.85
783.61	1089.87
783.93	1088.40
784.26	1089.57
784.58	1086.99
784.91	1083.76
785.23	1085.07
785.56	1087.09
785.88	1080.91
786.21	1079.97
786.53	1080.37
786.86	1080.91
787.18	1079.57
787.51	1082.10
787.83	1081.89
788.16	1082.10
788.48	1080.95
788.81	1080.77
789.13	1082.69
789.46	1080.13
789.78	1080.58
790.10	1079.85
790.43	1079.01
790.75	1076.69
791.08	1079.81
791.40	1078.59
791.73	1084.67
792.05	1087.23
792.37	1086.29
792.70	1086.59
793.02	1087.13
793.35	1080.27
793.67	1075.10
793.99	1075.64
794.32	1076.46
794.64	1078.59
794.96	1079.43
795.29	1082.99
795.61	1083.41
795.93	1081.75
796.26	1080.37
796.58	1077.79
796.91	1077.84
797.23	1079.38
797.55	1078.68
797.87	1079.90
798.20	1084.00
798.52	1083.76
798.84	1083.48
799.17	1085.21
799.49	1084.11
799.81	1081.23
800.14	1083.15
800.46	1082.33
800.78	1081.82
801.10	1081.54
801.43	1081.84
801.75	1080.32
802.07	1081.26
802.40	1081.84
802.72	1081.96
803.04	1081.82
803.36	1081.87
803.69	1077.21
804.01	1075.59
804.33	1073.37
804.65	1071.43
804.97	1071.01
805.30	1071.54
805.62	1071.01
805.94	1073.39
806.26	1077.93
806.58	1079.48
806.91	1084.79
807.23	1085.35
807.55	1083.83
807.87	1083.04
808.19	1080.51
808.52	1081.02
808.84	1080.70
809.16	1082.57
809.48	1083.06
809.80	1081.80
810.12	1076.86
810.44	1077.44
810.77	1077.30
811.09	1076.95
811.41	1081.30
811.73	1082.05
812.05	1083.43
812.37	1082.97
812.69	1083.11
813.01	1083.64
813.33	1084.74
813.66	1084.98
813.98	1086.55
814.30	1083.27
814.62	1078.94
814.94	1082.97
815.26	1082.97
815.58	1083.29
815.90	1085.21
816.22	1086.50
816.54	1081.87
816.86	1083.32
817.18	1082.43
817.50	1082.24
817.82	1080.77
818.14	1079.13
818.46	1075.48
818.78	1074.10
819.10	1075.66
819.42	1079.43
819.74	1084.42
820.06	1085.17
820.38	1085.05
820.70	1084.25
821.02	1083.13
821.34	1080.30
821.66	1077.02
821.98	1076.08
822.30	1077.00
822.62	1076.27
822.94	1077.84
823.26	1081.63
823.58	1085.10
823.90	1085.54
824.22	1086.41
824.54	1086.15
824.86	1086.15
825.18	1083.83
825.50	1084.23
825.81	1084.74
826.13	1085.52
826.45	1084.30
826.77	1082.57
827.09	1080.11
827.41	1078.66
827.73	1076.48
828.05	1074.87
828.36	1074.19
828.68	1077.77
829.00	1078.89
829.32	1077.23
829.64	1079.92
829.96	1084.44
830.28	1079.90
830.59	1075.05
830.91	1073.07
831.23	1072.22
831.55	1073.46
831.87	1078.10
832.19	1082.50
832.50	1086.20
832.82	1088.04
833.14	1086.62
833.46	1083.95
833.78	1082.99
834.09	1085.03
834.41	1087.18
834.73	1086.62
835.05	1087.46
835.36	1087.74
835.68	1085.19
836.00	1083.34
836.32	1082.59
836.63	1083.25
836.95	1085.89
837.27	1088.40
837.59	1084.72
837.90	1085.12
838.22	1083.53
838.54	1080.37
838.85	1080.11
839.17	1080.60
839.49	1082.22
839.80	1082.33
840.12	1082.33
840.44	1080.18
840.76	1084.89
841.07	1084.60
841.39	1083.76
841.71	1086.71
842.02	1086.20
842.34	1082.26
842.65	1081.28
842.97	1085.73
843.29	1083.90
843.60	1083.81
843.92	1086.41
844.24	1088.44
844.55	1083.25
844.87	1080.95
845.18	1085.17
845.50	1084.98
845.82	1082.15
846.13	1084.60
846.45	1086.69
846.76	1085.42
847.08	1083.01
847.40	1081.73
847.71	1082.22
848.03	1084.93
848.34	1085.10
848.66	1085.99
848.97	1089.03
849.29	1086.52
849.60	1082.57
849.92	1082.47
850.24	1084.04
850.55	1081.19
850.87	1084.11
851.18	1084.67
851.50	1085.42
851.81	1084.98
852.13	1084.91
852.44	1081.02
852.76	1082.92
853.07	1080.51
853.39	1078.66
853.70	1080.74
854.01	1082.83
854.33	1081.47
854.64	1080.23
854.96	1080.58
855.27	1075.43
855.59	1073.30
855.90	1074.96
856.22	1076.15
856.53	1078.75
856.84	1082.50
857.16	1085.19
857.47	1083.34
857.79	1085.45
858.10	1083.11
858.41	1083.90
858.73	1084.37
859.04	1088.07
859.36	1086.57
859.67	1087.81
859.98	1090.03
860.30	1087.93
860.61	1083.48
860.92	1080.95
861.24	1080.58
861.55	1078.12
861.87	1079.76
862.18	1079.13
862.49	1084.23
862.81	1088.49
863.12	1091.20
863.43	1091.39
863.74	1093.83
864.06	1091.25
864.37	1089.99
864.68	1089.19
865.00	1086.55
865.31	1086.50
865.62	1086.52
865.94	1083.71
866.25	1082.59
866.56	1081.09
866.87	1081.87
867.19	1081.40
867.50	1081.40
867.81	1078.94
868.12	1083.62
868.44	1083.67
868.75	1086.17
869.06	1082.78
869.37	1083.46
869.68	1083.81
870.00	1082.92
870.31	1080.65
870.62	1082.87
870.93	1085.47
871.24	1086.48
871.56	1081.00
871.87	1082.19
872.18	1084.35
872.49	1085.12
872.80	1083.43
873.12	1087.55
873.43	1087.72
873.74	1086.66
874.05	1082.26
874.36	1081.51
874.67	1083.48
874.98	1083.34
875.29	1082.40
875.61	1084.51
875.92	1086.50
876.23	1085.82
876.54	1087.60
876.85	1089.19
877.16	1088.33
877.47	1087.53
877.78	1089.75
878.09	1086.10
878.40	1084.42
878.72	1088.02
879.03	1083.48
879.34	1081.91
879.65	1081.75
879.96	1086.10
880.27	1083.43
880.58	1088.98
880.89	1086.57
881.20	1088.56
881.51	1085.38
881.82	1086.50
882.13	1084.28
882.44	1085.26
882.75	1082.36
883.06	1084.04
883.37	1081.84
883.68	1083.13
883.99	1083.48
884.30	1085.61
884.61	1082.38
884.92	1080.32
885.23	1080.32
885.54	1077.96
885.85	1078.26
886.16	1077.86
886.47	1081.80
886.78	1079.48
887.08	1081.19
887.39	1080.16
887.70	1081.00
888.01	1080.13
888.32	1079.99
888.63	1080.37
888.94	1080.67
889.25	1080.46
889.56	1079.90
889.87	1081.82
890.17	1083.50
890.48	1083.11
890.79	1083.48
891.10	1086.73
891.41	1086.22
891.72	1086.62
892.03	1088.23
892.34	1089.89
892.64	1089.64
892.95	1088.00
893.26	1082.05
893.57	1083.79
893.88	1083.95
894.18	1081.40
894.49	1082.52
894.80	1083.53
895.11	1079.27
895.42	1075.78
895.72	1075.13
896.03	1074.07
896.34	1079.29
896.65	1078.78
896.96	1081.94
897.26	1082.61
897.57	1085.38
897.88	1084.18
898.19	1086.10
898.49	1084.49
898.80	1084.16
899.11	1080.93
899.41	1078.66
899.72	1078.89
900.03	1079.13
900.34	1077.72
900.64	1079.60
900.95	1083.20
901.26	1081.82
901.56	1083.79
901.87	1085.12
902.18	1085.70
902.48	1082.10
902.79	1084.28
903.10	1084.00
903.40	1085.26
903.71	1083.69
904.02	1083.74
904.32	1083.79
904.63	1084.67
904.94	1083.25
905.24	1083.04
905.55	1083.25
905.85	1081.40
906.16	1079.31
906.47	1079.62
906.77	1081.70
907.08	1084.44
907.38	1085.70
907.69	1087.30
908.00	1086.66
908.30	1085.96
908.61	1085.05
908.91	1088.14
909.22	1086.41
909.52	1086.15
909.83	1083.39
910.14	1081.23
910.44	1075.08
910.75	1074.84
911.05	1078.24
911.36	1079.20
911.66	1077.42
911.97	1079.67
912.27	1080.98
912.58	1077.70
912.88	1079.83
913.19	1083.53
913.49	1085.28
913.80	1086.10
914.10	1087.76
914.41	1086.29
914.71	1083.34
915.01	1082.50
915.32	1078.87
915.62	1077.09
915.93	1076.44
916.23	1078.82
916.54	1079.85
916.84	1084.89
917.15	1087.55
917.45	1089.61
917.75	1087.51
918.06	1087.16
918.36	1084.21
918.67	1084.28
918.97	1082.73
919.27	1083.50
919.58	1080.46
919.88	1080.39
920.18	1079.15
920.49	1079.15
920.79	1081.54
921.10	1084.65
921.40	1086.48
921.70	1086.64
922.01	1089.94
922.31	1090.50
922.61	1089.50
922.92	1088.30
923.22	1087.74
923.52	1082.61
923.82	1078.19
924.13	1079.43
924.43	1079.81
924.73	1079.78
925.04	1082.38
925.34	1085.38
925.64	1086.80
925.94	1084.28
926.25	1085.05
926.55	1085.61
926.85	1086.27
927.15	1082.31
927.46	1081.77
927.76	1081.16
928.06	1079.34
928.36	1077.44
928.67	1077.82
928.97	1080.23
929.27	1078.24
929.57	1078.71
929.87	1080.13
930.18	1080.16
930.48	1079.97
930.78	1080.39
931.08	1079.01
931.38	1079.48
931.69	1078.43
931.99	1078.96
932.29	1079.50
932.59	1080.27
932.89	1077.14
933.19	1077.21
933.49	1077.30
933.80	1078.52
934.10	1081.44
934.40	1085.17
934.70	1089.57
935.00	1086.03
935.30	1086.01
935.60	1085.40
935.90	1082.90
936.20	1079.74
936.50	1081.77
936.81	1082.85
937.11	1083.50
937.41	1085.66
937.71	1085.82
938.01	1087.34
938.31	1086.31
938.61	1082.69
938.91	1082.24
939.21	1085.35
939.51	1083.15
939.81	1078.85
940.11	1080.95
940.41	1081.16
940.71	1075.50
941.01	1077.16
941.31	1080.58
941.61	1084.56
941.91	1084.65
942.21	1086.55
942.51	1086.17
942.81	1086.78
943.11	1083.29
943.41	1079.95
943.71	1078.85
944.01	1077.02
944.31	1075.05
944.61	1074.87
944.90	1074.96
945.20	1074.45
945.50	1078.36
945.80	1081.19
946.10	1082.64
946.40	1082.71
946.70	1084.77
947.00	1082.73
947.30	1078.24
947.60	1074.45
947.89	1074.28
948.19	1073.86
948.49	1072.57
948.79	1074.94
949.09	1078.12
949.39	1083.06
949.69	1081.58
949.98	1081.21
950.28	1080.72
950.58	1077.70
950.88	1075.22
951.18	1080.11
951.48	1085.19
951.77	1086.45
952.07	1087.86
952.37	1089.29
952.67	1086.34
952.97	1082.64
953.26	1083.13
953.56	1084.67
953.86	1084.32
954.16	1082.50
954.45	1083.53
954.75	1080.41
955.05	1080.18
955.35	1080.39
955.64	1082.22
955.94	1083.74
956.24	1087.65
956.54	1085.99
956.83	1086.38
957.13	1087.60
957.43	1084.37
957.72	1085.07
958.02	1085.17
958.32	1085.14
958.61	1085.03
958.91	1085.59
959.21	1084.28
959.50	1086.41
959.80	1083.39
960.10	1085.12
960.39	1082.59
960.69	1084.30
960.99	1085.17
961.28	1085.68
961.58	1082.94
961.87	1087.41
962.17	1082.54
962.47	1079.13
962.76	1081.61
963.06	1080.93
963.36	1078.75
963.65	1079.74
963.95	1079.99
964.24	1077.49
964.54	1080.51
964.83	1077.51
965.13	1079.71
965.42	1080.67
965.72	1081.07
966.02	1080.91
966.31	1085.10
966.61	1085.63
966.90	1084.96
967.20	1083.32
967.49	1081.94
967.79	1080.70
968.08	1080.25
968.38	1082.36
968.67	1087.55
968.97	1087.11
969.26	1086.80
969.56	1087.39
969.85	1087.09
970.15	1083.34
970.44	1081.56
970.74	1083.41
971.03	1080.88
971.32	1082.31
971.62	1082.87
971.91	1082.47
972.21	1082.64
972.50	1084.72
972.80	1083.64
973.09	1083.95
973.38	1085.68
973.68	1083.60
973.97	1085.59
974.27	1084.23
974.56	1082.47
974.85	1083.69
975.15	1086.03
975.44	1079.13
975.73	1078.10
976.03	1080.56
976.32	1079.27
976.61	1079.43
976.91	1084.58
977.20	1088.54
977.49	1087.83
977.79	1088.21
978.08	1083.93
978.37	1083.83
978.67	1081.63
978.96	1082.76
979.25	1080.58
979.55	1084.84
979.84	1082.19
980.13	1082.33
980.42	1079.76
980.72	1081.02
981.01	1077.86
981.30	1079.69
981.59	1078.33
981.89	1079.22
982.18	1082.38
982.47	1081.73
982.76	1080.04
983.06	1078.05
983.35	1078.75
983.64	1075.90
983.93	1074.35
984.22	1074.66
984.52	1076.08
984.81	1075.45
985.10	1075.50
985.39	1077.30
985.68	1079.41
985.97	1078.47
986.27	1075.20
986.56	1076.27
986.85	1078.82
987.14	1077.33
987.43	1080.98
987.72	1082.94
988.01	1080.04
988.31	1078.50
988.60	1079.64
988.89	1077.35
989.18	1078.36
989.47	1079.31
989.76	1079.06
990.05	1079.57
990.34	1078.82
990.63	1079.31
990.92	1078.31
991.21	1081.35
991.51	1078.40
991.80	1080.63
992.09	1081.96
992.38	1081.35
992.67	1079.55
992.96	1084.30
993.25	1084.35
993.54	1082.87
993.83	1086.22
994.12	1082.97
994.41	1081.33
994.70	1077.42
994.99	1076.67
995.28	1076.37
995.57	1078.85
995.86	1080.25
996.15	1082.59
996.44	1084.11
996.73	1083.71
997.02	1083.69
997.31	1080.30
997.59	1080.02
997.88	1081.05
998.17	1081.07
998.46	1082.59
998.75	1084.35
999.04	1084.77
999.33	1081.96
999.62	1084.70
999.91	1085.17
1000.20	1085.56
1000.49	1085.80
1000.77	1085.66
1001.06	1083.48
1001.35	1084.11
1001.64	1082.66
1001.93	1081.89
1002.22	1083.67
1002.51	1081.82
1002.79	1083.06
1003.08	1083.88
1003.37	1081.14
1003.66	1080.93
1003.95	1081.30
1004.23	1078.71
1004.52	1077.37
1004.81	1083.25
1005.10	1083.06
1005.39	1085.14
1005.67	1083.50
1005.96	1083.90
1006.25	1080.25
1006.54	1077.42
1006.83	1075.57
1007.11	1077.02
1007.40	1075.38
1007.69	1077.91
1007.97	1078.14
1008.26	1080.95
1008.55	1079.62
1008.84	1080.37
1009.12	1079.29
1009.41	1079.17
1009.70	1077.91
1009.98	1078.38
1010.27	1080.02
1010.56	1080.56
1010.85	1084.39
1011.13	1082.10
1011.42	1082.92
1011.71	1081.51
1011.99	1082.43
1012.28	1081.33
1012.56	1083.57
1012.85	1082.83
1013.14	1085.73
1013.42	1084.04
1013.71	1082.38
1014.00	1082.26
1014.28	1082.22
1014.57	1083.93
1014.85	1082.01
1015.14	1082.66
1015.43	1077.96
1015.71	1080.41
1016.00	1079.34
1016.28	1080.72
1016.57	1082.24
1016.85	1085.63
1017.14	1085.42
1017.43	1086.31
1017.71	1087.53
1018.00	1086.62
1018.28	1089.12
1018.57	1086.90
1018.85	1083.86
1019.14	1083.79
1019.42	1084.70
1019.71	1079.57
1019.99	1078.57
1020.28	1080.41
1020.56	1081.94
1020.85	1084.72
1021.13	1088.21
1021.42	1088.70
1021.70	1088.61
1021.99	1087.58
1022.27	1081.54
1022.55	1085.66
1022.84	1070.56
>>>>>End Processed Spectral Data<<<<<
