SpectraSuite Data File
++++++++++++++++++++++++++++++++++++
Date: Mon Aug 26 10:26:45 PDT 2019
User: corrico
Dark Spectrum Present: No
Reference Spectrum Present: No
Number of Sampled Component Spectra: 1
Spectrometers: USB2+H06089
Integration Time (usec): 10000 (USB2+H06089)
Spectra Averaged: 20 (USB2+H06089)
Boxcar Smoothing: 2 (USB2+H06089)
Correct for Electrical Dark: No (USB2+H06089)
Strobe/Lamp Enabled: No (USB2+H06089)
Correct for Detector Non-linearity: No (USB2+H06089)
Correct for Stray Light: No (USB2+H06089)
Number of Pixels in Processed Spectrum: 2048
>>>>>Begin Processed Spectral Data<<<<<
339.70	1028.43
340.07	1028.43
340.45	996.97
340.82	973.99
341.19	952.48
341.57	928.44
341.94	917.35
342.31	909.72
342.69	907.10
343.06	904.41
343.43	904.62
343.81	905.81
344.18	905.11
344.55	906.93
344.93	912.29
345.30	916.65
345.67	920.86
346.04	929.75
346.42	940.85
346.79	948.13
347.16	956.41
347.54	968.33
347.91	975.21
348.28	982.39
348.65	992.95
349.03	1002.10
349.40	1012.16
349.77	1020.36
350.14	1030.68
350.52	1036.51
350.89	1045.52
351.26	1047.58
351.63	1057.69
352.01	1060.15
352.38	1065.90
352.75	1067.12
353.12	1074.82
353.50	1072.34
353.87	1075.76
354.24	1078.82
354.61	1082.08
354.98	1079.97
355.36	1085.26
355.73	1084.67
356.10	1081.73
356.47	1081.96
356.84	1083.53
357.22	1082.64
357.59	1083.93
357.96	1085.10
358.33	1083.97
358.70	1087.48
359.08	1087.30
359.45	1087.53
359.82	1088.72
360.19	1090.41
360.56	1088.56
360.94	1089.82
361.31	1091.88
361.68	1090.90
362.05	1090.10
362.42	1086.55
362.79	1084.79
363.16	1083.71
363.54	1081.54
363.91	1080.30
364.28	1081.02
364.65	1082.59
365.02	1080.65
365.39	1081.63
365.76	1084.00
366.14	1084.37
366.51	1083.55
366.88	1083.81
367.25	1083.83
367.62	1081.07
367.99	1083.34
368.36	1081.49
368.73	1081.30
369.10	1079.67
369.48	1081.09
369.85	1079.13
370.22	1080.72
370.59	1079.27
370.96	1079.06
371.33	1078.19
371.70	1079.62
372.07	1078.68
372.44	1078.28
372.81	1080.27
373.18	1079.78
373.55	1075.64
373.93	1078.00
374.30	1080.32
374.67	1080.02
375.04	1081.40
375.41	1086.50
375.78	1085.14
376.15	1084.65
376.52	1086.45
376.89	1087.30
377.26	1081.89
377.63	1082.64
378.00	1084.56
378.37	1083.41
378.74	1085.52
379.11	1088.09
379.48	1085.75
379.85	1082.45
380.22	1080.95
380.59	1078.45
380.96	1078.57
381.33	1079.90
381.70	1080.70
382.07	1082.99
382.44	1081.80
382.81	1081.47
383.18	1082.12
383.55	1082.59
383.92	1083.62
384.29	1080.48
384.66	1080.11
385.03	1079.22
385.40	1083.39
385.77	1082.66
386.14	1084.98
386.51	1085.54
386.88	1087.90
387.25	1086.55
387.62	1086.10
387.99	1086.15
388.36	1089.50
388.73	1087.95
389.10	1085.91
389.46	1082.69
389.83	1083.79
390.20	1080.79
390.57	1081.94
390.94	1077.89
391.31	1081.40
391.68	1082.08
392.05	1085.10
392.42	1085.12
392.79	1090.29
393.16	1088.91
393.53	1089.73
393.89	1087.46
394.26	1085.24
394.63	1082.57
395.00	1086.52
395.37	1085.59
395.74	1087.93
396.11	1089.22
396.48	1090.99
396.84	1091.53
397.21	1092.28
397.58	1091.32
397.95	1094.34
398.32	1097.31
398.69	1095.04
399.06	1095.25
399.42	1094.27
399.79	1092.14
400.16	1091.23
400.53	1089.99
400.90	1089.94
401.27	1092.45
401.64	1093.55
402.00	1092.19
402.37	1090.34
402.74	1092.56
403.11	1090.67
403.48	1089.61
403.84	1090.50
404.21	1095.60
404.58	1095.49
404.95	1096.24
405.32	1097.55
405.68	1099.70
406.05	1099.40
406.42	1096.85
406.79	1097.13
407.16	1097.36
407.52	1093.85
407.89	1095.53
408.26	1096.00
408.63	1096.61
408.99	1096.31
409.36	1098.16
409.73	1097.64
410.10	1100.22
410.47	1100.05
410.83	1100.24
411.20	1102.23
411.57	1099.35
411.94	1099.19
412.30	1101.15
412.67	1097.90
413.04	1096.85
413.40	1101.20
413.77	1099.98
414.14	1099.05
414.51	1104.52
414.87	1106.42
415.24	1104.85
415.61	1103.80
415.97	1108.34
416.34	1106.49
416.71	1102.65
417.08	1103.52
417.44	1105.44
417.81	1104.29
418.18	1105.72
418.54	1109.44
418.91	1109.53
419.28	1109.84
419.64	1104.64
420.01	1103.63
420.38	1103.38
420.74	1104.29
421.11	1102.02
421.48	1105.06
421.84	1107.14
422.21	1106.77
422.58	1105.67
422.94	1108.81
423.31	1111.40
423.68	1110.54
424.04	1110.19
424.41	1107.40
424.77	1105.88
425.14	1106.49
425.51	1106.16
425.87	1109.20
426.24	1110.21
426.61	1114.75
426.97	1110.44
427.34	1111.03
427.70	1108.85
428.07	1110.82
428.44	1109.41
428.80	1108.45
429.17	1110.79
429.53	1111.38
429.90	1113.18
430.27	1113.58
430.63	1117.63
431.00	1114.56
431.36	1113.79
431.73	1111.15
432.09	1110.79
432.46	1109.06
432.83	1110.16
433.19	1109.48
433.56	1110.94
433.92	1111.66
434.29	1112.22
434.65	1111.68
435.02	1110.44
435.38	1113.32
435.75	1111.36
436.11	1109.65
436.48	1111.33
436.84	1113.79
437.21	1110.56
437.57	1110.77
437.94	1113.14
438.30	1111.29
438.67	1111.38
439.03	1111.66
439.40	1111.47
439.76	1109.53
440.13	1111.17
440.49	1111.40
440.86	1110.96
441.22	1110.00
441.59	1114.31
441.95	1111.57
442.32	1114.26
442.68	1115.48
443.05	1116.11
443.41	1115.43
443.78	1120.34
444.14	1117.25
444.51	1115.03
444.87	1115.36
445.24	1111.89
445.60	1108.52
445.96	1107.89
446.33	1107.87
446.69	1106.00
447.06	1103.98
447.42	1104.87
447.79	1104.90
448.15	1104.31
448.51	1106.46
448.88	1111.29
449.24	1111.57
449.61	1110.77
449.97	1113.32
450.33	1114.73
450.70	1114.80
451.06	1113.58
451.43	1113.30
451.79	1110.58
452.15	1109.51
452.52	1105.20
452.88	1105.22
453.24	1108.34
453.61	1109.23
453.97	1108.10
454.34	1112.22
454.70	1114.75
455.06	1114.47
455.43	1117.98
455.79	1119.45
456.15	1118.47
456.52	1117.35
456.88	1116.67
457.24	1112.53
457.61	1111.15
457.97	1110.26
458.33	1107.68
458.70	1106.79
459.06	1108.45
459.42	1112.41
459.79	1112.76
460.15	1116.86
460.51	1117.68
460.88	1118.85
461.24	1118.28
461.60	1117.14
461.96	1113.91
462.33	1117.63
462.69	1119.20
463.05	1120.44
463.42	1125.10
463.78	1127.51
464.14	1125.91
464.50	1124.14
464.87	1121.61
465.23	1121.77
465.59	1124.91
465.95	1126.50
466.32	1128.72
466.68	1131.20
467.04	1127.76
467.40	1127.74
467.77	1126.97
468.13	1126.99
468.49	1126.87
468.85	1133.71
469.22	1136.45
469.58	1137.73
469.94	1140.68
470.30	1141.03
470.66	1138.06
471.03	1139.72
471.39	1143.00
471.75	1141.62
472.11	1142.04
472.47	1147.12
472.84	1147.78
473.20	1151.15
473.56	1153.79
473.92	1159.71
474.28	1162.31
474.65	1163.67
475.01	1164.58
475.37	1169.40
475.73	1172.77
476.09	1179.23
476.45	1184.80
476.81	1191.71
477.18	1198.28
477.54	1205.54
477.90	1209.71
478.26	1216.59
478.62	1221.46
478.98	1227.96
479.34	1233.63
479.71	1240.95
480.07	1249.33
480.43	1256.42
480.79	1265.08
481.15	1272.43
481.51	1283.46
481.87	1292.98
482.23	1305.13
482.59	1318.99
482.96	1332.98
483.32	1344.71
483.68	1359.62
484.04	1372.28
484.40	1381.85
484.76	1401.47
485.12	1417.78
485.48	1433.37
485.84	1456.49
486.20	1480.74
486.56	1500.94
486.92	1527.34
487.28	1551.38
487.64	1576.09
488.00	1605.49
488.37	1636.01
488.73	1665.78
489.09	1704.35
489.45	1740.52
489.81	1779.58
490.17	1818.43
490.53	1855.09
490.89	1891.13
491.25	1931.46
491.61	1974.52
491.97	2021.82
492.33	2074.56
492.69	2124.67
493.05	2178.69
493.41	2232.31
493.77	2289.86
494.13	2353.34
494.49	2422.74
494.85	2491.55
495.21	2565.93
495.57	2645.62
495.93	2727.85
496.29	2816.65
496.64	2913.55
497.00	3002.84
497.36	3097.39
497.72	3197.83
498.08	3300.55
498.44	3412.17
498.80	3541.84
499.16	3677.57
499.52	3816.27
499.88	3964.66
500.24	4116.84
500.60	4267.50
500.96	4422.35
501.32	4591.05
501.68	4760.23
502.03	4938.23
502.39	5143.84
502.75	5358.17
503.11	5581.24
503.47	5804.27
503.83	6050.33
504.19	6296.65
504.55	6562.75
504.91	6833.47
505.26	7118.41
505.62	7417.88
505.98	7728.85
506.34	8051.33
506.70	8405.00
507.06	8785.74
507.42	9181.62
507.78	9591.70
508.13	10007.26
508.49	10432.45
508.85	10887.33
509.21	11358.55
509.57	11862.68
509.93	12403.95
510.28	12982.53
510.64	13591.02
511.00	14192.12
511.36	14760.64
511.72	15331.89
512.07	15970.34
512.43	16566.66
512.79	17220.96
513.15	17946.34
513.51	18705.58
513.86	19417.06
514.22	20262.35
514.58	21067.58
514.94	21878.93
515.30	22718.39
515.65	23533.81
516.01	24337.78
516.37	25177.63
516.73	25975.38
517.08	26819.36
517.44	27644.63
517.80	28434.19
518.16	29265.57
518.51	30054.96
518.87	30793.19
519.23	31656.24
519.59	32529.47
519.94	33339.74
520.30	34237.19
520.66	34991.22
521.01	35781.64
521.37	36457.42
521.73	37067.18
522.09	37638.79
522.44	38264.60
522.80	38665.37
523.16	39009.03
523.51	39284.70
523.87	39584.43
524.23	39850.97
524.58	40119.52
524.94	40511.44
525.30	40853.33
525.65	41043.05
526.01	41090.02
526.37	41109.61
526.72	41040.92
527.08	40916.68
527.44	40735.34
527.79	40607.73
528.15	40466.69
528.51	40220.96
528.86	39993.32
529.22	39741.55
529.58	39488.82
529.93	39108.83
530.29	38677.68
530.65	38300.50
531.00	37949.35
531.36	37484.50
531.71	37039.24
532.07	36573.94
532.43	36014.36
532.78	35380.45
533.14	34832.65
533.49	34259.66
533.85	33665.07
534.21	33067.58
534.56	32511.00
534.92	31896.82
535.27	31288.77
535.63	30667.34
535.98	30039.96
536.34	29417.19
536.69	28790.74
537.05	28206.83
537.41	27692.52
537.76	27204.68
538.12	26655.28
538.47	26173.49
538.83	25713.52
539.18	25248.15
539.54	24782.97
539.89	24337.12
540.25	23838.15
540.60	23366.46
540.96	22879.18
541.31	22383.64
541.67	21970.59
542.02	21584.09
542.38	21152.22
542.73	20710.32
543.09	20321.56
543.44	19973.03
543.80	19613.92
544.15	19221.58
544.51	18897.46
544.86	18594.71
545.22	18219.60
545.57	17865.19
545.93	17520.52
546.28	17205.51
546.64	16886.26
546.99	16556.67
547.35	16230.47
547.70	15940.48
548.05	15632.91
548.41	15327.70
548.76	15032.96
549.12	14740.37
549.47	14462.50
549.83	14199.91
550.18	13878.00
550.53	13558.16
550.89	13284.67
551.24	13019.21
551.60	12716.67
551.95	12480.39
552.30	12256.66
552.66	12014.20
553.01	11761.47
553.37	11500.95
553.72	11222.42
554.07	10959.30
554.43	10684.01
554.78	10401.67
555.13	10155.02
555.49	9940.70
555.84	9755.47
556.19	9577.54
556.55	9388.71
556.90	9210.17
557.26	8998.03
557.61	8764.63
557.96	8524.32
558.32	8323.48
558.67	8112.67
559.02	7900.85
559.37	7723.51
559.73	7571.91
560.08	7414.37
560.43	7267.74
560.79	7154.39
561.14	7001.20
561.49	6843.77
561.85	6687.47
562.20	6531.97
562.55	6384.44
562.90	6259.06
563.26	6137.56
563.61	6033.53
563.96	5929.58
564.32	5805.98
564.67	5686.96
565.02	5569.42
565.37	5448.98
565.73	5337.80
566.08	5237.21
566.43	5132.98
566.78	5029.81
567.14	4926.27
567.49	4816.94
567.84	4716.16
568.19	4613.66
568.54	4528.98
568.90	4445.08
569.25	4365.87
569.60	4293.69
569.95	4224.34
570.31	4148.60
570.66	4070.75
571.01	3984.36
571.36	3892.73
571.71	3815.17
572.06	3744.74
572.42	3677.80
572.77	3626.64
573.12	3574.86
573.47	3517.66
573.82	3452.45
574.18	3387.50
574.53	3326.81
574.88	3269.10
575.23	3219.90
575.58	3168.20
575.93	3126.28
576.28	3070.60
576.64	3017.70
576.99	2958.51
577.34	2901.49
577.69	2843.42
578.04	2792.54
578.39	2747.93
578.74	2706.31
579.09	2672.94
579.44	2632.96
579.80	2593.73
580.15	2550.29
580.50	2511.44
580.85	2474.98
581.20	2447.03
581.55	2420.79
581.90	2396.47
582.25	2365.70
582.60	2327.80
582.95	2286.24
583.30	2246.49
583.65	2208.37
584.00	2173.59
584.35	2142.34
584.71	2116.08
585.06	2092.09
585.41	2064.40
585.76	2040.03
586.11	2014.66
586.46	1986.93
586.81	1962.94
587.16	1941.26
587.51	1920.69
587.86	1902.48
588.21	1883.08
588.56	1862.50
588.91	1843.29
589.26	1828.73
589.61	1809.35
589.96	1796.81
590.31	1781.33
590.66	1765.12
591.01	1740.31
591.36	1727.62
591.71	1707.61
592.06	1689.77
592.41	1672.48
592.76	1661.01
593.10	1642.24
593.45	1627.21
593.80	1612.40
594.15	1598.31
594.50	1586.74
594.85	1574.29
595.20	1566.38
595.55	1554.75
595.90	1542.60
596.25	1528.98
596.60	1517.53
596.95	1505.67
597.30	1493.50
597.64	1532.89
597.99	1527.83
598.34	1520.29
598.69	1511.52
599.04	1505.50
599.39	1451.97
599.74	1439.24
600.09	1430.51
600.44	1423.58
600.78	1413.85
601.13	1403.43
601.48	1397.09
601.83	1391.24
602.18	1381.55
602.53	1375.56
602.88	1369.24
603.22	1360.83
603.57	1353.25
603.92	1346.63
604.27	1341.52
604.62	1331.53
604.97	1326.69
605.31	1325.09
605.66	1321.75
606.01	1317.46
606.36	1315.78
606.71	1312.78
607.05	1304.97
607.40	1299.84
607.75	1293.64
608.10	1289.40
608.44	1280.11
608.79	1275.29
609.14	1270.44
609.49	1265.27
609.84	1262.39
610.18	1263.28
610.53	1256.96
610.88	1253.80
611.23	1253.29
611.57	1251.60
611.92	1247.90
612.27	1249.59
612.62	1244.11
612.96	1238.85
613.31	1232.41
613.66	1225.46
614.00	1217.99
614.35	1214.93
614.70	1213.17
615.05	1209.17
615.39	1208.68
615.74	1206.03
616.09	1206.50
616.43	1198.40
616.78	1195.03
617.13	1194.45
617.47	1193.35
617.82	1188.13
618.17	1188.73
618.51	1191.82
618.86	1188.29
619.21	1185.20
619.55	1180.59
619.90	1178.74
620.25	1173.29
620.59	1171.39
620.94	1169.07
621.29	1166.34
621.63	1168.35
621.98	1163.43
622.32	1162.80
622.67	1160.91
623.02	1164.09
623.36	1159.83
623.71	1159.83
624.05	1158.42
624.40	1155.87
624.75	1151.80
625.09	1151.05
625.44	1149.83
625.78	1146.58
626.13	1147.63
626.48	1147.71
626.82	1144.90
627.17	1145.13
627.51	1142.88
627.86	1142.42
628.20	1138.74
628.55	1139.28
628.89	1137.43
629.24	1137.13
629.58	1135.30
629.93	1135.65
630.28	1133.76
630.62	1133.80
630.97	1131.84
631.31	1128.79
631.66	1127.67
632.00	1127.81
632.35	1128.14
632.69	1125.38
633.04	1125.75
633.38	1125.45
633.73	1125.05
634.07	1121.96
634.42	1121.77
634.76	1118.66
635.11	1121.70
635.45	1121.09
635.79	1121.12
636.14	1123.50
636.48	1126.80
636.83	1120.60
637.17	1117.86
637.52	1114.84
637.86	1112.67
638.21	1111.17
638.55	1112.62
638.89	1113.44
639.24	1113.60
639.58	1111.15
639.93	1112.62
640.27	1113.56
640.61	1110.40
640.96	1108.57
641.30	1108.88
641.65	1105.29
641.99	1102.81
642.33	1105.04
642.68	1106.93
643.02	1110.44
643.37	1112.34
643.71	1114.31
644.05	1114.33
644.40	1113.67
644.74	1111.22
645.08	1107.85
645.43	1106.44
645.77	1104.31
646.11	1103.94
646.46	1103.07
646.80	1105.04
647.14	1105.46
647.49	1107.26
647.83	1109.09
648.17	1110.89
648.52	1110.79
648.86	1107.94
649.20	1110.12
649.55	1108.27
649.89	1107.33
650.23	1104.50
650.57	1106.07
650.92	1102.91
651.26	1101.03
651.60	1104.76
651.95	1106.28
652.29	1107.66
652.63	1107.14
652.97	1108.69
653.32	1103.02
653.66	1103.40
654.00	1103.40
654.34	1101.50
654.69	1099.28
655.03	1097.31
655.37	1096.56
655.71	1094.55
656.05	1097.64
656.40	1102.06
656.74	1102.02
657.08	1100.61
657.42	1099.37
657.76	1097.29
658.11	1091.53
658.45	1093.52
658.79	1092.84
659.13	1094.20
659.47	1092.59
659.82	1095.23
660.16	1094.67
660.50	1097.17
660.84	1096.31
661.18	1097.78
661.52	1097.31
661.87	1098.37
662.21	1095.82
662.55	1096.54
662.89	1096.10
663.23	1094.53
663.57	1093.12
663.91	1094.11
664.25	1091.81
664.60	1092.82
664.94	1093.80
665.28	1093.76
665.62	1094.57
665.96	1094.79
666.30	1093.90
666.64	1095.53
666.98	1096.19
667.32	1096.40
667.66	1098.60
668.01	1097.69
668.35	1097.41
668.69	1097.29
669.03	1097.27
669.37	1095.04
669.71	1094.43
670.05	1091.02
670.39	1091.60
670.73	1089.38
671.07	1088.70
671.41	1087.90
671.75	1088.77
672.09	1087.11
672.43	1089.75
672.77	1092.70
673.11	1094.46
673.45	1094.50
673.79	1095.63
674.13	1094.11
674.47	1091.27
674.81	1093.36
675.15	1094.62
675.49	1092.52
675.83	1093.64
676.17	1096.56
676.51	1092.73
676.85	1092.14
677.19	1093.19
677.53	1092.70
677.87	1091.13
678.21	1090.60
678.55	1090.78
678.89	1090.64
679.23	1088.63
679.57	1087.90
679.90	1090.17
680.24	1089.24
680.58	1089.87
680.92	1091.04
681.26	1093.01
681.60	1093.55
681.94	1095.39
682.28	1092.75
682.62	1091.51
682.96	1090.95
683.29	1089.40
683.63	1090.10
683.97	1092.09
684.31	1092.42
684.65	1092.16
684.99	1094.29
685.33	1091.74
685.67	1089.38
686.00	1091.58
686.34	1091.11
686.68	1089.14
687.02	1088.14
687.36	1091.42
687.70	1088.70
688.03	1086.76
688.37	1085.26
688.71	1085.94
689.05	1086.48
689.39	1088.65
689.72	1089.80
690.06	1090.06
690.40	1094.50
690.74	1093.15
691.08	1093.52
691.41	1093.76
691.75	1093.85
692.09	1090.08
692.43	1092.77
692.76	1089.71
693.10	1092.42
693.44	1094.53
693.78	1097.62
694.11	1092.14
694.45	1093.31
694.79	1091.11
695.13	1087.20
695.46	1085.94
695.80	1086.06
696.14	1084.07
696.48	1082.66
696.81	1085.77
697.15	1086.69
697.49	1086.13
697.82	1085.35
698.16	1085.35
698.50	1085.45
698.83	1085.21
699.17	1087.04
699.51	1087.48
699.84	1088.47
700.18	1087.69
700.52	1085.66
700.85	1087.60
701.19	1089.12
701.53	1090.15
701.86	1089.80
702.20	1088.26
702.54	1087.67
702.87	1087.55
703.21	1085.26
703.55	1082.52
703.88	1083.74
704.22	1081.26
704.55	1084.00
704.89	1084.91
705.23	1088.61
705.56	1090.69
705.90	1094.48
706.23	1093.29
706.57	1094.18
706.91	1093.71
707.24	1092.26
707.58	1091.98
707.91	1089.75
708.25	1090.55
708.58	1090.24
708.92	1092.07
709.26	1090.34
709.59	1091.02
709.93	1088.75
710.26	1088.89
710.60	1087.04
710.93	1088.93
711.27	1090.53
711.60	1089.89
711.94	1088.23
712.27	1087.23
712.61	1084.98
712.94	1085.56
713.28	1085.82
713.61	1085.63
713.95	1085.12
714.28	1085.73
714.62	1084.21
714.95	1084.56
715.29	1088.91
715.62	1087.86
715.96	1089.14
716.29	1088.42
716.63	1089.19
716.96	1084.32
717.29	1086.06
717.63	1084.14
717.96	1085.84
718.30	1087.74
718.63	1088.61
718.97	1089.47
719.30	1093.40
719.63	1092.68
719.97	1090.78
720.30	1092.21
720.64	1091.72
720.97	1088.54
721.30	1086.97
721.64	1087.76
721.97	1088.56
722.31	1088.00
722.64	1088.84
722.97	1088.37
723.31	1087.20
723.64	1086.43
723.97	1087.62
724.31	1087.37
724.64	1089.00
724.98	1087.16
725.31	1086.10
725.64	1084.65
725.98	1084.44
726.31	1086.48
726.64	1088.77
726.97	1090.20
727.31	1090.78
727.64	1093.40
727.97	1093.08
728.31	1093.10
728.64	1091.93
728.97	1092.28
729.31	1090.69
729.64	1090.15
729.97	1089.85
730.30	1091.11
730.64	1090.92
730.97	1087.97
731.30	1086.92
731.63	1086.92
731.97	1086.20
732.30	1085.75
732.63	1089.68
732.96	1089.57
733.30	1093.03
733.63	1092.52
733.96	1091.95
734.29	1090.03
734.63	1087.32
734.96	1085.03
735.29	1087.11
735.62	1088.02
735.95	1086.08
736.29	1088.09
736.62	1086.31
736.95	1084.98
737.28	1087.25
737.61	1089.12
737.94	1091.32
738.28	1093.22
738.61	1090.81
738.94	1091.74
739.27	1092.14
739.60	1089.12
739.93	1087.69
740.27	1089.36
740.60	1084.28
740.93	1081.89
741.26	1084.79
741.59	1086.66
741.92	1087.46
742.25	1089.47
742.58	1089.19
742.91	1089.40
743.25	1087.55
743.58	1085.56
743.91	1083.32
744.24	1084.63
744.57	1084.93
744.90	1087.62
745.23	1091.86
745.56	1095.28
745.89	1097.15
746.22	1096.03
746.55	1092.91
746.88	1090.29
747.21	1088.47
747.54	1085.26
747.87	1082.99
748.20	1083.71
748.53	1083.36
748.87	1083.79
749.20	1083.39
749.53	1087.30
749.86	1089.22
750.19	1090.57
750.52	1090.29
750.85	1092.56
751.18	1090.32
751.51	1085.47
751.84	1083.27
752.16	1082.83
752.49	1082.76
752.82	1082.22
753.15	1083.43
753.48	1081.19
753.81	1083.39
754.14	1083.81
754.47	1083.79
754.80	1083.34
755.13	1084.67
755.46	1085.24
755.79	1086.41
756.12	1088.09
756.45	1089.50
756.78	1093.29
757.11	1092.07
757.43	1090.08
757.76	1090.34
758.09	1090.53
758.42	1088.58
758.75	1088.04
759.08	1089.10
759.41	1088.21
759.74	1085.03
760.07	1086.27
760.39	1087.13
760.72	1086.03
761.05	1087.88
761.38	1093.69
761.71	1094.04
762.04	1092.00
762.36	1091.84
762.69	1090.90
763.02	1086.78
763.35	1085.80
763.68	1084.91
764.01	1085.40
764.33	1084.16
764.66	1085.14
764.99	1086.41
765.32	1090.29
765.65	1090.34
765.97	1086.59
766.30	1087.93
766.63	1085.59
766.96	1084.25
767.28	1081.02
767.61	1082.78
767.94	1080.04
768.27	1081.63
768.59	1081.49
768.92	1084.28
769.25	1083.90
769.58	1086.78
769.90	1085.59
770.23	1084.65
770.56	1085.40
770.89	1088.70
771.21	1086.80
771.54	1087.25
771.87	1086.55
772.19	1084.65
772.52	1081.87
772.85	1082.71
773.17	1084.79
773.50	1088.98
773.83	1091.34
774.15	1093.12
774.48	1095.00
774.81	1095.75
775.13	1092.35
775.46	1092.66
775.79	1090.43
776.11	1085.73
776.44	1083.41
776.77	1083.57
777.09	1082.87
777.42	1086.73
777.74	1089.68
778.07	1090.83
778.40	1091.34
778.72	1090.15
779.05	1090.17
779.37	1088.12
779.70	1086.24
780.03	1082.71
780.35	1081.40
780.68	1079.99
781.00	1081.77
781.33	1081.35
781.65	1082.80
781.98	1084.56
782.31	1083.01
782.63	1083.74
782.96	1081.66
783.28	1081.14
783.61	1085.00
783.93	1085.84
784.26	1086.38
784.58	1089.89
784.91	1092.02
785.23	1087.62
785.56	1085.21
785.88	1085.66
786.21	1085.84
786.53	1084.28
786.86	1086.55
787.18	1088.47
787.51	1089.57
787.83	1087.86
788.16	1089.31
788.48	1086.52
788.81	1085.59
789.13	1085.80
789.46	1087.41
789.78	1087.60
790.10	1087.55
790.43	1087.72
790.75	1085.28
791.08	1084.63
791.40	1088.16
791.73	1093.22
792.05	1094.69
792.37	1095.42
792.70	1092.28
793.02	1089.75
793.35	1088.89
793.67	1088.00
793.99	1087.16
794.32	1089.00
794.64	1089.00
794.96	1085.75
795.29	1087.74
795.61	1088.49
795.93	1089.00
796.26	1085.91
796.58	1084.81
796.91	1085.17
797.23	1086.06
797.55	1086.22
797.87	1086.90
798.20	1086.50
798.52	1083.74
798.84	1079.78
799.17	1078.12
799.49	1079.71
799.81	1081.44
800.14	1083.62
800.46	1088.49
800.78	1090.69
801.10	1089.47
801.43	1088.96
801.75	1089.64
802.07	1084.96
802.40	1083.97
802.72	1085.89
803.04	1084.67
803.36	1079.36
803.69	1082.33
804.01	1083.50
804.33	1084.00
804.65	1085.19
804.97	1089.19
805.30	1089.85
805.62	1091.95
805.94	1090.10
806.26	1086.76
806.58	1088.91
806.91	1088.86
807.23	1087.25
807.55	1087.13
807.87	1089.99
808.19	1086.87
808.52	1084.35
808.84	1084.00
809.16	1084.81
809.48	1083.29
809.80	1083.57
810.12	1084.14
810.44	1084.37
810.77	1083.69
811.09	1087.39
811.41	1086.55
811.73	1086.15
812.05	1086.69
812.37	1087.18
812.69	1084.65
813.01	1082.87
813.33	1082.92
813.66	1081.37
813.98	1082.03
814.30	1084.23
814.62	1088.04
814.94	1085.80
815.26	1085.56
815.58	1084.04
815.90	1080.48
816.22	1081.63
816.54	1082.45
816.86	1084.74
817.18	1088.61
817.50	1092.05
817.82	1086.06
818.14	1087.11
818.46	1083.25
818.78	1080.34
819.10	1079.53
819.42	1085.45
819.74	1086.08
820.06	1087.04
820.38	1084.37
820.70	1082.57
821.02	1078.85
821.34	1079.90
821.66	1081.77
821.98	1083.97
822.30	1083.32
822.62	1083.55
822.94	1086.52
823.26	1086.15
823.58	1087.62
823.90	1088.16
824.22	1090.88
824.54	1089.31
824.86	1090.03
825.18	1090.43
825.50	1093.36
825.81	1092.94
826.13	1090.95
826.45	1087.62
826.77	1084.35
827.09	1085.12
827.41	1084.58
827.73	1084.35
828.05	1085.54
828.36	1088.40
828.68	1086.29
829.00	1087.06
829.32	1085.10
829.64	1085.96
829.96	1084.72
830.28	1082.85
830.59	1079.34
830.91	1077.93
831.23	1079.06
831.55	1075.69
831.87	1076.41
832.19	1078.05
832.50	1080.93
832.82	1078.66
833.14	1081.33
833.46	1081.87
833.78	1082.15
834.09	1083.06
834.41	1082.66
834.73	1084.81
835.05	1084.37
835.36	1084.28
835.68	1084.60
836.00	1089.22
836.32	1091.37
836.63	1090.24
836.95	1092.66
837.27	1090.57
837.59	1089.87
837.90	1086.80
838.22	1092.12
838.54	1087.69
838.85	1090.20
839.17	1090.50
839.49	1088.12
839.80	1086.87
840.12	1087.41
840.44	1089.14
840.76	1084.72
841.07	1083.46
841.39	1087.34
841.71	1088.70
842.02	1088.28
842.34	1090.55
842.65	1092.82
842.97	1086.59
843.29	1086.15
843.60	1084.07
843.92	1084.91
844.24	1086.06
844.55	1085.28
844.87	1086.38
845.18	1084.74
845.50	1084.32
845.82	1081.68
846.13	1081.16
846.45	1080.56
846.76	1081.94
847.08	1079.99
847.40	1081.82
847.71	1081.37
848.03	1083.71
848.34	1085.07
848.66	1088.04
848.97	1089.10
849.29	1093.47
849.60	1088.00
849.92	1089.03
850.24	1083.71
850.55	1083.93
850.87	1082.22
851.18	1086.94
851.50	1084.37
851.81	1086.13
852.13	1085.49
852.44	1082.40
852.76	1080.95
853.07	1083.62
853.39	1085.45
853.70	1084.89
854.01	1088.14
854.33	1085.70
854.64	1080.27
854.96	1078.07
855.27	1078.43
855.59	1075.13
855.90	1079.01
856.22	1080.39
856.53	1080.86
856.84	1080.23
857.16	1080.79
857.47	1077.02
857.79	1078.38
858.10	1080.46
858.41	1078.24
858.73	1077.49
859.04	1078.99
859.36	1078.73
859.67	1077.61
859.98	1078.43
860.30	1081.02
860.61	1081.56
860.92	1082.59
861.24	1082.33
861.55	1084.23
861.87	1086.64
862.18	1088.61
862.49	1089.64
862.81	1088.82
863.12	1088.58
863.43	1088.91
863.74	1085.19
864.06	1083.13
864.37	1085.52
864.68	1086.52
865.00	1081.94
865.31	1081.33
865.62	1080.25
865.94	1076.15
866.25	1075.66
866.56	1077.91
866.87	1079.90
867.19	1082.15
867.50	1083.97
867.81	1083.39
868.12	1083.53
868.44	1084.37
868.75	1084.77
869.06	1086.06
869.37	1087.81
869.68	1086.69
870.00	1085.68
870.31	1082.90
870.62	1084.63
870.93	1083.18
871.24	1084.70
871.56	1084.96
871.87	1085.99
872.18	1082.99
872.49	1082.69
872.80	1083.32
873.12	1086.36
873.43	1086.69
873.74	1087.55
874.05	1087.46
874.36	1086.17
874.67	1081.68
874.98	1079.69
875.29	1082.85
875.61	1083.13
875.92	1084.86
876.23	1086.69
876.54	1087.86
876.85	1082.87
877.16	1084.77
877.47	1080.02
877.78	1083.41
878.09	1080.63
878.40	1080.27
878.72	1077.35
879.03	1080.91
879.34	1074.49
879.65	1079.74
879.96	1083.29
880.27	1084.56
880.58	1085.52
880.89	1089.94
881.20	1087.83
881.51	1087.32
881.82	1087.32
882.13	1083.67
882.44	1080.06
882.75	1081.80
883.06	1084.91
883.37	1083.81
883.68	1089.36
883.99	1089.73
884.30	1086.80
884.61	1082.57
884.92	1083.01
885.23	1082.85
885.54	1085.66
885.85	1086.38
886.16	1084.49
886.47	1082.64
886.78	1078.12
887.08	1075.03
887.39	1076.69
887.70	1078.89
888.01	1077.65
888.32	1078.38
888.63	1079.01
888.94	1078.82
889.25	1081.61
889.56	1087.34
889.87	1088.07
890.17	1087.18
890.48	1084.00
890.79	1080.25
891.10	1078.31
891.41	1076.13
891.72	1080.37
892.03	1085.42
892.34	1088.49
892.64	1089.26
892.95	1089.26
893.26	1089.57
893.57	1087.79
893.88	1085.35
894.18	1082.26
894.49	1081.61
894.80	1080.51
895.11	1081.44
895.42	1085.24
895.72	1089.54
896.03	1091.53
896.34	1093.78
896.65	1092.59
896.96	1088.54
897.26	1087.37
897.57	1085.21
897.88	1081.47
898.19	1079.34
898.49	1079.74
898.80	1079.76
899.11	1080.56
899.41	1081.61
899.72	1081.33
900.03	1082.15
900.34	1080.98
900.64	1084.02
900.95	1082.97
901.26	1085.42
901.56	1084.60
901.87	1083.79
902.18	1084.79
902.48	1086.90
902.79	1087.20
903.10	1089.31
903.40	1088.63
903.71	1086.10
904.02	1084.14
904.32	1082.66
904.63	1082.43
904.94	1083.79
905.24	1085.49
905.55	1084.07
905.85	1086.94
906.16	1084.63
906.47	1084.98
906.77	1085.35
907.08	1088.19
907.38	1085.52
907.69	1083.79
908.00	1082.71
908.30	1081.70
908.61	1078.80
908.91	1075.90
909.22	1078.64
909.52	1080.77
909.83	1082.43
910.14	1084.04
910.44	1087.53
910.75	1089.59
911.05	1086.94
911.36	1084.93
911.66	1082.64
911.97	1082.24
912.27	1081.70
912.58	1084.77
912.88	1086.83
913.19	1090.69
913.49	1089.43
913.80	1088.07
914.10	1084.30
914.41	1085.12
914.71	1086.01
915.01	1087.62
915.32	1086.64
915.62	1087.20
915.93	1083.32
916.23	1083.06
916.54	1084.23
916.84	1086.13
917.15	1086.57
917.45	1085.87
917.75	1085.40
918.06	1081.09
918.36	1078.26
918.67	1076.72
918.97	1074.40
919.27	1072.74
919.58	1074.31
919.88	1078.14
920.18	1082.47
920.49	1084.37
920.79	1086.13
921.10	1086.92
921.40	1087.02
921.70	1086.87
922.01	1087.37
922.31	1084.46
922.61	1085.68
922.92	1082.43
923.22	1084.28
923.52	1086.13
923.82	1088.58
924.13	1089.38
924.43	1091.04
924.73	1085.61
925.04	1084.58
925.34	1085.82
925.64	1083.36
925.94	1080.74
926.25	1082.17
926.55	1080.41
926.85	1075.08
927.15	1077.70
927.46	1078.47
927.76	1080.48
928.06	1083.22
928.36	1085.89
928.67	1083.93
928.97	1083.01
929.27	1082.54
929.57	1084.74
929.87	1084.79
930.18	1085.38
930.48	1088.02
930.78	1084.53
931.08	1082.05
931.38	1083.88
931.69	1083.60
931.99	1082.90
932.29	1085.84
932.59	1083.74
932.89	1084.07
933.19	1082.85
933.49	1080.72
933.80	1081.44
934.10	1085.26
934.40	1083.04
934.70	1083.57
935.00	1086.01
935.30	1084.86
935.60	1082.50
935.90	1082.52
936.20	1084.89
936.50	1082.03
936.81	1081.96
937.11	1085.45
937.41	1086.90
937.71	1083.83
938.01	1086.78
938.31	1086.64
938.61	1082.45
938.91	1081.51
939.21	1084.16
939.51	1082.36
939.81	1083.95
940.11	1081.80
940.41	1079.92
940.71	1078.31
941.01	1082.94
941.31	1083.97
941.61	1090.20
941.91	1090.90
942.21	1091.88
942.51	1090.06
942.81	1086.38
943.11	1081.05
943.41	1082.01
943.71	1083.01
944.01	1079.13
944.31	1081.21
944.61	1083.36
944.90	1084.58
945.20	1083.46
945.50	1088.42
945.80	1084.53
946.10	1086.06
946.40	1084.39
946.70	1083.76
947.00	1080.74
947.30	1084.32
947.60	1077.51
947.89	1078.21
948.19	1081.02
948.49	1079.15
948.79	1077.11
949.09	1080.34
949.39	1081.26
949.69	1078.45
949.98	1078.71
950.28	1079.08
950.58	1083.34
950.88	1084.96
951.18	1084.86
951.48	1087.58
951.77	1086.48
952.07	1081.75
952.37	1079.41
952.67	1078.99
952.97	1077.58
953.26	1079.27
953.56	1081.23
953.86	1083.41
954.16	1081.98
954.45	1081.23
954.75	1084.79
955.05	1087.18
955.35	1085.49
955.64	1086.22
955.94	1085.73
956.24	1084.30
956.54	1084.74
956.83	1083.53
957.13	1085.91
957.43	1091.60
957.72	1091.06
958.02	1090.15
958.32	1085.91
958.61	1083.60
958.91	1078.47
959.21	1074.56
959.50	1073.84
959.80	1077.35
960.10	1075.76
960.39	1076.37
960.69	1081.30
960.99	1081.96
961.28	1082.33
961.58	1084.53
961.87	1083.13
962.17	1085.28
962.47	1083.93
962.76	1085.28
963.06	1085.91
963.36	1090.53
963.65	1086.64
963.95	1086.27
964.24	1086.71
964.54	1085.19
964.83	1082.01
965.13	1079.76
965.42	1079.48
965.72	1079.36
966.02	1083.34
966.31	1084.77
966.61	1086.17
966.90	1086.66
967.20	1084.96
967.49	1079.71
967.79	1080.06
968.08	1078.73
968.38	1077.40
968.67	1077.16
968.97	1079.78
969.26	1077.72
969.56	1082.87
969.85	1086.31
970.15	1087.27
970.44	1083.41
970.74	1085.03
971.03	1082.94
971.32	1079.92
971.62	1082.08
971.91	1086.01
972.21	1083.34
972.50	1082.54
972.80	1082.73
973.09	1081.14
973.38	1081.23
973.68	1084.84
973.97	1085.03
974.27	1083.69
974.56	1080.25
974.85	1077.72
975.15	1076.41
975.44	1075.29
975.73	1078.82
976.03	1083.67
976.32	1087.20
976.61	1085.80
976.91	1085.35
977.20	1084.98
977.49	1081.87
977.79	1080.86
978.08	1082.76
978.37	1084.74
978.67	1082.78
978.96	1084.81
979.25	1082.10
979.55	1080.77
979.84	1078.50
980.13	1079.34
980.42	1076.86
980.72	1078.24
981.01	1080.09
981.30	1082.22
981.59	1082.85
981.89	1083.53
982.18	1085.47
982.47	1082.59
982.76	1081.47
983.06	1083.27
983.35	1083.25
983.64	1086.17
983.93	1085.03
984.22	1082.97
984.52	1081.94
984.81	1085.96
985.10	1081.30
985.39	1084.37
985.68	1084.51
985.97	1083.46
986.27	1082.24
986.56	1083.32
986.85	1079.85
987.14	1081.42
987.43	1079.69
987.72	1076.65
988.01	1075.24
988.31	1075.64
988.60	1076.79
988.89	1076.86
989.18	1077.02
989.47	1077.18
989.76	1080.63
990.05	1079.81
990.34	1082.76
990.63	1083.39
990.92	1083.69
991.21	1081.98
991.51	1081.51
991.80	1081.40
992.09	1083.43
992.38	1082.66
992.67	1084.63
992.96	1086.97
993.25	1087.04
993.54	1083.76
993.83	1085.99
994.12	1085.17
994.41	1082.94
994.70	1082.03
994.99	1083.53
995.28	1081.56
995.57	1080.70
995.86	1082.22
996.15	1084.49
996.44	1086.06
996.73	1088.35
997.02	1090.64
997.31	1087.65
997.59	1082.92
997.88	1079.24
998.17	1078.78
998.46	1076.32
998.75	1078.73
999.04	1081.94
999.33	1085.05
999.62	1083.06
999.91	1084.37
1000.20	1083.46
1000.49	1082.43
1000.77	1080.02
1001.06	1083.90
1001.35	1083.18
1001.64	1083.50
1001.93	1083.81
1002.22	1081.96
1002.51	1076.81
1002.79	1076.04
1003.08	1075.34
1003.37	1072.78
1003.66	1073.32
1003.95	1077.91
1004.23	1077.96
1004.52	1078.73
1004.81	1081.75
1005.10	1082.99
1005.39	1079.64
1005.67	1079.81
1005.96	1078.94
1006.25	1073.86
1006.54	1074.94
1006.83	1079.31
1007.11	1080.95
1007.40	1082.76
1007.69	1087.41
1007.97	1086.87
1008.26	1083.01
1008.55	1081.73
1008.84	1081.16
1009.12	1082.76
1009.41	1085.38
1009.70	1085.17
1009.98	1088.30
1010.27	1089.92
1010.56	1087.55
1010.85	1084.46
1011.13	1085.87
1011.42	1081.35
1011.71	1079.48
1011.99	1078.99
1012.28	1082.05
1012.56	1082.47
1012.85	1082.26
1013.14	1080.88
1013.42	1080.58
1013.71	1078.38
1014.00	1075.64
1014.28	1078.64
1014.57	1079.43
1014.85	1079.81
1015.14	1080.74
1015.43	1082.76
1015.71	1080.04
1016.00	1079.03
1016.28	1079.90
1016.57	1079.24
1016.85	1075.87
1017.14	1078.66
1017.43	1078.94
1017.71	1077.56
1018.00	1080.56
1018.28	1085.52
1018.57	1083.34
1018.85	1082.31
1019.14	1084.28
1019.42	1083.83
1019.71	1082.76
1019.99	1083.46
1020.28	1084.04
1020.56	1082.97
1020.85	1081.42
1021.13	1082.31
1021.42	1081.73
1021.70	1083.90
1021.99	1084.23
1022.27	1082.17
1022.55	1083.67
1022.84	1075.94
>>>>>End Processed Spectral Data<<<<<
