SpectraSuite Data File
++++++++++++++++++++++++++++++++++++
Date: Mon Aug 26 10:26:52 PDT 2019
User: corrico
Dark Spectrum Present: No
Reference Spectrum Present: No
Number of Sampled Component Spectra: 1
Spectrometers: USB2+H06089
Integration Time (usec): 10000 (USB2+H06089)
Spectra Averaged: 20 (USB2+H06089)
Boxcar Smoothing: 2 (USB2+H06089)
Correct for Electrical Dark: No (USB2+H06089)
Strobe/Lamp Enabled: No (USB2+H06089)
Correct for Detector Non-linearity: No (USB2+H06089)
Correct for Stray Light: No (USB2+H06089)
Number of Pixels in Processed Spectrum: 2048
>>>>>Begin Processed Spectral Data<<<<<
339.70	1030.19
340.07	1030.19
340.45	995.01
340.82	973.41
341.19	950.63
341.57	928.40
341.94	916.55
342.31	910.40
342.69	906.47
343.06	901.93
343.43	896.35
343.81	901.18
344.18	902.02
344.55	905.27
344.93	910.07
345.30	917.68
345.67	922.78
346.04	930.76
346.42	938.39
346.79	947.92
347.16	957.72
347.54	968.40
347.91	976.33
348.28	984.62
348.65	995.15
349.03	1003.95
349.40	1014.88
349.77	1026.68
350.14	1037.61
350.52	1045.45
350.89	1051.56
351.26	1053.38
351.63	1054.88
352.01	1059.72
352.38	1062.72
352.75	1068.20
353.12	1075.66
353.50	1082.26
353.87	1082.64
354.24	1083.20
354.61	1086.66
354.98	1086.64
355.36	1088.89
355.73	1090.34
356.10	1095.58
356.47	1095.60
356.84	1094.18
357.22	1089.12
357.59	1092.21
357.96	1089.50
358.33	1089.33
358.70	1093.26
359.08	1094.08
359.45	1092.75
359.82	1095.60
360.19	1093.19
360.56	1090.55
360.94	1088.89
361.31	1086.50
361.68	1083.41
362.05	1083.93
362.42	1082.59
362.79	1087.32
363.16	1086.29
363.54	1085.75
363.91	1086.45
364.28	1086.08
364.65	1083.57
365.02	1083.88
365.39	1082.10
365.76	1078.00
366.14	1080.88
366.51	1080.65
366.88	1081.05
367.25	1085.61
367.62	1089.31
367.99	1085.45
368.36	1083.88
368.73	1083.43
369.10	1079.41
369.48	1077.42
369.85	1077.49
370.22	1077.65
370.59	1076.90
370.96	1075.64
371.33	1077.25
371.70	1076.55
372.07	1080.02
372.44	1084.39
372.81	1085.35
373.18	1081.09
373.55	1079.90
373.93	1077.65
374.30	1078.26
374.67	1077.07
375.04	1079.13
375.41	1082.45
375.78	1083.76
376.15	1080.67
376.52	1083.69
376.89	1085.03
377.26	1083.08
377.63	1086.01
378.00	1085.59
378.37	1086.76
378.74	1084.44
379.11	1083.13
379.48	1081.28
379.85	1082.71
380.22	1082.64
380.59	1083.01
380.96	1086.73
381.33	1085.05
381.70	1084.39
382.07	1082.80
382.44	1083.39
382.81	1082.36
383.18	1083.36
383.55	1085.24
383.92	1086.36
384.29	1086.87
384.66	1088.14
385.03	1088.21
385.40	1088.12
385.77	1088.79
386.14	1089.92
386.51	1089.40
386.88	1088.54
387.25	1087.20
387.62	1086.10
387.99	1086.15
388.36	1091.20
388.73	1092.33
389.10	1092.00
389.46	1091.06
389.83	1091.79
390.20	1087.86
390.57	1086.20
390.94	1086.66
391.31	1089.31
391.68	1089.17
392.05	1088.26
392.42	1090.69
392.79	1089.66
393.16	1087.88
393.53	1086.87
393.89	1088.33
394.26	1088.79
394.63	1087.88
395.00	1088.12
395.37	1089.92
395.74	1087.95
396.11	1083.67
396.48	1089.17
396.84	1089.19
397.21	1090.69
397.58	1095.96
397.95	1100.00
398.32	1097.34
398.69	1099.02
399.06	1098.93
399.42	1097.50
399.79	1097.27
400.16	1098.93
400.53	1096.12
400.90	1093.87
401.27	1093.71
401.64	1093.33
402.00	1095.07
402.37	1099.91
402.74	1102.18
403.11	1098.83
403.48	1099.61
403.84	1094.72
404.21	1093.69
404.58	1090.64
404.95	1093.36
405.32	1092.56
405.68	1093.69
406.05	1091.25
406.42	1095.91
406.79	1097.01
407.16	1100.26
407.52	1100.99
407.89	1101.20
408.26	1100.54
408.63	1096.28
408.99	1096.07
409.36	1095.86
409.73	1096.54
410.10	1098.90
410.47	1102.32
410.83	1100.54
411.20	1099.19
411.57	1101.62
411.94	1097.69
412.30	1095.02
412.67	1094.39
413.04	1098.60
413.40	1099.96
413.77	1099.26
414.14	1103.21
414.51	1104.87
414.87	1104.52
415.24	1104.01
415.61	1105.53
415.97	1102.60
416.34	1103.96
416.71	1103.87
417.08	1102.60
417.44	1101.18
417.81	1101.53
418.18	1099.09
418.54	1098.67
418.91	1101.39
419.28	1104.99
419.64	1107.38
420.01	1112.32
420.38	1113.77
420.74	1114.05
421.11	1115.01
421.48	1116.13
421.84	1110.79
422.21	1110.51
422.58	1110.70
422.94	1110.54
423.31	1110.56
423.68	1114.05
424.04	1113.18
424.41	1110.28
424.77	1111.47
425.14	1113.04
425.51	1109.44
425.87	1106.84
426.24	1107.03
426.61	1104.17
426.97	1106.14
427.34	1109.55
427.70	1112.64
428.07	1113.14
428.44	1115.10
428.80	1111.15
429.17	1111.05
429.53	1110.87
429.90	1110.49
430.27	1110.26
430.63	1109.58
431.00	1109.55
431.36	1110.00
431.73	1110.30
432.09	1113.04
432.46	1116.58
432.83	1118.03
433.19	1117.84
433.56	1117.42
433.92	1112.48
434.29	1111.59
434.65	1110.87
435.02	1112.41
435.38	1114.49
435.75	1119.15
436.11	1120.02
436.48	1118.87
436.84	1116.72
437.21	1113.74
437.57	1113.04
437.94	1111.47
438.30	1109.62
438.67	1108.69
439.03	1111.59
439.40	1110.02
439.76	1109.20
440.13	1112.97
440.49	1113.60
440.86	1115.20
441.22	1115.62
441.59	1115.73
441.95	1113.09
442.32	1114.80
442.68	1111.75
443.05	1111.89
443.41	1111.99
443.78	1112.36
444.14	1110.37
444.51	1111.45
444.87	1108.52
445.24	1107.42
445.60	1107.47
445.96	1108.22
446.33	1110.72
446.69	1110.63
447.06	1112.43
447.42	1110.14
447.79	1109.23
448.15	1106.35
448.51	1109.09
448.88	1106.54
449.24	1106.70
449.61	1110.72
449.97	1110.98
450.33	1109.67
450.70	1113.35
451.06	1115.92
451.43	1116.72
451.79	1116.46
452.15	1117.47
452.52	1115.43
452.88	1115.83
453.24	1114.10
453.61	1113.86
453.97	1113.95
454.34	1115.97
454.70	1116.86
455.06	1116.97
455.43	1118.80
455.79	1120.39
456.15	1121.23
456.52	1120.65
456.88	1120.25
457.24	1119.36
457.61	1116.90
457.97	1114.05
458.33	1113.49
458.70	1112.62
459.06	1112.15
459.42	1111.66
459.79	1111.94
460.15	1113.28
460.51	1113.14
460.88	1115.22
461.24	1115.90
461.60	1116.83
461.96	1117.89
462.33	1120.32
462.69	1119.60
463.05	1121.33
463.42	1121.54
463.78	1119.55
464.14	1120.74
464.50	1119.48
464.87	1118.45
465.23	1118.05
465.59	1118.73
465.95	1120.58
466.32	1127.01
466.68	1128.21
467.04	1130.83
467.40	1131.91
467.77	1128.09
468.13	1126.94
468.49	1129.61
468.85	1128.56
469.22	1134.46
469.58	1140.45
469.94	1142.13
470.30	1145.15
470.66	1148.52
471.03	1147.33
471.39	1145.97
471.75	1148.99
472.11	1151.61
472.47	1153.91
472.84	1156.48
473.20	1158.35
473.56	1159.52
473.92	1161.21
474.28	1164.46
474.65	1166.29
475.01	1170.55
475.37	1174.01
475.73	1176.61
476.09	1182.20
476.45	1186.84
476.81	1193.32
477.18	1197.86
477.54	1203.41
477.90	1207.72
478.26	1212.40
478.62	1217.76
478.98	1224.62
479.34	1232.92
479.71	1238.68
480.07	1249.40
480.43	1258.34
480.79	1268.73
481.15	1278.05
481.51	1290.20
481.87	1299.54
482.23	1308.41
482.59	1317.75
482.96	1329.03
483.32	1342.95
483.68	1357.42
484.04	1374.85
484.40	1391.50
484.76	1406.99
485.12	1423.35
485.48	1438.73
485.84	1460.00
486.20	1479.71
486.56	1502.30
486.92	1526.47
487.28	1554.30
487.64	1580.45
488.00	1609.91
488.37	1639.55
488.73	1672.15
489.09	1706.98
489.45	1739.39
489.81	1772.65
490.17	1810.76
490.53	1841.86
490.89	1877.39
491.25	1916.06
491.61	1965.02
491.97	2011.99
492.33	2069.01
492.69	2124.43
493.05	2184.63
493.41	2238.70
493.77	2297.59
494.13	2363.03
494.49	2431.23
494.85	2494.66
495.21	2569.44
495.57	2648.71
495.93	2730.35
496.29	2817.84
496.64	2920.26
497.00	3007.66
497.36	3106.15
497.72	3203.44
498.08	3305.94
498.44	3412.15
498.80	3539.48
499.16	3669.23
499.52	3812.29
499.88	3967.58
500.24	4120.42
500.60	4275.92
500.96	4431.71
501.32	4594.99
501.68	4754.33
502.03	4933.24
502.39	5137.29
502.75	5351.92
503.11	5576.47
503.47	5809.12
503.83	6062.24
504.19	6308.54
504.55	6581.77
504.91	6853.37
505.26	7135.99
505.62	7427.29
505.98	7741.72
506.34	8069.49
506.70	8423.75
507.06	8810.06
507.42	9204.79
507.78	9599.82
508.13	10005.93
508.49	10439.28
508.85	10898.42
509.21	11374.54
509.57	11910.00
509.93	12462.39
510.28	13047.85
510.64	13652.86
511.00	14247.94
511.36	14811.50
511.72	15395.58
512.07	16030.80
512.43	16637.84
512.79	17314.16
513.15	18040.80
513.51	18769.60
513.86	19509.63
514.22	20329.07
514.58	21135.27
514.94	21968.34
515.30	22822.94
515.65	23609.45
516.01	24440.01
516.37	25258.45
516.73	26010.91
517.08	26863.52
517.44	27707.14
517.80	28493.45
518.16	29362.61
518.51	30184.06
518.87	30923.09
519.23	31764.74
519.59	32614.03
519.94	33416.58
520.30	34306.50
520.66	35071.66
521.01	35864.75
521.37	36558.16
521.73	37177.21
522.09	37756.63
522.44	38376.22
522.80	38763.13
523.16	39109.49
523.51	39342.44
523.87	39634.54
524.23	39908.01
524.58	40187.40
524.94	40586.08
525.30	40957.48
525.65	41133.60
526.01	41175.20
526.37	41197.01
526.72	41140.28
527.08	41008.25
527.44	40838.74
527.79	40699.93
528.15	40580.28
528.51	40332.93
528.86	40132.96
529.22	39906.18
529.58	39643.78
529.93	39285.61
530.29	38855.47
530.65	38463.92
531.00	38109.00
531.36	37655.50
531.71	37166.30
532.07	36698.06
532.43	36110.74
532.78	35445.45
533.14	34913.44
533.49	34367.35
533.85	33754.25
534.21	33152.00
534.56	32628.07
534.92	32031.35
535.27	31405.78
535.63	30809.20
535.98	30201.66
536.34	29564.20
536.69	28907.61
537.05	28321.16
537.41	27799.71
537.76	27317.70
538.12	26784.72
538.47	26315.11
538.83	25856.60
539.18	25382.27
539.54	24892.93
539.89	24448.49
540.25	23926.01
540.60	23450.01
540.96	22971.75
541.31	22508.21
541.67	22090.75
542.02	21717.48
542.38	21270.88
542.73	20818.67
543.09	20433.58
543.44	20054.08
543.80	19692.87
544.15	19301.56
544.51	18970.04
544.86	18653.44
545.22	18288.45
545.57	17929.84
545.93	17596.26
546.28	17290.54
546.64	16951.31
546.99	16618.76
547.35	16288.35
547.70	15992.15
548.05	15682.55
548.41	15383.87
548.76	15082.79
549.12	14786.01
549.47	14510.50
549.83	14240.66
550.18	13929.79
550.53	13618.80
550.89	13349.22
551.24	13076.46
551.60	12783.33
551.95	12529.78
552.30	12299.23
552.66	12070.47
553.01	11831.69
553.37	11557.85
553.72	11286.77
554.07	11022.40
554.43	10740.93
554.78	10450.40
555.13	10199.63
555.49	9974.57
555.84	9776.86
556.19	9583.16
556.55	9386.11
556.90	9192.06
557.26	8995.15
557.61	8779.49
557.96	8540.59
558.32	8346.98
558.67	8154.68
559.02	7937.88
559.37	7747.27
559.73	7598.41
560.08	7434.83
560.43	7274.03
560.79	7148.58
561.14	7004.83
561.49	6836.78
561.85	6685.83
562.20	6541.40
562.55	6407.29
562.90	6272.78
563.26	6161.39
563.61	6051.17
563.96	5945.34
564.32	5820.70
564.67	5707.21
565.02	5580.21
565.37	5463.77
565.73	5348.22
566.08	5241.33
566.43	5132.12
566.78	5035.87
567.14	4929.89
567.49	4823.54
567.84	4719.62
568.19	4622.49
568.54	4529.57
568.90	4442.71
569.25	4364.40
569.60	4291.61
569.95	4215.40
570.31	4137.95
570.66	4062.49
571.01	3979.00
571.36	3881.85
571.71	3804.40
572.06	3735.38
572.42	3671.29
572.77	3609.95
573.12	3562.65
573.47	3506.26
573.82	3446.60
574.18	3377.09
574.53	3316.45
574.88	3266.48
575.23	3213.06
575.58	3167.42
575.93	3126.67
576.28	3076.73
576.64	3015.34
576.99	2958.69
577.34	2896.67
577.69	2841.43
578.04	2791.56
578.39	2745.85
578.74	2708.35
579.09	2677.01
579.44	2639.05
579.80	2601.79
580.15	2563.80
580.50	2521.93
580.85	2477.46
581.20	2443.96
581.55	2414.64
581.90	2389.03
582.25	2360.10
582.60	2329.00
582.95	2291.92
583.30	2252.65
583.65	2211.85
584.00	2176.98
584.35	2150.69
584.71	2120.20
585.06	2092.81
585.41	2066.32
585.76	2040.81
586.11	2010.61
586.46	1988.40
586.81	1965.58
587.16	1946.27
587.51	1922.75
587.86	1905.92
588.21	1886.68
588.56	1868.05
588.91	1847.88
589.26	1828.08
589.61	1806.31
589.96	1787.21
590.31	1767.85
590.66	1751.24
591.01	1734.45
591.36	1717.30
591.71	1699.23
592.06	1684.09
592.41	1668.54
592.76	1658.43
593.10	1645.61
593.45	1631.33
593.80	1616.16
594.15	1603.41
594.50	1590.28
594.85	1574.55
595.20	1562.47
595.55	1552.57
595.90	1538.71
596.25	1526.45
596.60	1512.38
596.95	1499.75
597.30	1488.32
597.64	1532.30
597.99	1526.43
598.34	1521.86
598.69	1518.17
599.04	1512.97
599.39	1450.13
599.74	1436.32
600.09	1426.95
600.44	1415.02
600.78	1404.74
601.13	1397.96
601.48	1391.14
601.83	1384.99
602.18	1382.95
602.53	1375.25
602.88	1367.76
603.22	1363.48
603.57	1358.10
603.92	1347.68
604.27	1345.22
604.62	1340.07
604.97	1333.24
605.31	1325.80
605.66	1322.61
606.01	1313.67
606.36	1304.47
606.71	1299.30
607.05	1294.20
607.40	1286.36
607.75	1280.81
608.10	1281.51
608.44	1275.73
608.79	1271.14
609.14	1268.71
609.49	1265.53
609.84	1262.95
610.18	1258.76
610.53	1258.37
610.88	1259.04
611.23	1260.96
611.57	1256.19
611.92	1253.73
612.27	1249.54
612.62	1242.12
612.96	1236.11
613.31	1230.12
613.66	1226.89
614.00	1222.46
614.35	1219.93
614.70	1213.76
615.05	1212.37
615.39	1210.29
615.74	1208.18
616.09	1203.50
616.43	1202.71
616.78	1198.85
617.13	1197.96
617.47	1198.49
617.82	1198.68
618.17	1193.39
618.51	1191.73
618.86	1188.15
619.21	1183.66
619.55	1179.91
619.90	1177.83
620.25	1174.43
620.59	1171.65
620.94	1169.21
621.29	1168.00
621.63	1167.18
621.98	1167.88
622.32	1163.13
622.67	1161.16
623.02	1161.12
623.36	1163.04
623.71	1161.56
624.05	1163.39
624.40	1161.49
624.75	1158.42
625.09	1154.59
625.44	1151.80
625.78	1150.96
626.13	1146.79
626.48	1144.15
626.82	1143.52
627.17	1145.22
627.51	1144.71
627.86	1147.59
628.20	1147.92
628.55	1146.86
628.89	1145.58
629.24	1141.50
629.58	1136.40
629.93	1134.97
630.28	1132.54
630.62	1129.80
630.97	1130.01
631.31	1129.99
631.66	1126.48
632.00	1126.69
632.35	1122.85
632.69	1118.50
633.04	1118.61
633.38	1118.87
633.73	1115.57
634.07	1119.41
634.42	1119.29
634.76	1116.37
635.11	1116.62
635.45	1116.93
635.79	1113.65
636.14	1117.49
636.48	1121.26
636.83	1121.61
637.17	1123.86
637.52	1123.22
637.86	1119.64
638.21	1115.31
638.55	1114.89
638.89	1111.61
639.24	1113.74
639.58	1115.29
639.93	1118.71
640.27	1117.56
640.61	1117.28
640.96	1112.18
641.30	1110.16
641.65	1110.82
641.99	1108.27
642.33	1105.29
642.68	1107.87
643.02	1108.55
643.37	1102.46
643.71	1102.51
644.05	1105.25
644.40	1104.87
644.74	1104.50
645.08	1108.29
645.43	1107.71
645.77	1107.21
646.11	1107.56
646.46	1107.96
646.80	1106.84
647.14	1109.27
647.49	1110.58
647.83	1108.69
648.17	1110.02
648.52	1109.32
648.86	1109.55
649.20	1106.49
649.55	1108.55
649.89	1102.13
650.23	1099.37
650.57	1096.10
650.92	1098.93
651.26	1094.48
651.60	1097.52
651.95	1099.30
652.29	1098.34
652.63	1097.85
652.97	1105.08
653.32	1103.75
653.66	1105.22
654.00	1106.28
654.34	1102.79
654.69	1095.70
655.03	1096.28
655.37	1094.50
655.71	1096.49
656.05	1095.35
656.40	1099.30
656.74	1098.23
657.08	1100.59
657.42	1097.64
657.76	1097.76
658.11	1095.86
658.45	1098.11
658.79	1095.02
659.13	1094.32
659.47	1095.07
659.82	1096.63
660.16	1097.06
660.50	1094.60
660.84	1098.83
661.18	1101.62
661.52	1099.65
661.87	1098.18
662.21	1099.19
662.55	1096.28
662.89	1097.64
663.23	1094.25
663.57	1092.16
663.91	1093.26
664.25	1092.66
664.60	1090.10
664.94	1094.50
665.28	1098.25
665.62	1098.04
665.96	1095.75
666.30	1095.51
666.64	1095.79
666.98	1093.94
667.32	1095.67
667.66	1097.20
668.01	1098.74
668.35	1096.70
668.69	1096.68
669.03	1094.88
669.37	1096.33
669.71	1092.56
670.05	1090.10
670.39	1091.49
670.73	1092.45
671.07	1092.98
671.41	1094.76
671.75	1097.48
672.09	1095.58
672.43	1093.90
672.77	1093.78
673.11	1093.33
673.45	1090.29
673.79	1089.75
674.13	1092.89
674.47	1092.02
674.81	1091.27
675.15	1093.99
675.49	1092.49
675.83	1088.68
676.17	1088.00
676.51	1090.99
676.85	1091.32
677.19	1091.27
677.53	1093.52
677.87	1092.63
678.21	1091.46
678.55	1091.11
678.89	1093.01
679.23	1093.17
679.57	1096.26
679.90	1094.79
680.24	1095.86
680.58	1094.43
680.92	1093.99
681.26	1093.38
681.60	1091.91
681.94	1091.70
682.28	1092.77
682.62	1094.32
682.96	1092.37
683.29	1093.78
683.63	1090.22
683.97	1090.62
684.31	1089.50
684.65	1091.23
684.99	1090.83
685.33	1094.53
685.67	1093.85
686.00	1095.07
686.34	1094.62
686.68	1098.55
687.02	1096.42
687.36	1099.65
687.70	1099.65
688.03	1099.91
688.37	1098.04
688.71	1100.22
689.05	1097.64
689.39	1097.06
689.72	1098.09
690.06	1096.82
690.40	1094.11
690.74	1090.50
691.08	1089.24
691.41	1089.29
691.75	1089.07
692.09	1091.79
692.43	1093.29
692.76	1093.01
693.10	1089.03
693.44	1089.59
693.78	1085.42
694.11	1084.98
694.45	1085.49
694.79	1087.58
695.13	1085.96
695.46	1091.23
695.80	1091.18
696.14	1089.89
696.48	1090.32
696.81	1090.99
697.15	1087.93
697.49	1091.67
697.82	1087.16
698.16	1086.10
698.50	1084.96
698.83	1085.49
699.17	1082.05
699.51	1087.48
699.84	1089.26
700.18	1092.98
700.52	1092.84
700.85	1095.39
701.19	1094.81
701.53	1096.17
701.86	1095.77
702.20	1094.55
702.54	1094.11
702.87	1092.98
703.21	1089.26
703.55	1088.37
703.88	1087.13
704.22	1086.48
704.55	1087.51
704.89	1086.99
705.23	1085.14
705.56	1090.41
705.90	1089.75
706.23	1088.82
706.57	1092.37
706.91	1096.40
707.24	1093.94
707.58	1095.96
707.91	1095.04
708.25	1093.85
708.58	1086.38
708.92	1084.77
709.26	1081.82
709.59	1085.19
709.93	1085.33
710.26	1088.37
710.60	1089.10
710.93	1088.91
711.27	1088.61
711.60	1088.47
711.94	1089.94
712.27	1089.57
712.61	1091.06
712.94	1090.03
713.28	1089.92
713.61	1088.09
713.95	1090.13
714.28	1092.35
714.62	1092.26
714.95	1093.36
715.29	1094.62
715.62	1089.78
715.96	1087.44
716.29	1088.93
716.63	1089.03
716.96	1090.50
717.29	1094.22
717.63	1096.52
717.96	1095.67
718.30	1091.84
718.63	1088.65
718.97	1088.89
719.30	1088.28
719.63	1087.58
719.97	1091.25
720.30	1093.85
720.64	1094.72
720.97	1092.02
721.30	1089.96
721.64	1088.65
721.97	1086.48
722.31	1085.63
722.64	1084.16
722.97	1087.48
723.31	1088.89
723.64	1090.13
723.97	1089.40
724.31	1090.48
724.64	1089.87
724.98	1084.93
725.31	1084.44
725.64	1083.88
725.98	1084.84
726.31	1085.59
726.64	1085.89
726.97	1087.97
727.31	1088.26
727.64	1092.47
727.97	1090.78
728.31	1092.23
728.64	1090.62
728.97	1092.54
729.31	1087.95
729.64	1089.00
729.97	1090.50
730.30	1089.24
730.64	1089.36
730.97	1089.07
731.30	1089.43
731.63	1089.66
731.97	1086.87
732.30	1085.82
732.63	1086.78
732.96	1087.81
733.30	1083.43
733.63	1085.61
733.96	1084.70
734.29	1086.59
734.63	1082.66
734.96	1088.56
735.29	1090.43
735.62	1088.00
735.95	1083.39
736.29	1084.07
736.62	1082.61
736.95	1084.98
737.28	1086.50
737.61	1090.27
737.94	1090.71
738.28	1088.98
738.61	1087.74
738.94	1089.24
739.27	1089.14
739.60	1091.16
739.93	1092.63
740.27	1092.23
740.60	1092.56
740.93	1091.70
741.26	1089.71
741.59	1089.92
741.92	1090.13
742.25	1092.28
742.58	1092.45
742.91	1094.46
743.25	1092.52
743.58	1090.08
743.91	1085.17
744.24	1085.87
744.57	1083.08
744.90	1082.24
745.23	1085.77
745.56	1090.36
745.89	1089.80
746.22	1092.00
746.55	1094.86
746.88	1091.58
747.21	1087.83
747.54	1085.07
747.87	1086.71
748.20	1085.63
748.53	1084.77
748.87	1085.82
749.20	1088.79
749.53	1085.70
749.86	1086.50
750.19	1087.93
750.52	1089.96
750.85	1090.48
751.18	1092.40
751.51	1090.92
751.84	1092.66
752.16	1090.64
752.49	1088.23
752.82	1084.84
753.15	1084.07
753.48	1081.96
753.81	1082.92
754.14	1083.69
754.47	1084.39
754.80	1084.91
755.13	1086.29
755.46	1087.34
755.79	1087.86
756.12	1089.92
756.45	1088.96
756.78	1088.61
757.11	1086.87
757.43	1086.97
757.76	1087.55
758.09	1088.68
758.42	1088.23
758.75	1086.38
759.08	1085.80
759.41	1084.74
759.74	1085.54
760.07	1087.86
760.39	1089.59
760.72	1090.43
761.05	1091.44
761.38	1092.35
761.71	1090.41
762.04	1090.20
762.36	1089.54
762.69	1087.09
763.02	1087.18
763.35	1087.41
763.68	1088.44
764.01	1089.94
764.33	1092.68
764.66	1092.12
764.99	1093.08
765.32	1091.34
765.65	1088.56
765.97	1087.48
766.30	1087.88
766.63	1086.94
766.96	1085.59
767.28	1087.18
767.61	1086.10
767.94	1086.08
768.27	1082.99
768.59	1088.61
768.92	1092.23
769.25	1094.53
769.58	1092.66
769.90	1092.56
770.23	1087.81
770.56	1081.96
770.89	1082.15
771.21	1083.55
771.54	1083.93
771.87	1083.01
772.19	1086.10
772.52	1083.25
772.85	1081.94
773.17	1084.63
773.50	1084.37
773.83	1082.61
774.15	1082.26
774.48	1084.65
774.81	1085.05
775.13	1084.25
775.46	1084.28
775.79	1085.66
776.11	1085.03
776.44	1083.53
776.77	1086.03
777.09	1087.02
777.42	1087.34
777.74	1085.47
778.07	1086.71
778.40	1086.78
778.72	1086.59
779.05	1085.26
779.37	1085.10
779.70	1080.09
780.03	1080.95
780.35	1080.34
780.68	1083.86
781.00	1083.36
781.33	1086.99
781.65	1088.56
781.98	1089.45
782.31	1084.46
782.63	1084.72
782.96	1086.69
783.28	1084.70
783.61	1085.03
783.93	1088.35
784.26	1089.43
784.58	1086.76
784.91	1088.07
785.23	1089.50
785.56	1089.71
785.88	1089.96
786.21	1092.30
786.53	1090.78
786.86	1093.47
787.18	1092.63
787.51	1093.33
787.83	1091.46
788.16	1091.98
788.48	1088.21
788.81	1086.43
789.13	1084.58
789.46	1086.55
789.78	1086.03
790.10	1086.59
790.43	1089.43
790.75	1089.61
791.08	1087.83
791.40	1087.44
791.73	1090.01
792.05	1087.97
792.37	1090.20
792.70	1091.16
793.02	1089.26
793.35	1087.11
793.67	1087.53
793.99	1085.28
794.32	1083.60
794.64	1087.11
794.96	1084.18
795.29	1086.06
795.61	1085.96
795.93	1088.07
796.26	1086.94
796.58	1086.59
796.91	1082.24
797.23	1083.90
797.55	1080.77
797.87	1081.84
798.20	1082.01
798.52	1080.48
798.84	1083.41
799.17	1086.48
799.49	1085.26
799.81	1086.38
800.14	1090.10
800.46	1088.61
800.78	1086.78
801.10	1087.20
801.43	1087.46
801.75	1086.29
802.07	1081.84
802.40	1083.27
802.72	1082.64
803.04	1079.55
803.36	1080.65
803.69	1085.21
804.01	1085.49
804.33	1087.37
804.65	1091.79
804.97	1091.79
805.30	1090.43
805.62	1088.63
805.94	1086.62
806.26	1086.78
806.58	1086.24
806.91	1084.86
807.23	1087.18
807.55	1089.22
807.87	1087.53
808.19	1086.08
808.52	1088.40
808.84	1085.19
809.16	1080.11
809.48	1079.71
809.80	1079.22
810.12	1078.03
810.44	1079.62
810.77	1084.04
811.09	1085.40
811.41	1088.35
811.73	1088.35
812.05	1091.46
812.37	1093.31
812.69	1092.14
813.01	1089.59
813.33	1089.71
813.66	1086.76
813.98	1082.69
814.30	1083.18
814.62	1086.06
814.94	1083.48
815.26	1082.15
815.58	1081.47
815.90	1081.42
816.22	1081.77
816.54	1082.78
816.86	1084.93
817.18	1087.23
817.50	1085.31
817.82	1083.83
818.14	1085.80
818.46	1084.44
818.78	1086.10
819.10	1087.65
819.42	1083.79
819.74	1081.54
820.06	1081.28
820.38	1079.08
820.70	1077.11
821.02	1081.66
821.34	1083.60
821.66	1083.48
821.98	1084.74
822.30	1086.10
822.62	1086.17
822.94	1084.00
823.26	1085.47
823.58	1084.30
823.90	1086.36
824.22	1085.00
824.54	1087.88
824.86	1087.16
825.18	1086.73
825.50	1084.25
825.81	1087.02
826.13	1085.96
826.45	1087.37
826.77	1087.41
827.09	1088.42
827.41	1085.68
827.73	1084.96
828.05	1083.60
828.36	1084.63
828.68	1087.34
829.00	1088.70
829.32	1086.27
829.64	1085.87
829.96	1088.68
830.28	1083.41
830.59	1081.63
830.91	1081.63
831.23	1081.23
831.55	1078.28
831.87	1080.32
832.19	1079.27
832.50	1083.01
832.82	1082.61
833.14	1083.95
833.46	1083.22
833.78	1085.91
834.09	1083.57
834.41	1085.66
834.73	1085.91
835.05	1086.03
835.36	1082.85
835.68	1083.93
836.00	1081.94
836.32	1081.16
836.63	1081.98
836.95	1083.53
837.27	1083.01
837.59	1084.28
837.90	1083.55
838.22	1081.07
838.54	1083.71
838.85	1086.45
839.17	1084.42
839.49	1081.42
839.80	1086.73
840.12	1084.07
840.44	1081.80
840.76	1085.52
841.07	1085.94
841.39	1083.97
841.71	1084.07
842.02	1082.12
842.34	1080.74
842.65	1082.29
842.97	1081.16
843.29	1083.25
843.60	1086.13
843.92	1085.87
844.24	1086.38
844.55	1088.00
844.87	1086.66
845.18	1086.92
845.50	1086.90
845.82	1085.89
846.13	1083.60
846.45	1084.93
846.76	1085.73
847.08	1086.06
847.40	1086.27
847.71	1086.64
848.03	1082.71
848.34	1077.37
848.66	1075.66
848.97	1075.34
849.29	1076.69
849.60	1079.83
849.92	1084.02
850.24	1083.46
850.55	1084.18
850.87	1085.03
851.18	1087.32
851.50	1088.16
851.81	1092.94
852.13	1092.21
852.44	1093.05
852.76	1089.29
853.07	1087.55
853.39	1083.08
853.70	1085.35
854.01	1084.46
854.33	1083.43
854.64	1083.76
854.96	1086.01
855.27	1084.77
855.59	1086.97
855.90	1091.72
856.22	1092.52
856.53	1093.47
856.84	1092.54
857.16	1085.17
857.47	1084.93
857.79	1088.28
858.10	1087.09
858.41	1090.08
858.73	1092.12
859.04	1088.93
859.36	1087.34
859.67	1085.31
859.98	1082.76
860.30	1081.00
860.61	1084.14
860.92	1081.89
861.24	1082.64
861.55	1082.52
861.87	1086.90
862.18	1083.97
862.49	1086.57
862.81	1087.30
863.12	1087.27
863.43	1087.41
863.74	1087.02
864.06	1087.30
864.37	1085.00
864.68	1087.93
865.00	1085.17
865.31	1087.16
865.62	1085.49
865.94	1089.14
866.25	1084.07
866.56	1085.94
866.87	1083.97
867.19	1084.14
867.50	1081.54
867.81	1084.44
868.12	1082.90
868.44	1085.52
868.75	1083.83
869.06	1086.55
869.37	1086.92
869.68	1088.56
870.00	1084.46
870.31	1083.69
870.62	1081.05
870.93	1080.81
871.24	1080.34
871.56	1082.15
871.87	1082.01
872.18	1084.72
872.49	1082.76
872.80	1082.47
873.12	1080.09
873.43	1077.58
873.74	1077.56
874.05	1079.22
874.36	1078.14
874.67	1082.24
874.98	1083.08
875.29	1081.70
875.61	1079.83
875.92	1079.20
876.23	1078.17
876.54	1080.09
876.85	1083.46
877.16	1085.42
877.47	1087.34
877.78	1086.24
878.09	1088.33
878.40	1086.83
878.72	1086.24
879.03	1087.93
879.34	1088.70
879.65	1085.61
879.96	1082.66
880.27	1085.26
880.58	1085.77
880.89	1087.67
881.20	1089.17
881.51	1091.23
881.82	1090.08
882.13	1090.97
882.44	1088.72
882.75	1088.96
883.06	1089.73
883.37	1088.35
883.68	1086.22
883.99	1089.36
884.30	1091.39
884.61	1087.72
884.92	1088.26
885.23	1086.94
885.54	1082.52
885.85	1081.28
886.16	1081.73
886.47	1080.91
886.78	1080.53
887.08	1084.63
887.39	1082.83
887.70	1084.49
888.01	1084.25
888.32	1083.22
888.63	1081.51
888.94	1080.56
889.25	1081.63
889.56	1082.61
889.87	1087.32
890.17	1088.23
890.48	1087.02
890.79	1085.82
891.10	1085.19
891.41	1082.05
891.72	1079.55
892.03	1081.23
892.34	1080.84
892.64	1080.34
892.95	1082.10
893.26	1084.14
893.57	1084.02
893.88	1083.50
894.18	1081.19
894.49	1079.53
894.80	1078.61
895.11	1076.79
895.42	1074.35
895.72	1077.35
896.03	1079.99
896.34	1075.76
896.65	1079.55
896.96	1084.28
897.26	1083.86
897.57	1081.82
897.88	1087.13
898.19	1086.85
898.49	1085.00
898.80	1083.55
899.11	1083.36
899.41	1082.40
899.72	1080.77
900.03	1081.87
900.34	1084.46
900.64	1085.87
900.95	1088.68
901.26	1087.51
901.56	1090.95
901.87	1090.13
902.18	1088.35
902.48	1086.71
902.79	1090.48
903.10	1086.36
903.40	1082.43
903.71	1081.49
904.02	1080.93
904.32	1079.69
904.63	1078.75
904.94	1084.25
905.24	1087.32
905.55	1086.83
905.85	1086.36
906.16	1084.86
906.47	1084.04
906.77	1085.35
907.08	1087.79
907.38	1085.52
907.69	1086.94
908.00	1089.96
908.30	1084.39
908.61	1080.20
908.91	1082.19
909.22	1081.87
909.52	1077.28
909.83	1081.70
910.14	1083.62
910.44	1085.03
910.75	1084.86
911.05	1083.93
911.36	1082.47
911.66	1083.55
911.97	1082.24
912.27	1084.51
912.58	1087.44
912.88	1085.45
913.19	1086.62
913.49	1086.99
913.80	1087.11
914.10	1087.62
914.41	1089.47
914.71	1088.56
915.01	1089.96
915.32	1087.06
915.62	1084.39
915.93	1084.89
916.23	1088.79
916.54	1087.46
916.84	1088.47
917.15	1090.43
917.45	1089.94
917.75	1083.76
918.06	1083.29
918.36	1084.58
918.67	1084.79
918.97	1085.84
919.27	1087.69
919.58	1089.24
919.88	1089.96
920.18	1088.79
920.49	1083.15
920.79	1083.46
921.10	1077.42
921.40	1075.27
921.70	1077.79
922.01	1083.76
922.31	1082.69
922.61	1087.16
922.92	1085.52
923.22	1083.50
923.52	1083.83
923.82	1081.16
924.13	1081.63
924.43	1085.07
924.73	1085.87
925.04	1083.34
925.34	1086.31
925.64	1086.76
925.94	1086.31
926.25	1086.55
926.55	1089.68
926.85	1089.05
927.15	1086.36
927.46	1085.66
927.76	1085.17
928.06	1084.32
928.36	1085.59
928.67	1088.56
928.97	1089.31
929.27	1088.21
929.57	1085.75
929.87	1082.71
930.18	1082.01
930.48	1081.40
930.78	1079.10
931.08	1079.15
931.38	1079.31
931.69	1079.92
931.99	1078.33
932.29	1079.10
932.59	1079.83
932.89	1077.70
933.19	1077.72
933.49	1079.55
933.80	1082.33
934.10	1082.57
934.40	1084.11
934.70	1083.20
935.00	1081.91
935.30	1079.83
935.60	1078.36
935.90	1078.03
936.20	1080.13
936.50	1082.99
936.81	1083.60
937.11	1084.42
937.41	1087.74
937.71	1087.30
938.01	1083.81
938.31	1084.11
938.61	1083.29
938.91	1082.17
939.21	1078.99
939.51	1080.88
939.81	1079.85
940.11	1082.52
940.41	1082.92
940.71	1081.51
941.01	1081.82
941.31	1084.37
941.61	1085.56
941.91	1083.36
942.21	1087.93
942.51	1087.09
942.81	1086.94
943.11	1085.75
943.41	1088.75
943.71	1087.48
944.01	1089.66
944.31	1087.65
944.61	1085.66
944.90	1086.15
945.20	1085.28
945.50	1083.86
945.80	1083.32
946.10	1081.37
946.40	1079.13
946.70	1078.57
947.00	1078.33
947.30	1077.84
947.60	1081.07
947.89	1081.75
948.19	1082.05
948.49	1081.26
948.79	1081.42
949.09	1080.25
949.39	1082.08
949.69	1082.33
949.98	1082.85
950.28	1083.79
950.58	1084.51
950.88	1084.77
951.18	1086.64
951.48	1088.84
951.77	1091.30
952.07	1089.00
952.37	1083.20
952.67	1083.32
952.97	1083.46
953.26	1082.85
953.56	1082.90
953.86	1086.99
954.16	1084.09
954.45	1082.10
954.75	1079.46
955.05	1080.95
955.35	1078.57
955.64	1081.14
955.94	1081.68
956.24	1083.22
956.54	1081.77
956.83	1087.53
957.13	1088.65
957.43	1088.51
957.72	1086.38
958.02	1088.40
958.32	1083.76
958.61	1081.49
958.91	1078.45
959.21	1081.66
959.50	1081.23
959.80	1083.27
960.10	1085.19
960.39	1089.99
960.69	1091.60
960.99	1092.68
961.28	1093.24
961.58	1088.35
961.87	1087.44
962.17	1083.41
962.47	1082.99
962.76	1079.78
963.06	1082.26
963.36	1080.27
963.65	1080.70
963.95	1081.30
964.24	1083.64
964.54	1084.14
964.83	1084.98
965.13	1088.26
965.42	1084.72
965.72	1082.40
966.02	1084.98
966.31	1084.14
966.61	1082.52
966.90	1086.90
967.20	1089.12
967.49	1085.26
967.79	1082.17
968.08	1081.09
968.38	1079.90
968.67	1077.68
968.97	1079.76
969.26	1085.12
969.56	1081.68
969.85	1082.59
970.15	1084.96
970.44	1089.29
970.74	1088.37
971.03	1091.93
971.32	1090.74
971.62	1089.47
971.91	1084.04
972.21	1081.61
972.50	1080.34
972.80	1077.51
973.09	1075.29
973.38	1072.71
973.68	1074.66
973.97	1075.27
974.27	1077.25
974.56	1081.68
974.85	1083.86
975.15	1082.87
975.44	1085.31
975.73	1082.76
976.03	1079.83
976.32	1082.85
976.61	1083.25
976.91	1082.26
977.20	1084.74
977.49	1085.35
977.79	1082.47
978.08	1083.13
978.37	1082.31
978.67	1085.07
978.96	1087.83
979.25	1088.68
979.55	1090.60
979.84	1090.36
980.13	1083.57
980.42	1079.41
980.72	1076.88
981.01	1075.43
981.30	1076.67
981.59	1081.26
981.89	1085.31
982.18	1088.93
982.47	1088.79
982.76	1086.38
983.06	1087.69
983.35	1084.98
983.64	1082.50
983.93	1081.75
984.22	1084.35
984.52	1081.94
984.81	1083.34
985.10	1083.69
985.39	1081.58
985.68	1080.91
985.97	1083.22
986.27	1084.28
986.56	1085.49
986.85	1090.67
987.14	1091.81
987.43	1087.62
987.72	1082.92
988.01	1083.39
988.31	1078.73
988.60	1077.30
988.89	1080.74
989.18	1084.63
989.47	1084.65
989.76	1087.34
990.05	1085.99
990.34	1083.39
990.63	1081.42
990.92	1080.51
991.21	1080.41
991.51	1080.86
991.80	1084.07
992.09	1087.27
992.38	1089.52
992.67	1087.83
992.96	1088.00
993.25	1085.70
993.54	1085.10
993.83	1083.15
994.12	1087.06
994.41	1089.75
994.70	1092.26
994.99	1089.78
995.28	1090.97
995.57	1088.96
995.86	1084.28
996.15	1080.53
996.44	1081.89
996.73	1082.83
997.02	1081.61
997.31	1084.37
997.59	1085.40
997.88	1084.93
998.17	1081.58
998.46	1079.60
998.75	1079.55
999.04	1081.89
999.33	1081.75
999.62	1084.56
999.91	1087.09
1000.20	1086.55
1000.49	1084.00
1000.77	1082.59
1001.06	1078.75
1001.35	1078.05
1001.64	1078.85
1001.93	1079.83
1002.22	1081.54
1002.51	1083.32
1002.79	1084.14
1003.08	1086.06
1003.37	1086.66
1003.66	1086.29
1003.95	1087.90
1004.23	1086.76
1004.52	1084.96
1004.81	1086.10
1005.10	1084.67
1005.39	1084.04
1005.67	1085.59
1005.96	1087.79
1006.25	1085.17
1006.54	1086.66
1006.83	1087.97
1007.11	1087.27
1007.40	1081.94
1007.69	1083.06
1007.97	1084.77
1008.26	1083.88
1008.55	1083.74
1008.84	1089.31
1009.12	1088.77
1009.41	1087.58
1009.70	1088.23
1009.98	1090.24
1010.27	1086.31
1010.56	1089.59
1010.85	1088.68
1011.13	1088.19
1011.42	1087.20
1011.71	1086.85
1011.99	1085.33
1012.28	1085.94
1012.56	1085.40
1012.85	1086.08
1013.14	1088.33
1013.42	1085.66
1013.71	1085.54
1014.00	1083.95
1014.28	1083.01
1014.57	1080.74
1014.85	1081.35
1015.14	1082.43
1015.43	1081.80
1015.71	1081.49
1016.00	1082.78
1016.28	1081.61
1016.57	1079.99
1016.85	1082.38
1017.14	1081.80
1017.43	1080.88
1017.71	1080.34
1018.00	1080.18
1018.28	1078.99
1018.57	1078.43
1018.85	1078.78
1019.14	1081.37
1019.42	1079.34
1019.71	1081.96
1019.99	1081.77
1020.28	1082.03
1020.56	1084.93
1020.85	1086.99
1021.13	1083.34
1021.42	1085.54
1021.70	1088.51
1021.99	1085.77
1022.27	1085.05
1022.55	1085.07
1022.84	1076.65
>>>>>End Processed Spectral Data<<<<<
