SpectraSuite Data File
++++++++++++++++++++++++++++++++++++
Date: Mon Aug 26 10:26:46 PDT 2019
User: corrico
Dark Spectrum Present: No
Reference Spectrum Present: No
Number of Sampled Component Spectra: 1
Spectrometers: USB2+H06089
Integration Time (usec): 10000 (USB2+H06089)
Spectra Averaged: 20 (USB2+H06089)
Boxcar Smoothing: 2 (USB2+H06089)
Correct for Electrical Dark: No (USB2+H06089)
Strobe/Lamp Enabled: No (USB2+H06089)
Correct for Detector Non-linearity: No (USB2+H06089)
Correct for Stray Light: No (USB2+H06089)
Number of Pixels in Processed Spectrum: 2048
>>>>>Begin Processed Spectral Data<<<<<
339.70	1032.06
340.07	1032.06
340.45	1001.87
340.82	981.20
341.19	957.19
341.57	933.52
341.94	922.57
342.31	913.04
342.69	906.91
343.06	903.35
343.43	903.66
343.81	904.36
344.18	905.44
344.55	909.09
344.93	915.85
345.30	915.85
345.67	922.43
346.04	931.95
346.42	940.50
346.79	953.67
347.16	969.01
347.54	977.48
347.91	986.37
348.28	997.72
348.65	1004.11
349.03	1013.19
349.40	1020.54
349.77	1029.25
350.14	1033.67
350.52	1039.57
350.89	1044.65
351.26	1049.59
351.63	1054.90
352.01	1062.72
352.38	1065.88
352.75	1068.97
353.12	1074.56
353.50	1073.37
353.87	1073.63
354.24	1076.08
354.61	1078.52
354.98	1079.78
355.36	1085.52
355.73	1087.67
356.10	1090.01
356.47	1088.47
356.84	1091.37
357.22	1091.86
357.59	1093.36
357.96	1093.08
358.33	1095.49
358.70	1095.93
359.08	1091.88
359.45	1088.40
359.82	1087.74
360.19	1086.06
360.56	1081.96
360.94	1083.53
361.31	1086.55
361.68	1087.09
362.05	1084.25
362.42	1087.25
362.79	1085.66
363.16	1081.98
363.54	1082.15
363.91	1084.42
364.28	1080.60
364.65	1082.99
365.02	1081.73
365.39	1077.72
365.76	1077.91
366.14	1081.91
366.51	1080.74
366.88	1082.90
367.25	1085.24
367.62	1086.01
367.99	1084.18
368.36	1082.90
368.73	1082.03
369.10	1081.73
369.48	1078.07
369.85	1078.12
370.22	1078.82
370.59	1077.21
370.96	1079.13
371.33	1078.61
371.70	1076.60
372.07	1073.56
372.44	1078.45
372.81	1076.60
373.18	1078.85
373.55	1078.31
373.93	1078.40
374.30	1073.53
374.67	1074.87
375.04	1075.43
375.41	1077.33
375.78	1080.91
376.15	1084.53
376.52	1084.18
376.89	1083.22
377.26	1083.67
377.63	1084.18
378.00	1082.47
378.37	1081.89
378.74	1081.73
379.11	1082.17
379.48	1084.11
379.85	1085.00
380.22	1085.49
380.59	1087.32
380.96	1089.61
381.33	1084.74
381.70	1085.94
382.07	1086.38
382.44	1086.17
382.81	1082.19
383.18	1084.28
383.55	1083.39
383.92	1082.66
384.29	1082.76
384.66	1086.15
385.03	1086.57
385.40	1087.30
385.77	1088.19
386.14	1088.56
386.51	1088.56
386.88	1091.74
387.25	1090.06
387.62	1090.85
387.99	1093.64
388.36	1093.73
388.73	1091.23
389.10	1095.51
389.46	1094.81
389.83	1092.16
390.20	1089.36
390.57	1090.62
390.94	1088.54
391.31	1086.06
391.68	1086.92
392.05	1087.79
392.42	1085.99
392.79	1085.84
393.16	1087.69
393.53	1087.83
393.89	1090.50
394.26	1091.93
394.63	1091.16
395.00	1088.86
395.37	1085.70
395.74	1085.31
396.11	1085.73
396.48	1087.72
396.84	1089.19
397.21	1093.97
397.58	1092.12
397.95	1090.17
398.32	1092.61
398.69	1094.29
399.06	1091.49
399.42	1096.12
399.79	1096.21
400.16	1093.57
400.53	1095.30
400.90	1095.07
401.27	1091.58
401.64	1091.44
402.00	1092.02
402.37	1089.12
402.74	1092.02
403.11	1094.34
403.48	1094.93
403.84	1094.72
404.21	1097.41
404.58	1096.66
404.95	1092.26
405.32	1096.68
405.68	1098.27
406.05	1098.18
406.42	1096.78
406.79	1100.43
407.16	1099.86
407.52	1100.64
407.89	1100.31
408.26	1100.87
408.63	1100.92
408.99	1098.20
409.36	1095.56
409.73	1093.15
410.10	1093.52
410.47	1091.13
410.83	1092.82
411.20	1090.48
411.57	1091.77
411.94	1092.84
412.30	1097.29
412.67	1099.33
413.04	1102.13
413.40	1104.76
413.77	1102.35
414.14	1099.89
414.51	1099.54
414.87	1100.05
415.24	1098.30
415.61	1101.13
415.97	1104.12
416.34	1102.06
416.71	1103.07
417.08	1104.52
417.44	1104.78
417.81	1104.57
418.18	1102.67
418.54	1102.91
418.91	1105.41
419.28	1105.46
419.64	1103.05
420.01	1103.87
420.38	1105.97
420.74	1105.20
421.11	1105.32
421.48	1105.55
421.84	1107.61
422.21	1107.64
422.58	1106.32
422.94	1109.58
423.31	1112.83
423.68	1115.36
424.04	1112.71
424.41	1111.71
424.77	1111.78
425.14	1110.07
425.51	1106.25
425.87	1110.87
426.24	1113.14
426.61	1109.34
426.97	1114.42
427.34	1115.94
427.70	1112.25
428.07	1109.88
428.44	1110.12
428.80	1107.00
429.17	1108.45
429.53	1109.77
429.90	1110.21
430.27	1111.73
430.63	1112.81
431.00	1111.92
431.36	1106.70
431.73	1107.17
432.09	1106.56
432.46	1105.69
432.83	1105.39
433.19	1111.64
433.56	1111.38
433.92	1112.90
434.29	1110.65
434.65	1114.49
435.02	1112.15
435.38	1110.42
435.75	1110.58
436.11	1112.20
436.48	1110.54
436.84	1110.75
437.21	1113.32
437.57	1114.31
437.94	1113.46
438.30	1112.85
438.67	1112.39
439.03	1112.50
439.40	1109.39
439.76	1109.62
440.13	1107.71
440.49	1109.62
440.86	1111.54
441.22	1113.56
441.59	1114.87
441.95	1115.05
442.32	1113.42
442.68	1111.19
443.05	1106.44
443.41	1104.62
443.78	1106.54
444.14	1105.74
444.51	1104.12
444.87	1107.31
445.24	1105.83
445.60	1104.85
445.96	1106.70
446.33	1109.69
446.69	1108.45
447.06	1105.76
447.42	1106.79
447.79	1102.37
448.15	1101.36
448.51	1103.89
448.88	1107.38
449.24	1107.71
449.61	1108.74
449.97	1109.79
450.33	1112.39
450.70	1114.77
451.06	1114.19
451.43	1113.86
451.79	1115.45
452.15	1112.74
452.52	1112.76
452.88	1110.02
453.24	1114.31
453.61	1116.81
453.97	1120.60
454.34	1115.12
454.70	1116.72
455.06	1117.75
455.43	1110.61
455.79	1107.87
456.15	1110.82
456.52	1112.90
456.88	1107.96
457.24	1110.35
457.61	1110.00
457.97	1111.03
458.33	1111.36
458.70	1113.63
459.06	1113.21
459.42	1110.70
459.79	1109.60
460.15	1109.20
460.51	1110.63
460.88	1110.87
461.24	1114.98
461.60	1115.73
461.96	1117.37
462.33	1120.95
462.69	1123.50
463.05	1122.33
463.42	1120.81
463.78	1119.76
464.14	1116.62
464.50	1114.40
464.87	1112.36
465.23	1113.86
465.59	1113.65
465.95	1115.90
466.32	1117.44
466.68	1119.55
467.04	1122.15
467.40	1121.96
467.77	1124.65
468.13	1128.58
468.49	1131.34
468.85	1132.94
469.22	1136.82
469.58	1136.10
469.94	1136.35
470.30	1139.86
470.66	1142.18
471.03	1143.09
471.39	1147.03
471.75	1152.99
472.11	1156.37
472.47	1161.14
472.84	1164.00
473.20	1166.48
473.56	1165.14
473.92	1165.45
474.28	1168.54
474.65	1170.08
475.01	1171.95
475.37	1173.15
475.73	1179.58
476.09	1179.14
476.45	1185.43
476.81	1186.77
477.18	1192.25
477.54	1194.47
477.90	1204.02
478.26	1210.43
478.62	1219.44
478.98	1227.26
479.34	1233.86
479.71	1237.84
480.07	1243.36
480.43	1250.45
480.79	1257.73
481.15	1265.79
481.51	1276.67
481.87	1288.89
482.23	1299.96
482.59	1310.04
482.96	1323.90
483.32	1339.86
483.68	1355.12
484.04	1369.68
484.40	1389.97
484.76	1405.89
485.12	1424.15
485.48	1439.78
485.84	1461.85
486.20	1480.20
486.56	1503.49
486.92	1528.44
487.28	1551.49
487.64	1578.41
488.00	1605.86
488.37	1635.61
488.73	1660.45
489.09	1695.02
489.45	1726.99
489.81	1760.83
490.17	1799.47
490.53	1835.24
490.89	1876.01
491.25	1917.91
491.61	1964.51
491.97	2006.94
492.33	2065.57
492.69	2117.20
493.05	2169.35
493.41	2227.39
493.77	2292.70
494.13	2351.56
494.49	2420.86
494.85	2489.79
495.21	2563.78
495.57	2634.62
495.93	2716.68
496.29	2795.30
496.64	2894.45
497.00	2983.53
497.36	3081.55
497.72	3178.00
498.08	3287.98
498.44	3388.70
498.80	3517.22
499.16	3656.60
499.52	3800.26
499.88	3948.34
500.24	4110.87
500.60	4259.94
500.96	4406.99
501.32	4568.05
501.68	4740.85
502.03	4922.76
502.39	5129.19
502.75	5337.12
503.11	5563.27
503.47	5792.55
503.83	6031.58
504.19	6270.48
504.55	6535.08
504.91	6802.51
505.26	7066.17
505.62	7350.27
505.98	7662.45
506.34	7988.93
506.70	8340.15
507.06	8726.62
507.42	9124.77
507.78	9527.97
508.13	9940.51
508.49	10376.09
508.85	10829.33
509.21	11297.65
509.57	11807.28
509.93	12349.98
510.28	12910.44
510.64	13518.40
511.00	14122.11
511.36	14687.68
511.72	15264.04
512.07	15902.89
512.43	16499.79
512.79	17152.55
513.15	17873.22
513.51	18608.78
513.86	19331.98
514.22	20147.03
514.58	20939.16
514.94	21763.87
515.30	22600.94
515.65	23388.22
516.01	24198.47
516.37	25018.59
516.73	25794.79
517.08	26648.12
517.44	27483.41
517.80	28274.89
518.16	29119.38
518.51	29930.93
518.87	30661.42
519.23	31502.53
519.59	32346.09
519.94	33151.79
520.30	33993.59
520.66	34744.50
521.01	35539.19
521.37	36227.72
521.73	36834.79
522.09	37431.13
522.44	38087.72
522.80	38488.92
523.16	38852.87
523.51	39131.09
523.87	39431.92
524.23	39693.59
524.58	39961.60
524.94	40324.39
525.30	40668.91
525.65	40845.04
526.01	40901.26
526.37	40919.40
526.72	40849.79
527.08	40705.78
527.44	40537.17
527.79	40336.86
528.15	40205.56
528.51	39953.97
528.86	39730.92
529.22	39486.05
529.58	39261.76
529.93	38872.90
530.29	38458.72
530.65	38096.22
531.00	37737.14
531.36	37257.49
531.71	36818.01
532.07	36363.17
532.43	35796.69
532.78	35160.51
533.14	34631.41
533.49	34076.42
533.85	33462.01
534.21	32856.74
534.56	32300.87
534.92	31698.93
535.27	31071.22
535.63	30473.33
535.98	29856.88
536.34	29246.80
536.69	28608.77
537.05	28013.71
537.41	27502.04
537.76	27009.59
538.12	26468.44
538.47	25985.63
538.83	25523.82
539.18	25055.93
539.54	24584.05
539.89	24129.45
540.25	23639.46
540.60	23176.22
540.96	22676.63
541.31	22221.44
541.67	21817.35
542.02	21424.37
542.38	21013.94
542.73	20601.84
543.09	20220.15
543.44	19855.14
543.80	19533.67
544.15	19151.88
544.51	18829.45
544.86	18510.34
545.22	18164.48
545.57	17780.51
545.93	17419.86
546.28	17099.56
546.64	16794.21
546.99	16462.18
547.35	16149.70
547.70	15858.72
548.05	15554.73
548.41	15234.59
548.76	14945.16
549.12	14657.35
549.47	14390.50
549.83	14128.71
550.18	13823.98
550.53	13488.81
550.89	13222.22
551.24	12947.96
551.60	12662.11
551.95	12415.86
552.30	12204.00
552.66	11964.37
553.01	11721.71
553.37	11445.73
553.72	11171.49
554.07	10910.52
554.43	10634.32
554.78	10361.04
555.13	10109.29
555.49	9895.95
555.84	9700.94
556.19	9517.34
556.55	9328.72
556.90	9153.11
557.26	8944.17
557.61	8723.46
557.96	8483.51
558.32	8284.84
558.67	8077.00
559.02	7871.95
559.37	7680.28
559.73	7527.87
560.08	7370.63
560.43	7226.43
560.79	7099.85
561.14	6962.20
561.49	6808.88
561.85	6653.49
562.20	6501.35
562.55	6368.57
562.90	6238.74
563.26	6122.79
563.61	6022.36
563.96	5913.57
564.32	5790.49
564.67	5676.10
565.02	5560.39
565.37	5435.38
565.73	5337.90
566.08	5235.50
566.43	5125.31
566.78	5018.88
567.14	4912.71
567.49	4798.64
567.84	4697.06
568.19	4599.27
568.54	4506.49
568.90	4427.43
569.25	4351.97
569.60	4281.66
569.95	4207.82
570.31	4131.58
570.66	4052.26
571.01	3956.21
571.36	3866.64
571.71	3788.74
572.06	3720.61
572.42	3657.27
572.77	3610.79
573.12	3555.93
573.47	3497.60
573.82	3442.53
574.18	3379.97
574.53	3320.21
574.88	3265.16
575.23	3217.07
575.58	3167.59
575.93	3119.61
576.28	3067.25
576.64	3015.59
576.99	2955.58
577.34	2888.55
577.69	2834.72
578.04	2786.03
578.39	2736.11
578.74	2699.11
579.09	2662.73
579.44	2621.75
579.80	2581.10
580.15	2537.35
580.50	2498.29
580.85	2470.76
581.20	2438.18
581.55	2409.72
581.90	2385.22
582.25	2354.04
582.60	2314.18
582.95	2282.96
583.30	2240.06
583.65	2205.65
584.00	2173.00
584.35	2145.97
584.71	2113.67
585.06	2088.25
585.41	2055.60
585.76	2029.38
586.11	2003.29
586.46	1982.22
586.81	1962.91
587.16	1947.33
587.51	1925.63
587.86	1906.48
588.21	1882.05
588.56	1861.62
588.91	1838.70
589.26	1817.85
589.61	1797.30
589.96	1783.00
590.31	1763.24
590.66	1749.32
591.01	1733.47
591.36	1718.07
591.71	1701.80
592.06	1687.64
592.41	1673.11
592.76	1657.90
593.10	1640.74
593.45	1620.56
593.80	1602.26
594.15	1586.58
594.50	1574.20
594.85	1559.69
595.20	1550.42
595.55	1543.35
595.90	1529.82
596.25	1520.67
596.60	1510.04
596.95	1499.39
597.30	1489.40
597.64	1533.21
597.99	1525.51
598.34	1517.91
598.69	1509.53
599.04	1503.16
599.39	1445.47
599.74	1436.62
600.09	1429.65
600.44	1421.41
600.78	1407.72
601.13	1397.98
601.48	1387.17
601.83	1379.65
602.18	1374.20
602.53	1369.42
602.88	1361.61
603.22	1354.63
603.57	1350.86
603.92	1345.25
604.27	1342.25
604.62	1340.14
604.97	1337.66
605.31	1331.98
605.66	1327.32
606.01	1318.26
606.36	1308.83
606.71	1299.72
607.05	1293.73
607.40	1288.63
607.75	1287.90
608.10	1283.06
608.44	1279.76
608.79	1274.84
609.14	1273.25
609.49	1268.85
609.84	1268.31
610.18	1270.19
610.53	1267.82
610.88	1258.53
611.23	1256.00
611.57	1251.72
611.92	1242.92
612.27	1241.56
612.62	1243.60
612.96	1236.46
613.31	1232.67
613.66	1229.83
614.00	1221.74
614.35	1213.54
614.70	1213.52
615.05	1211.88
615.39	1206.52
615.74	1204.44
616.09	1203.36
616.43	1194.59
616.78	1189.32
617.13	1187.56
617.47	1185.32
617.82	1185.04
618.17	1182.95
618.51	1180.59
618.86	1180.05
619.21	1175.67
619.55	1173.59
619.90	1175.46
620.25	1172.02
620.59	1169.38
620.94	1170.88
621.29	1169.47
621.63	1167.72
621.98	1165.07
622.32	1167.48
622.67	1166.92
623.02	1164.77
623.36	1163.67
623.71	1164.11
624.05	1159.90
624.40	1155.78
624.75	1152.57
625.09	1148.78
625.44	1148.81
625.78	1144.03
626.13	1141.22
626.48	1136.96
626.82	1137.06
627.17	1132.47
627.51	1133.64
627.86	1131.13
628.20	1132.54
628.55	1130.48
628.89	1131.41
629.24	1129.85
629.58	1132.54
629.93	1131.79
630.28	1131.81
630.62	1134.88
630.97	1136.17
631.31	1131.84
631.66	1125.87
632.00	1126.38
632.35	1123.95
632.69	1123.01
633.04	1123.64
633.38	1130.50
633.73	1128.86
634.07	1124.79
634.42	1121.70
634.76	1121.09
635.11	1117.82
635.45	1117.40
635.79	1120.34
636.14	1121.82
636.48	1120.81
636.83	1117.56
637.17	1116.34
637.52	1116.41
637.86	1114.77
638.21	1113.93
638.55	1114.70
638.89	1117.04
639.24	1114.63
639.58	1110.56
639.93	1111.94
640.27	1110.94
640.61	1109.25
640.96	1108.74
641.30	1109.74
641.65	1106.79
641.99	1104.36
642.33	1100.73
642.68	1099.89
643.02	1097.22
643.37	1098.04
643.71	1101.76
644.05	1101.92
644.40	1101.39
644.74	1104.57
645.08	1103.45
645.43	1102.42
645.77	1105.11
646.11	1105.79
646.46	1102.98
646.80	1102.65
647.14	1101.46
647.49	1097.50
647.83	1094.86
648.17	1095.79
648.52	1097.01
648.86	1100.52
649.20	1100.15
649.55	1103.70
649.89	1103.80
650.23	1105.36
650.57	1106.02
650.92	1108.08
651.26	1106.58
651.60	1104.71
651.95	1102.86
652.29	1098.79
652.63	1099.09
652.97	1097.45
653.32	1097.80
653.66	1095.91
654.00	1096.42
654.34	1093.94
654.69	1097.57
655.03	1100.57
655.37	1099.75
655.71	1098.62
656.05	1100.03
656.40	1100.31
656.74	1101.27
657.08	1103.66
657.42	1104.38
657.76	1103.02
658.11	1098.51
658.45	1096.35
658.79	1095.30
659.13	1096.00
659.47	1094.62
659.82	1094.74
660.16	1093.50
660.50	1091.98
660.84	1086.52
661.18	1089.40
661.52	1087.20
661.87	1087.83
662.21	1087.11
662.55	1088.96
662.89	1089.12
663.23	1090.74
663.57	1091.20
663.91	1096.40
664.25	1097.10
664.60	1095.82
664.94	1096.94
665.28	1095.04
665.62	1094.04
665.96	1093.90
666.30	1095.44
666.64	1097.03
666.98	1095.84
667.32	1093.66
667.66	1095.28
668.01	1093.19
668.35	1092.12
668.69	1096.42
669.03	1095.09
669.37	1094.43
669.71	1093.94
670.05	1094.60
670.39	1095.86
670.73	1095.65
671.07	1094.25
671.41	1096.42
671.75	1095.28
672.09	1090.17
672.43	1092.56
672.77	1096.54
673.11	1092.75
673.45	1093.12
673.79	1094.90
674.13	1093.94
674.47	1090.88
674.81	1094.39
675.15	1092.59
675.49	1089.47
675.83	1091.49
676.17	1092.49
676.51	1094.43
676.85	1095.16
677.19	1095.82
677.53	1092.49
677.87	1089.36
678.21	1087.20
678.55	1086.71
678.89	1088.40
679.23	1087.93
679.57	1087.86
679.90	1086.34
680.24	1086.87
680.58	1088.40
680.92	1089.99
681.26	1092.35
681.60	1092.75
681.94	1090.22
682.28	1089.38
682.62	1089.29
682.96	1089.61
683.29	1089.24
683.63	1090.78
683.97	1090.03
684.31	1090.55
684.65	1090.10
684.99	1090.62
685.33	1093.05
685.67	1091.37
686.00	1090.62
686.34	1090.15
686.68	1090.78
687.02	1092.12
687.36	1092.16
687.70	1090.99
688.03	1087.83
688.37	1084.70
688.71	1082.97
689.05	1083.71
689.39	1086.48
689.72	1087.90
690.06	1089.29
690.40	1087.74
690.74	1090.08
691.08	1088.12
691.41	1089.71
691.75	1088.40
692.09	1086.73
692.43	1086.73
692.76	1087.18
693.10	1089.80
693.44	1093.26
693.78	1096.47
694.11	1094.69
694.45	1095.02
694.79	1091.79
695.13	1091.13
695.46	1090.13
695.80	1091.04
696.14	1089.05
696.48	1091.98
696.81	1091.23
697.15	1089.75
697.49	1088.93
697.82	1089.54
698.16	1085.14
698.50	1086.27
698.83	1086.36
699.17	1087.37
699.51	1088.47
699.84	1090.95
700.18	1090.83
700.52	1093.33
700.85	1090.50
701.19	1090.53
701.53	1089.73
701.86	1088.65
702.20	1087.04
702.54	1088.75
702.87	1090.41
703.21	1090.60
703.55	1090.39
703.88	1092.09
704.22	1094.29
704.55	1093.64
704.89	1093.10
705.23	1091.25
705.56	1087.81
705.90	1088.61
706.23	1088.86
706.57	1090.22
706.91	1091.37
707.24	1091.51
707.58	1090.50
707.91	1087.97
708.25	1084.89
708.58	1086.41
708.92	1086.97
709.26	1084.81
709.59	1086.48
709.93	1088.33
710.26	1085.45
710.60	1088.07
710.93	1087.67
711.27	1084.37
711.60	1085.31
711.94	1087.13
712.27	1085.73
712.61	1088.51
712.94	1091.60
713.28	1092.33
713.61	1091.04
713.95	1090.57
714.28	1086.94
714.62	1088.00
714.95	1087.37
715.29	1088.68
715.62	1086.45
715.96	1087.65
716.29	1084.25
716.63	1081.98
716.96	1080.53
717.29	1083.04
717.63	1086.34
717.96	1087.55
718.30	1089.52
718.63	1090.48
718.97	1090.22
719.30	1085.87
719.63	1087.95
719.97	1089.87
720.30	1090.08
720.64	1087.23
720.97	1089.31
721.30	1086.66
721.64	1084.09
721.97	1086.03
722.31	1089.54
722.64	1088.49
722.97	1088.91
723.31	1087.74
723.64	1083.50
723.97	1084.84
724.31	1089.68
724.64	1090.48
724.98	1091.95
725.31	1094.15
725.64	1090.03
725.98	1085.07
726.31	1082.78
726.64	1084.30
726.97	1086.31
727.31	1090.78
727.64	1092.42
727.97	1092.47
728.31	1087.65
728.64	1086.13
728.97	1080.09
729.31	1080.95
729.64	1081.37
729.97	1082.94
730.30	1083.04
730.64	1087.60
730.97	1086.83
731.30	1086.03
731.63	1087.44
731.97	1086.10
732.30	1084.28
732.63	1081.47
732.96	1082.87
733.30	1083.25
733.63	1084.70
733.96	1087.53
734.29	1090.06
734.63	1088.42
734.96	1086.87
735.29	1087.58
735.62	1083.53
735.95	1085.84
736.29	1088.96
736.62	1088.19
736.95	1085.56
737.28	1088.33
737.61	1089.40
737.94	1092.54
738.28	1094.53
738.61	1096.00
738.94	1094.86
739.27	1087.97
739.60	1085.17
739.93	1084.81
740.27	1082.99
740.60	1082.40
740.93	1082.57
741.26	1085.31
741.59	1085.94
741.92	1089.71
742.25	1093.12
742.58	1093.71
742.91	1091.11
743.25	1088.16
743.58	1086.13
743.91	1081.82
744.24	1082.19
744.57	1083.06
744.90	1084.65
745.23	1082.57
745.56	1084.18
745.89	1084.44
746.22	1083.32
746.55	1086.66
746.88	1087.37
747.21	1087.11
747.54	1090.92
747.87	1090.69
748.20	1090.43
748.53	1092.52
748.87	1093.50
749.20	1090.64
749.53	1090.08
749.86	1089.75
750.19	1088.42
750.52	1089.50
750.85	1090.50
751.18	1091.11
751.51	1091.13
751.84	1091.37
752.16	1086.34
752.49	1087.18
752.82	1089.12
753.15	1083.41
753.48	1082.90
753.81	1087.69
754.14	1086.45
754.47	1083.39
754.80	1087.37
755.13	1088.91
755.46	1091.16
755.79	1088.79
756.12	1090.50
756.45	1090.74
756.78	1088.68
757.11	1085.33
757.43	1089.07
757.76	1087.67
758.09	1083.86
758.42	1083.46
758.75	1080.84
759.08	1075.62
759.41	1077.23
759.74	1077.89
760.07	1078.24
760.39	1082.94
760.72	1086.31
761.05	1083.90
761.38	1084.14
761.71	1083.55
762.04	1078.52
762.36	1078.89
762.69	1082.52
763.02	1085.40
763.35	1089.89
763.68	1092.26
764.01	1091.02
764.33	1087.60
764.66	1087.37
764.99	1082.36
765.32	1080.72
765.65	1079.83
765.97	1080.74
766.30	1077.47
766.63	1077.98
766.96	1081.63
767.28	1083.95
767.61	1082.69
767.94	1084.46
768.27	1085.82
768.59	1085.84
768.92	1086.27
769.25	1087.09
769.58	1090.36
769.90	1088.61
770.23	1088.00
770.56	1086.52
770.89	1085.66
771.21	1084.79
771.54	1087.83
771.87	1086.73
772.19	1086.38
772.52	1087.18
772.85	1086.90
773.17	1086.57
773.50	1084.56
773.83	1087.18
774.15	1088.82
774.48	1087.72
774.81	1088.02
775.13	1089.03
775.46	1085.80
775.79	1084.44
776.11	1082.54
776.44	1082.43
776.77	1084.60
777.09	1085.03
777.42	1084.42
777.74	1083.76
778.07	1084.77
778.40	1082.87
778.72	1084.32
779.05	1085.52
779.37	1091.06
779.70	1087.32
780.03	1086.34
780.35	1086.10
780.68	1086.06
781.00	1082.64
781.33	1080.81
781.65	1082.36
781.98	1082.26
782.31	1081.66
782.63	1081.14
782.96	1086.13
783.28	1089.36
783.61	1088.14
783.93	1086.31
784.26	1085.28
784.58	1084.67
784.91	1079.90
785.23	1079.29
785.56	1081.77
785.88	1082.66
786.21	1080.77
786.53	1084.07
786.86	1084.67
787.18	1082.76
787.51	1083.15
787.83	1083.18
788.16	1079.46
788.48	1079.81
788.81	1081.12
789.13	1080.77
789.46	1080.51
789.78	1080.41
790.10	1080.65
790.43	1078.07
790.75	1080.84
791.08	1084.21
791.40	1084.98
791.73	1090.20
792.05	1091.58
792.37	1090.99
792.70	1086.66
793.02	1087.11
793.35	1084.23
793.67	1086.17
793.99	1088.33
794.32	1090.83
794.64	1091.86
794.96	1090.64
795.29	1091.44
795.61	1085.75
795.93	1085.00
796.26	1082.83
796.58	1080.04
796.91	1079.34
797.23	1083.01
797.55	1084.14
797.87	1086.22
798.20	1088.68
798.52	1088.09
798.84	1087.04
799.17	1088.09
799.49	1089.61
799.81	1089.26
800.14	1087.83
800.46	1089.52
800.78	1091.79
801.10	1088.79
801.43	1092.54
801.75	1090.97
802.07	1090.95
802.40	1087.76
802.72	1091.23
803.04	1088.23
803.36	1090.64
803.69	1088.89
804.01	1089.10
804.33	1084.63
804.65	1083.60
804.97	1082.24
805.30	1081.30
805.62	1080.16
805.94	1082.45
806.26	1083.43
806.58	1084.16
806.91	1084.72
807.23	1083.53
807.55	1084.58
807.87	1085.94
808.19	1086.66
808.52	1087.55
808.84	1088.21
809.16	1087.02
809.48	1084.37
809.80	1084.35
810.12	1083.53
810.44	1087.34
810.77	1085.19
811.09	1084.44
811.41	1085.33
811.73	1085.94
812.05	1079.53
812.37	1082.17
812.69	1081.66
813.01	1078.64
813.33	1077.63
813.66	1080.88
813.98	1079.01
814.30	1081.16
814.62	1083.90
814.94	1083.32
815.26	1086.13
815.58	1086.80
815.90	1087.34
816.22	1083.27
816.54	1083.74
816.86	1080.46
817.18	1081.40
817.50	1081.21
817.82	1084.42
818.14	1085.52
818.46	1082.73
818.78	1084.60
819.10	1082.78
819.42	1085.10
819.74	1085.54
820.06	1086.03
820.38	1083.41
820.70	1084.89
821.02	1081.70
821.34	1079.46
821.66	1079.31
821.98	1079.31
822.30	1080.67
822.62	1082.26
822.94	1083.81
823.26	1087.11
823.58	1085.80
823.90	1084.63
824.22	1085.63
824.54	1086.48
824.86	1086.64
825.18	1089.12
825.50	1088.82
825.81	1086.80
826.13	1083.76
826.45	1080.86
826.77	1080.11
827.09	1076.90
827.41	1077.51
827.73	1079.34
828.05	1082.36
828.36	1081.05
828.68	1081.82
829.00	1082.90
829.32	1081.16
829.64	1080.72
829.96	1083.88
830.28	1083.57
830.59	1084.72
830.91	1088.51
831.23	1089.50
831.55	1086.85
831.87	1089.57
832.19	1087.04
832.50	1087.06
832.82	1085.40
833.14	1083.53
833.46	1084.96
833.78	1086.38
834.09	1084.93
834.41	1083.86
834.73	1084.67
835.05	1081.70
835.36	1081.09
835.68	1079.62
836.00	1079.69
836.32	1079.24
836.63	1082.66
836.95	1083.25
837.27	1081.40
837.59	1081.70
837.90	1083.11
838.22	1082.97
838.54	1082.47
838.85	1085.75
839.17	1083.93
839.49	1083.95
839.80	1078.50
840.12	1077.18
840.44	1075.76
840.76	1077.56
841.07	1079.90
841.39	1081.82
841.71	1082.17
842.02	1082.19
842.34	1083.39
842.65	1081.61
842.97	1083.95
843.29	1083.34
843.60	1083.01
843.92	1080.91
844.24	1080.18
844.55	1080.09
844.87	1081.26
845.18	1082.15
845.50	1086.73
845.82	1088.16
846.13	1086.52
846.45	1086.55
846.76	1086.52
847.08	1081.26
847.40	1082.92
847.71	1083.39
848.03	1080.34
848.34	1083.11
848.66	1084.25
848.97	1082.10
849.29	1080.84
849.60	1083.67
849.92	1081.98
850.24	1082.80
850.55	1084.02
850.87	1087.65
851.18	1086.17
851.50	1086.87
851.81	1084.89
852.13	1085.07
852.44	1083.86
852.76	1084.16
853.07	1081.05
853.39	1083.81
853.70	1084.81
854.01	1085.17
854.33	1084.16
854.64	1083.41
854.96	1082.99
855.27	1082.59
855.59	1079.67
855.90	1081.05
856.22	1083.86
856.53	1084.44
856.84	1082.52
857.16	1083.76
857.47	1085.40
857.79	1084.44
858.10	1082.99
858.41	1079.88
858.73	1080.39
859.04	1079.38
859.36	1079.81
859.67	1082.45
859.98	1085.68
860.30	1085.70
860.61	1085.40
860.92	1084.72
861.24	1084.14
861.55	1085.84
861.87	1088.49
862.18	1087.95
862.49	1091.84
862.81	1090.57
863.12	1091.11
863.43	1088.42
863.74	1088.28
864.06	1085.82
864.37	1085.54
864.68	1083.97
865.00	1083.93
865.31	1084.86
865.62	1081.77
865.94	1082.99
866.25	1081.73
866.56	1083.67
866.87	1083.13
867.19	1085.10
867.50	1086.13
867.81	1086.31
868.12	1085.68
868.44	1085.80
868.75	1084.81
869.06	1083.36
869.37	1082.40
869.68	1080.56
870.00	1079.90
870.31	1081.00
870.62	1079.69
870.93	1079.20
871.24	1080.41
871.56	1085.14
871.87	1085.17
872.18	1088.56
872.49	1090.48
872.80	1092.05
873.12	1087.90
873.43	1084.89
873.74	1079.06
874.05	1077.82
874.36	1073.49
874.67	1072.85
874.98	1077.25
875.29	1082.08
875.61	1083.27
875.92	1086.52
876.23	1089.05
876.54	1086.94
876.85	1087.34
877.16	1087.39
877.47	1086.78
877.78	1086.55
878.09	1083.90
878.40	1082.47
878.72	1082.03
879.03	1080.65
879.34	1075.87
879.65	1079.74
879.96	1080.72
880.27	1076.79
880.58	1078.28
880.89	1081.70
881.20	1080.04
881.51	1081.84
881.82	1086.52
882.13	1087.79
882.44	1088.16
882.75	1090.13
883.06	1091.37
883.37	1090.01
883.68	1087.44
883.99	1088.16
884.30	1090.43
884.61	1084.98
884.92	1083.48
885.23	1084.25
885.54	1084.67
885.85	1079.88
886.16	1080.72
886.47	1081.44
886.78	1081.42
887.08	1080.32
887.39	1083.08
887.70	1084.42
888.01	1087.44
888.32	1086.20
888.63	1087.79
888.94	1085.17
889.25	1085.19
889.56	1085.77
889.87	1088.89
890.17	1089.38
890.48	1091.20
890.79	1090.34
891.10	1087.60
891.41	1084.58
891.72	1080.56
892.03	1079.88
892.34	1079.22
892.64	1081.61
892.95	1080.06
893.26	1080.98
893.57	1084.04
893.88	1084.25
894.18	1082.01
894.49	1084.23
894.80	1084.49
895.11	1083.57
895.42	1085.24
895.72	1084.16
896.03	1082.69
896.34	1084.42
896.65	1083.20
896.96	1082.64
897.26	1087.23
897.57	1090.74
897.88	1089.59
898.19	1089.26
898.49	1088.23
898.80	1083.08
899.11	1082.59
899.41	1084.30
899.72	1082.87
900.03	1083.13
900.34	1085.56
900.64	1083.86
900.95	1083.32
901.26	1088.00
901.56	1088.65
901.87	1086.85
902.18	1087.60
902.48	1088.54
902.79	1087.13
903.10	1086.90
903.40	1089.12
903.71	1088.44
904.02	1085.47
904.32	1083.86
904.63	1086.76
904.94	1083.97
905.24	1082.45
905.55	1081.35
905.85	1081.89
906.16	1078.85
906.47	1079.83
906.77	1081.23
907.08	1084.60
907.38	1082.08
907.69	1082.29
908.00	1081.75
908.30	1083.46
908.61	1082.17
908.91	1087.46
909.22	1082.85
909.52	1082.97
909.83	1079.67
910.14	1077.84
910.44	1076.01
910.75	1081.26
911.05	1080.41
911.36	1080.30
911.66	1082.15
911.97	1080.09
912.27	1077.02
912.58	1076.95
912.88	1079.97
913.19	1081.14
913.49	1078.61
913.80	1082.29
914.10	1082.43
914.41	1078.28
914.71	1076.41
915.01	1078.87
915.32	1077.44
915.62	1078.28
915.93	1084.42
916.23	1084.14
916.54	1087.30
916.84	1085.07
917.15	1085.89
917.45	1080.34
917.75	1082.87
918.06	1080.53
918.36	1085.14
918.67	1085.35
918.97	1089.52
919.27	1086.80
919.58	1087.09
919.88	1085.40
920.18	1085.70
920.49	1083.81
920.79	1085.21
921.10	1081.70
921.40	1084.23
921.70	1084.37
922.01	1084.09
922.31	1083.43
922.61	1086.87
922.92	1080.74
923.22	1078.28
923.52	1075.64
923.82	1075.83
924.13	1074.94
924.43	1077.86
924.73	1079.76
925.04	1085.61
925.34	1086.73
925.64	1087.69
925.94	1089.82
926.25	1091.84
926.55	1089.38
926.85	1085.89
927.15	1085.96
927.46	1083.74
927.76	1078.17
928.06	1077.09
928.36	1078.12
928.67	1078.33
928.97	1079.17
929.27	1085.05
929.57	1084.39
929.87	1084.89
930.18	1082.22
930.48	1081.26
930.78	1078.50
931.08	1080.37
931.38	1078.43
931.69	1080.98
931.99	1080.41
932.29	1079.15
932.59	1079.99
932.89	1081.07
933.19	1081.51
933.49	1078.71
933.80	1081.49
934.10	1080.65
934.40	1079.85
934.70	1077.70
935.00	1082.64
935.30	1082.52
935.60	1081.33
935.90	1083.55
936.20	1084.09
936.50	1083.18
936.81	1082.22
937.11	1083.90
937.41	1084.00
937.71	1083.46
938.01	1083.39
938.31	1084.04
938.61	1083.27
938.91	1083.08
939.21	1082.50
939.51	1082.80
939.81	1082.24
940.11	1085.49
940.41	1084.63
940.71	1086.99
941.01	1086.08
941.31	1083.60
941.61	1082.59
941.91	1083.90
942.21	1085.59
942.51	1085.14
942.81	1088.89
943.11	1087.04
943.41	1086.94
943.71	1084.89
944.01	1082.85
944.31	1082.59
944.61	1081.87
944.90	1081.84
945.20	1083.69
945.50	1083.29
945.80	1082.26
946.10	1081.54
946.40	1078.03
946.70	1073.79
947.00	1074.56
947.30	1074.40
947.60	1075.17
947.89	1077.02
948.19	1078.80
948.49	1081.47
948.79	1082.36
949.09	1082.61
949.39	1084.23
949.69	1087.62
949.98	1085.89
950.28	1085.77
950.58	1085.05
950.88	1082.64
951.18	1078.64
951.48	1077.89
951.77	1076.44
952.07	1077.25
952.37	1080.11
952.67	1080.51
952.97	1079.95
953.26	1084.72
953.56	1083.22
953.86	1082.73
954.16	1081.51
954.45	1083.95
954.75	1081.21
955.05	1082.40
955.35	1080.93
955.64	1083.88
955.94	1084.53
956.24	1084.37
956.54	1079.85
956.83	1079.46
957.13	1080.88
957.43	1081.61
957.72	1082.64
958.02	1090.43
958.32	1094.65
958.61	1091.49
958.91	1091.46
959.21	1089.57
959.50	1089.59
959.80	1086.94
960.10	1085.24
960.39	1083.97
960.69	1085.94
960.99	1081.21
961.28	1080.39
961.58	1082.87
961.87	1081.40
962.17	1077.93
962.47	1078.66
962.76	1079.46
963.06	1077.84
963.36	1077.40
963.65	1075.41
963.95	1075.17
964.24	1077.09
964.54	1079.29
964.83	1080.74
965.13	1083.11
965.42	1084.84
965.72	1082.73
966.02	1082.66
966.31	1082.83
966.61	1086.50
966.90	1085.00
967.20	1088.91
967.49	1092.09
967.79	1092.82
968.08	1090.08
968.38	1091.23
968.67	1085.38
968.97	1082.12
969.26	1079.74
969.56	1080.56
969.85	1080.30
970.15	1081.23
970.44	1079.78
970.74	1082.24
971.03	1080.32
971.32	1080.09
971.62	1083.01
971.91	1079.57
972.21	1079.46
972.50	1082.61
972.80	1083.69
973.09	1082.38
973.38	1084.11
973.68	1081.98
973.97	1081.33
974.27	1077.35
974.56	1079.78
974.85	1079.60
975.15	1081.75
975.44	1080.30
975.73	1083.04
976.03	1082.26
976.32	1082.85
976.61	1081.84
976.91	1083.69
977.20	1083.93
977.49	1080.91
977.79	1085.17
978.08	1087.55
978.37	1084.53
978.67	1085.33
978.96	1085.10
979.25	1084.44
979.55	1079.95
979.84	1077.44
980.13	1076.30
980.42	1077.65
980.72	1074.75
981.01	1076.69
981.30	1079.99
981.59	1078.17
981.89	1078.07
982.18	1078.64
982.47	1078.24
982.76	1079.48
983.06	1077.11
983.35	1074.40
983.64	1074.17
983.93	1074.17
984.22	1071.29
984.52	1073.70
984.81	1075.15
985.10	1076.74
985.39	1078.26
985.68	1080.46
985.97	1083.13
986.27	1085.24
986.56	1083.15
986.85	1082.99
987.14	1081.80
987.43	1081.98
987.72	1082.57
988.01	1082.52
988.31	1081.73
988.60	1082.45
988.89	1078.52
989.18	1080.13
989.47	1082.31
989.76	1082.12
990.05	1080.81
990.34	1086.45
990.63	1081.49
990.92	1081.26
991.21	1079.57
991.51	1080.06
991.80	1078.38
992.09	1080.56
992.38	1078.73
992.67	1080.91
992.96	1085.17
993.25	1083.08
993.54	1081.35
993.83	1080.34
994.12	1079.53
994.41	1073.21
994.70	1076.39
994.99	1077.09
995.28	1078.85
995.57	1080.32
995.86	1084.23
996.15	1082.59
996.44	1083.50
996.73	1085.05
997.02	1084.98
997.31	1084.72
997.59	1082.99
997.88	1081.05
998.17	1078.96
998.46	1079.01
998.75	1077.82
999.04	1079.48
999.33	1079.81
999.62	1081.91
999.91	1081.30
1000.20	1084.11
1000.49	1086.29
1000.77	1088.02
1001.06	1085.94
1001.35	1087.90
1001.64	1085.35
1001.93	1084.16
1002.22	1087.32
1002.51	1088.04
1002.79	1085.96
1003.08	1085.54
1003.37	1085.28
1003.66	1081.68
1003.95	1083.60
1004.23	1085.00
1004.52	1083.43
1004.81	1082.22
1005.10	1083.57
1005.39	1083.64
1005.67	1082.80
1005.96	1084.51
1006.25	1083.88
1006.54	1082.15
1006.83	1078.64
1007.11	1078.40
1007.40	1078.64
1007.69	1077.33
1007.97	1079.64
1008.26	1078.78
1008.55	1080.95
1008.84	1080.30
1009.12	1084.46
1009.41	1080.18
1009.70	1083.06
1009.98	1082.43
1010.27	1081.37
1010.56	1078.36
1010.85	1082.33
1011.13	1082.19
1011.42	1078.47
1011.71	1081.16
1011.99	1081.84
1012.28	1080.23
1012.56	1078.99
1012.85	1082.10
1013.14	1082.31
1013.42	1081.42
1013.71	1082.69
1014.00	1085.03
1014.28	1084.18
1014.57	1083.55
1014.85	1085.00
1015.14	1086.08
1015.43	1083.01
1015.71	1084.74
1016.00	1085.19
1016.28	1084.42
1016.57	1081.61
1016.85	1083.36
1017.14	1081.37
1017.43	1082.69
1017.71	1083.88
1018.00	1084.07
1018.28	1083.41
1018.57	1088.89
1018.85	1088.49
1019.14	1089.38
1019.42	1091.20
1019.71	1091.34
1019.99	1083.34
1020.28	1079.83
1020.56	1080.51
1020.85	1081.40
1021.13	1082.01
1021.42	1083.01
1021.70	1085.84
1021.99	1085.68
1022.27	1079.81
1022.55	1092.21
1022.84	1063.77
>>>>>End Processed Spectral Data<<<<<
