SpectraSuite Data File
++++++++++++++++++++++++++++++++++++
Date: Mon Aug 26 10:27:04 PDT 2019
User: corrico
Dark Spectrum Present: No
Reference Spectrum Present: No
Number of Sampled Component Spectra: 1
Spectrometers: USB2+H06089
Integration Time (usec): 10000 (USB2+H06089)
Spectra Averaged: 20 (USB2+H06089)
Boxcar Smoothing: 2 (USB2+H06089)
Correct for Electrical Dark: No (USB2+H06089)
Strobe/Lamp Enabled: No (USB2+H06089)
Correct for Detector Non-linearity: No (USB2+H06089)
Correct for Stray Light: No (USB2+H06089)
Number of Pixels in Processed Spectrum: 2048
>>>>>Begin Processed Spectral Data<<<<<
339.70	1037.79
340.07	1037.79
340.45	1002.85
340.82	979.33
341.19	952.76
341.57	927.55
341.94	915.52
342.31	909.18
342.69	904.03
343.06	902.02
343.43	900.38
343.81	901.60
344.18	903.38
344.55	907.85
344.93	914.52
345.30	923.06
345.67	929.24
346.04	936.45
346.42	944.78
346.79	954.21
347.16	962.71
347.54	970.36
347.91	979.12
348.28	987.87
348.65	995.45
349.03	1001.84
349.40	1013.73
349.77	1019.14
350.14	1025.62
350.52	1031.31
350.89	1037.93
351.26	1039.60
351.63	1045.87
352.01	1050.74
352.38	1054.08
352.75	1059.09
353.12	1064.69
353.50	1067.45
353.87	1069.95
354.24	1073.11
354.61	1071.12
354.98	1072.43
355.36	1074.24
355.73	1075.29
356.10	1077.58
356.47	1079.06
356.84	1079.78
357.22	1078.94
357.59	1082.26
357.96	1079.22
358.33	1079.50
358.70	1079.31
359.08	1079.22
359.45	1076.72
359.82	1078.71
360.19	1076.11
360.56	1074.61
360.94	1077.49
361.31	1075.50
361.68	1076.41
362.05	1076.39
362.42	1076.44
362.79	1070.84
363.16	1071.36
363.54	1066.79
363.91	1068.71
364.28	1066.79
364.65	1068.97
365.02	1068.85
365.39	1070.00
365.76	1071.66
366.14	1072.55
366.51	1071.80
366.88	1072.71
367.25	1070.02
367.62	1064.92
367.99	1065.08
368.36	1064.50
368.73	1061.34
369.10	1062.23
369.48	1065.46
369.85	1067.92
370.22	1066.79
370.59	1067.85
370.96	1069.67
371.33	1072.18
371.70	1070.98
372.07	1072.83
372.44	1072.83
372.81	1070.58
373.18	1066.89
373.55	1062.53
373.93	1063.02
374.30	1062.93
374.67	1067.45
375.04	1063.73
375.41	1067.45
375.78	1067.00
376.15	1065.32
376.52	1062.74
376.89	1066.61
377.26	1066.54
377.63	1065.60
378.00	1067.35
378.37	1069.79
378.74	1073.81
379.11	1071.36
379.48	1072.81
379.85	1074.61
380.22	1073.86
380.59	1071.78
380.96	1072.22
381.33	1072.04
381.70	1067.87
382.07	1064.99
382.44	1063.05
382.81	1066.09
383.18	1066.68
383.55	1070.63
383.92	1074.00
384.29	1075.15
384.66	1074.98
385.03	1077.72
385.40	1077.30
385.77	1072.97
386.14	1076.44
386.51	1074.26
386.88	1073.18
387.25	1073.72
387.62	1077.86
387.99	1072.41
388.36	1076.13
388.73	1074.80
389.10	1075.97
389.46	1076.90
389.83	1080.39
390.20	1080.34
390.57	1080.74
390.94	1079.43
391.31	1077.65
391.68	1075.43
392.05	1073.98
392.42	1072.18
392.79	1072.64
393.16	1072.08
393.53	1070.16
393.89	1070.49
394.26	1072.43
394.63	1071.36
395.00	1071.47
395.37	1074.68
395.74	1074.40
396.11	1074.10
396.48	1077.16
396.84	1078.78
397.21	1078.21
397.58	1078.73
397.95	1081.49
398.32	1081.19
398.69	1079.55
399.06	1078.61
399.42	1077.30
399.79	1074.26
400.16	1072.90
400.53	1073.81
400.90	1074.52
401.27	1076.76
401.64	1077.82
402.00	1076.72
402.37	1074.98
402.74	1074.05
403.11	1072.20
403.48	1068.78
403.84	1069.65
404.21	1071.50
404.58	1076.55
404.95	1075.92
405.32	1078.36
405.68	1076.86
406.05	1076.67
406.42	1072.06
406.79	1074.07
407.16	1074.98
407.52	1075.50
407.89	1077.04
408.26	1078.50
408.63	1076.48
408.99	1075.22
409.36	1076.88
409.73	1074.73
410.10	1075.10
410.47	1078.36
410.83	1077.86
411.20	1077.18
411.57	1075.62
411.94	1075.57
412.30	1073.21
412.67	1074.05
413.04	1071.61
413.40	1074.59
413.77	1074.66
414.14	1075.17
414.51	1075.57
414.87	1080.74
415.24	1079.17
415.61	1077.02
415.97	1079.64
416.34	1080.06
416.71	1079.13
417.08	1082.59
417.44	1080.67
417.81	1080.79
418.18	1077.51
418.54	1076.32
418.91	1074.63
419.28	1078.66
419.64	1075.27
420.01	1076.65
420.38	1076.97
420.74	1074.91
421.11	1076.41
421.48	1076.74
421.84	1079.57
422.21	1079.88
422.58	1083.04
422.94	1083.64
423.31	1083.71
423.68	1084.16
424.04	1083.04
424.41	1081.37
424.77	1079.31
425.14	1078.33
425.51	1075.83
425.87	1074.26
426.24	1076.34
426.61	1074.61
426.97	1078.03
427.34	1081.66
427.70	1084.21
428.07	1081.02
428.44	1084.81
428.80	1084.74
429.17	1082.73
429.53	1079.83
429.90	1081.37
430.27	1079.97
430.63	1075.57
431.00	1074.56
431.36	1081.19
431.73	1082.71
432.09	1080.04
432.46	1082.59
432.83	1081.70
433.19	1078.07
433.56	1075.66
433.92	1078.19
434.29	1082.15
434.65	1083.67
435.02	1081.87
435.38	1081.70
435.75	1082.40
436.11	1079.90
436.48	1079.90
436.84	1082.50
437.21	1084.56
437.57	1085.99
437.94	1085.24
438.30	1081.91
438.67	1081.51
439.03	1082.08
439.40	1077.65
439.76	1076.60
440.13	1081.26
440.49	1082.64
440.86	1079.83
441.22	1082.10
441.59	1081.49
441.95	1082.03
442.32	1080.48
442.68	1085.68
443.05	1085.49
443.41	1085.68
443.78	1084.93
444.14	1083.15
444.51	1079.71
444.87	1078.71
445.24	1080.91
445.60	1081.54
445.96	1084.07
446.33	1080.81
446.69	1080.72
447.06	1078.87
447.42	1078.99
447.79	1078.00
448.15	1081.96
448.51	1082.05
448.88	1082.78
449.24	1082.26
449.61	1083.29
449.97	1078.52
450.33	1077.61
450.70	1076.53
451.06	1076.90
451.43	1076.62
451.79	1080.74
452.15	1080.11
452.52	1081.19
452.88	1079.31
453.24	1078.54
453.61	1077.58
453.97	1075.36
454.34	1079.48
454.70	1081.68
455.06	1082.01
455.43	1085.89
455.79	1091.74
456.15	1089.61
456.52	1088.16
456.88	1085.70
457.24	1081.07
457.61	1078.73
457.97	1076.88
458.33	1076.18
458.70	1076.55
459.06	1074.98
459.42	1079.01
459.79	1078.33
460.15	1081.07
460.51	1081.87
460.88	1082.17
461.24	1076.95
461.60	1075.94
461.96	1073.14
462.33	1073.39
462.69	1075.41
463.05	1079.20
463.42	1078.12
463.78	1076.39
464.14	1077.42
464.50	1075.62
464.87	1075.78
465.23	1078.47
465.59	1081.40
465.95	1080.84
466.32	1084.11
466.68	1081.23
467.04	1081.30
467.40	1080.48
467.77	1079.53
468.13	1076.93
468.49	1077.96
468.85	1077.18
469.22	1078.00
469.58	1079.95
469.94	1082.54
470.30	1084.21
470.66	1085.66
471.03	1084.89
471.39	1082.26
471.75	1080.81
472.11	1078.14
472.47	1075.34
472.84	1076.37
473.20	1077.68
473.56	1076.95
473.92	1076.06
474.28	1079.17
474.65	1078.73
475.01	1077.40
475.37	1078.10
475.73	1079.71
476.09	1077.91
476.45	1079.06
476.81	1081.58
477.18	1082.26
477.54	1083.90
477.90	1084.65
478.26	1082.76
478.62	1081.80
478.98	1080.32
479.34	1079.53
479.71	1080.56
480.07	1078.03
480.43	1077.18
480.79	1079.71
481.15	1078.73
481.51	1078.50
481.87	1081.44
482.23	1084.42
482.59	1085.28
482.96	1086.10
483.32	1086.94
483.68	1087.37
484.04	1085.05
484.40	1083.76
484.76	1085.73
485.12	1085.21
485.48	1082.87
485.84	1081.00
486.20	1080.74
486.56	1078.10
486.92	1075.43
487.28	1076.58
487.64	1078.24
488.00	1077.82
488.37	1079.10
488.73	1081.89
489.09	1082.73
489.45	1084.32
489.81	1084.37
490.17	1085.14
490.53	1084.74
490.89	1085.89
491.25	1082.05
491.61	1083.81
491.97	1080.58
492.33	1080.60
492.69	1075.85
493.05	1075.71
493.41	1074.75
493.77	1077.42
494.13	1075.05
494.49	1079.41
494.85	1082.10
495.21	1079.46
495.57	1078.92
495.93	1080.81
496.29	1080.25
496.64	1080.20
497.00	1080.20
497.36	1080.30
497.72	1076.95
498.08	1077.84
498.44	1078.59
498.80	1080.09
499.16	1082.50
499.52	1086.34
499.88	1085.10
500.24	1082.97
500.60	1082.87
500.96	1079.85
501.32	1083.36
501.68	1085.17
502.03	1088.14
502.39	1086.01
502.75	1084.67
503.11	1081.80
503.47	1080.23
503.83	1080.56
504.19	1081.84
504.55	1082.05
504.91	1083.29
505.26	1082.80
505.62	1083.11
505.98	1087.06
506.34	1088.65
506.70	1087.46
507.06	1086.48
507.42	1083.71
507.78	1079.46
508.13	1079.97
508.49	1079.01
508.85	1080.27
509.21	1081.28
509.57	1083.74
509.93	1086.08
510.28	1085.14
510.64	1084.02
511.00	1082.94
511.36	1081.87
511.72	1079.13
512.07	1077.65
512.43	1079.10
512.79	1079.88
513.15	1080.02
513.51	1077.35
513.86	1084.23
514.22	1083.71
514.58	1083.18
514.94	1086.52
515.30	1090.67
515.65	1084.37
516.01	1084.81
516.37	1083.90
516.73	1082.99
517.08	1079.13
517.44	1081.73
517.80	1081.00
518.16	1081.23
518.51	1081.66
518.87	1083.62
519.23	1082.05
519.59	1084.00
519.94	1085.05
520.30	1082.15
520.66	1082.71
521.01	1083.81
521.37	1081.98
521.73	1077.68
522.09	1079.36
522.44	1078.12
522.80	1075.20
523.16	1075.05
523.51	1079.15
523.87	1077.68
524.23	1077.58
524.58	1080.56
524.94	1080.72
525.30	1078.89
525.65	1081.70
526.01	1084.07
526.37	1083.55
526.72	1082.78
527.08	1082.90
527.44	1082.26
527.79	1081.33
528.15	1083.57
528.51	1086.08
528.86	1088.84
529.22	1085.52
529.58	1085.59
529.93	1082.36
530.29	1081.44
530.65	1081.40
531.00	1084.60
531.36	1083.90
531.71	1085.28
532.07	1087.04
532.43	1086.90
532.78	1086.03
533.14	1084.89
533.49	1085.19
533.85	1087.81
534.21	1085.03
534.56	1080.88
534.92	1081.91
535.27	1082.22
535.63	1078.00
535.98	1081.09
536.34	1082.50
536.69	1084.39
537.05	1082.57
537.41	1081.26
537.76	1080.88
538.12	1082.22
538.47	1079.62
538.83	1080.30
539.18	1079.74
539.54	1077.58
539.89	1080.39
540.25	1082.50
540.60	1084.49
540.96	1086.34
541.31	1090.36
541.67	1089.78
542.02	1090.85
542.38	1088.37
542.73	1090.67
543.09	1088.23
543.44	1089.14
543.80	1087.13
544.15	1089.75
544.51	1088.61
544.86	1090.88
545.22	1090.55
545.57	1089.57
545.93	1088.00
546.28	1088.82
546.64	1088.82
546.99	1087.30
547.35	1089.96
547.70	1089.89
548.05	1088.79
548.41	1088.98
548.76	1088.37
549.12	1088.33
549.47	1090.17
549.83	1089.82
550.18	1087.37
550.53	1091.27
550.89	1085.45
551.24	1083.43
551.60	1081.98
551.95	1082.05
552.30	1077.51
552.66	1081.12
553.01	1081.33
553.37	1081.82
553.72	1084.07
554.07	1083.20
554.43	1086.13
554.78	1084.63
555.13	1082.03
555.49	1081.09
555.84	1081.05
556.19	1079.46
556.55	1081.49
556.90	1085.61
557.26	1087.53
557.61	1089.61
557.96	1089.03
558.32	1090.95
558.67	1089.50
559.02	1083.62
559.37	1081.19
559.73	1079.76
560.08	1078.73
560.43	1077.61
560.79	1083.71
561.14	1086.24
561.49	1089.47
561.85	1091.49
562.20	1090.39
562.55	1088.49
562.90	1088.56
563.26	1088.86
563.61	1085.54
563.96	1087.27
564.32	1085.96
564.67	1085.24
565.02	1083.60
565.37	1083.04
565.73	1079.64
566.08	1080.53
566.43	1079.15
566.78	1078.75
567.14	1078.85
567.49	1084.79
567.84	1085.00
568.19	1088.21
568.54	1089.26
568.90	1090.22
569.25	1086.80
569.60	1084.89
569.95	1080.72
570.31	1079.90
570.66	1077.96
571.01	1081.37
571.36	1082.19
571.71	1087.06
572.06	1086.17
572.42	1087.18
572.77	1085.56
573.12	1084.89
573.47	1083.15
573.82	1082.87
574.18	1084.00
574.53	1082.50
574.88	1082.10
575.23	1078.92
575.58	1082.29
575.93	1079.10
576.28	1081.63
576.64	1082.69
576.99	1087.16
577.34	1085.21
577.69	1087.81
578.04	1088.02
578.39	1088.96
578.74	1089.64
579.09	1090.39
579.44	1088.68
579.80	1085.49
580.15	1084.04
580.50	1080.20
580.85	1079.95
581.20	1078.66
581.55	1077.68
581.90	1076.13
582.25	1079.71
582.60	1079.34
582.95	1081.96
583.30	1082.22
583.65	1086.08
584.00	1084.37
584.35	1082.33
584.71	1080.44
585.06	1081.58
585.41	1079.17
585.76	1080.23
586.11	1083.71
586.46	1085.80
586.81	1087.60
587.16	1090.74
587.51	1088.72
587.86	1086.24
588.21	1088.44
588.56	1084.98
588.91	1082.64
589.26	1084.28
589.61	1086.57
589.96	1084.63
590.31	1088.21
590.66	1089.14
591.01	1089.64
591.36	1085.28
591.71	1084.77
592.06	1084.00
592.41	1085.33
592.76	1085.87
593.10	1092.84
593.45	1095.82
593.80	1098.48
594.15	1095.91
594.50	1092.61
594.85	1088.28
595.20	1085.89
595.55	1082.66
595.90	1082.10
596.25	1083.57
596.60	1082.92
596.95	1080.37
597.30	1080.11
597.64	1129.96
597.99	1132.70
598.34	1130.60
598.69	1130.90
599.04	1133.01
599.39	1085.45
599.74	1081.44
600.09	1084.25
600.44	1088.30
600.78	1088.44
601.13	1087.74
601.48	1090.27
601.83	1090.67
602.18	1088.16
602.53	1089.14
602.88	1089.19
603.22	1087.32
603.57	1087.32
603.92	1085.49
604.27	1083.50
604.62	1082.15
604.97	1084.07
605.31	1084.04
605.66	1086.52
606.01	1087.18
606.36	1089.22
606.71	1087.48
607.05	1089.80
607.40	1088.21
607.75	1088.96
608.10	1087.51
608.44	1092.35
608.79	1091.39
609.14	1096.45
609.49	1097.01
609.84	1098.27
610.18	1100.36
610.53	1104.31
610.88	1107.21
611.23	1108.69
611.57	1113.21
611.92	1108.69
612.27	1107.03
612.62	1103.09
612.96	1102.88
613.31	1099.09
613.66	1099.91
614.00	1093.87
614.35	1089.03
614.70	1086.52
615.05	1087.02
615.39	1087.16
615.74	1091.74
616.09	1093.45
616.43	1092.09
616.78	1094.60
617.13	1093.29
617.47	1091.84
617.82	1092.49
618.17	1092.61
618.51	1088.09
618.86	1087.16
619.21	1086.13
619.55	1090.01
619.90	1091.37
620.25	1091.49
620.59	1091.02
620.94	1092.94
621.29	1088.61
621.63	1089.92
621.98	1092.26
622.32	1096.87
622.67	1094.27
623.02	1095.39
623.36	1094.93
623.71	1091.25
624.05	1084.53
624.40	1083.79
624.75	1081.66
625.09	1082.01
625.44	1080.84
625.78	1082.94
626.13	1087.27
626.48	1088.02
626.82	1088.02
627.17	1090.43
627.51	1088.61
627.86	1085.63
628.20	1086.99
628.55	1083.71
628.89	1083.60
629.24	1084.02
629.58	1083.79
629.93	1080.91
630.28	1081.77
630.62	1082.64
630.97	1084.60
631.31	1082.24
631.66	1085.31
632.00	1087.76
632.35	1087.86
632.69	1087.11
633.04	1089.75
633.38	1089.82
633.73	1089.89
634.07	1090.43
634.42	1089.92
634.76	1090.50
635.11	1090.39
635.45	1088.79
635.79	1088.65
636.14	1090.78
636.48	1089.33
636.83	1089.31
637.17	1089.12
637.52	1088.49
637.86	1084.28
638.21	1085.31
638.55	1082.29
638.89	1081.96
639.24	1079.29
639.58	1080.39
639.93	1078.78
640.27	1080.46
640.61	1083.62
640.96	1085.47
641.30	1085.99
641.65	1086.34
641.99	1083.32
642.33	1078.61
642.68	1074.75
643.02	1074.19
643.37	1073.72
643.71	1077.63
644.05	1076.83
644.40	1080.44
644.74	1082.17
645.08	1082.76
645.43	1080.20
645.77	1081.12
646.11	1077.72
646.46	1077.33
646.80	1078.89
647.14	1077.82
647.49	1078.61
647.83	1081.68
648.17	1081.54
648.52	1078.66
648.86	1082.22
649.20	1084.79
649.55	1083.34
649.89	1084.98
650.23	1085.12
650.57	1084.30
650.92	1084.07
651.26	1085.54
651.60	1081.63
651.95	1080.79
652.29	1081.56
652.63	1080.23
652.97	1084.09
653.32	1085.31
653.66	1090.03
654.00	1089.85
654.34	1088.98
654.69	1081.23
655.03	1079.90
655.37	1077.30
655.71	1076.32
656.05	1076.27
656.40	1079.64
656.74	1081.05
657.08	1082.38
657.42	1082.01
657.76	1084.25
658.11	1085.17
658.45	1085.96
658.79	1084.91
659.13	1084.18
659.47	1081.84
659.82	1081.21
660.16	1080.32
660.50	1079.41
660.84	1079.97
661.18	1079.17
661.52	1083.13
661.87	1083.53
662.21	1087.39
662.55	1087.58
662.89	1087.62
663.23	1084.25
663.57	1085.47
663.91	1085.68
664.25	1085.89
664.60	1085.80
664.94	1085.00
665.28	1085.70
665.62	1083.27
665.96	1080.88
666.30	1080.86
666.64	1082.12
666.98	1080.70
667.32	1082.15
667.66	1084.98
668.01	1086.08
668.35	1088.86
668.69	1089.12
669.03	1088.04
669.37	1088.51
669.71	1089.64
670.05	1083.76
670.39	1082.43
670.73	1082.29
671.07	1081.02
671.41	1079.08
671.75	1082.64
672.09	1081.00
672.43	1080.58
672.77	1082.33
673.11	1082.61
673.45	1082.85
673.79	1084.28
674.13	1086.06
674.47	1084.04
674.81	1083.46
675.15	1078.10
675.49	1076.55
675.83	1073.46
676.17	1072.46
676.51	1074.28
676.85	1079.88
677.19	1085.10
677.53	1085.28
677.87	1088.84
678.21	1088.68
678.55	1087.41
678.89	1082.50
679.23	1083.01
679.57	1080.60
679.90	1079.34
680.24	1078.54
680.58	1081.42
680.92	1082.45
681.26	1082.12
681.60	1084.37
681.94	1085.56
682.28	1084.65
682.62	1080.77
682.96	1082.57
683.29	1080.95
683.63	1078.26
683.97	1076.30
684.31	1079.62
684.65	1076.62
684.99	1076.32
685.33	1078.89
685.67	1080.93
686.00	1082.90
686.34	1087.34
686.68	1086.48
687.02	1086.08
687.36	1085.33
687.70	1081.80
688.03	1080.84
688.37	1082.52
688.71	1081.51
689.05	1084.00
689.39	1087.23
689.72	1085.28
690.06	1084.63
690.40	1083.25
690.74	1081.26
691.08	1080.37
691.41	1083.64
691.75	1082.50
692.09	1084.14
692.43	1086.13
692.76	1085.80
693.10	1083.95
693.44	1084.37
693.78	1089.10
694.11	1088.26
694.45	1085.05
694.79	1083.20
695.13	1084.46
695.46	1082.76
695.80	1083.36
696.14	1084.51
696.48	1086.29
696.81	1084.00
697.15	1081.70
697.49	1079.83
697.82	1082.08
698.16	1080.53
698.50	1081.33
698.83	1079.81
699.17	1077.70
699.51	1080.84
699.84	1082.64
700.18	1083.81
700.52	1085.84
700.85	1088.42
701.19	1082.19
701.53	1081.12
701.86	1081.75
702.20	1077.91
702.54	1078.45
702.87	1080.23
703.21	1076.46
703.55	1073.88
703.88	1074.33
704.22	1071.90
704.55	1072.41
704.89	1075.48
705.23	1077.89
705.56	1078.71
705.90	1082.15
706.23	1081.21
706.57	1083.18
706.91	1083.67
707.24	1083.90
707.58	1082.43
707.91	1084.60
708.25	1083.95
708.58	1080.32
708.92	1080.04
709.26	1080.77
709.59	1079.69
709.93	1079.17
710.26	1081.35
710.60	1083.60
710.93	1083.04
711.27	1082.03
711.60	1081.02
711.94	1084.63
712.27	1083.41
712.61	1081.23
712.94	1082.08
713.28	1085.00
713.61	1078.17
713.95	1077.70
714.28	1079.74
714.62	1080.93
714.95	1079.53
715.29	1080.20
715.62	1082.08
715.96	1083.83
716.29	1083.22
716.63	1085.26
716.96	1089.38
717.29	1090.29
717.63	1089.38
717.96	1086.38
718.30	1084.07
718.63	1081.28
718.97	1078.87
719.30	1078.85
719.63	1079.53
719.97	1079.90
720.30	1079.97
720.64	1081.87
720.97	1081.14
721.30	1083.48
721.64	1084.44
721.97	1086.34
722.31	1083.46
722.64	1081.56
722.97	1080.53
723.31	1079.53
723.64	1078.07
723.97	1082.15
724.31	1082.12
724.64	1082.31
724.98	1083.11
725.31	1084.44
725.64	1082.05
725.98	1086.06
726.31	1086.48
726.64	1082.94
726.97	1083.79
727.31	1083.27
727.64	1081.12
727.97	1082.47
728.31	1085.94
728.64	1082.92
728.97	1084.86
729.31	1085.59
729.64	1081.07
729.97	1078.03
730.30	1079.85
730.64	1079.83
730.97	1079.74
731.30	1084.46
731.63	1086.85
731.97	1087.16
732.30	1087.20
732.63	1085.87
732.96	1082.05
733.30	1083.39
733.63	1085.35
733.96	1085.80
734.29	1086.94
734.63	1088.40
734.96	1087.11
735.29	1083.48
735.62	1080.44
735.95	1080.58
736.29	1079.95
736.62	1078.80
736.95	1081.40
737.28	1083.04
737.61	1082.15
737.94	1080.16
738.28	1082.31
738.61	1077.51
738.94	1076.95
739.27	1076.41
739.60	1080.27
739.93	1078.92
740.27	1079.34
740.60	1077.09
740.93	1077.70
741.26	1077.16
741.59	1077.11
741.92	1080.18
742.25	1082.99
742.58	1083.08
742.91	1083.06
743.25	1082.10
743.58	1081.54
743.91	1082.78
744.24	1084.86
744.57	1082.61
744.90	1081.91
745.23	1085.24
745.56	1082.22
745.89	1081.09
746.22	1084.74
746.55	1084.74
746.88	1078.21
747.21	1078.87
747.54	1077.58
747.87	1077.58
748.20	1078.68
748.53	1082.31
748.87	1081.75
749.20	1082.83
749.53	1079.13
749.86	1081.05
750.19	1083.04
750.52	1084.93
750.85	1085.40
751.18	1084.84
751.51	1082.73
751.84	1080.41
752.16	1079.97
752.49	1080.02
752.82	1082.52
753.15	1080.77
753.48	1080.25
753.81	1077.04
754.14	1076.06
754.47	1076.62
754.80	1080.27
755.13	1080.30
755.46	1082.85
755.79	1082.90
756.12	1082.45
756.45	1082.78
756.78	1081.66
757.11	1081.87
757.43	1080.67
757.76	1082.05
758.09	1079.85
758.42	1083.06
758.75	1083.64
759.08	1086.73
759.41	1086.64
759.74	1084.07
760.07	1085.21
760.39	1080.93
760.72	1080.34
761.05	1076.72
761.38	1079.76
761.71	1076.11
762.04	1080.02
762.36	1076.58
762.69	1080.58
763.02	1079.55
763.35	1079.48
763.68	1077.21
764.01	1079.41
764.33	1075.34
764.66	1076.62
764.99	1078.19
765.32	1079.43
765.65	1077.93
765.97	1082.33
766.30	1082.78
766.63	1084.44
766.96	1085.40
767.28	1088.09
767.61	1085.03
767.94	1081.68
768.27	1080.46
768.59	1078.38
768.92	1078.71
769.25	1077.21
769.58	1079.76
769.90	1075.85
770.23	1078.57
770.56	1077.54
770.89	1082.05
771.21	1084.74
771.54	1088.23
771.87	1087.62
772.19	1086.87
772.52	1085.28
772.85	1082.50
773.17	1083.32
773.50	1082.15
773.83	1082.29
774.15	1081.07
774.48	1081.96
774.81	1081.07
775.13	1082.85
775.46	1081.21
775.79	1081.33
776.11	1081.42
776.44	1079.10
776.77	1078.10
777.09	1080.58
777.42	1080.95
777.74	1079.97
778.07	1081.54
778.40	1081.84
778.72	1080.27
779.05	1081.37
779.37	1085.40
779.70	1087.53
780.03	1085.70
780.35	1087.93
780.68	1088.77
781.00	1085.52
781.33	1082.01
781.65	1084.98
781.98	1083.22
782.31	1082.59
782.63	1079.50
782.96	1081.00
783.28	1077.44
783.61	1079.50
783.93	1078.31
784.26	1079.90
784.58	1078.54
784.91	1080.72
785.23	1077.58
785.56	1076.15
785.88	1077.18
786.21	1077.93
786.53	1080.67
786.86	1081.54
787.18	1082.52
787.51	1082.31
787.83	1082.43
788.16	1081.09
788.48	1079.81
788.81	1079.20
789.13	1080.88
789.46	1083.69
789.78	1082.38
790.10	1081.94
790.43	1081.44
790.75	1080.67
791.08	1078.40
791.40	1078.05
791.73	1086.62
792.05	1090.92
792.37	1089.19
792.70	1090.29
793.02	1088.75
793.35	1081.16
793.67	1076.27
793.99	1077.84
794.32	1078.71
794.64	1078.73
794.96	1077.09
795.29	1078.96
795.61	1078.26
795.93	1078.24
796.26	1080.79
796.58	1083.36
796.91	1085.14
797.23	1087.16
797.55	1084.51
797.87	1083.93
798.20	1085.99
798.52	1081.73
798.84	1078.33
799.17	1080.46
799.49	1081.47
799.81	1078.47
800.14	1081.28
800.46	1083.90
800.78	1082.40
801.10	1082.45
801.43	1085.59
801.75	1085.63
802.07	1080.06
802.40	1080.79
802.72	1081.07
803.04	1081.09
803.36	1081.49
803.69	1087.65
804.01	1088.12
804.33	1087.16
804.65	1084.11
804.97	1082.01
805.30	1079.99
805.62	1078.68
805.94	1077.65
806.26	1079.20
806.58	1079.78
806.91	1081.35
807.23	1081.61
807.55	1082.61
807.87	1083.32
808.19	1084.63
808.52	1083.01
808.84	1085.31
809.16	1086.73
809.48	1084.37
809.80	1086.90
810.12	1089.47
810.44	1084.39
810.77	1082.17
811.09	1080.95
811.41	1078.78
811.73	1078.28
812.05	1080.81
812.37	1080.95
812.69	1084.35
813.01	1080.93
813.33	1076.41
813.66	1078.03
813.98	1080.58
814.30	1081.12
814.62	1082.83
814.94	1082.87
815.26	1084.56
815.58	1082.99
815.90	1081.19
816.22	1080.53
816.54	1082.10
816.86	1079.92
817.18	1079.22
817.50	1077.11
817.82	1079.69
818.14	1079.83
818.46	1078.57
818.78	1079.03
819.10	1081.61
819.42	1080.58
819.74	1082.92
820.06	1082.87
820.38	1083.29
820.70	1080.79
821.02	1080.18
821.34	1078.68
821.66	1079.67
821.98	1078.61
822.30	1082.73
822.62	1083.46
822.94	1082.87
823.26	1084.58
823.58	1086.71
823.90	1083.36
824.22	1083.01
824.54	1085.35
824.86	1085.70
825.18	1083.01
825.50	1085.45
825.81	1086.22
826.13	1084.42
826.45	1081.56
826.77	1083.20
827.09	1085.03
827.41	1082.99
827.73	1083.34
828.05	1085.94
828.36	1082.52
828.68	1080.91
829.00	1083.22
829.32	1083.86
829.64	1078.64
829.96	1079.60
830.28	1076.74
830.59	1079.46
830.91	1079.88
831.23	1080.93
831.55	1082.73
831.87	1084.51
832.19	1082.22
832.50	1082.15
832.82	1084.18
833.14	1081.33
833.46	1080.04
833.78	1077.37
834.09	1074.80
834.41	1072.36
834.73	1074.84
835.05	1076.95
835.36	1076.86
835.68	1080.18
836.00	1082.61
836.32	1081.70
836.63	1081.37
836.95	1081.84
837.27	1077.98
837.59	1079.31
837.90	1081.23
838.22	1079.10
838.54	1078.80
838.85	1081.42
839.17	1079.92
839.49	1078.87
839.80	1080.84
840.12	1080.48
840.44	1079.71
840.76	1079.03
841.07	1077.44
841.39	1077.84
841.71	1081.40
842.02	1083.43
842.34	1084.96
842.65	1087.25
842.97	1086.50
843.29	1088.16
843.60	1085.33
843.92	1083.62
844.24	1085.87
844.55	1086.10
844.87	1081.96
845.18	1080.91
845.50	1079.81
845.82	1076.76
846.13	1077.61
846.45	1080.04
846.76	1084.53
847.08	1087.44
847.40	1088.02
847.71	1086.71
848.03	1084.28
848.34	1083.76
848.66	1083.69
848.97	1082.76
849.29	1080.93
849.60	1082.52
849.92	1081.00
850.24	1082.97
850.55	1083.71
850.87	1083.95
851.18	1082.50
851.50	1081.00
851.81	1078.10
852.13	1079.85
852.44	1077.47
852.76	1075.10
853.07	1074.89
853.39	1074.28
853.70	1073.74
854.01	1076.39
854.33	1079.03
854.64	1082.40
854.96	1083.71
855.27	1085.52
855.59	1086.85
855.90	1089.47
856.22	1086.13
856.53	1086.01
856.84	1084.44
857.16	1082.73
857.47	1082.10
857.79	1082.43
858.10	1080.02
858.41	1080.44
858.73	1081.96
859.04	1079.74
859.36	1079.24
859.67	1081.98
859.98	1080.53
860.30	1082.22
860.61	1082.64
860.92	1081.80
861.24	1081.35
861.55	1083.08
861.87	1083.01
862.18	1081.66
862.49	1084.67
862.81	1084.00
863.12	1079.76
863.43	1079.81
863.74	1080.86
864.06	1078.24
864.37	1077.51
864.68	1081.58
865.00	1079.99
865.31	1081.94
865.62	1081.75
865.94	1083.74
866.25	1083.13
866.56	1082.03
866.87	1082.78
867.19	1086.99
867.50	1087.65
867.81	1089.33
868.12	1091.98
868.44	1090.10
868.75	1087.41
869.06	1088.51
869.37	1086.52
869.68	1084.53
870.00	1086.78
870.31	1085.99
870.62	1083.97
870.93	1083.29
871.24	1082.47
871.56	1080.74
871.87	1080.60
872.18	1082.66
872.49	1083.06
872.80	1087.18
873.12	1086.73
873.43	1087.32
873.74	1085.63
874.05	1084.49
874.36	1082.64
874.67	1080.25
874.98	1081.14
875.29	1079.22
875.61	1080.23
875.92	1083.50
876.23	1084.37
876.54	1081.66
876.85	1084.28
877.16	1086.20
877.47	1082.33
877.78	1083.50
878.09	1085.84
878.40	1085.03
878.72	1081.42
879.03	1081.23
879.34	1080.27
879.65	1078.89
879.96	1076.34
880.27	1077.30
880.58	1076.18
880.89	1076.55
881.20	1078.54
881.51	1080.63
881.82	1082.12
882.13	1080.13
882.44	1081.16
882.75	1080.41
883.06	1078.71
883.37	1075.62
883.68	1079.97
883.99	1083.55
884.30	1083.71
884.61	1087.34
884.92	1089.80
885.23	1086.38
885.54	1079.46
885.85	1080.06
886.16	1077.23
886.47	1073.98
886.78	1076.83
887.08	1079.08
887.39	1078.33
887.70	1077.56
888.01	1078.36
888.32	1076.65
888.63	1076.06
888.94	1076.93
889.25	1080.98
889.56	1081.40
889.87	1083.22
890.17	1084.16
890.48	1082.76
890.79	1079.53
891.10	1080.18
891.41	1079.76
891.72	1081.26
892.03	1083.08
892.34	1083.13
892.64	1086.17
892.95	1084.32
893.26	1083.79
893.57	1084.60
893.88	1086.64
894.18	1083.34
894.49	1086.64
894.80	1086.87
895.11	1087.13
895.42	1084.56
895.72	1084.18
896.03	1083.48
896.34	1082.36
896.65	1081.37
896.96	1080.02
897.26	1079.81
897.57	1077.44
897.88	1077.98
898.19	1077.56
898.49	1080.41
898.80	1084.77
899.11	1084.04
899.41	1083.86
899.72	1082.10
900.03	1080.56
900.34	1077.70
900.64	1081.12
900.95	1079.01
901.26	1077.16
901.56	1078.40
901.87	1078.73
902.18	1077.18
902.48	1076.90
902.79	1079.69
903.10	1078.17
903.40	1077.86
903.71	1077.21
904.02	1078.10
904.32	1076.41
904.63	1077.21
904.94	1077.93
905.24	1078.52
905.55	1078.89
905.85	1080.67
906.16	1082.33
906.47	1078.17
906.77	1078.28
907.08	1077.30
907.38	1077.18
907.69	1077.96
908.00	1082.43
908.30	1082.59
908.61	1086.15
908.91	1086.80
909.22	1084.53
909.52	1081.91
909.83	1084.93
910.14	1086.41
910.44	1086.29
910.75	1086.13
911.05	1090.43
911.36	1087.41
911.66	1082.17
911.97	1083.43
912.27	1083.46
912.58	1080.88
912.88	1081.58
913.19	1084.91
913.49	1085.21
913.80	1083.43
914.10	1084.21
914.41	1082.47
914.71	1082.54
915.01	1080.84
915.32	1084.02
915.62	1082.36
915.93	1085.07
916.23	1085.05
916.54	1084.89
916.84	1082.66
917.15	1082.22
917.45	1080.60
917.75	1080.46
918.06	1083.60
918.36	1082.10
918.67	1081.98
918.97	1081.19
919.27	1081.16
919.58	1076.74
919.88	1078.92
920.18	1082.78
920.49	1082.97
920.79	1082.54
921.10	1079.53
921.40	1080.98
921.70	1079.53
922.01	1078.85
922.31	1075.48
922.61	1078.19
922.92	1075.48
923.22	1075.97
923.52	1079.06
923.82	1085.54
924.13	1088.89
924.43	1092.63
924.73	1089.61
925.04	1086.29
925.34	1082.71
925.64	1080.81
925.94	1074.96
926.25	1076.51
926.55	1077.79
926.85	1080.11
927.15	1079.92
927.46	1084.07
927.76	1083.71
928.06	1080.16
928.36	1078.24
928.67	1078.19
928.97	1077.44
929.27	1078.28
929.57	1082.85
929.87	1081.73
930.18	1084.60
930.48	1085.14
930.78	1082.17
931.08	1082.59
931.38	1082.76
931.69	1080.23
931.99	1081.61
932.29	1086.27
932.59	1086.06
932.89	1088.68
933.19	1087.25
933.49	1084.79
933.80	1082.36
934.10	1080.58
934.40	1084.09
934.70	1086.71
935.00	1086.71
935.30	1091.60
935.60	1092.42
935.90	1089.22
936.20	1086.66
936.50	1086.50
936.81	1081.09
937.11	1080.81
937.41	1078.61
937.71	1083.34
938.01	1084.56
938.31	1086.92
938.61	1087.72
938.91	1086.29
939.21	1082.22
939.51	1081.91
939.81	1080.23
940.11	1079.85
940.41	1081.09
940.71	1081.61
941.01	1082.94
941.31	1084.21
941.61	1086.01
941.91	1082.78
942.21	1081.94
942.51	1081.66
942.81	1078.07
943.11	1074.96
943.41	1077.61
943.71	1077.25
944.01	1079.34
944.31	1081.96
944.61	1085.91
944.90	1087.72
945.20	1089.26
945.50	1086.97
945.80	1085.63
946.10	1081.61
946.40	1080.74
946.70	1081.14
947.00	1078.45
947.30	1080.77
947.60	1082.15
947.89	1081.51
948.19	1081.75
948.49	1083.41
948.79	1081.54
949.09	1080.51
949.39	1082.15
949.69	1082.52
949.98	1084.14
950.28	1082.19
950.58	1080.86
950.88	1080.67
951.18	1079.29
951.48	1078.00
951.77	1078.36
952.07	1080.23
952.37	1080.30
952.67	1082.94
952.97	1081.49
953.26	1083.83
953.56	1082.94
953.86	1081.47
954.16	1077.77
954.45	1080.81
954.75	1082.33
955.05	1085.14
955.35	1086.99
955.64	1089.57
955.94	1088.77
956.24	1088.68
956.54	1085.03
956.83	1081.94
957.13	1082.57
957.43	1082.61
957.72	1081.82
958.02	1082.47
958.32	1081.28
958.61	1078.61
958.91	1078.71
959.21	1075.59
959.50	1076.20
959.80	1078.03
960.10	1078.17
960.39	1074.47
960.69	1077.75
960.99	1075.90
961.28	1074.82
961.58	1073.53
961.87	1078.28
962.17	1080.37
962.47	1082.73
962.76	1086.73
963.06	1088.72
963.36	1084.00
963.65	1081.73
963.95	1083.48
964.24	1084.11
964.54	1083.93
964.83	1090.53
965.13	1089.52
965.42	1086.94
965.72	1086.34
966.02	1087.20
966.31	1081.82
966.61	1081.70
966.90	1085.56
967.20	1083.25
967.49	1084.00
967.79	1085.84
968.08	1085.70
968.38	1082.85
968.67	1084.74
968.97	1082.01
969.26	1082.03
969.56	1084.09
969.85	1083.11
970.15	1080.67
970.44	1085.17
970.74	1090.46
971.03	1089.33
971.32	1088.26
971.62	1091.58
971.91	1091.13
972.21	1088.12
972.50	1085.21
972.80	1088.93
973.09	1083.83
973.38	1078.36
973.68	1075.78
973.97	1079.06
974.27	1076.30
974.56	1078.47
974.85	1082.15
975.15	1081.80
975.44	1083.62
975.73	1084.89
976.03	1084.21
976.32	1084.91
976.61	1084.02
976.91	1079.24
977.20	1078.92
977.49	1078.21
977.79	1075.94
978.08	1080.11
978.37	1081.82
978.67	1081.19
978.96	1082.73
979.25	1082.54
979.55	1078.45
979.84	1077.33
980.13	1078.96
980.42	1077.84
980.72	1078.61
981.01	1081.68
981.30	1080.65
981.59	1083.74
981.89	1084.58
982.18	1082.90
982.47	1080.88
982.76	1082.64
983.06	1076.58
983.35	1076.62
983.64	1078.21
983.93	1078.33
984.22	1077.86
984.52	1077.79
984.81	1076.86
985.10	1076.01
985.39	1073.04
985.68	1077.07
985.97	1081.28
986.27	1083.86
986.56	1085.70
986.85	1088.14
987.14	1084.93
987.43	1084.51
987.72	1083.79
988.01	1083.15
988.31	1083.71
988.60	1084.39
988.89	1082.57
989.18	1081.37
989.47	1080.11
989.76	1078.03
990.05	1080.58
990.34	1079.08
990.63	1077.77
990.92	1076.79
991.21	1075.78
991.51	1076.90
991.80	1076.04
992.09	1075.05
992.38	1074.40
992.67	1076.23
992.96	1070.07
993.25	1072.67
993.54	1077.79
993.83	1082.10
994.12	1082.85
994.41	1086.99
994.70	1087.02
994.99	1083.97
995.28	1081.37
995.57	1084.02
995.86	1082.50
996.15	1083.60
996.44	1084.00
996.73	1085.77
997.02	1086.24
997.31	1085.12
997.59	1086.34
997.88	1087.93
998.17	1087.30
998.46	1085.61
998.75	1085.59
999.04	1081.84
999.33	1079.97
999.62	1077.30
999.91	1076.93
1000.20	1076.15
1000.49	1077.93
1000.77	1080.37
1001.06	1079.99
1001.35	1079.78
1001.64	1080.72
1001.93	1079.74
1002.22	1075.52
1002.51	1077.42
1002.79	1074.47
1003.08	1072.83
1003.37	1071.31
1003.66	1072.83
1003.95	1073.84
1004.23	1076.27
1004.52	1079.88
1004.81	1082.59
1005.10	1085.99
1005.39	1087.48
1005.67	1089.92
1005.96	1087.20
1006.25	1086.08
1006.54	1085.24
1006.83	1084.51
1007.11	1084.04
1007.40	1084.51
1007.69	1085.59
1007.97	1082.78
1008.26	1080.56
1008.55	1079.55
1008.84	1082.61
1009.12	1082.43
1009.41	1085.61
1009.70	1087.69
1009.98	1087.74
1010.27	1087.69
1010.56	1086.85
1010.85	1086.78
1011.13	1084.89
1011.42	1080.77
1011.71	1082.45
1011.99	1082.87
1012.28	1079.27
1012.56	1081.40
1012.85	1085.33
1013.14	1082.22
1013.42	1084.14
1013.71	1086.48
1014.00	1087.79
1014.28	1087.09
1014.57	1084.91
1014.85	1084.07
1015.14	1084.56
1015.43	1080.81
1015.71	1080.58
1016.00	1082.45
1016.28	1080.72
1016.57	1080.51
1016.85	1082.64
1017.14	1081.96
1017.43	1082.15
1017.71	1082.94
1018.00	1084.32
1018.28	1083.04
1018.57	1082.92
1018.85	1082.52
1019.14	1080.25
1019.42	1078.07
1019.71	1079.53
1019.99	1079.74
1020.28	1079.60
1020.56	1079.31
1020.85	1079.34
1021.13	1079.78
1021.42	1082.31
1021.70	1083.88
1021.99	1088.28
1022.27	1089.22
1022.55	1092.33
1022.84	1086.83
>>>>>End Processed Spectral Data<<<<<
