SpectraSuite Data File
++++++++++++++++++++++++++++++++++++
Date: Mon Aug 26 10:26:42 PDT 2019
User: corrico
Dark Spectrum Present: No
Reference Spectrum Present: No
Number of Sampled Component Spectra: 1
Spectrometers: USB2+H06089
Integration Time (usec): 10000 (USB2+H06089)
Spectra Averaged: 20 (USB2+H06089)
Boxcar Smoothing: 2 (USB2+H06089)
Correct for Electrical Dark: No (USB2+H06089)
Strobe/Lamp Enabled: No (USB2+H06089)
Correct for Detector Non-linearity: No (USB2+H06089)
Correct for Stray Light: No (USB2+H06089)
Number of Pixels in Processed Spectrum: 2048
>>>>>Begin Processed Spectral Data<<<<<
339.70	1030.42
340.07	1030.42
340.45	996.18
340.82	975.75
341.19	950.96
341.57	927.41
341.94	916.51
342.31	905.81
342.69	900.57
343.06	897.99
343.43	894.41
343.81	899.91
344.18	902.65
344.55	906.82
344.93	913.02
345.30	918.33
345.67	924.23
346.04	933.05
346.42	942.77
346.79	952.20
347.16	964.56
347.54	971.37
347.91	980.52
348.28	986.84
348.65	995.57
349.03	1002.83
349.40	1013.22
349.77	1021.76
350.14	1030.44
350.52	1035.59
350.89	1044.39
351.26	1048.84
351.63	1054.97
352.01	1057.64
352.38	1062.18
352.75	1063.70
353.12	1067.68
353.50	1068.69
353.87	1075.08
354.24	1081.00
354.61	1084.11
354.98	1087.23
355.36	1091.74
355.73	1092.05
356.10	1091.53
356.47	1089.78
356.84	1088.98
357.22	1086.48
357.59	1087.97
357.96	1088.98
358.33	1091.67
358.70	1091.06
359.08	1091.16
359.45	1087.09
359.82	1086.15
360.19	1084.49
360.56	1084.16
360.94	1085.12
361.31	1085.59
361.68	1084.56
362.05	1083.81
362.42	1082.36
362.79	1080.25
363.16	1077.75
363.54	1076.88
363.91	1078.38
364.28	1080.16
364.65	1085.03
365.02	1088.40
365.39	1090.95
365.76	1092.52
366.14	1090.17
366.51	1086.94
366.88	1086.17
367.25	1083.39
367.62	1080.91
367.99	1081.73
368.36	1081.61
368.73	1080.88
369.10	1080.25
369.48	1079.15
369.85	1078.71
370.22	1078.87
370.59	1082.12
370.96	1080.86
371.33	1081.28
371.70	1082.33
372.07	1078.05
372.44	1076.90
372.81	1079.83
373.18	1079.57
373.55	1081.82
373.93	1082.54
374.30	1081.98
374.67	1082.12
375.04	1084.44
375.41	1083.48
375.78	1087.55
376.15	1085.82
376.52	1085.00
376.89	1083.15
377.26	1081.21
377.63	1079.20
378.00	1081.35
378.37	1079.99
378.74	1083.20
379.11	1082.78
379.48	1083.53
379.85	1081.61
380.22	1081.82
380.59	1079.81
380.96	1081.23
381.33	1082.22
381.70	1083.27
382.07	1085.33
382.44	1084.16
382.81	1085.07
383.18	1085.84
383.55	1083.48
383.92	1085.45
384.29	1086.55
384.66	1085.26
385.03	1084.67
385.40	1087.69
385.77	1084.04
386.14	1087.37
386.51	1090.36
386.88	1090.34
387.25	1091.37
387.62	1094.97
387.99	1093.38
388.36	1091.18
388.73	1091.91
389.10	1089.57
389.46	1086.90
389.83	1087.20
390.20	1088.82
390.57	1088.86
390.94	1090.83
391.31	1091.04
391.68	1089.64
392.05	1088.49
392.42	1088.93
392.79	1089.64
393.16	1087.32
393.53	1089.45
393.89	1087.53
394.26	1087.58
394.63	1085.38
395.00	1090.43
395.37	1088.56
395.74	1089.85
396.11	1091.04
396.48	1093.64
396.84	1092.56
397.21	1094.48
397.58	1097.15
397.95	1094.11
398.32	1091.91
398.69	1091.20
399.06	1087.86
399.42	1088.98
399.79	1090.95
400.16	1092.87
400.53	1093.92
400.90	1096.49
401.27	1097.03
401.64	1095.37
402.00	1091.20
402.37	1088.63
402.74	1088.35
403.11	1086.29
403.48	1087.58
403.84	1093.59
404.21	1097.20
404.58	1096.45
404.95	1098.32
405.32	1098.37
405.68	1093.50
406.05	1092.09
406.42	1096.68
406.79	1096.73
407.16	1098.88
407.52	1099.82
407.89	1103.94
408.26	1104.10
408.63	1105.79
408.99	1105.72
409.36	1110.28
409.73	1108.48
410.10	1105.55
410.47	1102.91
410.83	1099.68
411.20	1098.74
411.57	1100.08
411.94	1098.74
412.30	1098.72
412.67	1100.85
413.04	1100.68
413.40	1097.57
413.77	1099.89
414.14	1100.33
414.51	1103.38
414.87	1103.02
415.24	1105.69
415.61	1103.31
415.97	1101.41
416.34	1100.96
416.71	1101.69
417.08	1100.50
417.44	1104.99
417.81	1108.78
418.18	1109.39
418.54	1112.76
418.91	1114.73
419.28	1116.20
419.64	1115.17
420.01	1115.05
420.38	1112.74
420.74	1112.36
421.11	1111.54
421.48	1111.45
421.84	1109.72
422.21	1109.72
422.58	1111.47
422.94	1111.15
423.31	1113.70
423.68	1115.10
424.04	1113.63
424.41	1112.57
424.77	1109.51
425.14	1109.58
425.51	1108.45
425.87	1109.62
426.24	1109.58
426.61	1111.99
426.97	1114.75
427.34	1115.22
427.70	1116.74
428.07	1118.78
428.44	1121.87
428.80	1115.57
429.17	1116.22
429.53	1115.03
429.90	1113.09
430.27	1107.87
430.63	1108.10
431.00	1107.35
431.36	1108.78
431.73	1105.62
432.09	1105.41
432.46	1107.68
432.83	1107.40
433.19	1106.04
433.56	1107.31
433.92	1108.69
434.29	1106.68
434.65	1108.62
435.02	1110.51
435.38	1110.56
435.75	1114.24
436.11	1117.79
436.48	1114.80
436.84	1112.34
437.21	1114.24
437.57	1109.27
437.94	1108.95
438.30	1113.21
438.67	1115.08
439.03	1114.35
439.40	1118.50
439.76	1117.35
440.13	1117.77
440.49	1115.55
440.86	1116.32
441.22	1113.51
441.59	1114.14
441.95	1110.12
442.32	1110.58
442.68	1111.29
443.05	1112.29
443.41	1113.72
443.78	1116.22
444.14	1114.77
444.51	1115.83
444.87	1114.80
445.24	1111.99
445.60	1115.20
445.96	1118.92
446.33	1116.74
446.69	1118.85
447.06	1119.43
447.42	1114.77
447.79	1112.20
448.15	1112.99
448.51	1111.15
448.88	1111.26
449.24	1109.16
449.61	1107.21
449.97	1105.65
450.33	1104.01
450.70	1103.19
451.06	1106.61
451.43	1109.58
451.79	1108.08
452.15	1112.18
452.52	1112.32
452.88	1111.05
453.24	1111.66
453.61	1114.56
453.97	1110.37
454.34	1112.85
454.70	1115.10
455.06	1114.80
455.43	1117.40
455.79	1123.53
456.15	1121.26
456.52	1120.63
456.88	1121.35
457.24	1117.47
457.61	1117.00
457.97	1118.31
458.33	1118.03
458.70	1113.93
459.06	1114.87
459.42	1114.80
459.79	1111.29
460.15	1110.54
460.51	1115.97
460.88	1115.17
461.24	1113.70
461.60	1120.58
461.96	1121.73
462.33	1123.97
462.69	1125.40
463.05	1125.45
463.42	1123.90
463.78	1123.29
464.14	1120.27
464.50	1122.68
464.87	1122.85
465.23	1124.77
465.59	1125.59
465.95	1126.87
466.32	1130.29
466.68	1132.75
467.04	1129.43
467.40	1134.01
467.77	1137.24
468.13	1134.01
468.49	1131.93
468.85	1134.64
469.22	1135.14
469.58	1135.37
469.94	1144.48
470.30	1150.61
470.66	1154.33
471.03	1152.69
471.39	1155.24
471.75	1151.89
472.11	1153.88
472.47	1154.54
472.84	1157.75
473.20	1160.67
473.56	1160.46
473.92	1160.67
474.28	1165.66
474.65	1168.82
475.01	1168.30
475.37	1176.45
475.73	1176.68
476.09	1179.61
476.45	1187.14
476.81	1193.30
477.18	1194.19
477.54	1202.85
477.90	1208.44
478.26	1213.40
478.62	1219.68
478.98	1225.55
479.34	1232.81
479.71	1240.13
480.07	1250.62
480.43	1257.78
480.79	1269.97
481.15	1278.40
481.51	1291.23
481.87	1301.45
482.23	1313.53
482.59	1327.48
482.96	1341.95
483.32	1355.64
483.68	1368.79
484.04	1386.72
484.40	1398.31
484.76	1415.46
485.12	1428.76
485.48	1445.54
485.84	1462.30
486.20	1485.70
486.56	1505.69
486.92	1535.67
487.28	1560.76
487.64	1592.15
488.00	1617.45
488.37	1649.31
488.73	1676.57
489.09	1710.67
489.45	1743.65
489.81	1781.31
490.17	1819.63
490.53	1857.61
490.89	1897.33
491.25	1937.73
491.61	1982.18
491.97	2025.13
492.33	2077.48
492.69	2128.90
493.05	2180.51
493.41	2241.20
493.77	2307.07
494.13	2371.97
494.49	2444.92
494.85	2524.97
495.21	2594.79
495.57	2668.23
495.93	2746.03
496.29	2832.68
496.64	2925.06
497.00	3018.85
497.36	3118.39
497.72	3222.78
498.08	3323.44
498.44	3438.08
498.80	3563.18
499.16	3695.38
499.52	3835.25
499.88	3992.70
500.24	4143.68
500.60	4296.05
500.96	4459.87
501.32	4631.80
501.68	4799.50
502.03	4983.02
502.39	5194.77
502.75	5402.47
503.11	5628.38
503.47	5859.98
503.83	6107.60
504.19	6360.27
504.55	6639.28
504.91	6919.35
505.26	7201.99
505.62	7501.93
505.98	7824.97
506.34	8150.42
506.70	8497.29
507.06	8894.22
507.42	9295.13
507.78	9691.11
508.13	10116.33
508.49	10559.35
508.85	11010.28
509.21	11491.87
509.57	12017.81
509.93	12588.78
510.28	13178.64
510.64	13800.15
511.00	14414.07
511.36	15002.55
511.72	15571.54
512.07	16217.76
512.43	16832.50
512.79	17502.25
513.15	18229.75
513.51	18966.25
513.86	19708.11
514.22	20529.26
514.58	21327.85
514.94	22167.66
515.30	23041.54
515.65	23849.17
516.01	24686.68
516.37	25526.02
516.73	26294.16
517.08	27158.52
517.44	28009.75
517.80	28822.32
518.16	29684.90
518.51	30513.52
518.87	31248.80
519.23	32090.43
519.59	32950.20
519.94	33781.49
520.30	34666.94
520.66	35436.44
521.01	36219.63
521.37	36896.18
521.73	37516.38
522.09	38109.61
522.44	38764.09
522.80	39182.46
523.16	39535.53
523.51	39804.06
523.87	40095.95
524.23	40330.89
524.58	40629.36
524.94	41027.77
525.30	41350.92
525.65	41533.25
526.01	41607.21
526.37	41610.00
526.72	41526.93
527.08	41406.93
527.44	41231.13
527.79	41078.27
528.15	40956.75
528.51	40741.78
528.86	40535.93
529.22	40305.15
529.58	40039.97
529.93	39670.18
530.29	39235.50
530.65	38854.93
531.00	38530.67
531.36	38091.40
531.71	37633.26
532.07	37165.44
532.43	36574.57
532.78	35899.89
533.14	35320.23
533.49	34750.75
533.85	34141.84
534.21	33548.84
534.56	33000.15
534.92	32422.25
535.27	31802.01
535.63	31199.65
535.98	30569.46
536.34	29929.76
536.69	29270.29
537.05	28648.98
537.41	28113.67
537.76	27626.61
538.12	27073.63
538.47	26604.28
538.83	26161.06
539.18	25708.80
539.54	25236.22
539.89	24789.99
540.25	24268.87
540.60	23781.90
540.96	23252.31
541.31	22770.58
541.67	22344.56
542.02	21942.92
542.38	21514.77
542.73	21078.82
543.09	20661.45
543.44	20278.71
543.80	19941.76
544.15	19535.26
544.51	19203.74
544.86	18896.53
545.22	18542.00
545.57	18155.09
545.93	17789.31
546.28	17475.54
546.64	17154.02
546.99	16820.38
547.35	16485.05
547.70	16203.34
548.05	15890.51
548.41	15573.53
548.76	15267.85
549.12	14990.80
549.47	14700.44
549.83	14426.52
550.18	14096.70
550.53	13774.66
550.89	13513.32
551.24	13246.14
551.60	12943.63
551.95	12704.54
552.30	12481.05
552.66	12218.72
553.01	11968.66
553.37	11711.39
553.72	11441.55
554.07	11163.49
554.43	10886.00
554.78	10593.03
555.13	10334.42
555.49	10095.27
555.84	9904.02
556.19	9706.46
556.55	9512.48
556.90	9312.80
557.26	9111.64
557.61	8883.74
557.96	8637.89
558.32	8437.75
558.67	8229.14
559.02	8011.72
559.37	7826.49
559.73	7690.04
560.08	7532.78
560.43	7377.88
560.79	7253.02
561.14	7095.22
561.49	6921.90
561.85	6757.62
562.20	6608.97
562.55	6466.85
562.90	6342.31
563.26	6218.99
563.61	6113.53
563.96	6003.15
564.32	5884.18
564.67	5762.91
565.02	5642.56
565.37	5522.42
565.73	5412.61
566.08	5305.32
566.43	5199.41
566.78	5090.41
567.14	4988.81
567.49	4881.73
567.84	4778.79
568.19	4673.96
568.54	4584.45
568.90	4489.92
569.25	4408.16
569.60	4331.47
569.95	4258.02
570.31	4180.88
570.66	4106.75
571.01	4019.14
571.36	3926.67
571.71	3843.32
572.06	3771.70
572.42	3703.92
572.77	3654.07
573.12	3604.07
573.47	3551.62
573.82	3493.51
574.18	3425.33
574.53	3358.15
574.88	3300.16
575.23	3245.53
575.58	3189.47
575.93	3144.46
576.28	3092.03
576.64	3033.03
576.99	2973.44
577.34	2918.81
577.69	2859.57
578.04	2806.49
578.39	2760.45
578.74	2723.05
579.09	2686.02
579.44	2649.30
579.80	2614.61
580.15	2573.18
580.50	2529.58
580.85	2488.72
581.20	2458.31
581.55	2422.24
581.90	2400.03
582.25	2370.47
582.60	2340.51
582.95	2304.73
583.30	2269.62
583.65	2230.02
584.00	2196.97
584.35	2162.37
584.71	2129.91
585.06	2095.95
585.41	2066.34
585.76	2039.87
586.11	2019.18
586.46	1993.64
586.81	1973.14
587.16	1951.09
587.51	1931.97
587.86	1905.64
588.21	1887.20
588.56	1868.94
588.91	1848.84
589.26	1823.79
589.61	1809.70
589.96	1792.27
590.31	1775.95
590.66	1764.13
591.01	1753.58
591.36	1737.26
591.71	1716.46
592.06	1699.98
592.41	1680.29
592.76	1659.53
593.10	1639.19
593.45	1627.05
593.80	1613.21
594.15	1600.15
594.50	1587.82
594.85	1577.66
595.20	1563.71
595.55	1551.59
595.90	1542.20
596.25	1535.86
596.60	1524.79
596.95	1516.36
597.30	1505.67
597.64	1544.80
597.99	1533.71
598.34	1524.20
598.69	1516.25
599.04	1504.68
599.39	1447.25
599.74	1438.21
600.09	1431.10
600.44	1425.11
600.78	1419.77
601.13	1411.23
601.48	1404.53
601.83	1398.40
602.18	1388.71
602.53	1383.87
602.88	1377.01
603.22	1371.25
603.57	1361.09
603.92	1350.04
604.27	1344.17
604.62	1337.05
604.97	1327.95
605.31	1325.16
605.66	1324.51
606.01	1316.81
606.36	1311.12
606.71	1307.00
607.05	1301.71
607.40	1295.21
607.75	1293.45
608.10	1292.16
608.44	1287.27
608.79	1286.05
609.14	1285.38
609.49	1278.14
609.84	1270.93
610.18	1267.89
610.53	1263.94
610.88	1261.38
611.23	1257.78
611.57	1250.48
611.92	1247.53
612.27	1241.14
612.62	1233.84
612.96	1232.69
613.31	1235.71
613.66	1230.51
614.00	1223.00
614.35	1221.43
614.70	1216.80
615.05	1210.22
615.39	1208.56
615.74	1211.11
616.09	1206.45
616.43	1203.85
616.78	1200.41
617.13	1198.14
617.47	1193.09
617.82	1191.75
618.17	1189.02
618.51	1189.02
618.86	1184.94
619.21	1183.40
619.55	1182.42
619.90	1183.12
620.25	1180.66
620.59	1180.73
620.94	1177.17
621.29	1174.25
621.63	1172.80
621.98	1168.44
622.32	1166.80
622.67	1166.13
623.02	1161.40
623.36	1156.97
623.71	1158.47
624.05	1154.38
624.40	1153.21
624.75	1154.54
625.09	1153.49
625.44	1149.88
625.78	1151.99
626.13	1150.96
626.48	1146.25
626.82	1146.46
627.17	1149.60
627.51	1145.29
627.86	1143.21
628.20	1143.30
628.55	1141.06
628.89	1136.52
629.24	1135.58
629.58	1136.17
629.93	1137.38
630.28	1134.34
630.62	1134.22
630.97	1133.38
631.31	1130.78
631.66	1128.70
632.00	1126.97
632.35	1126.50
632.69	1126.27
633.04	1128.28
633.38	1131.20
633.73	1133.05
634.07	1131.65
634.42	1130.57
634.76	1127.25
635.11	1124.28
635.45	1124.16
635.79	1122.94
636.14	1122.01
636.48	1124.11
636.83	1122.33
637.17	1119.90
637.52	1117.58
637.86	1115.12
638.21	1112.39
638.55	1112.85
638.89	1112.32
639.24	1113.67
639.58	1115.24
639.93	1111.66
640.27	1110.00
640.61	1111.43
640.96	1111.36
641.30	1110.94
641.65	1114.07
641.99	1112.39
642.33	1108.55
642.68	1105.06
643.02	1105.22
643.37	1102.11
643.71	1102.67
644.05	1104.38
644.40	1106.79
644.74	1109.23
645.08	1111.10
645.43	1111.50
645.77	1113.18
646.11	1111.24
646.46	1105.22
646.80	1106.11
647.14	1106.28
647.49	1102.65
647.83	1103.66
648.17	1107.10
648.52	1105.55
648.86	1105.48
649.20	1110.09
649.55	1106.46
649.89	1105.83
650.23	1104.92
650.57	1102.11
650.92	1099.44
651.26	1102.60
651.60	1097.88
651.95	1096.66
652.29	1098.74
652.63	1096.42
652.97	1095.70
653.32	1098.30
653.66	1097.64
654.00	1100.59
654.34	1097.17
654.69	1095.77
655.03	1097.64
655.37	1099.23
655.71	1097.41
656.05	1100.52
656.40	1102.56
656.74	1101.41
657.08	1101.13
657.42	1098.90
657.76	1098.58
658.11	1096.31
658.45	1094.86
658.79	1093.59
659.13	1093.38
659.47	1094.27
659.82	1095.70
660.16	1094.83
660.50	1095.28
660.84	1097.43
661.18	1094.29
661.52	1094.50
661.87	1094.90
662.21	1094.32
662.55	1091.20
662.89	1091.13
663.23	1087.83
663.57	1087.06
663.91	1087.88
664.25	1087.67
664.60	1090.03
664.94	1095.37
665.28	1096.59
665.62	1095.53
665.96	1097.27
666.30	1097.13
666.64	1093.47
666.98	1092.12
667.32	1094.79
667.66	1092.05
668.01	1089.64
668.35	1090.01
668.69	1089.43
669.03	1088.91
669.37	1091.13
669.71	1092.96
670.05	1092.09
670.39	1095.91
670.73	1096.14
671.07	1092.68
671.41	1092.73
671.75	1094.69
672.09	1091.30
672.43	1092.35
672.77	1095.60
673.11	1092.59
673.45	1090.95
673.79	1092.00
674.13	1091.93
674.47	1091.72
674.81	1094.83
675.15	1096.61
675.49	1094.76
675.83	1093.55
676.17	1094.74
676.51	1094.97
676.85	1091.74
677.19	1092.49
677.53	1090.17
677.87	1088.86
678.21	1087.60
678.55	1091.20
678.89	1093.90
679.23	1095.53
679.57	1096.07
679.90	1098.23
680.24	1094.81
680.58	1093.24
680.92	1090.43
681.26	1087.11
681.60	1086.34
681.94	1088.35
682.28	1087.83
682.62	1090.06
682.96	1090.53
683.29	1090.43
683.63	1092.52
683.97	1091.88
684.31	1090.88
684.65	1093.01
684.99	1090.15
685.33	1087.51
685.67	1087.76
686.00	1090.15
686.34	1090.03
686.68	1095.16
687.02	1094.18
687.36	1096.24
687.70	1093.85
688.03	1094.39
688.37	1092.45
688.71	1092.54
689.05	1090.41
689.39	1091.84
689.72	1092.63
690.06	1092.16
690.40	1091.25
690.74	1091.65
691.08	1094.41
691.41	1093.50
691.75	1092.70
692.09	1095.42
692.43	1093.38
692.76	1090.13
693.10	1089.33
693.44	1090.27
693.78	1092.54
694.11	1097.01
694.45	1096.28
694.79	1096.96
695.13	1094.79
695.46	1091.70
695.80	1087.93
696.14	1089.36
696.48	1090.92
696.81	1091.70
697.15	1092.09
697.49	1092.14
697.82	1093.92
698.16	1095.04
698.50	1095.98
698.83	1093.36
699.17	1094.25
699.51	1092.02
699.84	1089.75
700.18	1091.06
700.52	1093.99
700.85	1093.69
701.19	1095.93
701.53	1095.67
701.86	1095.63
702.20	1095.14
702.54	1092.49
702.87	1091.09
703.21	1091.60
703.55	1088.00
703.88	1085.63
704.22	1088.35
704.55	1087.53
704.89	1083.64
705.23	1085.80
705.56	1086.48
705.90	1086.94
706.23	1087.51
706.57	1090.34
706.91	1091.06
707.24	1093.19
707.58	1092.37
707.91	1089.52
708.25	1085.89
708.58	1083.67
708.92	1081.58
709.26	1083.57
709.59	1086.45
709.93	1088.16
710.26	1088.14
710.60	1088.61
710.93	1086.17
711.27	1087.06
711.60	1087.34
711.94	1087.58
712.27	1089.07
712.61	1090.20
712.94	1085.38
713.28	1084.39
713.61	1085.47
713.95	1083.18
714.28	1080.46
714.62	1084.16
714.95	1086.15
715.29	1084.44
715.62	1084.51
715.96	1087.48
716.29	1088.44
716.63	1086.15
716.96	1086.64
717.29	1087.90
717.63	1085.54
717.96	1085.24
718.30	1086.22
718.63	1089.71
718.97	1090.76
719.30	1089.43
719.63	1086.52
719.97	1087.18
720.30	1086.92
720.64	1085.59
720.97	1088.40
721.30	1089.59
721.64	1088.89
721.97	1088.00
722.31	1089.31
722.64	1090.76
722.97	1091.63
723.31	1092.30
723.64	1090.90
723.97	1089.50
724.31	1087.16
724.64	1085.10
724.98	1086.22
725.31	1085.73
725.64	1089.94
725.98	1090.92
726.31	1092.45
726.64	1094.18
726.97	1094.01
727.31	1094.13
727.64	1095.18
727.97	1096.21
728.31	1094.22
728.64	1094.95
728.97	1090.62
729.31	1091.39
729.64	1090.13
729.97	1088.63
730.30	1088.07
730.64	1091.06
730.97	1089.31
731.30	1089.00
731.63	1090.46
731.97	1091.25
732.30	1086.66
732.63	1088.96
732.96	1090.60
733.30	1089.43
733.63	1089.31
733.96	1090.81
734.29	1088.09
734.63	1086.38
734.96	1086.78
735.29	1088.28
735.62	1091.77
735.95	1092.37
736.29	1091.70
736.62	1092.45
736.95	1092.84
737.28	1090.95
737.61	1090.08
737.94	1087.69
738.28	1087.46
738.61	1083.60
738.94	1084.00
739.27	1085.99
739.60	1087.37
739.93	1088.33
740.27	1089.78
740.60	1084.21
740.93	1083.88
741.26	1082.26
741.59	1080.88
741.92	1081.30
742.25	1086.13
742.58	1082.80
742.91	1083.93
743.25	1084.70
743.58	1084.32
743.91	1085.73
744.24	1088.30
744.57	1090.97
744.90	1091.91
745.23	1094.04
745.56	1092.73
745.89	1090.39
746.22	1090.83
746.55	1091.18
746.88	1089.45
747.21	1090.29
747.54	1092.75
747.87	1090.20
748.20	1089.00
748.53	1088.28
748.87	1083.11
749.20	1083.53
749.53	1085.21
749.86	1084.07
750.19	1086.52
750.52	1091.27
750.85	1091.70
751.18	1091.42
751.51	1092.91
751.84	1094.39
752.16	1091.74
752.49	1091.04
752.82	1090.24
753.15	1087.86
753.48	1083.55
753.81	1084.51
754.14	1080.16
754.47	1080.93
754.80	1082.36
755.13	1081.94
755.46	1081.42
755.79	1083.81
756.12	1084.07
756.45	1086.43
756.78	1088.09
757.11	1090.83
757.43	1091.30
757.76	1090.27
758.09	1084.98
758.42	1080.98
758.75	1078.78
759.08	1078.66
759.41	1075.64
759.74	1078.21
760.07	1084.37
760.39	1083.62
760.72	1085.75
761.05	1092.56
761.38	1095.70
761.71	1094.72
762.04	1095.02
762.36	1095.32
762.69	1095.00
763.02	1091.37
763.35	1092.68
763.68	1094.39
764.01	1096.00
764.33	1095.75
764.66	1096.99
764.99	1093.26
765.32	1092.19
765.65	1088.56
765.97	1085.89
766.30	1087.44
766.63	1088.21
766.96	1087.39
767.28	1088.28
767.61	1088.14
767.94	1086.43
768.27	1084.79
768.59	1088.16
768.92	1087.44
769.25	1085.94
769.58	1084.70
769.90	1088.14
770.23	1083.97
770.56	1084.00
770.89	1088.65
771.21	1091.65
771.54	1088.89
771.87	1088.40
772.19	1087.30
772.52	1083.88
772.85	1081.75
773.17	1083.11
773.50	1084.53
773.83	1091.53
774.15	1094.36
774.48	1094.65
774.81	1091.79
775.13	1091.25
775.46	1085.96
775.79	1082.50
776.11	1081.49
776.44	1083.18
776.77	1080.70
777.09	1078.87
777.42	1076.76
777.74	1078.64
778.07	1079.24
778.40	1086.27
778.72	1086.85
779.05	1091.09
779.37	1086.71
779.70	1086.78
780.03	1081.51
780.35	1082.38
780.68	1078.05
781.00	1078.73
781.33	1078.12
781.65	1078.47
781.98	1078.54
782.31	1080.91
782.63	1088.19
782.96	1086.59
783.28	1089.36
783.61	1089.54
783.93	1091.88
784.26	1090.27
784.58	1091.32
784.91	1090.85
785.23	1089.78
785.56	1090.46
785.88	1089.19
786.21	1089.66
786.53	1086.87
786.86	1088.47
787.18	1086.59
787.51	1086.92
787.83	1088.07
788.16	1088.86
788.48	1086.87
788.81	1089.19
789.13	1084.09
789.46	1081.96
789.78	1083.76
790.10	1085.14
790.43	1084.56
790.75	1087.13
791.08	1086.31
791.40	1085.07
791.73	1089.12
792.05	1088.82
792.37	1088.47
792.70	1088.49
793.02	1087.53
793.35	1083.60
793.67	1080.46
793.99	1079.31
794.32	1081.70
794.64	1080.93
794.96	1080.91
795.29	1084.00
795.61	1082.78
795.93	1086.92
796.26	1090.15
796.58	1089.52
796.91	1085.73
797.23	1087.02
797.55	1080.44
797.87	1079.76
798.20	1082.52
798.52	1085.66
798.84	1087.27
799.17	1088.09
799.49	1088.12
799.81	1084.63
800.14	1082.76
800.46	1081.09
800.78	1080.51
801.10	1079.53
801.43	1079.67
801.75	1082.19
802.07	1084.56
802.40	1086.17
802.72	1086.13
803.04	1087.37
803.36	1084.04
803.69	1082.61
804.01	1085.03
804.33	1086.71
804.65	1083.69
804.97	1081.02
805.30	1083.04
805.62	1079.03
805.94	1078.31
806.26	1082.87
806.58	1085.45
806.91	1084.04
807.23	1085.38
807.55	1086.66
807.87	1085.07
808.19	1085.17
808.52	1084.53
808.84	1085.66
809.16	1082.03
809.48	1080.25
809.80	1082.36
810.12	1083.04
810.44	1080.79
810.77	1085.87
811.09	1088.26
811.41	1084.53
811.73	1086.29
812.05	1089.89
812.37	1090.60
812.69	1089.94
813.01	1093.94
813.33	1092.00
813.66	1089.75
813.98	1085.61
814.30	1081.84
814.62	1080.41
814.94	1079.62
815.26	1081.09
815.58	1083.74
815.90	1088.26
816.22	1089.07
816.54	1092.14
816.86	1088.28
817.18	1086.31
817.50	1085.56
817.82	1081.94
818.14	1078.17
818.46	1082.38
818.78	1080.11
819.10	1078.59
819.42	1082.73
819.74	1081.70
820.06	1080.81
820.38	1083.34
820.70	1082.78
821.02	1083.97
821.34	1086.34
821.66	1085.03
821.98	1084.23
822.30	1084.35
822.62	1081.82
822.94	1082.38
823.26	1081.44
823.58	1081.51
823.90	1083.25
824.22	1083.46
824.54	1080.88
824.86	1080.77
825.18	1080.72
825.50	1080.39
825.81	1082.90
826.13	1084.91
826.45	1084.96
826.77	1085.14
827.09	1083.71
827.41	1081.16
827.73	1081.42
828.05	1083.86
828.36	1082.80
828.68	1085.26
829.00	1081.98
829.32	1083.11
829.64	1085.17
829.96	1085.73
830.28	1086.17
830.59	1091.27
830.91	1093.03
831.23	1088.89
831.55	1085.77
831.87	1083.55
832.19	1082.47
832.50	1079.43
832.82	1082.38
833.14	1085.42
833.46	1087.72
833.78	1089.24
834.09	1087.34
834.41	1084.77
834.73	1083.32
835.05	1085.45
835.36	1083.67
835.68	1086.43
836.00	1087.58
836.32	1090.17
836.63	1086.41
836.95	1085.89
837.27	1087.13
837.59	1088.93
837.90	1087.16
838.22	1087.76
838.54	1088.30
838.85	1086.66
839.17	1084.37
839.49	1082.97
839.80	1081.19
840.12	1083.46
840.44	1082.85
840.76	1081.84
841.07	1084.35
841.39	1086.27
841.71	1083.93
842.02	1084.81
842.34	1085.66
842.65	1088.14
842.97	1086.38
843.29	1086.45
843.60	1086.45
843.92	1087.25
844.24	1082.90
844.55	1087.44
844.87	1088.21
845.18	1088.70
845.50	1087.95
845.82	1089.71
846.13	1084.14
846.45	1081.94
846.76	1083.57
847.08	1085.07
847.40	1083.15
847.71	1085.31
848.03	1083.60
848.34	1080.91
848.66	1077.63
848.97	1080.77
849.29	1079.13
849.60	1082.80
849.92	1077.54
850.24	1080.48
850.55	1080.95
850.87	1081.98
851.18	1082.22
851.50	1088.89
851.81	1088.02
852.13	1085.96
852.44	1086.27
852.76	1084.65
853.07	1081.66
853.39	1083.81
853.70	1085.75
854.01	1087.39
854.33	1087.60
854.64	1086.94
854.96	1087.18
855.27	1086.64
855.59	1086.57
855.90	1086.94
856.22	1088.28
856.53	1086.20
856.84	1086.94
857.16	1084.81
857.47	1084.00
857.79	1085.17
858.10	1085.94
858.41	1084.04
858.73	1086.10
859.04	1086.17
859.36	1083.79
859.67	1083.46
859.98	1079.99
860.30	1078.94
860.61	1078.99
860.92	1080.39
861.24	1079.90
861.55	1080.30
861.87	1079.31
862.18	1082.01
862.49	1084.79
862.81	1087.13
863.12	1092.37
863.43	1092.09
863.74	1089.64
864.06	1085.84
864.37	1085.05
864.68	1085.68
865.00	1087.69
865.31	1089.96
865.62	1092.45
865.94	1086.64
866.25	1083.25
866.56	1084.30
866.87	1081.19
867.19	1080.53
867.50	1084.00
867.81	1085.45
868.12	1083.55
868.44	1085.94
868.75	1082.31
869.06	1079.62
869.37	1078.38
869.68	1080.41
870.00	1080.20
870.31	1083.46
870.62	1088.93
870.93	1091.37
871.24	1086.87
871.56	1086.66
871.87	1087.58
872.18	1086.94
872.49	1085.24
872.80	1087.32
873.12	1085.21
873.43	1083.60
873.74	1082.08
874.05	1082.24
874.36	1082.76
874.67	1086.24
874.98	1086.27
875.29	1089.03
875.61	1089.73
875.92	1092.91
876.23	1089.78
876.54	1089.52
876.85	1088.93
877.16	1087.93
877.47	1085.68
877.78	1084.46
878.09	1083.60
878.40	1081.28
878.72	1082.71
879.03	1082.01
879.34	1084.44
879.65	1085.00
879.96	1085.63
880.27	1081.98
880.58	1079.46
880.89	1079.57
881.20	1080.06
881.51	1081.89
881.82	1084.14
882.13	1086.22
882.44	1086.50
882.75	1088.04
883.06	1086.99
883.37	1086.48
883.68	1086.45
883.99	1085.89
884.30	1085.21
884.61	1083.79
884.92	1086.57
885.23	1089.29
885.54	1087.27
885.85	1088.65
886.16	1092.05
886.47	1090.29
886.78	1087.20
887.08	1090.48
887.39	1090.24
887.70	1087.93
888.01	1085.00
888.32	1085.52
888.63	1083.88
888.94	1080.06
889.25	1080.39
889.56	1083.08
889.87	1084.18
890.17	1085.94
890.48	1086.73
890.79	1086.73
891.10	1084.91
891.41	1080.27
891.72	1078.82
892.03	1079.95
892.34	1076.93
892.64	1077.04
892.95	1082.10
893.26	1079.76
893.57	1080.13
893.88	1083.11
894.18	1084.14
894.49	1083.62
894.80	1090.22
895.11	1087.44
895.42	1084.28
895.72	1082.19
896.03	1079.74
896.34	1077.28
896.65	1079.43
896.96	1083.57
897.26	1085.26
897.57	1086.62
897.88	1083.15
898.19	1084.77
898.49	1083.69
898.80	1085.45
899.11	1086.76
899.41	1089.96
899.72	1087.53
900.03	1089.26
900.34	1087.30
900.64	1085.26
900.95	1085.28
901.26	1088.07
901.56	1083.32
901.87	1082.26
902.18	1081.77
902.48	1082.22
902.79	1077.93
903.10	1080.72
903.40	1082.80
903.71	1085.56
904.02	1081.58
904.32	1083.04
904.63	1080.30
904.94	1079.74
905.24	1079.36
905.55	1081.80
905.85	1085.14
906.16	1085.07
906.47	1083.32
906.77	1081.89
907.08	1079.31
907.38	1075.94
907.69	1078.03
908.00	1080.86
908.30	1079.90
908.61	1083.22
908.91	1084.44
909.22	1083.39
909.52	1081.91
909.83	1084.04
910.14	1082.10
910.44	1082.38
910.75	1084.79
911.05	1086.41
911.36	1086.57
911.66	1085.70
911.97	1089.03
912.27	1088.21
912.58	1088.30
912.88	1087.51
913.19	1089.47
913.49	1087.04
913.80	1085.47
914.10	1087.88
914.41	1087.83
914.71	1084.74
915.01	1083.15
915.32	1082.17
915.62	1079.36
915.93	1081.12
916.23	1080.93
916.54	1081.16
916.84	1084.42
917.15	1083.60
917.45	1080.88
917.75	1083.48
918.06	1083.57
918.36	1085.47
918.67	1086.31
918.97	1085.82
919.27	1086.50
919.58	1085.61
919.88	1081.61
920.18	1080.44
920.49	1081.28
920.79	1078.75
921.10	1079.81
921.40	1077.61
921.70	1079.48
922.01	1079.60
922.31	1084.04
922.61	1084.58
922.92	1087.83
923.22	1088.44
923.52	1087.37
923.82	1083.55
924.13	1085.07
924.43	1084.28
924.73	1082.80
925.04	1085.33
925.34	1087.20
925.64	1085.05
925.94	1085.10
926.25	1081.80
926.55	1080.95
926.85	1077.47
927.15	1077.86
927.46	1077.21
927.76	1083.43
928.06	1081.40
928.36	1086.59
928.67	1087.23
928.97	1087.97
929.27	1081.87
929.57	1083.71
929.87	1080.63
930.18	1081.70
930.48	1080.37
930.78	1083.36
931.08	1083.50
931.38	1085.77
931.69	1084.16
931.99	1086.22
932.29	1086.31
932.59	1083.18
932.89	1081.33
933.19	1080.44
933.49	1078.75
933.80	1076.95
934.10	1079.92
934.40	1075.50
934.70	1077.77
935.00	1077.23
935.30	1079.43
935.60	1080.06
935.90	1084.00
936.20	1084.09
936.50	1085.80
936.81	1085.94
937.11	1084.79
937.41	1088.61
937.71	1087.51
938.01	1086.59
938.31	1086.90
938.61	1086.03
938.91	1082.78
939.21	1083.57
939.51	1081.51
939.81	1079.03
940.11	1078.73
940.41	1079.69
940.71	1078.52
941.01	1082.50
941.31	1084.72
941.61	1089.07
941.91	1090.62
942.21	1090.29
942.51	1089.87
942.81	1087.88
943.11	1085.54
943.41	1083.60
943.71	1084.35
944.01	1082.69
944.31	1084.79
944.61	1085.68
944.90	1088.77
945.20	1085.47
945.50	1084.02
945.80	1081.73
946.10	1078.43
946.40	1076.46
946.70	1079.50
947.00	1081.00
947.30	1081.82
947.60	1081.94
947.89	1079.97
948.19	1080.06
948.49	1082.78
948.79	1083.55
949.09	1083.86
949.39	1086.80
949.69	1087.72
949.98	1086.17
950.28	1089.05
950.58	1091.02
950.88	1090.90
951.18	1087.67
951.48	1085.80
951.77	1082.80
952.07	1084.16
952.37	1083.74
952.67	1086.55
952.97	1086.48
953.26	1081.40
953.56	1083.46
953.86	1080.86
954.16	1082.26
954.45	1083.22
954.75	1087.97
955.05	1085.61
955.35	1089.75
955.64	1087.76
955.94	1089.05
956.24	1090.36
956.54	1088.09
956.83	1085.68
957.13	1085.00
957.43	1080.53
957.72	1079.81
958.02	1080.37
958.32	1080.88
958.61	1079.83
958.91	1084.63
959.21	1085.49
959.50	1086.41
959.80	1084.86
960.10	1084.65
960.39	1083.41
960.69	1081.70
960.99	1080.44
961.28	1079.88
961.58	1081.33
961.87	1080.30
962.17	1083.18
962.47	1083.41
962.76	1085.33
963.06	1086.83
963.36	1088.09
963.65	1085.24
963.95	1084.04
964.24	1084.77
964.54	1084.79
964.83	1084.72
965.13	1084.35
965.42	1085.77
965.72	1084.58
966.02	1083.53
966.31	1085.59
966.61	1088.33
966.90	1086.66
967.20	1086.06
967.49	1086.97
967.79	1085.21
968.08	1083.57
968.38	1085.82
968.67	1084.72
968.97	1083.86
969.26	1084.18
969.56	1082.66
969.85	1083.53
970.15	1086.13
970.44	1089.07
970.74	1091.51
971.03	1094.90
971.32	1095.72
971.62	1093.71
971.91	1092.77
972.21	1088.51
972.50	1086.64
972.80	1084.37
973.09	1082.83
973.38	1080.02
973.68	1081.12
973.97	1079.67
974.27	1077.40
974.56	1078.66
974.85	1075.13
975.15	1075.50
975.44	1075.15
975.73	1080.09
976.03	1081.28
976.32	1087.27
976.61	1091.02
976.91	1091.70
977.20	1090.01
977.49	1086.94
977.79	1085.94
978.08	1084.96
978.37	1085.63
978.67	1086.22
978.96	1089.54
979.25	1088.86
979.55	1086.41
979.84	1086.45
980.13	1084.16
980.42	1084.25
980.72	1088.04
981.01	1085.94
981.30	1087.34
981.59	1087.72
981.89	1082.01
982.18	1076.88
982.47	1078.40
982.76	1077.35
983.06	1081.58
983.35	1086.99
983.64	1085.82
983.93	1086.10
984.22	1085.05
984.52	1081.58
984.81	1081.94
985.10	1082.54
985.39	1083.88
985.68	1084.60
985.97	1079.64
986.27	1077.86
986.56	1081.05
986.85	1078.28
987.14	1080.79
987.43	1088.14
987.72	1088.58
988.01	1087.02
988.31	1085.14
988.60	1083.39
988.89	1081.09
989.18	1080.84
989.47	1081.87
989.76	1085.66
990.05	1085.70
990.34	1086.45
990.63	1087.72
990.92	1086.43
991.21	1084.16
991.51	1083.62
991.80	1080.11
992.09	1079.83
992.38	1079.76
992.67	1080.98
992.96	1082.33
993.25	1086.73
993.54	1083.86
993.83	1083.43
994.12	1085.42
994.41	1085.35
994.70	1086.13
994.99	1088.84
995.28	1087.37
995.57	1086.50
995.86	1084.07
996.15	1082.64
996.44	1084.18
996.73	1085.73
997.02	1082.47
997.31	1083.06
997.59	1084.04
997.88	1080.46
998.17	1080.41
998.46	1082.45
998.75	1080.70
999.04	1078.85
999.33	1081.28
999.62	1081.91
999.91	1080.23
1000.20	1083.34
1000.49	1082.31
1000.77	1081.14
1001.06	1081.98
1001.35	1084.67
1001.64	1086.03
1001.93	1087.76
1002.22	1084.86
1002.51	1084.25
1002.79	1083.18
1003.08	1079.50
1003.37	1077.33
1003.66	1081.37
1003.95	1082.01
1004.23	1080.58
1004.52	1083.25
1004.81	1081.58
1005.10	1080.60
1005.39	1083.15
1005.67	1084.11
1005.96	1084.37
1006.25	1086.57
1006.54	1086.34
1006.83	1084.37
1007.11	1083.90
1007.40	1084.63
1007.69	1081.00
1007.97	1078.33
1008.26	1078.57
1008.55	1080.51
1008.84	1078.87
1009.12	1084.07
1009.41	1085.94
1009.70	1082.59
1009.98	1080.70
1010.27	1078.43
1010.56	1076.48
1010.85	1075.10
1011.13	1075.94
1011.42	1079.34
1011.71	1079.36
1011.99	1083.50
1012.28	1083.93
1012.56	1084.35
1012.85	1083.62
1013.14	1084.74
1013.42	1080.46
1013.71	1080.84
1014.00	1082.57
1014.28	1082.92
1014.57	1082.15
1014.85	1084.46
1015.14	1083.76
1015.43	1083.74
1015.71	1084.72
1016.00	1086.08
1016.28	1084.35
1016.57	1088.68
1016.85	1086.52
1017.14	1083.46
1017.43	1083.76
1017.71	1083.06
1018.00	1083.18
1018.28	1083.06
1018.57	1085.10
1018.85	1084.11
1019.14	1085.47
1019.42	1086.31
1019.71	1088.86
1019.99	1089.03
1020.28	1087.88
1020.56	1086.76
1020.85	1085.61
1021.13	1082.80
1021.42	1079.46
1021.70	1080.56
1021.99	1081.70
1022.27	1077.21
1022.55	1086.24
1022.84	1067.28
>>>>>End Processed Spectral Data<<<<<
