SpectraSuite Data File
++++++++++++++++++++++++++++++++++++
Date: Mon Aug 26 10:27:02 PDT 2019
User: corrico
Dark Spectrum Present: No
Reference Spectrum Present: No
Number of Sampled Component Spectra: 1
Spectrometers: USB2+H06089
Integration Time (usec): 10000 (USB2+H06089)
Spectra Averaged: 20 (USB2+H06089)
Boxcar Smoothing: 2 (USB2+H06089)
Correct for Electrical Dark: No (USB2+H06089)
Strobe/Lamp Enabled: No (USB2+H06089)
Correct for Detector Non-linearity: No (USB2+H06089)
Correct for Stray Light: No (USB2+H06089)
Number of Pixels in Processed Spectrum: 2048
>>>>>Begin Processed Spectral Data<<<<<
339.70	1033.00
340.07	1033.00
340.45	999.90
340.82	977.36
341.19	952.32
341.57	928.21
341.94	917.56
342.31	907.54
342.69	904.90
343.06	902.74
343.43	899.12
343.81	899.12
344.18	904.69
344.55	909.11
344.93	914.52
345.30	925.45
345.67	935.51
346.04	939.82
346.42	948.39
346.79	959.55
347.16	964.02
347.54	968.91
347.91	981.85
348.28	983.80
348.65	987.96
349.03	999.20
349.40	1008.89
349.77	1016.45
350.14	1027.26
350.52	1033.42
350.89	1035.92
351.26	1041.47
351.63	1042.29
352.01	1046.59
352.38	1053.78
352.75	1061.69
353.12	1064.22
353.50	1068.90
353.87	1073.09
354.24	1074.47
354.61	1073.93
354.98	1078.45
355.36	1082.71
355.73	1082.05
356.10	1082.19
356.47	1084.02
356.84	1080.34
357.22	1078.45
357.59	1077.21
357.96	1078.28
358.33	1078.33
358.70	1079.08
359.08	1077.11
359.45	1079.92
359.82	1080.09
360.19	1080.74
360.56	1079.69
360.94	1078.05
361.31	1073.39
361.68	1071.03
362.05	1064.64
362.42	1063.66
362.79	1063.24
363.16	1067.10
363.54	1066.68
363.91	1070.23
364.28	1072.11
364.65	1073.98
365.02	1071.52
365.39	1071.22
365.76	1069.23
366.14	1068.15
366.51	1066.98
366.88	1069.27
367.25	1070.44
367.62	1070.54
367.99	1069.02
368.36	1068.81
368.73	1069.65
369.10	1070.61
369.48	1072.43
369.85	1073.91
370.22	1074.00
370.59	1072.11
370.96	1068.01
371.33	1066.93
371.70	1066.93
372.07	1067.24
372.44	1069.88
372.81	1067.87
373.18	1067.35
373.55	1070.28
373.93	1071.19
374.30	1066.68
374.67	1071.66
375.04	1072.88
375.41	1070.70
375.78	1070.54
376.15	1074.24
376.52	1071.47
376.89	1072.71
377.26	1073.37
377.63	1072.27
378.00	1070.75
378.37	1072.22
378.74	1068.71
379.11	1066.70
379.48	1065.25
379.85	1066.37
380.22	1066.84
380.59	1069.84
380.96	1070.51
381.33	1074.35
381.70	1073.21
382.07	1073.46
382.44	1073.91
382.81	1075.85
383.18	1073.65
383.55	1071.64
383.92	1075.05
384.29	1074.38
384.66	1074.42
385.03	1077.68
385.40	1078.73
385.77	1078.61
386.14	1078.38
386.51	1076.30
386.88	1075.66
387.25	1076.23
387.62	1074.59
387.99	1073.49
388.36	1076.18
388.73	1075.62
389.10	1078.36
389.46	1079.53
389.83	1081.47
390.20	1080.46
390.57	1080.13
390.94	1077.14
391.31	1076.93
391.68	1077.93
392.05	1075.27
392.42	1072.64
392.79	1072.71
393.16	1068.85
393.53	1067.07
393.89	1069.13
394.26	1071.29
394.63	1072.62
395.00	1077.11
395.37	1075.59
395.74	1076.62
396.11	1075.76
396.48	1070.70
396.84	1070.14
397.21	1070.02
397.58	1069.37
397.95	1071.66
398.32	1076.27
398.69	1076.88
399.06	1079.67
399.42	1078.94
399.79	1077.18
400.16	1078.40
400.53	1076.04
400.90	1075.64
401.27	1074.98
401.64	1075.41
402.00	1073.56
402.37	1075.78
402.74	1074.63
403.11	1075.97
403.48	1076.46
403.84	1078.43
404.21	1076.69
404.58	1077.00
404.95	1079.83
405.32	1079.62
405.68	1075.90
406.05	1077.82
406.42	1075.71
406.79	1075.36
407.16	1074.61
407.52	1074.33
407.89	1073.11
408.26	1077.14
408.63	1075.50
408.99	1077.37
409.36	1079.03
409.73	1080.48
410.10	1078.80
410.47	1077.14
410.83	1076.25
411.20	1075.83
411.57	1075.94
411.94	1077.30
412.30	1076.08
412.67	1077.68
413.04	1078.54
413.40	1076.79
413.77	1074.12
414.14	1074.47
414.51	1073.74
414.87	1075.10
415.24	1074.89
415.61	1078.73
415.97	1079.97
416.34	1078.80
416.71	1078.66
417.08	1079.90
417.44	1077.61
417.81	1077.00
418.18	1079.20
418.54	1075.62
418.91	1073.67
419.28	1072.15
419.64	1072.85
420.01	1071.45
420.38	1075.24
420.74	1074.59
421.11	1074.56
421.48	1074.59
421.84	1074.07
422.21	1073.74
422.58	1076.90
422.94	1078.89
423.31	1077.04
423.68	1080.65
424.04	1080.32
424.41	1077.63
424.77	1078.80
425.14	1080.27
425.51	1075.22
425.87	1076.69
426.24	1077.79
426.61	1074.77
426.97	1078.00
427.34	1080.34
427.70	1079.17
428.07	1078.73
428.44	1079.15
428.80	1077.23
429.17	1075.90
429.53	1078.03
429.90	1080.13
430.27	1081.89
430.63	1078.85
431.00	1079.97
431.36	1076.93
431.73	1075.41
432.09	1075.13
432.46	1078.45
432.83	1080.98
433.19	1084.14
433.56	1082.50
433.92	1084.30
434.29	1086.99
434.65	1084.56
435.02	1082.05
435.38	1086.43
435.75	1083.25
436.11	1079.99
436.48	1084.16
436.84	1085.87
437.21	1084.98
437.57	1085.82
437.94	1088.96
438.30	1086.80
438.67	1084.81
439.03	1080.30
439.40	1080.95
439.76	1077.18
440.13	1072.18
440.49	1074.38
440.86	1074.84
441.22	1073.39
441.59	1071.90
441.95	1078.59
442.32	1078.00
442.68	1080.56
443.05	1080.53
443.41	1084.81
443.78	1080.09
444.14	1078.21
444.51	1077.96
444.87	1080.41
445.24	1076.60
445.60	1079.60
445.96	1082.38
446.33	1084.49
446.69	1084.60
447.06	1086.62
447.42	1087.30
447.79	1085.84
448.15	1084.14
448.51	1083.41
448.88	1083.69
449.24	1079.53
449.61	1078.36
449.97	1077.58
450.33	1076.90
450.70	1074.94
451.06	1074.31
451.43	1078.75
451.79	1079.85
452.15	1082.87
452.52	1085.99
452.88	1087.88
453.24	1087.02
453.61	1087.72
453.97	1083.97
454.34	1080.58
454.70	1080.79
455.06	1078.19
455.43	1077.56
455.79	1077.58
456.15	1081.00
456.52	1081.42
456.88	1084.11
457.24	1083.22
457.61	1082.73
457.97	1079.57
458.33	1080.34
458.70	1078.73
459.06	1080.72
459.42	1083.95
459.79	1082.90
460.15	1081.42
460.51	1081.87
460.88	1083.39
461.24	1082.24
461.60	1084.65
461.96	1087.32
462.33	1086.99
462.69	1084.84
463.05	1083.29
463.42	1083.57
463.78	1082.17
464.14	1079.99
464.50	1077.42
464.87	1079.15
465.23	1078.50
465.59	1076.60
465.95	1075.99
466.32	1077.89
466.68	1077.54
467.04	1075.64
467.40	1076.58
467.77	1077.77
468.13	1075.55
468.49	1074.91
468.85	1079.85
469.22	1082.24
469.58	1082.71
469.94	1081.73
470.30	1082.45
470.66	1082.17
471.03	1080.20
471.39	1081.33
471.75	1087.83
472.11	1087.79
472.47	1085.42
472.84	1085.12
473.20	1079.99
473.56	1074.66
473.92	1077.89
474.28	1081.42
474.65	1082.92
475.01	1085.94
475.37	1087.37
475.73	1084.65
476.09	1081.07
476.45	1083.34
476.81	1085.49
477.18	1084.11
477.54	1081.49
477.90	1079.74
478.26	1077.82
478.62	1075.29
478.98	1078.92
479.34	1082.08
479.71	1084.70
480.07	1083.04
480.43	1083.95
480.79	1081.42
481.15	1078.26
481.51	1079.76
481.87	1079.76
482.23	1081.51
482.59	1081.00
482.96	1083.62
483.32	1083.36
483.68	1082.94
484.04	1079.57
484.40	1082.15
484.76	1080.56
485.12	1076.37
485.48	1076.37
485.84	1082.05
486.20	1080.34
486.56	1081.73
486.92	1086.55
487.28	1088.75
487.64	1084.49
488.00	1088.33
488.37	1088.28
488.73	1082.50
489.09	1080.63
489.45	1081.98
489.81	1078.07
490.17	1077.04
490.53	1083.53
490.89	1082.73
491.25	1081.96
491.61	1084.25
491.97	1086.66
492.33	1085.28
492.69	1089.24
493.05	1091.53
493.41	1090.32
493.77	1089.61
494.13	1089.87
494.49	1087.39
494.85	1085.89
495.21	1085.52
495.57	1088.04
495.93	1086.71
496.29	1086.59
496.64	1085.35
497.00	1085.07
497.36	1082.19
497.72	1080.23
498.08	1079.85
498.44	1078.78
498.80	1082.43
499.16	1081.30
499.52	1084.32
499.88	1081.19
500.24	1082.61
500.60	1077.37
500.96	1076.60
501.32	1077.49
501.68	1080.20
502.03	1079.03
502.39	1082.24
502.75	1081.87
503.11	1078.89
503.47	1079.74
503.83	1083.36
504.19	1080.67
504.55	1078.80
504.91	1077.33
505.26	1077.51
505.62	1074.61
505.98	1075.41
506.34	1079.71
506.70	1081.00
507.06	1080.51
507.42	1083.27
507.78	1082.94
508.13	1081.66
508.49	1079.83
508.85	1078.61
509.21	1077.96
509.57	1076.20
509.93	1076.90
510.28	1078.87
510.64	1080.93
511.00	1080.67
511.36	1084.60
511.72	1085.56
512.07	1086.83
512.43	1083.48
512.79	1081.23
513.15	1081.47
513.51	1079.27
513.86	1081.05
514.22	1081.42
514.58	1082.22
514.94	1082.71
515.30	1083.69
515.65	1082.15
516.01	1084.91
516.37	1085.94
516.73	1084.04
517.08	1085.38
517.44	1089.54
517.80	1089.29
518.16	1089.99
518.51	1090.03
518.87	1088.68
519.23	1082.36
519.59	1081.91
519.94	1082.01
520.30	1081.98
520.66	1080.44
521.01	1083.95
521.37	1084.53
521.73	1082.99
522.09	1083.06
522.44	1086.92
522.80	1085.33
523.16	1082.80
523.51	1083.41
523.87	1081.07
524.23	1079.20
524.58	1077.16
524.94	1077.77
525.30	1074.87
525.65	1077.25
526.01	1076.74
526.37	1079.92
526.72	1082.54
527.08	1087.74
527.44	1086.69
527.79	1089.03
528.15	1087.34
528.51	1087.69
528.86	1083.41
529.22	1082.83
529.58	1079.92
529.93	1079.34
530.29	1076.08
530.65	1078.00
531.00	1079.17
531.36	1079.29
531.71	1078.43
532.07	1080.37
532.43	1080.70
532.78	1082.54
533.14	1085.82
533.49	1087.95
533.85	1089.68
534.21	1089.33
534.56	1087.97
534.92	1083.46
535.27	1082.43
535.63	1078.75
535.98	1077.72
536.34	1078.17
536.69	1080.34
537.05	1080.65
537.41	1080.77
537.76	1083.25
538.12	1081.75
538.47	1082.10
538.83	1079.60
539.18	1080.44
539.54	1080.04
539.89	1082.76
540.25	1081.33
540.60	1087.65
540.96	1090.78
541.31	1089.87
541.67	1089.47
542.02	1090.48
542.38	1088.35
542.73	1085.54
543.09	1084.02
543.44	1082.15
543.80	1082.29
544.15	1082.76
544.51	1087.41
544.86	1091.39
545.22	1092.73
545.57	1093.73
545.93	1092.09
546.28	1090.81
546.64	1089.73
546.99	1086.92
547.35	1088.21
547.70	1090.24
548.05	1087.97
548.41	1088.54
548.76	1090.83
549.12	1087.44
549.47	1085.82
549.83	1085.00
550.18	1083.83
550.53	1084.53
550.89	1086.83
551.24	1083.20
551.60	1082.76
551.95	1081.28
552.30	1079.38
552.66	1079.95
553.01	1083.04
553.37	1083.90
553.72	1082.52
554.07	1084.84
554.43	1083.01
554.78	1086.20
555.13	1087.67
555.49	1090.74
555.84	1088.58
556.19	1089.00
556.55	1086.20
556.90	1087.20
557.26	1086.34
557.61	1088.00
557.96	1087.97
558.32	1087.53
558.67	1086.94
559.02	1087.20
559.37	1085.12
559.73	1084.11
560.08	1082.90
560.43	1082.03
560.79	1078.80
561.14	1078.10
561.49	1079.06
561.85	1080.72
562.20	1079.74
562.55	1081.66
562.90	1082.73
563.26	1082.73
563.61	1082.22
563.96	1085.35
564.32	1083.67
564.67	1083.90
565.02	1083.69
565.37	1085.33
565.73	1084.02
566.08	1089.26
566.43	1087.79
566.78	1086.99
567.14	1085.99
567.49	1085.31
567.84	1082.85
568.19	1082.24
568.54	1081.68
568.90	1083.32
569.25	1081.40
569.60	1081.61
569.95	1083.71
570.31	1085.07
570.66	1084.86
571.01	1085.26
571.36	1083.11
571.71	1079.34
572.06	1078.64
572.42	1075.83
572.77	1077.68
573.12	1076.51
573.47	1080.77
573.82	1077.65
574.18	1079.85
574.53	1076.48
574.88	1079.71
575.23	1078.59
575.58	1083.04
575.93	1082.19
576.28	1083.22
576.64	1084.44
576.99	1083.74
577.34	1083.81
577.69	1081.73
578.04	1081.12
578.39	1080.04
578.74	1083.32
579.09	1080.56
579.44	1083.01
579.80	1082.36
580.15	1080.30
580.50	1080.86
580.85	1082.38
581.20	1081.80
581.55	1083.60
581.90	1084.60
582.25	1085.33
582.60	1084.72
582.95	1084.28
583.30	1085.14
583.65	1085.70
584.00	1084.60
584.35	1088.02
584.71	1090.27
585.06	1090.10
585.41	1088.72
585.76	1087.44
586.11	1083.32
586.46	1080.98
586.81	1079.06
587.16	1080.95
587.51	1080.91
587.86	1084.56
588.21	1086.03
588.56	1086.99
588.91	1088.96
589.26	1088.40
589.61	1087.55
589.96	1086.83
590.31	1086.69
590.66	1086.31
591.01	1086.87
591.36	1085.59
591.71	1082.90
592.06	1082.76
592.41	1080.27
592.76	1081.00
593.10	1080.67
593.45	1082.99
593.80	1085.19
594.15	1084.58
594.50	1086.01
594.85	1088.19
595.20	1087.97
595.55	1090.67
595.90	1089.68
596.25	1089.71
596.60	1089.57
596.95	1089.07
597.30	1084.96
597.64	1135.96
597.99	1137.34
598.34	1139.12
598.69	1140.03
599.04	1141.53
599.39	1094.48
599.74	1090.60
600.09	1085.21
600.44	1085.19
600.78	1087.65
601.13	1085.80
601.48	1084.49
601.83	1088.19
602.18	1092.84
602.53	1088.37
602.88	1091.04
603.22	1091.95
603.57	1092.91
603.92	1088.30
604.27	1088.89
604.62	1086.08
604.97	1085.14
605.31	1084.63
605.66	1084.44
606.01	1087.53
606.36	1087.37
606.71	1090.22
607.05	1090.20
607.40	1091.32
607.75	1088.49
608.10	1088.63
608.44	1088.98
608.79	1085.91
609.14	1083.01
609.49	1083.25
609.84	1084.56
610.18	1089.03
610.53	1095.14
610.88	1098.79
611.23	1103.59
611.57	1107.80
611.92	1107.00
612.27	1106.72
612.62	1107.52
612.96	1103.07
613.31	1096.63
613.66	1095.46
614.00	1092.47
614.35	1091.06
614.70	1094.18
615.05	1094.25
615.39	1092.59
615.74	1092.21
616.09	1091.79
616.43	1086.45
616.78	1089.14
617.13	1087.25
617.47	1086.94
617.82	1087.65
618.17	1091.65
618.51	1090.20
618.86	1089.85
619.21	1088.02
619.55	1088.93
619.90	1086.83
620.25	1085.33
620.59	1085.17
620.94	1086.43
621.29	1085.12
621.63	1087.86
621.98	1089.43
622.32	1088.40
622.67	1090.76
623.02	1092.87
623.36	1093.76
623.71	1094.01
624.05	1097.64
624.40	1094.46
624.75	1092.33
625.09	1087.37
625.44	1087.18
625.78	1084.25
626.13	1085.17
626.48	1084.56
626.82	1088.16
627.17	1090.03
627.51	1091.23
627.86	1091.37
628.20	1093.01
628.55	1089.61
628.89	1088.75
629.24	1089.68
629.58	1088.70
629.93	1087.34
630.28	1087.09
630.62	1087.11
630.97	1086.31
631.31	1088.30
631.66	1085.89
632.00	1088.21
632.35	1089.26
632.69	1087.86
633.04	1083.71
633.38	1085.00
633.73	1083.88
634.07	1084.07
634.42	1086.22
634.76	1086.73
635.11	1085.89
635.45	1087.93
635.79	1087.25
636.14	1086.62
636.48	1088.35
636.83	1092.45
637.17	1092.96
637.52	1087.53
637.86	1085.80
638.21	1089.17
638.55	1085.19
638.89	1082.52
639.24	1088.61
639.58	1088.65
639.93	1085.14
640.27	1088.40
640.61	1087.32
640.96	1085.75
641.30	1086.78
641.65	1089.82
641.99	1088.35
642.33	1090.10
642.68	1088.00
643.02	1089.19
643.37	1085.05
643.71	1083.29
644.05	1082.85
644.40	1085.70
644.74	1083.50
645.08	1087.20
645.43	1089.40
645.77	1088.91
646.11	1087.88
646.46	1091.37
646.80	1092.02
647.14	1091.86
647.49	1091.79
647.83	1092.94
648.17	1090.71
648.52	1089.80
648.86	1089.31
649.20	1090.06
649.55	1087.72
649.89	1087.18
650.23	1086.01
650.57	1085.96
650.92	1086.31
651.26	1085.54
651.60	1083.50
651.95	1082.85
652.29	1081.80
652.63	1080.95
652.97	1080.95
653.32	1082.99
653.66	1083.25
654.00	1085.21
654.34	1086.94
654.69	1087.55
655.03	1087.48
655.37	1088.61
655.71	1086.08
656.05	1083.97
656.40	1083.11
656.74	1084.09
657.08	1082.76
657.42	1084.72
657.76	1087.74
658.11	1088.70
658.45	1090.39
658.79	1090.67
659.13	1087.97
659.47	1087.65
659.82	1088.70
660.16	1085.56
660.50	1082.87
660.84	1085.17
661.18	1080.77
661.52	1080.44
661.87	1084.21
662.21	1084.42
662.55	1085.99
662.89	1089.59
663.23	1088.51
663.57	1085.82
663.91	1088.47
664.25	1087.69
664.60	1084.93
664.94	1085.66
665.28	1086.45
665.62	1084.81
665.96	1085.42
666.30	1084.70
666.64	1085.14
666.98	1082.78
667.32	1081.70
667.66	1078.73
668.01	1083.15
668.35	1084.53
668.69	1083.11
669.03	1082.90
669.37	1085.21
669.71	1079.60
670.05	1077.42
670.39	1078.85
670.73	1083.50
671.07	1080.39
671.41	1085.19
671.75	1084.28
672.09	1083.88
672.43	1080.11
672.77	1078.43
673.11	1075.92
673.45	1077.37
673.79	1078.26
674.13	1077.58
674.47	1082.61
674.81	1083.81
675.15	1082.10
675.49	1082.38
675.83	1082.61
676.17	1081.42
676.51	1080.34
676.85	1083.11
677.19	1081.49
677.53	1082.19
677.87	1081.16
678.21	1081.28
678.55	1078.87
678.89	1078.47
679.23	1077.93
679.57	1080.53
679.90	1081.68
680.24	1083.01
680.58	1087.39
680.92	1088.33
681.26	1087.72
681.60	1087.88
681.94	1088.49
682.28	1086.83
682.62	1088.30
682.96	1085.66
683.29	1084.51
683.63	1082.92
683.97	1080.72
684.31	1079.60
684.65	1081.42
684.99	1086.71
685.33	1086.73
685.67	1088.54
686.00	1089.68
686.34	1089.24
686.68	1083.32
687.02	1084.44
687.36	1085.03
687.70	1086.10
688.03	1085.40
688.37	1088.56
688.71	1091.27
689.05	1088.93
689.39	1087.27
689.72	1088.70
690.06	1086.06
690.40	1082.29
690.74	1085.28
691.08	1083.04
691.41	1079.41
691.75	1078.19
692.09	1081.44
692.43	1081.47
692.76	1082.73
693.10	1086.50
693.44	1088.84
693.78	1086.48
694.11	1084.21
694.45	1081.98
694.79	1081.05
695.13	1079.01
695.46	1080.32
695.80	1082.47
696.14	1085.05
696.48	1085.54
696.81	1086.97
697.15	1084.30
697.49	1081.82
697.82	1083.13
698.16	1082.99
698.50	1083.15
698.83	1083.48
699.17	1080.67
699.51	1079.41
699.84	1078.68
700.18	1076.97
700.52	1077.33
700.85	1080.72
701.19	1080.09
701.53	1079.20
701.86	1078.52
702.20	1081.54
702.54	1081.51
702.87	1081.73
703.21	1081.70
703.55	1085.24
703.88	1081.73
704.22	1079.13
704.55	1079.83
704.89	1080.37
705.23	1080.58
705.56	1083.60
705.90	1087.81
706.23	1090.36
706.57	1091.16
706.91	1090.69
707.24	1088.75
707.58	1084.96
707.91	1084.09
708.25	1085.99
708.58	1085.54
708.92	1085.17
709.26	1086.78
709.59	1084.28
709.93	1083.34
710.26	1082.66
710.60	1084.39
710.93	1084.23
711.27	1082.36
711.60	1078.57
711.94	1077.16
712.27	1076.53
712.61	1078.94
712.94	1079.67
713.28	1082.43
713.61	1083.27
713.95	1082.12
714.28	1080.74
714.62	1084.04
714.95	1084.04
715.29	1083.60
715.62	1083.53
715.96	1082.36
716.29	1081.73
716.63	1082.29
716.96	1083.79
717.29	1083.88
717.63	1084.42
717.96	1084.18
718.30	1079.55
718.63	1079.03
718.97	1080.23
719.30	1083.93
719.63	1083.67
719.97	1088.96
720.30	1089.24
720.64	1089.36
720.97	1088.37
721.30	1087.55
721.64	1084.91
721.97	1083.83
722.31	1085.68
722.64	1083.18
722.97	1085.75
723.31	1087.79
723.64	1088.82
723.97	1085.52
724.31	1084.28
724.64	1084.09
724.98	1081.94
725.31	1082.94
725.64	1083.90
725.98	1085.05
726.31	1084.37
726.64	1084.86
726.97	1081.68
727.31	1081.02
727.64	1081.30
727.97	1078.78
728.31	1079.64
728.64	1082.57
728.97	1083.15
729.31	1081.02
729.64	1082.50
729.97	1082.19
730.30	1081.44
730.64	1082.24
730.97	1085.70
731.30	1086.57
731.63	1088.98
731.97	1087.95
732.30	1086.17
732.63	1084.32
732.96	1082.17
733.30	1079.88
733.63	1078.64
733.96	1080.27
734.29	1080.04
734.63	1080.39
734.96	1076.65
735.29	1078.57
735.62	1076.95
735.95	1077.86
736.29	1081.16
736.62	1086.48
736.95	1088.26
737.28	1088.96
737.61	1091.23
737.94	1089.80
738.28	1088.96
738.61	1085.45
738.94	1088.63
739.27	1086.06
739.60	1082.64
739.93	1083.67
740.27	1084.00
740.60	1080.39
740.93	1079.10
741.26	1081.05
741.59	1077.21
741.92	1075.45
742.25	1075.22
742.58	1078.52
742.91	1077.42
743.25	1079.71
743.58	1082.40
743.91	1084.37
744.24	1082.78
744.57	1086.10
744.90	1088.37
745.23	1088.16
745.56	1087.44
745.89	1086.69
746.22	1086.01
746.55	1083.90
746.88	1084.32
747.21	1083.74
747.54	1085.14
747.87	1082.85
748.20	1081.30
748.53	1081.68
748.87	1079.06
749.20	1078.61
749.53	1080.95
749.86	1082.40
750.19	1081.07
750.52	1080.48
750.85	1079.29
751.18	1078.66
751.51	1076.69
751.84	1078.38
752.16	1082.40
752.49	1080.60
752.82	1079.15
753.15	1080.93
753.48	1078.78
753.81	1076.48
754.14	1079.10
754.47	1082.31
754.80	1082.90
755.13	1086.34
755.46	1085.77
755.79	1085.19
756.12	1085.61
756.45	1088.30
756.78	1089.03
757.11	1090.15
757.43	1090.46
757.76	1091.65
758.09	1085.75
758.42	1081.07
758.75	1079.10
759.08	1078.75
759.41	1075.80
759.74	1078.59
760.07	1081.87
760.39	1088.65
760.72	1090.83
761.05	1090.46
761.38	1090.17
761.71	1091.39
762.04	1086.55
762.36	1084.98
762.69	1082.15
763.02	1081.73
763.35	1079.41
763.68	1082.31
764.01	1081.14
764.33	1084.70
764.66	1085.45
764.99	1084.96
765.32	1080.88
765.65	1083.36
765.97	1081.19
766.30	1082.38
766.63	1080.65
766.96	1082.08
767.28	1079.64
767.61	1082.29
767.94	1081.56
768.27	1085.28
768.59	1083.93
768.92	1081.73
769.25	1077.96
769.58	1077.40
769.90	1074.12
770.23	1072.88
770.56	1075.03
770.89	1076.15
771.21	1075.08
771.54	1078.61
771.87	1079.97
772.19	1079.20
772.52	1080.11
772.85	1081.66
773.17	1080.11
773.50	1080.98
773.83	1083.93
774.15	1081.82
774.48	1079.99
774.81	1078.82
775.13	1079.10
775.46	1078.40
775.79	1080.06
776.11	1080.16
776.44	1080.60
776.77	1077.91
777.09	1080.37
777.42	1082.78
777.74	1084.60
778.07	1083.60
778.40	1085.75
778.72	1082.22
779.05	1081.47
779.37	1084.51
779.70	1088.26
780.03	1088.93
780.35	1088.00
780.68	1087.69
781.00	1084.81
781.33	1082.76
781.65	1080.84
781.98	1081.58
782.31	1080.46
782.63	1080.95
782.96	1080.18
783.28	1084.28
783.61	1085.59
783.93	1086.78
784.26	1086.43
784.58	1087.90
784.91	1083.46
785.23	1084.35
785.56	1080.88
785.88	1080.25
786.21	1080.02
786.53	1080.91
786.86	1080.70
787.18	1083.48
787.51	1084.77
787.83	1085.45
788.16	1087.62
788.48	1085.96
788.81	1083.74
789.13	1082.33
789.46	1080.48
789.78	1080.53
790.10	1083.27
790.43	1084.56
790.75	1083.62
791.08	1080.58
791.40	1078.94
791.73	1082.64
792.05	1084.72
792.37	1083.22
792.70	1085.87
793.02	1088.37
793.35	1084.93
793.67	1081.84
793.99	1085.10
794.32	1087.04
794.64	1086.29
794.96	1083.53
795.29	1083.22
795.61	1081.44
795.93	1075.99
796.26	1073.35
796.58	1072.50
796.91	1074.26
797.23	1075.64
797.55	1079.34
797.87	1080.77
798.20	1084.21
798.52	1085.07
798.84	1082.73
799.17	1083.71
799.49	1085.24
799.81	1080.65
800.14	1082.61
800.46	1082.64
800.78	1083.13
801.10	1081.66
801.43	1086.48
801.75	1082.57
802.07	1085.82
802.40	1084.96
802.72	1082.83
803.04	1080.72
803.36	1080.46
803.69	1079.01
804.01	1080.20
804.33	1083.25
804.65	1080.93
804.97	1082.71
805.30	1087.16
805.62	1084.77
805.94	1083.22
806.26	1085.99
806.58	1085.87
806.91	1081.96
807.23	1084.09
807.55	1088.51
807.87	1088.02
808.19	1087.90
808.52	1089.03
808.84	1089.31
809.16	1086.03
809.48	1086.03
809.80	1088.86
810.12	1087.76
810.44	1088.89
810.77	1089.59
811.09	1091.93
811.41	1087.06
811.73	1088.77
812.05	1088.93
812.37	1089.38
812.69	1086.10
813.01	1087.65
813.33	1085.61
813.66	1082.85
813.98	1079.17
814.30	1079.03
814.62	1081.12
814.94	1077.86
815.26	1078.59
815.58	1080.37
815.90	1079.50
816.22	1078.43
816.54	1081.09
816.86	1081.47
817.18	1082.54
817.50	1081.80
817.82	1081.09
818.14	1081.23
818.46	1080.11
818.78	1080.11
819.10	1082.05
819.42	1085.66
819.74	1084.86
820.06	1087.25
820.38	1089.03
820.70	1089.03
821.02	1083.11
821.34	1084.00
821.66	1082.85
821.98	1080.84
822.30	1084.63
822.62	1088.86
822.94	1089.80
823.26	1088.61
823.58	1091.04
823.90	1087.11
824.22	1082.01
824.54	1081.28
824.86	1083.71
825.18	1081.73
825.50	1082.19
825.81	1085.49
826.13	1088.40
826.45	1084.89
826.77	1083.74
827.09	1083.29
827.41	1083.93
827.73	1079.69
828.05	1080.20
828.36	1077.14
828.68	1080.25
829.00	1080.11
829.32	1083.18
829.64	1084.42
829.96	1087.20
830.28	1087.46
830.59	1087.25
830.91	1081.33
831.23	1077.72
831.55	1078.21
831.87	1074.61
832.19	1075.24
832.50	1079.60
832.82	1081.82
833.14	1081.23
833.46	1082.69
833.78	1081.02
834.09	1080.86
834.41	1080.09
834.73	1081.70
835.05	1083.95
835.36	1084.72
835.68	1083.41
836.00	1083.48
836.32	1084.42
836.63	1080.77
836.95	1081.12
837.27	1081.96
837.59	1080.77
837.90	1078.21
838.22	1079.90
838.54	1079.69
838.85	1076.37
839.17	1079.03
839.49	1076.81
839.80	1075.29
840.12	1075.48
840.44	1077.58
840.76	1075.41
841.07	1078.38
841.39	1080.09
841.71	1080.84
842.02	1084.96
842.34	1085.40
842.65	1083.41
842.97	1083.81
843.29	1081.02
843.60	1080.70
843.92	1082.24
844.24	1087.67
844.55	1087.41
844.87	1088.75
845.18	1085.03
845.50	1083.29
845.82	1082.99
846.13	1079.62
846.45	1076.58
846.76	1077.14
847.08	1079.10
847.40	1075.20
847.71	1075.59
848.03	1077.84
848.34	1079.29
848.66	1079.64
848.97	1081.19
849.29	1082.69
849.60	1083.39
849.92	1082.29
850.24	1079.48
850.55	1078.89
850.87	1076.81
851.18	1077.47
851.50	1077.23
851.81	1078.19
852.13	1080.53
852.44	1083.39
852.76	1084.18
853.07	1082.69
853.39	1086.29
853.70	1086.92
854.01	1086.27
854.33	1085.40
854.64	1084.49
854.96	1081.96
855.27	1078.59
855.59	1077.02
855.90	1076.48
856.22	1079.31
856.53	1078.38
856.84	1078.68
857.16	1080.93
857.47	1082.29
857.79	1083.67
858.10	1086.83
858.41	1088.04
858.73	1088.58
859.04	1086.57
859.36	1084.16
859.67	1078.43
859.98	1076.27
860.30	1071.75
860.61	1072.90
860.92	1075.59
861.24	1081.35
861.55	1082.92
861.87	1085.82
862.18	1084.53
862.49	1084.16
862.81	1082.83
863.12	1081.05
863.43	1083.27
863.74	1085.63
864.06	1083.46
864.37	1082.54
864.68	1085.00
865.00	1085.26
865.31	1085.54
865.62	1087.72
865.94	1087.65
866.25	1088.98
866.56	1085.49
866.87	1081.44
867.19	1081.02
867.50	1084.37
867.81	1080.18
868.12	1081.12
868.44	1084.89
868.75	1083.48
869.06	1079.76
869.37	1082.85
869.68	1082.03
870.00	1082.54
870.31	1082.80
870.62	1080.23
870.93	1077.42
871.24	1080.44
871.56	1080.63
871.87	1081.73
872.18	1083.74
872.49	1085.47
872.80	1083.46
873.12	1081.75
873.43	1082.85
873.74	1083.39
874.05	1086.20
874.36	1087.18
874.67	1085.49
874.98	1082.08
875.29	1083.53
875.61	1080.70
875.92	1079.60
876.23	1081.37
876.54	1083.81
876.85	1083.18
877.16	1080.09
877.47	1080.53
877.78	1080.23
878.09	1078.94
878.40	1079.38
878.72	1080.84
879.03	1079.88
879.34	1080.41
879.65	1081.94
879.96	1083.13
880.27	1085.26
880.58	1086.22
880.89	1084.77
881.20	1081.49
881.51	1079.34
881.82	1080.77
882.13	1080.60
882.44	1080.53
882.75	1085.24
883.06	1086.83
883.37	1083.15
883.68	1084.21
883.99	1089.24
884.30	1090.95
884.61	1092.63
884.92	1093.62
885.23	1092.59
885.54	1087.88
885.85	1083.41
886.16	1081.98
886.47	1081.61
886.78	1082.31
887.08	1080.06
887.39	1080.27
887.70	1079.34
888.01	1078.54
888.32	1074.66
888.63	1078.17
888.94	1079.46
889.25	1080.09
889.56	1082.76
889.87	1086.80
890.17	1083.06
890.48	1083.25
890.79	1081.21
891.10	1079.17
891.41	1078.14
891.72	1079.81
892.03	1078.21
892.34	1083.57
892.64	1085.52
892.95	1086.34
893.26	1086.50
893.57	1084.67
893.88	1083.60
894.18	1081.68
894.49	1081.89
894.80	1086.20
895.11	1088.07
895.42	1083.81
895.72	1083.29
896.03	1080.32
896.34	1076.58
896.65	1076.69
896.96	1077.28
897.26	1074.66
897.57	1074.89
897.88	1076.48
898.19	1078.00
898.49	1076.23
898.80	1077.65
899.11	1078.61
899.41	1080.79
899.72	1079.36
900.03	1082.08
900.34	1086.45
900.64	1087.06
900.95	1081.37
901.26	1080.58
901.56	1081.51
901.87	1079.15
902.18	1082.29
902.48	1087.23
902.79	1088.30
903.10	1085.00
903.40	1085.31
903.71	1085.80
904.02	1081.54
904.32	1079.17
904.63	1079.46
904.94	1078.19
905.24	1077.25
905.55	1079.62
905.85	1083.67
906.16	1083.79
906.47	1084.93
906.77	1084.60
907.08	1081.61
907.38	1078.96
907.69	1081.87
908.00	1083.55
908.30	1082.90
908.61	1085.75
908.91	1089.33
909.22	1086.48
909.52	1085.45
909.83	1084.18
910.14	1087.74
910.44	1087.27
910.75	1088.07
911.05	1086.38
911.36	1085.40
911.66	1081.19
911.97	1081.70
912.27	1081.05
912.58	1083.64
912.88	1083.97
913.19	1085.45
913.49	1083.90
913.80	1084.49
914.10	1083.01
914.41	1086.34
914.71	1083.41
915.01	1081.14
915.32	1080.13
915.62	1080.60
915.93	1077.89
916.23	1078.73
916.54	1081.09
916.84	1082.15
917.15	1081.14
917.45	1077.65
917.75	1076.39
918.06	1075.90
918.36	1078.07
918.67	1078.89
918.97	1083.13
919.27	1087.39
919.58	1087.18
919.88	1086.92
920.18	1087.86
920.49	1087.37
920.79	1086.64
921.10	1087.11
921.40	1086.15
921.70	1084.39
922.01	1087.18
922.31	1087.65
922.61	1086.55
922.92	1087.18
923.22	1088.75
923.52	1086.64
923.82	1087.69
924.13	1086.03
924.43	1084.72
924.73	1083.55
925.04	1084.37
925.34	1082.24
925.64	1086.55
925.94	1085.89
926.25	1089.14
926.55	1087.11
926.85	1083.62
927.15	1081.42
927.46	1084.86
927.76	1081.89
928.06	1080.23
928.36	1083.13
928.67	1081.63
928.97	1078.85
929.27	1078.89
929.57	1082.01
929.87	1080.04
930.18	1082.64
930.48	1082.61
930.78	1083.46
931.08	1079.76
931.38	1081.87
931.69	1082.47
931.99	1084.32
932.29	1083.74
932.59	1084.72
932.89	1080.65
933.19	1077.68
933.49	1077.42
933.80	1077.58
934.10	1078.47
934.40	1082.33
934.70	1081.37
935.00	1081.82
935.30	1079.41
935.60	1078.87
935.90	1078.24
936.20	1078.40
936.50	1076.67
936.81	1080.48
937.11	1081.91
937.41	1081.66
937.71	1079.31
938.01	1076.93
938.31	1075.43
938.61	1074.42
938.91	1075.13
939.21	1078.50
939.51	1081.94
939.81	1080.77
940.11	1080.88
940.41	1082.24
940.71	1084.14
941.01	1086.62
941.31	1089.07
941.61	1091.81
941.91	1088.84
942.21	1087.09
942.51	1085.05
942.81	1082.45
943.11	1080.44
943.41	1080.74
943.71	1082.87
944.01	1085.89
944.31	1086.99
944.61	1087.27
944.90	1086.94
945.20	1084.02
945.50	1080.56
945.80	1081.51
946.10	1078.94
946.40	1081.44
946.70	1081.66
947.00	1081.61
947.30	1080.91
947.60	1083.60
947.89	1084.07
948.19	1083.20
948.49	1081.54
948.79	1079.99
949.09	1080.56
949.39	1080.93
949.69	1081.02
949.98	1085.54
950.28	1082.69
950.58	1081.47
950.88	1080.30
951.18	1080.72
951.48	1077.33
951.77	1083.22
952.07	1082.73
952.37	1084.53
952.67	1084.30
952.97	1083.36
953.26	1080.34
953.56	1082.26
953.86	1080.86
954.16	1081.91
954.45	1078.64
954.75	1080.51
955.05	1078.99
955.35	1080.53
955.64	1078.24
955.94	1082.33
956.24	1080.86
956.54	1081.75
956.83	1082.08
957.13	1084.18
957.43	1082.38
957.72	1084.32
958.02	1084.46
958.32	1081.58
958.61	1079.71
958.91	1081.68
959.21	1079.38
959.50	1079.90
959.80	1081.40
960.10	1086.08
960.39	1088.75
960.69	1088.21
960.99	1084.65
961.28	1082.85
961.58	1082.43
961.87	1080.72
962.17	1082.01
962.47	1081.98
962.76	1082.15
963.06	1080.58
963.36	1079.31
963.65	1081.80
963.95	1083.69
964.24	1087.95
964.54	1086.10
964.83	1086.24
965.13	1083.86
965.42	1087.18
965.72	1082.73
966.02	1084.60
966.31	1085.14
966.61	1085.28
966.90	1081.73
967.20	1081.84
967.49	1081.19
967.79	1080.34
968.08	1079.24
968.38	1079.85
968.67	1080.06
968.97	1081.16
969.26	1083.53
969.56	1081.91
969.85	1079.85
970.15	1079.24
970.44	1075.90
970.74	1071.15
971.03	1076.81
971.32	1078.19
971.62	1077.02
971.91	1077.07
972.21	1075.41
972.50	1071.17
972.80	1072.50
973.09	1075.92
973.38	1080.53
973.68	1083.57
973.97	1085.26
974.27	1082.73
974.56	1079.50
974.85	1078.31
975.15	1077.86
975.44	1077.21
975.73	1076.25
976.03	1078.73
976.32	1079.62
976.61	1081.66
976.91	1082.57
977.20	1082.01
977.49	1081.28
977.79	1079.38
978.08	1077.18
978.37	1075.41
978.67	1078.87
978.96	1081.26
979.25	1080.25
979.55	1083.95
979.84	1083.48
980.13	1082.24
980.42	1080.93
980.72	1080.30
981.01	1077.42
981.30	1079.62
981.59	1080.63
981.89	1077.63
982.18	1080.48
982.47	1079.27
982.76	1078.33
983.06	1077.37
983.35	1078.57
983.64	1077.21
983.93	1079.36
984.22	1080.48
984.52	1080.20
984.81	1080.39
985.10	1081.70
985.39	1081.02
985.68	1079.76
985.97	1082.33
986.27	1083.25
986.56	1080.70
986.85	1082.26
987.14	1081.70
987.43	1079.46
987.72	1077.04
988.01	1081.96
988.31	1081.28
988.60	1082.12
988.89	1082.40
989.18	1084.86
989.47	1078.92
989.76	1079.17
990.05	1078.99
990.34	1079.38
990.63	1078.61
990.92	1079.83
991.21	1079.99
991.51	1080.72
991.80	1078.57
992.09	1078.96
992.38	1080.88
992.67	1081.26
992.96	1080.25
993.25	1083.46
993.54	1082.61
993.83	1081.96
994.12	1082.29
994.41	1084.16
994.70	1084.79
994.99	1085.56
995.28	1086.76
995.57	1084.77
995.86	1083.76
996.15	1085.00
996.44	1085.42
996.73	1083.50
997.02	1082.59
997.31	1083.48
997.59	1083.86
997.88	1084.67
998.17	1082.94
998.46	1085.61
998.75	1084.89
999.04	1082.43
999.33	1078.14
999.62	1081.05
999.91	1079.36
1000.20	1080.74
1000.49	1081.91
1000.77	1088.58
1001.06	1089.22
1001.35	1089.64
1001.64	1088.28
1001.93	1083.11
1002.22	1080.70
1002.51	1079.24
1002.79	1080.74
1003.08	1079.06
1003.37	1081.26
1003.66	1079.55
1003.95	1078.64
1004.23	1078.36
1004.52	1077.47
1004.81	1077.98
1005.10	1079.85
1005.39	1080.77
1005.67	1079.50
1005.96	1082.90
1006.25	1082.26
1006.54	1082.64
1006.83	1083.27
1007.11	1084.98
1007.40	1083.53
1007.69	1082.17
1007.97	1078.12
1008.26	1079.85
1008.55	1074.66
1008.84	1076.83
1009.12	1080.72
1009.41	1081.89
1009.70	1080.39
1009.98	1084.28
1010.27	1081.09
1010.56	1081.47
1010.85	1082.22
1011.13	1080.88
1011.42	1081.16
1011.71	1081.16
1011.99	1082.03
1012.28	1079.88
1012.56	1081.80
1012.85	1082.52
1013.14	1083.88
1013.42	1081.66
1013.71	1082.71
1014.00	1083.57
1014.28	1084.21
1014.57	1083.86
1014.85	1081.89
1015.14	1083.46
1015.43	1082.83
1015.71	1080.46
1016.00	1079.22
1016.28	1075.17
1016.57	1075.34
1016.85	1069.95
1017.14	1070.42
1017.43	1075.20
1017.71	1082.38
1018.00	1082.26
1018.28	1084.32
1018.57	1084.56
1018.85	1081.44
1019.14	1083.41
1019.42	1083.36
1019.71	1085.40
1019.99	1085.31
1020.28	1086.41
1020.56	1082.59
1020.85	1087.16
1021.13	1085.68
1021.42	1084.74
1021.70	1082.99
1021.99	1081.89
1022.27	1078.00
1022.55	1073.25
1022.84	1086.13
>>>>>End Processed Spectral Data<<<<<
