SpectraSuite Data File
++++++++++++++++++++++++++++++++++++
Date: Mon Aug 26 10:26:47 PDT 2019
User: corrico
Dark Spectrum Present: No
Reference Spectrum Present: No
Number of Sampled Component Spectra: 1
Spectrometers: USB2+H06089
Integration Time (usec): 10000 (USB2+H06089)
Spectra Averaged: 20 (USB2+H06089)
Boxcar Smoothing: 2 (USB2+H06089)
Correct for Electrical Dark: No (USB2+H06089)
Strobe/Lamp Enabled: No (USB2+H06089)
Correct for Detector Non-linearity: No (USB2+H06089)
Correct for Stray Light: No (USB2+H06089)
Number of Pixels in Processed Spectrum: 2048
>>>>>Begin Processed Spectral Data<<<<<
339.70	1026.44
340.07	1026.44
340.45	994.82
340.82	974.74
341.19	953.04
341.57	928.84
341.94	917.23
342.31	907.59
342.69	903.35
343.06	902.07
343.43	901.97
343.81	902.74
344.18	910.26
344.55	912.88
344.93	917.40
345.30	922.03
345.67	930.15
346.04	935.21
346.42	943.49
346.79	952.27
347.16	963.83
347.54	971.72
347.91	981.08
348.28	993.14
348.65	1002.31
349.03	1009.15
349.40	1016.87
349.77	1022.37
350.14	1027.96
350.52	1030.09
350.89	1039.53
351.26	1048.51
351.63	1058.46
352.01	1061.41
352.38	1068.90
352.75	1069.70
353.12	1071.92
353.50	1074.26
353.87	1080.30
354.24	1083.22
354.61	1088.12
354.98	1088.93
355.36	1094.11
355.73	1095.77
356.10	1100.73
356.47	1099.00
356.84	1099.12
357.22	1091.88
357.59	1091.81
357.96	1088.63
358.33	1089.57
358.70	1091.23
359.08	1095.00
359.45	1092.52
359.82	1090.99
360.19	1088.82
360.56	1089.40
360.94	1085.99
361.31	1087.97
361.68	1088.07
362.05	1087.20
362.42	1084.35
362.79	1085.45
363.16	1080.41
363.54	1078.00
363.91	1080.48
364.28	1079.27
364.65	1082.45
365.02	1084.81
365.39	1086.01
365.76	1081.33
366.14	1080.77
366.51	1077.28
366.88	1076.15
367.25	1073.53
367.62	1077.86
367.99	1081.09
368.36	1077.25
368.73	1077.68
369.10	1080.34
369.48	1079.60
369.85	1078.14
370.22	1080.77
370.59	1082.10
370.96	1080.91
371.33	1077.93
371.70	1077.47
372.07	1080.56
372.44	1080.63
372.81	1083.60
373.18	1086.94
373.55	1087.06
373.93	1086.17
374.30	1087.02
374.67	1083.57
375.04	1081.28
375.41	1079.31
375.78	1077.30
376.15	1075.97
376.52	1075.01
376.89	1078.07
377.26	1082.71
377.63	1086.29
378.00	1086.66
378.37	1091.23
378.74	1089.61
379.11	1086.31
379.48	1083.06
379.85	1082.33
380.22	1079.67
380.59	1080.48
380.96	1079.55
381.33	1080.98
381.70	1083.41
382.07	1084.39
382.44	1082.73
382.81	1085.49
383.18	1085.40
383.55	1083.79
383.92	1085.68
384.29	1087.30
384.66	1088.75
385.03	1089.43
385.40	1086.59
385.77	1087.69
386.14	1088.72
386.51	1088.49
386.88	1090.83
387.25	1092.35
387.62	1088.42
387.99	1088.82
388.36	1086.76
388.73	1083.32
389.10	1084.91
389.46	1086.85
389.83	1087.55
390.20	1087.95
390.57	1089.47
390.94	1087.97
391.31	1088.23
391.68	1089.24
392.05	1091.16
392.42	1088.93
392.79	1090.32
393.16	1088.33
393.53	1086.45
393.89	1083.57
394.26	1085.42
394.63	1085.73
395.00	1084.70
395.37	1081.54
395.74	1083.36
396.11	1082.31
396.48	1082.08
396.84	1085.80
397.21	1088.19
397.58	1090.90
397.95	1092.61
398.32	1091.49
398.69	1090.85
399.06	1090.95
399.42	1088.14
399.79	1087.81
400.16	1088.56
400.53	1088.68
400.90	1089.61
401.27	1091.37
401.64	1090.32
402.00	1088.42
402.37	1089.38
402.74	1090.10
403.11	1087.90
403.48	1090.83
403.84	1096.28
404.21	1095.96
404.58	1093.40
404.95	1095.25
405.32	1095.04
405.68	1091.91
406.05	1089.99
406.42	1094.11
406.79	1093.71
407.16	1094.46
407.52	1094.39
407.89	1098.18
408.26	1095.86
408.63	1096.87
408.99	1094.83
409.36	1098.76
409.73	1098.81
410.10	1098.95
410.47	1098.20
410.83	1096.96
411.20	1095.98
411.57	1097.20
411.94	1097.06
412.30	1095.49
412.67	1098.39
413.04	1098.83
413.40	1096.99
413.77	1099.37
414.14	1102.04
414.51	1103.21
414.87	1101.88
415.24	1099.65
415.61	1098.81
415.97	1100.59
416.34	1100.94
416.71	1100.87
417.08	1103.89
417.44	1105.06
417.81	1107.87
418.18	1107.47
418.54	1107.21
418.91	1105.72
419.28	1106.82
419.64	1103.75
420.01	1103.52
420.38	1108.01
420.74	1112.85
421.11	1113.44
421.48	1113.86
421.84	1116.06
422.21	1114.05
422.58	1112.15
422.94	1111.03
423.31	1108.69
423.68	1108.34
424.04	1110.16
424.41	1109.32
424.77	1108.92
425.14	1110.87
425.51	1111.78
425.87	1109.04
426.24	1110.37
426.61	1110.77
426.97	1113.46
427.34	1113.14
427.70	1114.56
428.07	1110.96
428.44	1110.91
428.80	1108.22
429.17	1107.96
429.53	1109.98
429.90	1110.75
430.27	1112.81
430.63	1112.81
431.00	1111.01
431.36	1109.95
431.73	1111.03
432.09	1112.27
432.46	1115.27
432.83	1120.34
433.19	1119.57
433.56	1122.29
433.92	1117.79
434.29	1119.53
434.65	1114.45
435.02	1113.63
435.38	1111.59
435.75	1113.93
436.11	1108.52
436.48	1110.16
436.84	1111.33
437.21	1113.39
437.57	1111.47
437.94	1112.08
438.30	1110.47
438.67	1111.71
439.03	1109.16
439.40	1112.60
439.76	1115.48
440.13	1117.37
440.49	1112.88
440.86	1114.66
441.22	1111.99
441.59	1108.71
441.95	1109.74
442.32	1113.09
442.68	1114.31
443.05	1113.74
443.41	1116.04
443.78	1114.38
444.14	1113.21
444.51	1108.95
444.87	1113.21
445.24	1112.74
445.60	1114.89
445.96	1114.49
446.33	1116.06
446.69	1113.14
447.06	1113.23
447.42	1109.44
447.79	1109.30
448.15	1107.71
448.51	1108.27
448.88	1106.86
449.24	1109.09
449.61	1109.27
449.97	1108.97
450.33	1108.13
450.70	1110.42
451.06	1107.64
451.43	1109.41
451.79	1112.78
452.15	1114.52
452.52	1111.08
452.88	1112.53
453.24	1110.30
453.61	1111.03
453.97	1111.94
454.34	1114.89
454.70	1115.10
455.06	1117.86
455.43	1115.78
455.79	1113.77
456.15	1111.03
456.52	1110.94
456.88	1110.35
457.24	1110.00
457.61	1110.77
457.97	1111.71
458.33	1111.80
458.70	1112.22
459.06	1112.69
459.42	1114.77
459.79	1116.55
460.15	1118.00
460.51	1119.76
460.88	1120.95
461.24	1119.43
461.60	1119.97
461.96	1121.56
462.33	1117.86
462.69	1118.54
463.05	1120.27
463.42	1121.37
463.78	1118.61
464.14	1121.75
464.50	1123.36
464.87	1123.93
465.23	1123.60
465.59	1127.11
465.95	1130.53
466.32	1130.06
466.68	1131.44
467.04	1134.13
467.40	1132.98
467.77	1133.17
468.13	1137.57
468.49	1138.09
468.85	1138.69
469.22	1143.33
469.58	1141.69
469.94	1138.23
470.30	1140.36
470.66	1138.97
471.03	1138.69
471.39	1142.04
471.75	1147.59
472.11	1147.31
472.47	1149.55
472.84	1152.97
473.20	1154.73
473.56	1157.30
473.92	1159.60
474.28	1164.39
474.65	1167.76
475.01	1171.11
475.37	1172.89
475.73	1177.22
476.09	1184.62
476.45	1189.27
476.81	1194.68
477.18	1204.44
477.54	1210.45
477.90	1209.71
478.26	1211.30
478.62	1219.00
478.98	1218.88
479.34	1226.63
479.71	1240.72
480.07	1253.80
480.43	1259.70
480.79	1273.27
481.15	1283.78
481.51	1292.70
481.87	1299.25
482.23	1311.92
482.59	1321.89
482.96	1329.92
483.32	1341.88
483.68	1358.17
484.04	1374.06
484.40	1387.94
484.76	1410.43
485.12	1426.11
485.48	1444.88
485.84	1462.02
486.20	1486.17
486.56	1505.71
486.92	1532.61
487.28	1558.87
487.64	1586.58
488.00	1610.12
488.37	1636.22
488.73	1665.69
489.09	1694.69
489.45	1730.08
489.81	1768.13
490.17	1809.47
490.53	1843.66
490.89	1887.64
491.25	1928.81
491.61	1974.10
491.97	2018.99
492.33	2077.06
492.69	2126.35
493.05	2177.12
493.41	2229.64
493.77	2288.15
494.13	2344.33
494.49	2411.06
494.85	2487.17
495.21	2568.36
495.57	2646.58
495.93	2734.35
496.29	2819.08
496.64	2905.61
497.00	2993.12
497.36	3099.31
497.72	3198.95
498.08	3309.17
498.44	3423.43
498.80	3551.01
499.16	3676.56
499.52	3811.61
499.88	3958.15
500.24	4110.36
500.60	4256.22
500.96	4411.07
501.32	4580.50
501.68	4746.11
502.03	4930.71
502.39	5141.36
502.75	5356.95
503.11	5579.98
503.47	5806.82
503.83	6054.29
504.19	6294.68
504.55	6558.25
504.91	6836.68
505.26	7121.59
505.62	7409.32
505.98	7732.54
506.34	8070.17
506.70	8413.15
507.06	8806.99
507.42	9205.61
507.78	9597.98
508.13	9997.20
508.49	10440.01
508.85	10889.81
509.21	11366.84
509.57	11899.42
509.93	12465.06
510.28	13042.54
510.64	13643.05
511.00	14249.84
511.36	14823.46
511.72	15381.32
512.07	16001.80
512.43	16611.30
512.79	17270.72
513.15	18000.26
513.51	18766.56
513.86	19517.73
514.22	20346.18
514.58	21160.48
514.94	21967.57
515.30	22807.70
515.65	23596.77
516.01	24418.11
516.37	25240.43
516.73	26023.46
517.08	26872.56
517.44	27729.38
517.80	28518.30
518.16	29354.53
518.51	30171.10
518.87	30892.50
519.23	31724.77
519.59	32594.53
519.94	33419.92
520.30	34307.81
520.66	35104.10
521.01	35912.92
521.37	36593.85
521.73	37209.49
522.09	37763.02
522.44	38393.70
522.80	38772.89
523.16	39123.60
523.51	39390.65
523.87	39710.02
524.23	39953.93
524.58	40259.72
524.94	40642.54
525.30	40997.03
525.65	41176.69
526.01	41230.57
526.37	41221.84
526.72	41156.42
527.08	41010.21
527.44	40830.41
527.79	40670.11
528.15	40548.05
528.51	40301.10
528.86	40119.90
529.22	39884.86
529.58	39657.45
529.93	39287.76
530.29	38872.51
530.65	38492.26
531.00	38143.31
531.36	37681.36
531.71	37227.34
532.07	36772.91
532.43	36189.48
532.78	35559.10
533.14	35019.91
533.49	34453.48
533.85	33840.75
534.21	33232.61
534.56	32681.74
534.92	32074.07
535.27	31448.54
535.63	30840.75
535.98	30213.04
536.34	29573.58
536.69	28936.00
537.05	28337.08
537.41	27816.68
537.76	27354.73
538.12	26816.13
538.47	26334.30
538.83	25906.22
539.18	25453.65
539.54	24961.67
539.89	24514.86
540.25	23996.72
540.60	23514.68
540.96	23012.80
541.31	22537.42
541.67	22108.14
542.02	21730.77
542.38	21281.30
542.73	20836.71
543.09	20446.31
543.44	20092.49
543.80	19753.00
544.15	19370.93
544.51	19040.42
544.86	18721.85
545.22	18352.54
545.57	17987.06
545.93	17642.26
546.28	17335.86
546.64	17008.65
546.99	16685.23
547.35	16352.46
547.70	16073.58
548.05	15757.35
548.41	15450.09
548.76	15153.12
549.12	14867.01
549.47	14586.22
549.83	14330.44
550.18	14017.21
550.53	13689.35
550.89	13414.31
551.24	13130.31
551.60	12830.98
551.95	12585.29
552.30	12359.57
552.66	12117.94
553.01	11869.14
553.37	11594.45
553.72	11319.37
554.07	11054.94
554.43	10772.36
554.78	10488.32
555.13	10235.63
555.49	10013.49
555.84	9829.97
556.19	9642.12
556.55	9454.78
556.90	9270.63
557.26	9056.26
557.61	8822.39
557.96	8572.24
558.32	8373.64
558.67	8166.50
559.02	7960.00
559.37	7768.78
559.73	7628.88
560.08	7466.71
560.43	7321.06
560.79	7196.02
561.14	7049.90
561.49	6880.61
561.85	6726.40
562.20	6569.56
562.55	6429.66
562.90	6302.95
563.26	6184.80
563.61	6068.49
563.96	5961.02
564.32	5836.34
564.67	5708.50
565.02	5594.54
565.37	5479.15
565.73	5363.76
566.08	5264.12
566.43	5160.34
566.78	5053.10
567.14	4949.74
567.49	4842.73
567.84	4740.22
568.19	4636.23
568.54	4545.58
568.90	4453.03
569.25	4381.32
569.60	4306.96
569.95	4244.91
570.31	4165.38
570.66	4089.64
571.01	3999.44
571.36	3907.90
571.71	3829.33
572.06	3760.59
572.42	3695.75
572.77	3645.24
573.12	3591.65
573.47	3527.73
573.82	3464.95
574.18	3401.80
574.53	3331.31
574.88	3273.82
575.23	3228.07
575.58	3182.47
575.93	3136.55
576.28	3087.54
576.64	3029.40
576.99	2967.78
577.34	2909.08
577.69	2850.40
578.04	2798.37
578.39	2754.83
578.74	2716.12
579.09	2677.08
579.44	2638.77
579.80	2602.70
580.15	2562.61
580.50	2527.59
580.85	2493.00
581.20	2460.58
581.55	2428.52
581.90	2401.81
582.25	2362.42
582.60	2321.88
582.95	2287.17
583.30	2244.20
583.65	2208.83
584.00	2173.44
584.35	2148.12
584.71	2118.00
585.06	2095.51
585.41	2062.67
585.76	2041.25
586.11	2011.60
586.46	1984.82
586.81	1961.11
587.16	1941.97
587.51	1922.38
587.86	1903.96
588.21	1885.21
588.56	1863.65
588.91	1846.40
589.26	1823.14
589.61	1804.04
589.96	1786.04
590.31	1772.18
590.66	1753.11
591.01	1738.88
591.36	1721.60
591.71	1703.47
592.06	1684.79
592.41	1667.42
592.76	1652.68
593.10	1638.16
593.45	1623.33
593.80	1608.77
594.15	1593.37
594.50	1580.05
594.85	1566.87
595.20	1560.83
595.55	1551.56
595.90	1546.56
596.25	1536.84
596.60	1528.07
596.95	1514.49
597.30	1502.81
597.64	1543.04
597.99	1531.83
598.34	1521.37
598.69	1511.10
599.04	1503.49
599.39	1442.36
599.74	1433.95
600.09	1426.46
600.44	1421.10
600.78	1413.12
601.13	1406.71
601.48	1400.11
601.83	1394.05
602.18	1387.45
602.53	1380.85
602.88	1372.40
603.22	1365.21
603.57	1355.36
603.92	1341.74
604.27	1331.30
604.62	1326.08
604.97	1318.10
605.31	1316.01
605.66	1316.25
606.01	1313.60
606.36	1306.98
606.71	1301.90
607.05	1293.92
607.40	1290.22
607.75	1287.48
608.10	1285.35
608.44	1284.88
608.79	1282.17
609.14	1276.74
609.49	1273.27
609.84	1269.18
610.18	1268.24
610.53	1266.39
610.88	1263.56
611.23	1261.01
611.57	1258.83
611.92	1253.52
612.27	1249.07
612.62	1243.69
612.96	1238.42
613.31	1233.56
613.66	1230.09
614.00	1225.04
614.35	1223.05
614.70	1219.89
615.05	1216.87
615.39	1208.89
615.74	1205.05
616.09	1202.59
616.43	1197.44
616.78	1194.14
617.13	1196.36
617.47	1193.95
617.82	1191.54
618.17	1191.08
618.51	1189.55
618.86	1185.27
619.21	1186.30
619.55	1184.40
619.90	1182.13
620.25	1177.41
620.59	1173.94
620.94	1169.00
621.29	1167.08
621.63	1165.31
621.98	1166.41
622.32	1166.03
622.67	1165.73
623.02	1164.77
623.36	1162.22
623.71	1158.14
624.05	1159.24
624.40	1157.14
624.75	1152.90
625.09	1151.94
625.44	1151.68
625.78	1144.78
626.13	1144.69
626.48	1144.40
626.82	1142.18
627.17	1138.79
627.51	1138.72
627.86	1134.22
628.20	1130.60
628.55	1131.72
628.89	1132.54
629.24	1133.38
629.58	1135.21
629.93	1137.31
630.28	1135.60
630.62	1134.97
630.97	1134.81
631.31	1132.91
631.66	1130.60
632.00	1127.62
632.35	1124.49
632.69	1122.36
633.04	1122.17
633.38	1124.96
633.73	1128.00
634.07	1132.07
634.42	1130.29
634.76	1130.10
635.11	1124.91
635.45	1120.11
635.79	1116.37
636.14	1118.47
636.48	1117.25
636.83	1116.58
637.17	1116.13
637.52	1115.52
637.86	1110.91
638.21	1110.21
638.55	1107.14
638.89	1106.54
639.24	1107.40
639.58	1109.62
639.93	1107.78
640.27	1109.79
640.61	1107.89
640.96	1107.28
641.30	1105.20
641.65	1104.83
641.99	1106.58
642.33	1108.48
642.68	1109.48
643.02	1110.58
643.37	1110.12
643.71	1105.34
644.05	1104.99
644.40	1103.28
644.74	1102.06
645.08	1104.05
645.43	1105.81
645.77	1106.00
646.11	1103.82
646.46	1102.06
646.80	1102.56
647.14	1104.12
647.49	1105.72
647.83	1108.69
648.17	1111.19
648.52	1107.07
648.86	1105.86
649.20	1102.65
649.55	1100.61
649.89	1098.53
650.23	1102.06
650.57	1103.96
650.92	1102.32
651.26	1104.29
651.60	1103.84
651.95	1102.23
652.29	1099.07
652.63	1102.86
652.97	1097.24
653.32	1096.61
653.66	1096.45
654.00	1101.22
654.34	1102.11
654.69	1104.64
655.03	1106.56
655.37	1106.75
655.71	1103.70
656.05	1100.82
656.40	1100.40
656.74	1099.54
657.08	1097.31
657.42	1097.13
657.76	1095.00
658.11	1095.82
658.45	1094.43
658.79	1093.57
659.13	1094.25
659.47	1097.55
659.82	1095.63
660.16	1097.48
660.50	1098.88
660.84	1098.18
661.18	1093.36
661.52	1095.51
661.87	1094.18
662.21	1093.40
662.55	1092.47
662.89	1092.40
663.23	1092.23
663.57	1092.12
663.91	1090.78
664.25	1092.87
664.60	1096.63
664.94	1095.32
665.28	1094.76
665.62	1097.36
665.96	1095.28
666.30	1095.84
666.64	1095.28
666.98	1094.36
667.32	1092.91
667.66	1092.52
668.01	1090.97
668.35	1090.24
668.69	1091.58
669.03	1092.21
669.37	1092.54
669.71	1094.53
670.05	1096.63
670.39	1095.79
670.73	1095.96
671.07	1094.81
671.41	1093.26
671.75	1091.70
672.09	1092.02
672.43	1091.95
672.77	1093.33
673.11	1089.85
673.45	1091.06
673.79	1093.80
674.13	1094.43
674.47	1092.54
674.81	1096.59
675.15	1094.90
675.49	1090.99
675.83	1092.23
676.17	1093.08
676.51	1093.03
676.85	1093.78
677.19	1094.95
677.53	1091.58
677.87	1092.87
678.21	1089.87
678.55	1088.70
678.89	1089.03
679.23	1088.96
679.57	1088.54
679.90	1088.28
680.24	1090.08
680.58	1090.32
680.92	1090.71
681.26	1089.19
681.60	1093.08
681.94	1091.34
682.28	1091.79
682.62	1093.62
682.96	1094.50
683.29	1091.39
683.63	1093.12
683.97	1091.20
684.31	1089.17
684.65	1090.29
684.99	1093.36
685.33	1092.30
685.67	1092.54
686.00	1091.27
686.34	1089.19
686.68	1088.09
687.02	1089.73
687.36	1088.09
687.70	1088.26
688.03	1087.46
688.37	1086.85
688.71	1089.22
689.05	1090.03
689.39	1090.81
689.72	1093.94
690.06	1093.78
690.40	1089.31
690.74	1087.93
691.08	1088.28
691.41	1087.81
691.75	1090.06
692.09	1089.71
692.43	1092.80
692.76	1096.05
693.10	1094.60
693.44	1091.91
693.78	1091.56
694.11	1092.52
694.45	1090.15
694.79	1092.87
695.13	1094.34
695.46	1096.68
695.80	1094.41
696.14	1097.08
696.48	1095.49
696.81	1096.19
697.15	1094.97
697.49	1096.52
697.82	1093.73
698.16	1095.18
698.50	1090.48
698.83	1090.46
699.17	1089.45
699.51	1088.63
699.84	1084.32
700.18	1085.87
700.52	1086.03
700.85	1086.17
701.19	1086.06
701.53	1085.99
701.86	1086.66
702.20	1083.01
702.54	1082.99
702.87	1082.85
703.21	1084.81
703.55	1084.60
703.88	1087.20
704.22	1087.83
704.55	1090.01
704.89	1089.31
705.23	1090.95
705.56	1091.65
705.90	1094.20
706.23	1092.61
706.57	1094.08
706.91	1094.32
707.24	1096.07
707.58	1094.65
707.91	1095.98
708.25	1094.69
708.58	1094.72
708.92	1091.98
709.26	1093.94
709.59	1092.28
709.93	1092.30
710.26	1092.05
710.60	1094.11
710.93	1092.56
711.27	1091.20
711.60	1095.00
711.94	1094.41
712.27	1092.49
712.61	1090.24
712.94	1094.06
713.28	1089.17
713.61	1087.46
713.95	1089.45
714.28	1086.29
714.62	1084.09
714.95	1085.68
715.29	1086.36
715.62	1085.87
715.96	1089.52
716.29	1090.32
716.63	1089.82
716.96	1090.06
717.29	1086.36
717.63	1088.91
717.96	1090.90
718.30	1091.18
718.63	1092.37
718.97	1096.49
719.30	1093.55
719.63	1090.15
719.97	1088.23
720.30	1087.86
720.64	1085.80
720.97	1084.81
721.30	1088.86
721.64	1091.58
721.97	1089.47
722.31	1092.28
722.64	1094.76
722.97	1089.61
723.31	1088.26
723.64	1089.50
723.97	1087.16
724.31	1085.33
724.64	1086.13
724.98	1086.06
725.31	1084.74
725.64	1084.79
725.98	1088.14
726.31	1087.48
726.64	1088.72
726.97	1090.36
727.31	1089.89
727.64	1089.29
727.97	1089.50
728.31	1092.30
728.64	1092.82
728.97	1092.73
729.31	1087.95
729.64	1089.75
729.97	1087.97
730.30	1087.95
730.64	1089.92
730.97	1093.19
731.30	1090.78
731.63	1087.74
731.97	1086.59
732.30	1084.79
732.63	1083.97
732.96	1086.94
733.30	1087.04
733.63	1087.88
733.96	1090.71
734.29	1087.55
734.63	1086.59
734.96	1089.10
735.29	1088.04
735.62	1086.87
735.95	1090.17
736.29	1090.48
736.62	1089.64
736.95	1090.62
737.28	1086.99
737.61	1084.46
737.94	1083.46
738.28	1078.03
738.61	1076.53
738.94	1077.98
739.27	1079.67
739.60	1079.38
739.93	1086.20
740.27	1082.80
740.60	1083.36
740.93	1082.78
741.26	1082.94
741.59	1080.04
741.92	1083.74
742.25	1084.18
742.58	1085.73
742.91	1085.42
743.25	1088.70
743.58	1090.57
743.91	1090.29
744.24	1089.82
744.57	1091.20
744.90	1088.79
745.23	1087.53
745.56	1088.96
745.89	1090.10
746.22	1089.45
746.55	1085.70
746.88	1083.90
747.21	1083.53
747.54	1083.83
747.87	1083.25
748.20	1085.45
748.53	1090.10
748.87	1090.97
749.20	1085.68
749.53	1085.54
749.86	1087.02
750.19	1085.59
750.52	1083.08
750.85	1083.64
751.18	1083.79
751.51	1085.14
751.84	1085.68
752.16	1084.91
752.49	1087.58
752.82	1091.27
753.15	1090.85
753.48	1087.55
753.81	1088.37
754.14	1088.42
754.47	1083.15
754.80	1081.56
755.13	1084.32
755.46	1083.95
755.79	1084.02
756.12	1093.17
756.45	1094.95
756.78	1094.29
757.11	1095.82
757.43	1095.60
757.76	1088.58
758.09	1087.04
758.42	1083.67
758.75	1080.86
759.08	1078.52
759.41	1080.81
759.74	1082.85
760.07	1086.85
760.39	1090.22
760.72	1093.29
761.05	1094.50
761.38	1094.11
761.71	1090.10
762.04	1088.47
762.36	1085.77
762.69	1083.22
763.02	1082.17
763.35	1084.67
763.68	1083.48
764.01	1084.79
764.33	1083.64
764.66	1082.57
764.99	1080.27
765.32	1080.09
765.65	1081.02
765.97	1081.09
766.30	1083.25
766.63	1088.19
766.96	1092.66
767.28	1093.38
767.61	1093.94
767.94	1090.41
768.27	1087.90
768.59	1088.33
768.92	1089.22
769.25	1090.01
769.58	1092.05
769.90	1091.79
770.23	1089.57
770.56	1088.12
770.89	1088.09
771.21	1088.40
771.54	1087.97
771.87	1088.09
772.19	1087.72
772.52	1088.72
772.85	1088.70
773.17	1089.99
773.50	1090.69
773.83	1090.20
774.15	1086.01
774.48	1085.14
774.81	1085.59
775.13	1084.00
775.46	1086.15
775.79	1087.30
776.11	1088.37
776.44	1086.85
776.77	1086.73
777.09	1082.97
777.42	1084.16
777.74	1085.63
778.07	1085.31
778.40	1086.17
778.72	1086.80
779.05	1088.35
779.37	1087.95
779.70	1088.77
780.03	1085.96
780.35	1088.72
780.68	1085.14
781.00	1082.87
781.33	1085.33
781.65	1087.11
781.98	1086.50
782.31	1088.49
782.63	1089.78
782.96	1087.62
783.28	1084.42
783.61	1084.32
783.93	1086.13
784.26	1085.42
784.58	1082.52
784.91	1084.84
785.23	1086.17
785.56	1084.51
785.88	1082.59
786.21	1087.62
786.53	1088.09
786.86	1086.50
787.18	1087.04
787.51	1091.34
787.83	1088.40
788.16	1087.81
788.48	1088.72
788.81	1085.31
789.13	1084.14
789.46	1081.63
789.78	1084.00
790.10	1083.46
790.43	1085.70
790.75	1085.45
791.08	1088.72
791.40	1087.48
791.73	1092.02
792.05	1091.65
792.37	1090.55
792.70	1092.00
793.02	1092.40
793.35	1088.28
793.67	1090.39
793.99	1090.90
794.32	1086.27
794.64	1085.33
794.96	1084.16
795.29	1081.61
795.61	1079.95
795.93	1086.66
796.26	1088.79
796.58	1085.99
796.91	1085.91
797.23	1084.49
797.55	1079.60
797.87	1077.21
798.20	1078.17
798.52	1077.33
798.84	1078.12
799.17	1078.12
799.49	1079.85
799.81	1078.94
800.14	1080.30
800.46	1083.11
800.78	1084.25
801.10	1081.14
801.43	1081.73
801.75	1080.74
802.07	1081.96
802.40	1084.39
802.72	1086.55
803.04	1088.40
803.36	1088.42
803.69	1085.96
804.01	1082.90
804.33	1081.56
804.65	1080.84
804.97	1084.60
805.30	1082.80
805.62	1083.08
805.94	1085.28
806.26	1084.70
806.58	1080.79
806.91	1083.79
807.23	1081.68
807.55	1080.46
807.87	1083.71
808.19	1085.77
808.52	1085.94
808.84	1089.10
809.16	1087.88
809.48	1083.90
809.80	1082.64
810.12	1083.62
810.44	1082.01
810.77	1084.51
811.09	1085.35
811.41	1085.63
811.73	1084.25
812.05	1085.12
812.37	1082.54
812.69	1081.66
813.01	1082.29
813.33	1084.42
813.66	1080.72
813.98	1082.40
814.30	1085.00
814.62	1087.32
814.94	1084.39
815.26	1086.73
815.58	1086.24
815.90	1084.39
816.22	1078.68
816.54	1078.78
816.86	1082.10
817.18	1080.70
817.50	1081.77
817.82	1086.85
818.14	1086.80
818.46	1083.34
818.78	1084.39
819.10	1085.56
819.42	1086.20
819.74	1086.41
820.06	1088.44
820.38	1088.61
820.70	1086.50
821.02	1087.46
821.34	1090.88
821.66	1091.95
821.98	1092.19
822.30	1095.51
822.62	1090.41
822.94	1087.67
823.26	1084.32
823.58	1085.10
823.90	1084.72
824.22	1087.86
824.54	1089.12
824.86	1090.92
825.18	1090.95
825.50	1089.99
825.81	1089.68
826.13	1088.16
826.45	1087.55
826.77	1083.53
827.09	1083.01
827.41	1082.45
827.73	1079.71
828.05	1079.24
828.36	1083.97
828.68	1082.85
829.00	1079.17
829.32	1080.44
829.64	1081.82
829.96	1077.68
830.28	1079.03
830.59	1081.89
830.91	1081.58
831.23	1080.65
831.55	1085.99
831.87	1083.74
832.19	1084.77
832.50	1086.78
832.82	1087.30
833.14	1084.67
833.46	1084.79
833.78	1083.60
834.09	1080.95
834.41	1079.67
834.73	1079.99
835.05	1080.23
835.36	1081.30
835.68	1081.84
836.00	1084.98
836.32	1084.91
836.63	1086.31
836.95	1084.96
837.27	1083.79
837.59	1081.75
837.90	1083.27
838.22	1086.36
838.54	1086.66
838.85	1089.82
839.17	1089.68
839.49	1087.53
839.80	1083.41
840.12	1080.53
840.44	1079.38
840.76	1079.01
841.07	1076.76
841.39	1080.58
841.71	1085.52
842.02	1087.53
842.34	1085.77
842.65	1089.22
842.97	1085.17
843.29	1082.33
843.60	1080.67
843.92	1082.85
844.24	1082.01
844.55	1082.33
844.87	1085.03
845.18	1083.86
845.50	1082.45
845.82	1081.66
846.13	1081.56
846.45	1077.07
846.76	1082.01
847.08	1083.74
847.40	1085.66
847.71	1087.65
848.03	1089.89
848.34	1084.93
848.66	1083.79
848.97	1084.04
849.29	1085.05
849.60	1084.67
849.92	1084.60
850.24	1084.67
850.55	1083.20
850.87	1082.54
851.18	1083.43
851.50	1083.93
851.81	1085.59
852.13	1086.17
852.44	1084.81
852.76	1086.29
853.07	1088.23
853.39	1084.79
853.70	1086.80
854.01	1083.95
854.33	1079.10
854.64	1079.13
854.96	1083.67
855.27	1081.19
855.59	1082.47
855.90	1088.28
856.22	1088.12
856.53	1084.11
856.84	1084.30
857.16	1086.83
857.47	1085.52
857.79	1086.57
858.10	1087.02
858.41	1086.66
858.73	1084.49
859.04	1082.05
859.36	1080.20
859.67	1081.75
859.98	1081.00
860.30	1080.02
860.61	1079.50
860.92	1081.19
861.24	1080.84
861.55	1080.02
861.87	1084.09
862.18	1085.94
862.49	1084.49
862.81	1082.57
863.12	1082.40
863.43	1079.57
863.74	1082.76
864.06	1079.38
864.37	1079.17
864.68	1084.98
865.00	1088.79
865.31	1085.89
865.62	1089.03
865.94	1090.03
866.25	1085.70
866.56	1083.27
866.87	1085.75
867.19	1083.79
867.50	1082.19
867.81	1081.09
868.12	1082.83
868.44	1078.14
868.75	1079.90
869.06	1081.73
869.37	1081.54
869.68	1079.41
870.00	1080.93
870.31	1082.08
870.62	1082.08
870.93	1083.13
871.24	1085.24
871.56	1087.06
871.87	1083.36
872.18	1087.02
872.49	1085.91
872.80	1085.12
873.12	1084.28
873.43	1084.63
873.74	1079.95
874.05	1079.97
874.36	1079.17
874.67	1078.87
874.98	1082.45
875.29	1082.38
875.61	1083.60
875.92	1081.68
876.23	1081.89
876.54	1077.37
876.85	1080.77
877.16	1080.37
877.47	1082.08
877.78	1081.23
878.09	1084.04
878.40	1082.69
878.72	1081.56
879.03	1082.47
879.34	1083.18
879.65	1085.26
879.96	1086.50
880.27	1089.94
880.58	1089.80
880.89	1085.91
881.20	1083.20
881.51	1083.29
881.82	1081.33
882.13	1078.59
882.44	1081.26
882.75	1080.70
883.06	1081.70
883.37	1084.32
883.68	1086.66
883.99	1088.49
884.30	1087.95
884.61	1086.76
884.92	1087.09
885.23	1087.02
885.54	1086.06
885.85	1088.96
886.16	1087.37
886.47	1086.45
886.78	1083.34
887.08	1082.69
887.39	1084.07
887.70	1084.58
888.01	1084.28
888.32	1083.74
888.63	1085.84
888.94	1083.88
889.25	1084.70
889.56	1084.67
889.87	1088.93
890.17	1089.96
890.48	1092.16
890.79	1092.40
891.10	1092.56
891.41	1088.79
891.72	1085.61
892.03	1083.79
892.34	1081.63
892.64	1080.98
892.95	1085.70
893.26	1088.09
893.57	1087.32
893.88	1088.44
894.18	1088.79
894.49	1087.95
894.80	1087.34
895.11	1086.41
895.42	1088.70
895.72	1086.36
896.03	1084.44
896.34	1083.41
896.65	1085.35
896.96	1080.44
897.26	1083.32
897.57	1083.69
897.88	1083.62
898.19	1080.04
898.49	1083.90
898.80	1083.88
899.11	1084.44
899.41	1085.24
899.72	1086.01
900.03	1083.57
900.34	1082.03
900.64	1084.60
900.95	1086.69
901.26	1088.44
901.56	1090.43
901.87	1087.69
902.18	1086.27
902.48	1081.35
902.79	1079.71
903.10	1080.34
903.40	1080.06
903.71	1074.77
904.02	1076.93
904.32	1077.75
904.63	1076.41
904.94	1079.03
905.24	1085.24
905.55	1084.91
905.85	1083.81
906.16	1083.46
906.47	1083.60
906.77	1077.86
907.08	1077.51
907.38	1081.49
907.69	1082.45
908.00	1083.34
908.30	1086.31
908.61	1083.18
908.91	1081.89
909.22	1082.66
909.52	1078.19
909.83	1079.08
910.14	1085.07
910.44	1086.97
910.75	1086.20
911.05	1090.85
911.36	1090.92
911.66	1092.16
911.97	1087.25
912.27	1084.07
912.58	1082.73
912.88	1079.95
913.19	1074.66
913.49	1078.82
913.80	1080.93
914.10	1081.84
914.41	1084.58
914.71	1087.55
915.01	1085.70
915.32	1087.16
915.62	1087.25
915.93	1085.99
916.23	1083.48
916.54	1083.76
916.84	1080.11
917.15	1079.95
917.45	1082.76
917.75	1082.33
918.06	1083.81
918.36	1087.39
918.67	1085.56
918.97	1083.74
919.27	1086.78
919.58	1083.20
919.88	1083.06
920.18	1085.00
920.49	1083.55
920.79	1082.29
921.10	1083.69
921.40	1083.29
921.70	1082.87
922.01	1085.24
922.31	1084.65
922.61	1087.23
922.92	1086.27
923.22	1085.77
923.52	1083.81
923.82	1083.95
924.13	1084.44
924.43	1085.19
924.73	1086.55
925.04	1086.52
925.34	1086.45
925.64	1082.33
925.94	1081.87
926.25	1082.19
926.55	1082.92
926.85	1081.42
927.15	1081.35
927.46	1080.27
927.76	1078.54
928.06	1080.16
928.36	1082.45
928.67	1085.28
928.97	1087.20
929.27	1087.48
929.57	1086.66
929.87	1086.22
930.18	1084.70
930.48	1084.79
930.78	1084.91
931.08	1085.14
931.38	1084.67
931.69	1085.54
931.99	1082.57
932.29	1083.39
932.59	1081.51
932.89	1081.21
933.19	1082.85
933.49	1083.55
933.80	1085.47
934.10	1084.91
934.40	1084.58
934.70	1080.58
935.00	1083.79
935.30	1083.71
935.60	1086.38
935.90	1087.25
936.20	1090.55
936.50	1089.78
936.81	1087.48
937.11	1087.93
937.41	1087.48
937.71	1085.77
938.01	1086.24
938.31	1086.52
938.61	1085.10
938.91	1084.09
939.21	1082.61
939.51	1079.27
939.81	1078.78
940.11	1073.81
940.41	1073.51
940.71	1074.07
941.01	1074.73
941.31	1073.49
941.61	1081.82
941.91	1082.01
942.21	1081.54
942.51	1083.71
942.81	1084.77
943.11	1081.58
943.41	1084.84
943.71	1084.89
944.01	1082.52
944.31	1077.35
944.61	1077.54
944.90	1074.73
945.20	1076.58
945.50	1080.11
945.80	1082.40
946.10	1080.02
946.40	1080.56
946.70	1077.96
947.00	1077.61
947.30	1081.23
947.60	1083.67
947.89	1086.24
948.19	1086.90
948.49	1086.08
948.79	1084.81
949.09	1083.39
949.39	1084.63
949.69	1086.92
949.98	1086.71
950.28	1088.79
950.58	1087.46
950.88	1082.90
951.18	1080.88
951.48	1080.74
951.77	1080.16
952.07	1080.27
952.37	1079.81
952.67	1082.47
952.97	1081.82
953.26	1081.51
953.56	1083.01
953.86	1082.85
954.16	1079.83
954.45	1079.48
954.75	1076.90
955.05	1077.68
955.35	1080.48
955.64	1082.71
955.94	1086.08
956.24	1089.38
956.54	1086.52
956.83	1081.84
957.13	1081.75
957.43	1081.09
957.72	1079.99
958.02	1083.29
958.32	1086.50
958.61	1085.14
958.91	1081.30
959.21	1082.05
959.50	1084.09
959.80	1084.46
960.10	1082.66
960.39	1083.15
960.69	1079.92
960.99	1077.93
961.28	1074.38
961.58	1077.54
961.87	1079.83
962.17	1082.47
962.47	1082.92
962.76	1086.52
963.06	1086.66
963.36	1090.15
963.65	1086.99
963.95	1087.72
964.24	1089.54
964.54	1089.54
964.83	1086.13
965.13	1087.62
965.42	1085.10
965.72	1084.44
966.02	1085.31
966.31	1087.65
966.61	1088.63
966.90	1088.75
967.20	1087.65
967.49	1086.90
967.79	1082.31
968.08	1080.41
968.38	1080.34
968.67	1083.11
968.97	1081.82
969.26	1083.15
969.56	1084.42
969.85	1084.11
970.15	1080.25
970.44	1079.27
970.74	1078.45
971.03	1081.42
971.32	1079.03
971.62	1083.13
971.91	1084.00
972.21	1084.70
972.50	1083.43
972.80	1088.77
973.09	1087.13
973.38	1089.92
973.68	1087.88
973.97	1084.93
974.27	1083.60
974.56	1082.10
974.85	1078.31
975.15	1081.42
975.44	1083.57
975.73	1082.61
976.03	1082.73
976.32	1084.44
976.61	1079.78
976.91	1077.84
977.20	1077.04
977.49	1076.41
977.79	1077.84
978.08	1077.79
978.37	1078.80
978.67	1078.43
978.96	1080.32
979.25	1080.51
979.55	1083.01
979.84	1084.58
980.13	1085.52
980.42	1082.52
980.72	1081.73
981.01	1081.51
981.30	1083.57
981.59	1082.29
981.89	1082.54
982.18	1080.53
982.47	1081.19
982.76	1079.85
983.06	1083.01
983.35	1084.56
983.64	1085.40
983.93	1085.59
984.22	1084.04
984.52	1081.89
984.81	1080.06
985.10	1080.74
985.39	1080.51
985.68	1078.33
985.97	1077.28
986.27	1079.67
986.56	1077.54
986.85	1075.24
987.14	1076.93
987.43	1076.48
987.72	1076.76
988.01	1079.01
988.31	1083.34
988.60	1083.97
988.89	1089.43
989.18	1089.47
989.47	1088.56
989.76	1090.20
990.05	1088.75
990.34	1086.15
990.63	1085.07
990.92	1086.15
991.21	1082.66
991.51	1083.81
991.80	1081.35
992.09	1078.64
992.38	1078.47
992.67	1079.74
992.96	1076.44
993.25	1075.97
993.54	1077.33
993.83	1077.75
994.12	1073.51
994.41	1077.44
994.70	1078.19
994.99	1081.44
995.28	1079.34
995.57	1083.93
995.86	1083.67
996.15	1082.87
996.44	1080.25
996.73	1080.65
997.02	1076.53
997.31	1076.23
997.59	1078.33
997.88	1079.88
998.17	1081.44
998.46	1087.53
998.75	1085.89
999.04	1084.72
999.33	1083.43
999.62	1080.86
999.91	1077.79
1000.20	1077.89
1000.49	1079.08
1000.77	1079.31
1001.06	1081.05
1001.35	1081.73
1001.64	1083.86
1001.93	1082.36
1002.22	1083.60
1002.51	1084.58
1002.79	1084.56
1003.08	1085.75
1003.37	1083.64
1003.66	1083.69
1003.95	1081.84
1004.23	1082.19
1004.52	1082.01
1004.81	1088.28
1005.10	1085.42
1005.39	1087.65
1005.67	1089.14
1005.96	1089.03
1006.25	1087.37
1006.54	1089.50
1006.83	1087.44
1007.11	1083.15
1007.40	1080.56
1007.69	1078.64
1007.97	1077.44
1008.26	1078.61
1008.55	1081.02
1008.84	1081.23
1009.12	1080.41
1009.41	1081.94
1009.70	1080.18
1009.98	1077.37
1010.27	1077.14
1010.56	1078.54
1010.85	1077.51
1011.13	1078.12
1011.42	1081.91
1011.71	1083.46
1011.99	1083.57
1012.28	1084.84
1012.56	1082.40
1012.85	1078.73
1013.14	1078.80
1013.42	1078.54
1013.71	1078.12
1014.00	1078.07
1014.28	1080.70
1014.57	1081.35
1014.85	1081.40
1015.14	1081.80
1015.43	1085.40
1015.71	1083.90
1016.00	1083.67
1016.28	1085.54
1016.57	1084.25
1016.85	1082.57
1017.14	1084.58
1017.43	1087.06
1017.71	1084.70
1018.00	1085.61
1018.28	1087.83
1018.57	1086.66
1018.85	1083.32
1019.14	1083.48
1019.42	1080.91
1019.71	1079.08
1019.99	1078.47
1020.28	1080.48
1020.56	1083.90
1020.85	1086.08
1021.13	1086.66
1021.42	1084.89
1021.70	1083.60
1021.99	1080.67
1022.27	1079.62
1022.55	1082.03
1022.84	1076.76
>>>>>End Processed Spectral Data<<<<<
