SpectraSuite Data File
++++++++++++++++++++++++++++++++++++
Date: Mon Aug 26 10:26:51 PDT 2019
User: corrico
Dark Spectrum Present: No
Reference Spectrum Present: No
Number of Sampled Component Spectra: 1
Spectrometers: USB2+H06089
Integration Time (usec): 10000 (USB2+H06089)
Spectra Averaged: 20 (USB2+H06089)
Boxcar Smoothing: 2 (USB2+H06089)
Correct for Electrical Dark: No (USB2+H06089)
Strobe/Lamp Enabled: No (USB2+H06089)
Correct for Detector Non-linearity: No (USB2+H06089)
Correct for Stray Light: No (USB2+H06089)
Number of Pixels in Processed Spectrum: 2048
>>>>>Begin Processed Spectral Data<<<<<
339.70	1025.97
340.07	1025.97
340.45	993.74
340.82	973.97
341.19	952.93
341.57	930.74
341.94	920.28
342.31	916.74
342.69	914.21
343.06	909.06
343.43	906.21
343.81	906.68
344.18	907.36
344.55	912.48
344.93	920.98
345.30	925.68
345.67	932.09
346.04	937.17
346.42	941.32
346.79	945.18
347.16	954.00
347.54	964.04
347.91	972.98
348.28	980.94
348.65	993.56
349.03	1004.23
349.40	1011.16
349.77	1022.14
350.14	1036.48
350.52	1041.77
350.89	1047.74
351.26	1052.94
351.63	1058.53
352.01	1057.48
352.38	1060.82
352.75	1068.06
353.12	1073.42
353.50	1074.40
353.87	1077.49
354.24	1080.18
354.61	1083.76
354.98	1087.20
355.36	1088.61
355.73	1087.53
356.10	1087.88
356.47	1083.43
356.84	1081.16
357.22	1083.53
357.59	1088.84
357.96	1095.21
358.33	1096.28
358.70	1096.38
359.08	1096.31
359.45	1093.17
359.82	1089.05
360.19	1086.85
360.56	1085.59
360.94	1085.68
361.31	1084.44
361.68	1083.08
362.05	1082.43
362.42	1085.12
362.79	1083.71
363.16	1084.74
363.54	1085.03
363.91	1087.16
364.28	1085.14
364.65	1084.53
365.02	1083.11
365.39	1085.19
365.76	1085.07
366.14	1086.85
366.51	1085.80
366.88	1085.40
367.25	1081.63
367.62	1079.53
367.99	1076.76
368.36	1078.14
368.73	1078.26
369.10	1075.43
369.48	1075.66
369.85	1077.72
370.22	1075.22
370.59	1076.95
370.96	1079.08
371.33	1073.81
371.70	1068.57
372.07	1069.06
372.44	1066.18
372.81	1068.85
373.18	1076.01
373.55	1078.82
373.93	1082.78
374.30	1087.04
374.67	1085.87
375.04	1084.37
375.41	1085.66
375.78	1085.49
376.15	1083.83
376.52	1085.38
376.89	1087.18
377.26	1085.21
377.63	1082.57
378.00	1083.50
378.37	1081.75
378.74	1081.12
379.11	1081.80
379.48	1080.63
379.85	1081.14
380.22	1082.15
380.59	1083.36
380.96	1083.39
381.33	1088.21
381.70	1086.08
382.07	1086.64
382.44	1085.47
382.81	1089.89
383.18	1084.49
383.55	1085.19
383.92	1085.14
384.29	1083.48
384.66	1076.60
385.03	1077.04
385.40	1078.28
385.77	1077.44
386.14	1079.64
386.51	1081.96
386.88	1088.33
387.25	1088.23
387.62	1089.59
387.99	1091.39
388.36	1093.99
388.73	1090.50
389.10	1090.55
389.46	1090.08
389.83	1088.77
390.20	1090.53
390.57	1091.46
390.94	1091.58
391.31	1093.15
391.68	1094.25
392.05	1092.94
392.42	1092.49
392.79	1092.94
393.16	1090.46
393.53	1088.84
393.89	1086.34
394.26	1084.93
394.63	1084.81
395.00	1086.13
395.37	1088.37
395.74	1091.88
396.11	1092.63
396.48	1093.40
396.84	1094.69
397.21	1092.19
397.58	1090.85
397.95	1092.61
398.32	1091.84
398.69	1090.85
399.06	1092.19
399.42	1095.21
399.79	1095.09
400.16	1095.75
400.53	1095.07
400.90	1096.73
401.27	1096.10
401.64	1097.03
402.00	1098.30
402.37	1099.58
402.74	1098.65
403.11	1097.34
403.48	1096.89
403.84	1095.30
404.21	1095.18
404.58	1094.32
404.95	1094.57
405.32	1095.16
405.68	1094.34
406.05	1091.56
406.42	1092.87
406.79	1090.78
407.16	1090.60
407.52	1090.88
407.89	1096.96
408.26	1099.28
408.63	1105.15
408.99	1108.52
409.36	1111.40
409.73	1113.58
410.10	1111.43
410.47	1108.59
410.83	1105.65
411.20	1104.90
411.57	1102.86
411.94	1099.96
412.30	1098.79
412.67	1099.00
413.04	1099.63
413.40	1099.49
413.77	1104.19
414.14	1106.28
414.51	1106.35
414.87	1104.48
415.24	1103.40
415.61	1103.96
415.97	1104.08
416.34	1103.49
416.71	1108.22
417.08	1108.71
417.44	1108.01
417.81	1109.72
418.18	1108.50
418.54	1105.46
418.91	1105.90
419.28	1108.38
419.64	1107.49
420.01	1109.62
420.38	1109.13
420.74	1111.73
421.11	1112.53
421.48	1115.05
421.84	1115.78
422.21	1117.51
422.58	1114.17
422.94	1106.65
423.31	1101.92
423.68	1103.40
424.04	1101.99
424.41	1104.80
424.77	1111.24
425.14	1117.04
425.51	1118.99
425.87	1121.80
426.24	1119.13
426.61	1116.13
426.97	1113.84
427.34	1113.32
427.70	1113.37
428.07	1116.27
428.44	1118.71
428.80	1117.23
429.17	1116.60
429.53	1115.69
429.90	1112.55
430.27	1110.91
430.63	1110.14
431.00	1109.55
431.36	1110.58
431.73	1113.51
432.09	1115.99
432.46	1119.69
432.83	1119.17
433.19	1118.45
433.56	1118.71
433.92	1116.51
434.29	1112.27
434.65	1112.36
435.02	1113.44
435.38	1112.46
435.75	1113.35
436.11	1118.03
436.48	1117.68
436.84	1115.27
437.21	1116.48
437.57	1118.31
437.94	1117.47
438.30	1116.65
438.67	1120.04
439.03	1123.69
439.40	1122.38
439.76	1121.26
440.13	1121.61
440.49	1118.00
440.86	1111.31
441.22	1111.47
441.59	1109.67
441.95	1105.74
442.32	1107.38
442.68	1110.00
443.05	1108.66
443.41	1112.41
443.78	1117.98
444.14	1118.17
444.51	1118.47
444.87	1119.85
445.24	1121.05
445.60	1120.88
445.96	1116.88
446.33	1113.42
446.69	1111.31
447.06	1109.79
447.42	1108.24
447.79	1113.35
448.15	1118.14
448.51	1119.08
448.88	1114.75
449.24	1116.06
449.61	1114.45
449.97	1114.98
450.33	1117.89
450.70	1121.96
451.06	1121.98
451.43	1120.06
451.79	1114.54
452.15	1114.59
452.52	1112.60
452.88	1111.75
453.24	1112.92
453.61	1114.87
453.97	1110.89
454.34	1110.87
454.70	1110.07
455.06	1108.81
455.43	1110.61
455.79	1111.40
456.15	1109.37
456.52	1111.61
456.88	1113.86
457.24	1111.85
457.61	1111.08
457.97	1110.79
458.33	1110.40
458.70	1109.51
459.06	1110.40
459.42	1112.29
459.79	1115.10
460.15	1113.63
460.51	1111.68
460.88	1110.58
461.24	1108.99
461.60	1108.66
461.96	1109.58
462.33	1111.99
462.69	1112.60
463.05	1115.45
463.42	1118.24
463.78	1119.48
464.14	1121.49
464.50	1126.50
464.87	1124.60
465.23	1127.01
465.59	1124.51
465.95	1124.81
466.32	1122.50
466.68	1126.73
467.04	1125.03
467.40	1128.65
467.77	1128.96
468.13	1129.99
468.49	1131.81
468.85	1132.84
469.22	1134.11
469.58	1135.49
469.94	1137.50
470.30	1135.67
470.66	1137.22
471.03	1139.72
471.39	1144.26
471.75	1146.37
472.11	1148.36
472.47	1149.93
472.84	1152.88
473.20	1152.69
473.56	1156.76
473.92	1163.06
474.28	1167.04
474.65	1169.47
475.01	1176.26
475.37	1177.13
475.73	1177.92
476.09	1182.81
476.45	1190.54
476.81	1193.23
477.18	1197.54
477.54	1203.20
477.90	1209.78
478.26	1212.77
478.62	1219.23
478.98	1226.84
479.34	1233.95
479.71	1240.67
480.07	1249.89
480.43	1260.99
480.79	1272.15
481.15	1280.93
481.51	1288.77
481.87	1295.74
482.23	1301.55
482.59	1311.14
482.96	1323.74
483.32	1340.75
483.68	1359.59
484.04	1376.02
484.40	1391.75
484.76	1409.47
485.12	1427.40
485.48	1442.47
485.84	1461.73
486.20	1487.22
486.56	1510.25
486.92	1535.37
487.28	1560.29
487.64	1583.63
488.00	1606.19
488.37	1637.70
488.73	1662.11
489.09	1697.15
489.45	1736.63
489.81	1773.66
490.17	1811.57
490.53	1853.61
490.89	1890.71
491.25	1928.11
491.61	1975.88
491.97	2020.14
492.33	2073.43
492.69	2126.12
493.05	2183.16
493.41	2236.78
493.77	2300.79
494.13	2361.83
494.49	2430.39
494.85	2504.96
495.21	2579.90
495.57	2655.64
495.93	2737.98
496.29	2823.95
496.64	2914.81
497.00	3006.09
497.36	3101.72
497.72	3199.33
498.08	3309.26
498.44	3421.14
498.80	3543.92
499.16	3677.75
499.52	3816.06
499.88	3971.44
500.24	4132.80
500.60	4289.80
500.96	4451.49
501.32	4624.27
501.68	4785.74
502.03	4965.28
502.39	5168.72
502.75	5375.30
503.11	5600.86
503.47	5832.57
503.83	6074.95
504.19	6324.62
504.55	6597.34
504.91	6875.79
505.26	7159.96
505.62	7457.16
505.98	7770.88
506.34	8100.85
506.70	8460.33
507.06	8845.61
507.42	9240.58
507.78	9657.73
508.13	10076.71
508.49	10502.59
508.85	10966.84
509.21	11459.59
509.57	11974.93
509.93	12526.15
510.28	13115.15
510.64	13724.15
511.00	14319.37
511.36	14900.22
511.72	15485.19
512.07	16116.65
512.43	16727.13
512.79	17402.77
513.15	18131.47
513.51	18875.20
513.86	19619.68
514.22	20447.32
514.58	21249.12
514.94	22079.47
515.30	22932.03
515.65	23735.63
516.01	24549.88
516.37	25373.96
516.73	26131.71
517.08	26991.10
517.44	27832.36
517.80	28646.21
518.16	29497.61
518.51	30328.54
518.87	31056.26
519.23	31917.84
519.59	32778.45
519.94	33582.08
520.30	34477.85
520.66	35252.99
521.01	36045.75
521.37	36721.95
521.73	37371.08
522.09	37941.65
522.44	38583.31
522.80	38982.68
523.16	39335.49
523.51	39586.46
523.87	39876.88
524.23	40127.57
524.58	40381.01
524.94	40771.85
525.30	41109.73
525.65	41284.64
526.01	41337.61
526.37	41352.35
526.72	41268.56
527.08	41158.98
527.44	40983.11
527.79	40836.71
528.15	40725.06
528.51	40494.01
528.86	40240.18
529.22	40029.20
529.58	39763.29
529.93	39379.65
530.29	38937.55
530.65	38591.17
531.00	38217.18
531.36	37769.51
531.71	37315.49
532.07	36861.03
532.43	36268.15
532.78	35613.03
533.14	35069.28
533.49	34529.50
533.85	33913.87
534.21	33294.10
534.56	32749.01
534.92	32130.83
535.27	31494.39
535.63	30902.98
535.98	30326.46
536.34	29694.89
536.69	29053.37
537.05	28430.60
537.41	27890.88
537.76	27374.09
538.12	26844.38
538.47	26383.99
538.83	25932.15
539.18	25477.25
539.54	25008.11
539.89	24558.80
540.25	24035.31
540.60	23565.40
540.96	23064.29
541.31	22587.55
541.67	22172.92
542.02	21775.74
542.38	21331.41
542.73	20893.75
543.09	20498.67
543.44	20119.90
543.80	19785.32
544.15	19402.20
544.51	19078.27
544.86	18763.35
545.22	18401.36
545.57	18024.35
545.93	17673.78
546.28	17349.57
546.64	17028.61
546.99	16684.72
547.35	16362.94
547.70	16067.99
548.05	15761.21
548.41	15443.11
548.76	15149.14
549.12	14847.75
549.47	14560.66
549.83	14291.94
550.18	13976.27
550.53	13659.13
550.89	13387.82
551.24	13125.79
551.60	12827.84
551.95	12596.46
552.30	12366.95
552.66	12136.68
553.01	11898.77
553.37	11628.62
553.72	11333.74
554.07	11063.20
554.43	10769.09
554.78	10477.13
555.13	10226.25
555.49	10005.95
555.84	9808.32
556.19	9626.58
556.55	9430.44
556.90	9233.90
557.26	9025.01
557.61	8798.33
557.96	8549.09
558.32	8349.00
558.67	8154.87
559.02	7942.00
559.37	7766.53
559.73	7625.58
560.08	7465.00
560.43	7302.68
560.79	7180.93
561.14	7029.64
561.49	6865.96
561.85	6711.35
562.20	6569.49
562.55	6430.88
562.90	6300.04
563.26	6181.66
563.61	6069.43
563.96	5955.77
564.32	5841.63
564.67	5720.55
565.02	5592.52
565.37	5478.14
565.73	5368.42
566.08	5253.54
566.43	5150.49
566.78	5047.53
567.14	4933.97
567.49	4823.52
567.84	4726.29
568.19	4626.00
568.54	4532.42
568.90	4452.75
569.25	4376.68
569.60	4302.44
569.95	4226.54
570.31	4154.71
570.66	4077.38
571.01	3983.59
571.36	3890.25
571.71	3815.54
572.06	3743.90
572.42	3678.20
572.77	3632.58
573.12	3583.83
573.47	3532.36
573.82	3472.79
574.18	3407.35
574.53	3344.79
574.88	3288.76
575.23	3229.12
575.58	3179.36
575.93	3138.99
576.28	3086.30
576.64	3025.70
576.99	2967.31
577.34	2908.77
577.69	2847.19
578.04	2795.65
578.39	2753.66
578.74	2718.72
579.09	2682.96
579.44	2645.74
579.80	2607.36
580.15	2566.73
580.50	2523.59
580.85	2481.48
581.20	2448.11
581.55	2417.61
581.90	2391.35
582.25	2362.63
582.60	2331.15
582.95	2296.70
583.30	2259.74
583.65	2222.92
584.00	2184.33
584.35	2156.29
584.71	2121.91
585.06	2096.14
585.41	2065.50
585.76	2041.93
586.11	2013.05
586.46	1992.01
586.81	1963.87
587.16	1941.57
587.51	1923.94
587.86	1906.13
588.21	1887.99
588.56	1869.50
588.91	1853.38
589.26	1832.10
589.61	1811.69
589.96	1796.01
590.31	1778.41
590.66	1761.74
591.01	1743.35
591.36	1725.14
591.71	1702.46
592.06	1689.47
592.41	1673.81
592.76	1660.84
593.10	1649.82
593.45	1638.19
593.80	1619.74
594.15	1600.20
594.50	1587.23
594.85	1573.19
595.20	1561.63
595.55	1554.21
595.90	1550.56
596.25	1535.81
596.60	1523.22
596.95	1509.46
597.30	1499.30
597.64	1535.60
597.99	1532.56
598.34	1525.89
598.69	1518.49
599.04	1509.29
599.39	1450.08
599.74	1439.36
600.09	1430.98
600.44	1423.21
600.78	1412.89
601.13	1407.74
601.48	1398.35
601.83	1391.87
602.18	1386.56
602.53	1382.65
602.88	1373.33
603.22	1369.21
603.57	1361.65
603.92	1355.36
604.27	1349.23
604.62	1342.84
604.97	1334.62
605.31	1326.12
605.66	1317.35
606.01	1309.58
606.36	1308.10
606.71	1303.26
607.05	1298.20
607.40	1292.68
607.75	1286.69
608.10	1277.16
608.44	1272.71
608.79	1273.18
609.14	1268.87
609.49	1265.81
609.84	1265.25
610.18	1261.76
610.53	1257.13
610.88	1259.75
611.23	1256.96
611.57	1257.05
611.92	1250.99
612.27	1249.61
612.62	1242.75
612.96	1236.18
613.31	1228.50
613.66	1226.11
614.00	1217.66
614.35	1215.28
614.70	1213.66
615.05	1212.35
615.39	1211.72
615.74	1209.24
616.09	1205.24
616.43	1202.08
616.78	1197.84
617.13	1193.98
617.47	1193.09
617.82	1191.19
618.17	1191.54
618.51	1188.03
618.86	1186.25
619.21	1183.30
619.55	1178.65
619.90	1176.17
620.25	1173.36
620.59	1171.48
620.94	1171.04
621.29	1173.76
621.63	1168.00
621.98	1167.04
622.32	1163.36
622.67	1160.16
623.02	1155.34
623.36	1158.82
623.71	1158.07
624.05	1157.37
624.40	1157.30
624.75	1153.23
625.09	1150.49
625.44	1147.03
625.78	1145.97
626.13	1144.76
626.48	1146.04
626.82	1142.51
627.17	1143.66
627.51	1142.74
627.86	1140.75
628.20	1140.80
628.55	1143.47
628.89	1142.53
629.24	1139.65
629.58	1136.54
629.93	1134.67
630.28	1132.80
630.62	1130.06
630.97	1129.82
631.31	1132.21
631.66	1128.89
632.00	1128.40
632.35	1126.92
632.69	1126.59
633.04	1122.68
633.38	1125.05
633.73	1125.24
634.07	1127.48
634.42	1124.56
634.76	1127.13
635.11	1125.68
635.45	1121.75
635.79	1121.19
636.14	1122.90
636.48	1121.05
636.83	1118.85
637.17	1120.32
637.52	1119.34
637.86	1116.15
638.21	1113.35
638.55	1117.93
638.89	1117.98
639.24	1115.76
639.58	1117.61
639.93	1119.67
640.27	1117.25
640.61	1115.43
640.96	1114.24
641.30	1110.65
641.65	1109.04
641.99	1106.72
642.33	1105.27
642.68	1103.68
643.02	1102.06
643.37	1100.38
643.71	1098.98
644.05	1100.52
644.40	1100.31
644.74	1102.28
645.08	1100.73
645.43	1099.72
645.77	1096.59
646.11	1098.55
646.46	1095.51
646.80	1097.55
647.14	1099.47
647.49	1099.05
647.83	1098.48
648.17	1102.49
648.52	1103.40
648.86	1103.70
649.20	1106.72
649.55	1108.27
649.89	1106.63
650.23	1101.85
650.57	1101.22
650.92	1100.45
651.26	1099.37
651.60	1099.72
651.95	1100.54
652.29	1101.95
652.63	1100.50
652.97	1098.53
653.32	1100.29
653.66	1103.00
654.00	1101.39
654.34	1100.47
654.69	1098.13
655.03	1096.00
655.37	1095.44
655.71	1094.83
656.05	1095.84
656.40	1099.58
656.74	1101.06
657.08	1100.19
657.42	1102.49
657.76	1100.19
658.11	1097.92
658.45	1096.24
658.79	1098.04
659.13	1094.97
659.47	1096.99
659.82	1098.18
660.16	1097.55
660.50	1098.46
660.84	1098.20
661.18	1099.91
661.52	1098.25
661.87	1100.19
662.21	1096.26
662.55	1095.49
662.89	1093.33
663.23	1095.63
663.57	1093.05
663.91	1095.30
664.25	1097.17
664.60	1099.56
664.94	1097.41
665.28	1098.32
665.62	1097.76
665.96	1096.26
666.30	1092.63
666.64	1093.87
666.98	1094.18
667.32	1091.93
667.66	1091.91
668.01	1093.29
668.35	1092.52
668.69	1091.79
669.03	1095.86
669.37	1096.80
669.71	1098.76
670.05	1098.37
670.39	1099.77
670.73	1097.15
671.07	1094.55
671.41	1093.26
671.75	1093.26
672.09	1090.46
672.43	1090.41
672.77	1095.14
673.11	1095.44
673.45	1098.58
673.79	1100.47
674.13	1100.24
674.47	1096.92
674.81	1093.97
675.15	1091.42
675.49	1094.36
675.83	1095.30
676.17	1093.80
676.51	1095.56
676.85	1094.13
677.19	1090.76
677.53	1091.63
677.87	1093.52
678.21	1093.43
678.55	1092.87
678.89	1096.40
679.23	1093.83
679.57	1092.91
679.90	1091.77
680.24	1095.25
680.58	1090.85
680.92	1088.72
681.26	1090.01
681.60	1090.60
681.94	1089.50
682.28	1088.04
682.62	1093.97
682.96	1091.44
683.29	1092.07
683.63	1092.61
683.97	1094.43
684.31	1092.02
684.65	1093.62
684.99	1090.67
685.33	1090.29
685.67	1090.34
686.00	1091.37
686.34	1089.92
686.68	1092.30
687.02	1090.67
687.36	1091.49
687.70	1088.84
688.03	1091.11
688.37	1092.37
688.71	1094.15
689.05	1094.74
689.39	1094.20
689.72	1093.69
690.06	1092.14
690.40	1092.28
690.74	1091.20
691.08	1092.68
691.41	1093.55
691.75	1092.70
692.09	1093.40
692.43	1093.33
692.76	1092.37
693.10	1093.80
693.44	1094.67
693.78	1094.25
694.11	1092.91
694.45	1092.35
694.79	1091.95
695.13	1093.10
695.46	1090.53
695.80	1095.51
696.14	1096.78
696.48	1096.31
696.81	1095.46
697.15	1097.50
697.49	1094.27
697.82	1094.41
698.16	1092.37
698.50	1091.77
698.83	1091.27
699.17	1091.27
699.51	1090.55
699.84	1089.59
700.18	1090.78
700.52	1089.82
700.85	1089.71
701.19	1091.23
701.53	1091.72
701.86	1091.11
702.20	1090.76
702.54	1086.17
702.87	1084.46
703.21	1085.42
703.55	1084.39
703.88	1084.51
704.22	1089.59
704.55	1089.31
704.89	1091.51
705.23	1093.59
705.56	1093.08
705.90	1092.91
706.23	1091.79
706.57	1090.29
706.91	1087.60
707.24	1088.02
707.58	1089.59
707.91	1090.03
708.25	1088.51
708.58	1090.78
708.92	1091.16
709.26	1090.32
709.59	1096.24
709.93	1096.28
710.26	1094.62
710.60	1092.84
710.93	1092.70
711.27	1088.68
711.60	1089.19
711.94	1088.37
712.27	1089.52
712.61	1089.96
712.94	1089.87
713.28	1092.63
713.61	1096.96
713.95	1095.98
714.28	1095.23
714.62	1094.20
714.95	1091.49
715.29	1088.86
715.62	1090.53
715.96	1089.96
716.29	1087.18
716.63	1085.45
716.96	1084.21
717.29	1084.67
717.63	1084.65
717.96	1086.90
718.30	1088.96
718.63	1090.10
718.97	1087.55
719.30	1087.76
719.63	1091.77
719.97	1093.47
720.30	1093.92
720.64	1096.17
720.97	1096.21
721.30	1092.37
721.64	1090.69
721.97	1091.39
722.31	1093.15
722.64	1092.16
722.97	1092.80
723.31	1091.39
723.64	1090.06
723.97	1089.05
724.31	1088.72
724.64	1086.71
724.98	1086.83
725.31	1086.22
725.64	1087.20
725.98	1088.82
726.31	1091.84
726.64	1092.09
726.97	1092.28
727.31	1085.40
727.64	1079.99
727.97	1078.64
728.31	1075.90
728.64	1074.59
728.97	1076.69
729.31	1079.46
729.64	1079.64
729.97	1078.92
730.30	1081.28
730.64	1087.25
730.97	1086.94
731.30	1085.14
731.63	1091.16
731.97	1088.84
732.30	1088.12
732.63	1090.29
732.96	1092.98
733.30	1092.89
733.63	1094.65
733.96	1093.08
734.29	1091.16
734.63	1089.26
734.96	1086.66
735.29	1085.42
735.62	1082.92
735.95	1087.30
736.29	1088.21
736.62	1089.19
736.95	1087.53
737.28	1088.23
737.61	1083.95
737.94	1083.79
738.28	1084.00
738.61	1084.28
738.94	1082.66
739.27	1085.99
739.60	1088.51
739.93	1089.52
740.27	1091.77
740.60	1093.43
740.93	1088.49
741.26	1087.41
741.59	1090.17
741.92	1089.10
742.25	1088.16
742.58	1091.56
742.91	1088.37
743.25	1081.70
743.58	1082.92
743.91	1083.88
744.24	1081.63
744.57	1085.96
744.90	1087.76
745.23	1084.91
745.56	1082.22
745.89	1084.04
746.22	1079.76
746.55	1079.85
746.88	1079.53
747.21	1082.36
747.54	1081.94
747.87	1084.67
748.20	1084.04
748.53	1085.66
748.87	1087.44
749.20	1088.63
749.53	1089.43
749.86	1088.42
750.19	1089.78
750.52	1087.90
750.85	1088.09
751.18	1083.69
751.51	1085.38
751.84	1084.14
752.16	1084.49
752.49	1081.51
752.82	1083.04
753.15	1083.04
753.48	1082.80
753.81	1080.46
754.14	1081.30
754.47	1082.22
754.80	1082.05
755.13	1081.84
755.46	1083.32
755.79	1084.72
756.12	1085.82
756.45	1088.56
756.78	1087.60
757.11	1085.66
757.43	1083.32
757.76	1082.12
758.09	1079.29
758.42	1079.60
758.75	1083.36
759.08	1082.10
759.41	1083.22
759.74	1082.85
760.07	1083.25
760.39	1083.27
760.72	1088.79
761.05	1085.91
761.38	1088.70
761.71	1091.16
762.04	1088.37
762.36	1085.56
762.69	1088.91
763.02	1087.44
763.35	1087.13
763.68	1090.83
764.01	1091.37
764.33	1090.64
764.66	1091.02
764.99	1089.40
765.32	1087.74
765.65	1089.24
765.97	1086.55
766.30	1086.50
766.63	1086.45
766.96	1088.91
767.28	1087.90
767.61	1090.48
767.94	1089.40
768.27	1087.27
768.59	1085.14
768.92	1084.74
769.25	1085.26
769.58	1085.59
769.90	1090.78
770.23	1089.10
770.56	1087.76
770.89	1088.21
771.21	1087.74
771.54	1085.59
771.87	1087.23
772.19	1085.82
772.52	1085.47
772.85	1088.28
773.17	1086.50
773.50	1086.10
773.83	1088.68
774.15	1087.51
774.48	1082.71
774.81	1084.79
775.13	1082.57
775.46	1081.16
775.79	1083.53
776.11	1084.67
776.44	1083.76
776.77	1086.69
777.09	1088.77
777.42	1086.97
777.74	1087.69
778.07	1087.23
778.40	1087.11
778.72	1087.04
779.05	1087.34
779.37	1086.38
779.70	1087.04
780.03	1084.32
780.35	1083.34
780.68	1082.19
781.00	1084.46
781.33	1083.39
781.65	1085.31
781.98	1086.78
782.31	1086.50
782.63	1086.90
782.96	1087.32
783.28	1087.95
783.61	1086.62
783.93	1089.10
784.26	1088.09
784.58	1092.52
784.91	1093.03
785.23	1093.69
785.56	1092.30
785.88	1092.09
786.21	1088.56
786.53	1087.60
786.86	1086.36
787.18	1087.62
787.51	1088.82
787.83	1089.99
788.16	1090.83
788.48	1092.66
788.81	1091.86
789.13	1088.42
789.46	1087.11
789.78	1085.45
790.10	1087.58
790.43	1088.49
790.75	1092.66
791.08	1093.80
791.40	1091.65
791.73	1095.63
792.05	1095.32
792.37	1091.74
792.70	1091.37
793.02	1093.19
793.35	1084.18
793.67	1079.95
793.99	1082.19
794.32	1080.34
794.64	1083.06
794.96	1085.35
795.29	1088.63
795.61	1089.26
795.93	1093.15
796.26	1092.09
796.58	1091.70
796.91	1090.83
797.23	1090.69
797.55	1090.24
797.87	1089.12
798.20	1089.26
798.52	1090.15
798.84	1089.00
799.17	1086.29
799.49	1085.99
799.81	1085.96
800.14	1083.43
800.46	1083.20
800.78	1083.50
801.10	1084.37
801.43	1083.74
801.75	1082.90
802.07	1082.12
802.40	1083.04
802.72	1080.98
803.04	1083.18
803.36	1086.31
803.69	1088.23
804.01	1085.14
804.33	1088.16
804.65	1087.16
804.97	1086.36
805.30	1085.82
805.62	1087.83
805.94	1086.41
806.26	1086.59
806.58	1090.36
806.91	1088.16
807.23	1088.63
807.55	1088.89
807.87	1087.32
808.19	1083.74
808.52	1085.75
808.84	1087.11
809.16	1090.71
809.48	1090.48
809.80	1092.52
810.12	1090.08
810.44	1085.82
810.77	1080.53
811.09	1079.43
811.41	1076.41
811.73	1078.28
812.05	1079.78
812.37	1080.63
812.69	1082.92
813.01	1084.14
813.33	1082.73
813.66	1083.74
813.98	1085.73
814.30	1086.15
814.62	1086.10
814.94	1087.95
815.26	1088.21
815.58	1085.17
815.90	1084.30
816.22	1084.79
816.54	1084.84
816.86	1084.53
817.18	1086.76
817.50	1086.24
817.82	1087.48
818.14	1089.22
818.46	1091.49
818.78	1091.51
819.10	1093.36
819.42	1090.36
819.74	1088.14
820.06	1085.45
820.38	1085.40
820.70	1084.44
821.02	1082.29
821.34	1082.50
821.66	1083.76
821.98	1084.89
822.30	1084.39
822.62	1087.81
822.94	1090.43
823.26	1091.23
823.58	1089.75
823.90	1088.21
824.22	1089.54
824.54	1086.15
824.86	1084.44
825.18	1082.99
825.50	1083.55
825.81	1083.90
826.13	1084.86
826.45	1085.54
826.77	1086.10
827.09	1086.41
827.41	1084.00
827.73	1085.75
828.05	1085.21
828.36	1084.63
828.68	1082.73
829.00	1083.39
829.32	1083.11
829.64	1082.87
829.96	1082.90
830.28	1087.60
830.59	1089.07
830.91	1086.24
831.23	1087.93
831.55	1092.66
831.87	1091.93
832.19	1091.91
832.50	1092.94
832.82	1092.49
833.14	1090.22
833.46	1087.88
833.78	1085.26
834.09	1081.89
834.41	1080.51
834.73	1080.60
835.05	1082.66
835.36	1082.15
835.68	1081.89
836.00	1080.60
836.32	1079.55
836.63	1080.91
836.95	1082.83
837.27	1086.85
837.59	1085.89
837.90	1087.20
838.22	1087.65
838.54	1088.37
838.85	1089.29
839.17	1094.50
839.49	1094.83
839.80	1095.09
840.12	1094.69
840.44	1093.17
840.76	1090.62
841.07	1090.90
841.39	1087.69
841.71	1087.20
842.02	1088.51
842.34	1087.60
842.65	1086.27
842.97	1088.82
843.29	1088.35
843.60	1087.06
843.92	1088.98
844.24	1090.20
844.55	1088.47
844.87	1090.24
845.18	1091.09
845.50	1089.43
845.82	1085.40
846.13	1082.31
846.45	1080.41
846.76	1081.05
847.08	1081.26
847.40	1082.24
847.71	1085.45
848.03	1084.21
848.34	1080.72
848.66	1077.98
848.97	1077.98
849.29	1077.35
849.60	1078.80
849.92	1079.27
850.24	1082.03
850.55	1083.93
850.87	1081.87
851.18	1081.09
851.50	1082.15
851.81	1079.60
852.13	1081.77
852.44	1085.12
852.76	1087.06
853.07	1086.48
853.39	1087.86
853.70	1084.51
854.01	1082.57
854.33	1082.83
854.64	1081.94
854.96	1081.91
855.27	1080.91
855.59	1080.70
855.90	1080.70
856.22	1080.88
856.53	1082.43
856.84	1084.44
857.16	1084.35
857.47	1081.96
857.79	1085.91
858.10	1089.50
858.41	1090.13
858.73	1092.37
859.04	1092.23
859.36	1089.22
859.67	1088.30
859.98	1085.91
860.30	1081.75
860.61	1079.67
860.92	1080.13
861.24	1077.28
861.55	1078.75
861.87	1079.88
862.18	1082.76
862.49	1083.41
862.81	1086.29
863.12	1086.64
863.43	1086.15
863.74	1084.67
864.06	1085.80
864.37	1083.83
864.68	1085.26
865.00	1086.01
865.31	1089.47
865.62	1092.12
865.94	1094.11
866.25	1094.50
866.56	1095.67
866.87	1092.16
867.19	1090.29
867.50	1087.62
867.81	1085.59
868.12	1085.82
868.44	1087.04
868.75	1084.51
869.06	1084.28
869.37	1081.07
869.68	1078.59
870.00	1078.33
870.31	1076.65
870.62	1078.24
870.93	1081.35
871.24	1082.29
871.56	1086.36
871.87	1086.78
872.18	1083.74
872.49	1082.38
872.80	1082.22
873.12	1078.87
873.43	1079.99
873.74	1082.99
874.05	1083.88
874.36	1085.59
874.67	1083.81
874.98	1084.23
875.29	1082.59
875.61	1080.30
875.92	1078.52
876.23	1079.17
876.54	1080.77
876.85	1080.95
877.16	1083.69
877.47	1084.18
877.78	1087.90
878.09	1087.62
878.40	1087.34
878.72	1086.13
879.03	1082.40
879.34	1077.82
879.65	1078.75
879.96	1078.36
880.27	1080.11
880.58	1084.74
880.89	1086.99
881.20	1084.67
881.51	1082.87
881.82	1080.11
882.13	1077.09
882.44	1076.30
882.75	1077.70
883.06	1081.77
883.37	1085.10
883.68	1087.81
883.99	1090.13
884.30	1089.40
884.61	1088.96
884.92	1087.30
885.23	1088.42
885.54	1084.96
885.85	1081.75
886.16	1078.64
886.47	1075.24
886.78	1073.39
887.08	1074.42
887.39	1075.78
887.70	1077.58
888.01	1078.71
888.32	1077.79
888.63	1080.56
888.94	1083.15
889.25	1081.00
889.56	1083.41
889.87	1086.97
890.17	1083.60
890.48	1083.64
890.79	1088.65
891.10	1089.59
891.41	1090.10
891.72	1089.80
892.03	1088.91
892.34	1086.20
892.64	1086.15
892.95	1084.96
893.26	1088.02
893.57	1084.16
893.88	1084.18
894.18	1083.27
894.49	1083.50
894.80	1082.12
895.11	1085.75
895.42	1084.96
895.72	1086.29
896.03	1082.92
896.34	1082.22
896.65	1081.16
896.96	1080.58
897.26	1079.69
897.57	1079.81
897.88	1079.43
898.19	1077.07
898.49	1078.36
898.80	1078.89
899.11	1081.12
899.41	1082.87
899.72	1087.02
900.03	1087.67
900.34	1088.72
900.64	1087.67
900.95	1084.35
901.26	1084.02
901.56	1084.23
901.87	1078.85
902.18	1080.41
902.48	1084.44
902.79	1083.88
903.10	1081.47
903.40	1086.36
903.71	1084.07
904.02	1083.20
904.32	1086.66
904.63	1088.40
904.94	1088.91
905.24	1089.57
905.55	1091.30
905.85	1084.60
906.16	1084.11
906.47	1080.60
906.77	1080.88
907.08	1079.29
907.38	1084.46
907.69	1083.57
908.00	1084.44
908.30	1081.96
908.61	1082.15
908.91	1082.90
909.22	1082.24
909.52	1081.75
909.83	1085.52
910.14	1082.54
910.44	1080.88
910.75	1085.33
911.05	1087.20
911.36	1086.43
911.66	1089.14
911.97	1088.19
912.27	1087.46
912.58	1084.21
912.88	1083.55
913.19	1084.39
913.49	1084.51
913.80	1082.50
914.10	1086.66
914.41	1090.34
914.71	1089.47
915.01	1087.58
915.32	1086.92
915.62	1086.06
915.93	1082.43
916.23	1083.32
916.54	1080.93
916.84	1081.73
917.15	1080.53
917.45	1082.66
917.75	1082.80
918.06	1088.35
918.36	1086.22
918.67	1086.76
918.97	1082.43
919.27	1081.63
919.58	1078.75
919.88	1080.39
920.18	1079.15
920.49	1082.50
920.79	1082.22
921.10	1082.12
921.40	1083.11
921.70	1084.00
922.01	1082.99
922.31	1084.11
922.61	1085.05
922.92	1084.81
923.22	1085.35
923.52	1086.87
923.82	1085.70
924.13	1089.10
924.43	1088.56
924.73	1086.85
925.04	1084.07
925.34	1081.44
925.64	1080.44
925.94	1080.04
926.25	1082.40
926.55	1083.93
926.85	1088.86
927.15	1086.31
927.46	1087.83
927.76	1088.26
928.06	1086.59
928.36	1084.25
928.67	1082.36
928.97	1083.18
929.27	1083.04
929.57	1082.85
929.87	1083.62
930.18	1085.28
930.48	1082.12
930.78	1083.53
931.08	1085.12
931.38	1083.43
931.69	1082.45
931.99	1084.58
932.29	1080.06
932.59	1081.94
932.89	1082.50
933.19	1083.34
933.49	1083.41
933.80	1085.00
934.10	1081.89
934.40	1080.65
934.70	1082.83
935.00	1080.32
935.30	1081.33
935.60	1081.94
935.90	1083.43
936.20	1085.07
936.50	1087.04
936.81	1086.24
937.11	1088.82
937.41	1085.99
937.71	1080.02
938.01	1078.71
938.31	1078.43
938.61	1076.18
938.91	1077.02
939.21	1079.27
939.51	1082.69
939.81	1084.04
940.11	1086.45
940.41	1086.45
940.71	1086.97
941.01	1087.37
941.31	1085.38
941.61	1087.04
941.91	1090.13
942.21	1092.49
942.51	1085.10
942.81	1085.26
943.11	1081.23
943.41	1082.17
943.71	1079.22
944.01	1082.71
944.31	1083.71
944.61	1083.32
944.90	1081.87
945.20	1082.03
945.50	1088.44
945.80	1083.97
946.10	1083.48
946.40	1082.05
946.70	1082.97
947.00	1077.30
947.30	1082.99
947.60	1085.52
947.89	1084.32
948.19	1082.66
948.49	1084.00
948.79	1082.97
949.09	1083.39
949.39	1083.43
949.69	1085.77
949.98	1083.01
950.28	1085.07
950.58	1081.91
950.88	1082.50
951.18	1081.23
951.48	1085.94
951.77	1080.41
952.07	1080.95
952.37	1080.41
952.67	1080.30
952.97	1075.94
953.26	1080.09
953.56	1081.42
953.86	1081.35
954.16	1082.33
954.45	1082.29
954.75	1081.05
955.05	1080.65
955.35	1084.02
955.64	1081.80
955.94	1084.35
956.24	1085.63
956.54	1082.38
956.83	1081.89
957.13	1083.97
957.43	1083.08
957.72	1083.79
958.02	1086.17
958.32	1084.00
958.61	1084.32
958.91	1085.14
959.21	1081.23
959.50	1082.19
959.80	1082.47
960.10	1082.47
960.39	1082.78
960.69	1085.26
960.99	1086.24
961.28	1087.76
961.58	1086.87
961.87	1089.12
962.17	1089.14
962.47	1087.41
962.76	1087.93
963.06	1086.55
963.36	1084.02
963.65	1086.38
963.95	1089.17
964.24	1088.12
964.54	1088.54
964.83	1085.87
965.13	1081.33
965.42	1078.82
965.72	1079.64
966.02	1081.44
966.31	1082.94
966.61	1084.25
966.90	1083.41
967.20	1081.98
967.49	1082.94
967.79	1083.67
968.08	1082.29
968.38	1082.40
968.67	1081.30
968.97	1078.64
969.26	1073.60
969.56	1073.65
969.85	1074.80
970.15	1077.98
970.44	1079.64
970.74	1084.86
971.03	1087.11
971.32	1087.41
971.62	1084.21
971.91	1081.09
972.21	1079.60
972.50	1080.77
972.80	1080.18
973.09	1085.77
973.38	1087.93
973.68	1090.03
973.97	1087.53
974.27	1087.95
974.56	1083.13
974.85	1080.63
975.15	1078.75
975.44	1079.41
975.73	1078.66
976.03	1079.55
976.32	1082.59
976.61	1080.91
976.91	1081.68
977.20	1084.56
977.49	1084.58
977.79	1085.12
978.08	1089.45
978.37	1090.50
978.67	1086.76
978.96	1085.07
979.25	1083.06
979.55	1080.16
979.84	1076.81
980.13	1077.89
980.42	1082.38
980.72	1082.80
981.01	1084.81
981.30	1088.12
981.59	1088.58
981.89	1082.73
982.18	1082.80
982.47	1078.96
982.76	1077.47
983.06	1075.87
983.35	1079.13
983.64	1079.92
983.93	1082.24
984.22	1081.23
984.52	1080.56
984.81	1080.77
985.10	1079.76
985.39	1080.79
985.68	1082.08
985.97	1085.26
986.27	1084.00
986.56	1083.18
986.85	1082.54
987.14	1082.36
987.43	1081.89
987.72	1079.06
988.01	1080.60
988.31	1082.38
988.60	1080.18
988.89	1080.37
989.18	1085.91
989.47	1087.97
989.76	1082.76
990.05	1086.31
990.34	1082.83
990.63	1079.88
990.92	1079.69
991.21	1085.47
991.51	1084.74
991.80	1088.58
992.09	1090.95
992.38	1090.97
992.67	1087.67
992.96	1088.00
993.25	1087.48
993.54	1085.21
993.83	1083.39
994.12	1086.80
994.41	1085.84
994.70	1087.11
994.99	1089.52
995.28	1088.84
995.57	1088.42
995.86	1088.61
996.15	1085.68
996.44	1084.84
996.73	1087.18
997.02	1083.74
997.31	1083.55
997.59	1085.54
997.88	1085.70
998.17	1084.56
998.46	1085.75
998.75	1085.47
999.04	1085.68
999.33	1082.50
999.62	1082.50
999.91	1084.11
1000.20	1084.11
1000.49	1082.10
1000.77	1087.04
1001.06	1088.12
1001.35	1088.58
1001.64	1087.90
1001.93	1090.36
1002.22	1085.87
1002.51	1084.56
1002.79	1083.74
1003.08	1081.21
1003.37	1080.51
1003.66	1084.46
1003.95	1085.45
1004.23	1085.54
1004.52	1087.37
1004.81	1084.44
1005.10	1081.89
1005.39	1080.67
1005.67	1080.98
1005.96	1083.46
1006.25	1086.80
1006.54	1085.73
1006.83	1084.72
1007.11	1084.79
1007.40	1085.17
1007.69	1082.83
1007.97	1083.01
1008.26	1084.21
1008.55	1082.50
1008.84	1081.63
1009.12	1081.77
1009.41	1082.08
1009.70	1082.10
1009.98	1081.30
1010.27	1081.68
1010.56	1081.66
1010.85	1081.84
1011.13	1082.71
1011.42	1083.48
1011.71	1079.62
1011.99	1080.30
1012.28	1083.64
1012.56	1084.02
1012.85	1085.94
1013.14	1090.53
1013.42	1091.04
1013.71	1085.10
1014.00	1082.12
1014.28	1081.89
1014.57	1078.64
1014.85	1081.61
1015.14	1084.77
1015.43	1084.56
1015.71	1081.28
1016.00	1083.08
1016.28	1079.71
1016.57	1080.06
1016.85	1080.20
1017.14	1079.38
1017.43	1078.87
1017.71	1077.47
1018.00	1075.92
1018.28	1077.28
1018.57	1076.39
1018.85	1076.15
1019.14	1076.20
1019.42	1077.93
1019.71	1078.43
1019.99	1080.18
1020.28	1081.49
1020.56	1079.97
1020.85	1079.74
1021.13	1077.21
1021.42	1077.68
1021.70	1077.30
1021.99	1080.20
1022.27	1079.06
1022.55	1082.26
1022.84	1077.82
>>>>>End Processed Spectral Data<<<<<
