SpectraSuite Data File
++++++++++++++++++++++++++++++++++++
Date: Mon Aug 26 10:26:40 PDT 2019
User: corrico
Dark Spectrum Present: No
Reference Spectrum Present: No
Number of Sampled Component Spectra: 1
Spectrometers: USB2+H06089
Integration Time (usec): 10000 (USB2+H06089)
Spectra Averaged: 20 (USB2+H06089)
Boxcar Smoothing: 2 (USB2+H06089)
Correct for Electrical Dark: No (USB2+H06089)
Strobe/Lamp Enabled: No (USB2+H06089)
Correct for Detector Non-linearity: No (USB2+H06089)
Correct for Stray Light: No (USB2+H06089)
Number of Pixels in Processed Spectrum: 2048
>>>>>Begin Processed Spectral Data<<<<<
339.70	1031.71
340.07	1031.71
340.45	999.62
340.82	977.85
341.19	956.32
341.57	926.69
341.94	913.02
342.31	905.90
342.69	899.54
343.06	895.51
343.43	901.62
343.81	902.91
344.18	904.71
344.55	910.82
344.93	913.72
345.30	916.23
345.67	924.35
346.04	933.36
346.42	938.95
346.79	947.10
347.16	958.45
347.54	963.90
347.91	974.04
348.28	986.49
348.65	998.10
349.03	1006.03
349.40	1016.59
349.77	1023.77
350.14	1029.44
350.52	1035.10
350.89	1043.27
351.26	1050.81
351.63	1056.56
352.01	1063.63
352.38	1069.65
352.75	1073.72
353.12	1075.08
353.50	1078.07
353.87	1080.95
354.24	1085.03
354.61	1086.41
354.98	1090.15
355.36	1091.30
355.73	1091.46
356.10	1093.29
356.47	1092.98
356.84	1093.22
357.22	1095.84
357.59	1096.96
357.96	1096.10
358.33	1095.63
358.70	1096.00
359.08	1093.24
359.45	1092.19
359.82	1089.03
360.19	1088.61
360.56	1085.12
360.94	1084.37
361.31	1085.33
361.68	1083.53
362.05	1084.96
362.42	1084.18
362.79	1086.20
363.16	1085.54
363.54	1085.80
363.91	1082.90
364.28	1087.25
364.65	1081.30
365.02	1078.50
365.39	1077.44
365.76	1079.29
366.14	1075.20
366.51	1077.93
366.88	1079.03
367.25	1082.26
367.62	1080.88
367.99	1079.78
368.36	1080.46
368.73	1083.39
369.10	1081.33
369.48	1080.04
369.85	1083.11
370.22	1082.69
370.59	1076.37
370.96	1076.15
371.33	1077.25
371.70	1075.29
372.07	1073.39
372.44	1076.30
372.81	1078.14
373.18	1079.03
373.55	1079.17
373.93	1080.39
374.30	1078.50
374.67	1077.33
375.04	1075.03
375.41	1076.76
375.78	1080.63
376.15	1086.36
376.52	1087.90
376.89	1089.66
377.26	1091.56
377.63	1090.90
378.00	1088.14
378.37	1087.37
378.74	1088.65
379.11	1088.07
379.48	1085.99
379.85	1085.52
380.22	1084.60
380.59	1083.01
380.96	1081.63
381.33	1082.15
381.70	1082.83
382.07	1085.07
382.44	1086.87
382.81	1087.67
383.18	1088.02
383.55	1085.73
383.92	1083.11
384.29	1081.30
384.66	1080.65
385.03	1080.81
385.40	1082.03
385.77	1083.86
386.14	1083.90
386.51	1083.15
386.88	1082.78
387.25	1083.43
387.62	1082.90
387.99	1084.25
388.36	1083.34
388.73	1080.23
389.10	1080.44
389.46	1084.65
389.83	1085.10
390.20	1086.87
390.57	1089.33
390.94	1090.85
391.31	1086.38
391.68	1086.41
392.05	1087.16
392.42	1090.81
392.79	1088.33
393.16	1091.06
393.53	1089.29
393.89	1093.03
394.26	1090.15
394.63	1092.45
395.00	1091.30
395.37	1090.99
395.74	1086.41
396.11	1085.91
396.48	1087.02
396.84	1086.69
397.21	1086.57
397.58	1087.27
397.95	1091.16
398.32	1088.77
398.69	1089.07
399.06	1090.10
399.42	1089.64
399.79	1085.17
400.16	1087.65
400.53	1086.80
400.90	1088.82
401.27	1093.36
401.64	1097.99
402.00	1095.25
402.37	1097.01
402.74	1095.65
403.11	1089.68
403.48	1087.67
403.84	1088.96
404.21	1090.20
404.58	1089.40
404.95	1091.32
405.32	1093.40
405.68	1094.04
406.05	1090.90
406.42	1092.49
406.79	1092.59
407.16	1089.33
407.52	1089.00
407.89	1091.09
408.26	1096.42
408.63	1100.96
408.99	1101.74
409.36	1102.04
409.73	1103.98
410.10	1099.65
410.47	1098.09
410.83	1101.48
411.20	1102.25
411.57	1099.09
411.94	1103.54
412.30	1103.82
412.67	1103.49
413.04	1104.33
413.40	1107.26
413.77	1105.08
414.14	1103.40
414.51	1104.92
414.87	1104.62
415.24	1105.41
415.61	1101.76
415.97	1104.26
416.34	1102.77
416.71	1104.64
417.08	1103.77
417.44	1108.76
417.81	1107.54
418.18	1106.91
418.54	1108.85
418.91	1111.78
419.28	1109.11
419.64	1106.96
420.01	1105.55
420.38	1100.52
420.74	1097.08
421.11	1099.98
421.48	1103.09
421.84	1106.39
422.21	1109.67
422.58	1111.40
422.94	1111.66
423.31	1111.71
423.68	1111.43
424.04	1109.09
424.41	1108.95
424.77	1108.57
425.14	1108.50
425.51	1107.75
425.87	1109.02
426.24	1110.47
426.61	1110.54
426.97	1112.27
427.34	1113.53
427.70	1115.24
428.07	1112.34
428.44	1110.51
428.80	1110.16
429.17	1112.85
429.53	1112.22
429.90	1114.91
430.27	1115.22
430.63	1111.82
431.00	1107.66
431.36	1108.64
431.73	1105.93
432.09	1106.84
432.46	1110.14
432.83	1114.24
433.19	1114.12
433.56	1113.84
433.92	1114.63
434.29	1114.12
434.65	1111.85
435.02	1109.69
435.38	1113.04
435.75	1113.79
436.11	1114.45
436.48	1117.61
436.84	1118.96
437.21	1117.91
437.57	1115.76
437.94	1116.74
438.30	1116.11
438.67	1118.89
439.03	1119.10
439.40	1118.12
439.76	1116.88
440.13	1113.09
440.49	1111.15
440.86	1112.11
441.22	1114.40
441.59	1116.01
441.95	1114.70
442.32	1112.32
442.68	1110.28
443.05	1110.30
443.41	1109.65
443.78	1109.06
444.14	1107.80
444.51	1109.11
444.87	1109.60
445.24	1109.84
445.60	1113.53
445.96	1117.61
446.33	1116.08
446.69	1114.70
447.06	1113.95
447.42	1111.43
447.79	1111.47
448.15	1111.15
448.51	1109.39
448.88	1106.14
449.24	1106.32
449.61	1106.02
449.97	1107.12
450.33	1108.55
450.70	1111.61
451.06	1113.28
451.43	1111.29
451.79	1109.55
452.15	1110.79
452.52	1111.19
452.88	1108.13
453.24	1107.92
453.61	1109.06
453.97	1106.77
454.34	1108.57
454.70	1108.50
455.06	1109.81
455.43	1108.57
455.79	1109.74
456.15	1105.97
456.52	1108.27
456.88	1108.38
457.24	1109.88
457.61	1108.06
457.97	1108.43
458.33	1108.01
458.70	1108.78
459.06	1107.85
459.42	1109.93
459.79	1111.54
460.15	1111.31
460.51	1111.19
460.88	1112.25
461.24	1114.59
461.60	1113.95
461.96	1113.72
462.33	1113.02
462.69	1115.05
463.05	1113.65
463.42	1115.03
463.78	1117.40
464.14	1121.19
464.50	1124.51
464.87	1125.42
465.23	1127.72
465.59	1130.08
465.95	1128.56
466.32	1125.66
466.68	1122.85
467.04	1119.67
467.40	1119.88
467.77	1121.89
468.13	1123.01
468.49	1130.27
468.85	1134.13
469.22	1132.56
469.58	1133.90
469.94	1134.60
470.30	1133.15
470.66	1133.47
471.03	1136.87
471.39	1137.64
471.75	1142.35
472.11	1145.43
472.47	1148.20
472.84	1152.57
473.20	1154.98
473.56	1156.69
473.92	1160.51
474.28	1164.07
474.65	1168.00
475.01	1174.46
475.37	1179.89
475.73	1183.09
476.09	1190.14
476.45	1193.30
476.81	1196.44
477.18	1199.92
477.54	1207.30
477.90	1209.10
478.26	1216.47
478.62	1222.56
478.98	1230.91
479.34	1234.05
479.71	1243.74
480.07	1249.52
480.43	1259.14
480.79	1264.94
481.15	1276.55
481.51	1287.62
481.87	1300.45
482.23	1313.53
482.59	1330.31
482.96	1341.60
483.32	1354.33
483.68	1368.56
484.04	1379.75
484.40	1395.78
484.76	1418.34
485.12	1435.85
485.48	1454.43
485.84	1475.33
486.20	1494.27
486.56	1512.36
486.92	1537.19
487.28	1559.92
487.64	1584.89
488.00	1610.71
488.37	1639.15
488.73	1669.90
489.09	1703.11
489.45	1738.20
489.81	1773.68
490.17	1814.24
490.53	1853.00
490.89	1894.64
491.25	1938.78
491.61	1985.64
491.97	2032.19
492.33	2081.58
492.69	2136.72
493.05	2190.48
493.41	2247.27
493.77	2307.93
494.13	2377.49
494.49	2446.52
494.85	2521.97
495.21	2595.93
495.57	2675.63
495.93	2748.77
496.29	2830.74
496.64	2923.91
497.00	3014.75
497.36	3113.08
497.72	3220.46
498.08	3325.15
498.44	3434.15
498.80	3565.99
499.16	3702.03
499.52	3838.20
499.88	3995.69
500.24	4153.54
500.60	4303.75
500.96	4459.14
501.32	4626.96
501.68	4797.42
502.03	4981.62
502.39	5195.43
502.75	5406.73
503.11	5637.37
503.47	5870.02
503.83	6105.99
504.19	6346.74
504.55	6618.66
504.91	6893.95
505.26	7175.61
505.62	7477.01
505.98	7798.27
506.34	8131.26
506.70	8488.77
507.06	8878.68
507.42	9288.32
507.78	9692.53
508.13	10105.64
508.49	10532.90
508.85	10982.10
509.21	11459.24
509.57	11989.25
509.93	12544.48
510.28	13151.77
510.64	13766.33
511.00	14377.09
511.36	14951.74
511.72	15537.88
512.07	16158.50
512.43	16764.37
512.79	17421.38
513.15	18147.16
513.51	18906.12
513.86	19624.60
514.22	20469.20
514.58	21276.29
514.94	22107.76
515.30	22938.28
515.65	23780.01
516.01	24604.20
516.37	25440.55
516.73	26213.02
517.08	27066.42
517.44	27890.85
517.80	28681.02
518.16	29532.18
518.51	30342.96
518.87	31083.48
519.23	31946.14
519.59	32845.07
519.94	33679.98
520.30	34576.34
520.66	35357.49
521.01	36143.49
521.37	36778.55
521.73	37387.44
522.09	37962.25
522.44	38600.58
522.80	39011.11
523.16	39381.88
523.51	39636.95
523.87	39936.58
524.23	40189.85
524.58	40470.11
524.94	40845.88
525.30	41190.01
525.65	41373.56
526.01	41409.53
526.37	41410.35
526.72	41345.70
527.08	41231.49
527.44	41038.74
527.79	40891.24
528.15	40772.06
528.51	40550.79
528.86	40317.65
529.22	40091.79
529.58	39851.04
529.93	39479.78
530.29	39025.74
530.65	38644.82
531.00	38306.61
531.36	37841.48
531.71	37359.77
532.07	36875.56
532.43	36290.78
532.78	35622.91
533.14	35055.79
533.49	34497.90
533.85	33924.31
534.21	33327.75
534.56	32768.65
534.92	32167.92
535.27	31546.63
535.63	30920.75
535.98	30290.58
536.34	29661.14
536.69	29028.89
537.05	28419.77
537.41	27901.60
537.76	27418.44
538.12	26894.86
538.47	26414.65
538.83	25950.62
539.18	25479.63
539.54	24984.59
539.89	24517.11
540.25	24008.09
540.60	23541.97
540.96	23026.59
541.31	22552.35
541.67	22124.59
542.02	21709.62
542.38	21271.37
542.73	20849.33
543.09	20459.96
543.44	20088.82
543.80	19753.16
544.15	19359.41
544.51	19026.45
544.86	18720.24
545.22	18364.59
545.57	17987.53
545.93	17631.68
546.28	17309.97
546.64	16976.68
546.99	16645.73
547.35	16332.47
547.70	16051.89
548.05	15736.99
548.41	15424.79
548.76	15133.62
549.12	14845.43
549.47	14555.56
549.83	14294.14
550.18	13980.84
550.53	13641.32
550.89	13354.21
551.24	13082.33
551.60	12767.60
551.95	12509.20
552.30	12298.02
552.66	12070.63
553.01	11819.99
553.37	11572.71
553.72	11303.71
554.07	11020.51
554.43	10728.92
554.78	10442.84
555.13	10177.23
555.49	9967.59
555.84	9776.68
556.19	9594.25
556.55	9407.06
556.90	9219.39
557.26	9005.68
557.61	8789.48
557.96	8540.17
558.32	8344.36
558.67	8150.00
559.02	7943.01
559.37	7756.72
559.73	7624.32
560.08	7465.70
560.43	7308.51
560.79	7176.83
561.14	7027.81
561.49	6855.01
561.85	6699.03
562.20	6552.35
562.55	6416.16
562.90	6283.92
563.26	6167.69
563.61	6049.09
563.96	5941.66
564.32	5824.05
564.67	5714.98
565.02	5588.52
565.37	5474.75
565.73	5360.95
566.08	5254.85
566.43	5139.23
566.78	5035.01
567.14	4932.68
567.49	4823.26
567.84	4717.28
568.19	4617.13
568.54	4526.17
568.90	4439.36
569.25	4366.13
569.60	4296.31
569.95	4225.72
570.31	4153.35
570.66	4069.44
571.01	3980.64
571.36	3888.03
571.71	3813.67
572.06	3743.22
572.42	3692.31
572.77	3640.73
573.12	3587.15
573.47	3528.36
573.82	3464.02
574.18	3392.75
574.53	3325.27
574.88	3268.58
575.23	3214.21
575.58	3169.39
575.93	3114.15
576.28	3068.23
576.64	3015.17
576.99	2957.78
577.34	2899.20
577.69	2851.50
578.04	2802.16
578.39	2751.60
578.74	2709.94
579.09	2677.64
579.44	2638.56
579.80	2595.93
580.15	2556.59
580.50	2514.69
580.85	2471.79
581.20	2438.98
581.55	2405.77
581.90	2381.89
582.25	2351.47
582.60	2320.97
582.95	2286.87
583.30	2252.55
583.65	2214.94
584.00	2181.38
584.35	2151.16
584.71	2119.12
585.06	2093.45
585.41	2062.92
585.76	2037.60
586.11	2006.89
586.46	1983.18
586.81	1954.96
587.16	1934.08
587.51	1917.18
587.86	1899.63
588.21	1881.79
588.56	1864.35
588.91	1849.87
589.26	1830.98
589.61	1812.98
589.96	1797.65
590.31	1780.49
590.66	1758.00
591.01	1736.91
591.36	1721.79
591.71	1699.65
592.06	1686.05
592.41	1673.34
592.76	1661.10
593.10	1642.99
593.45	1631.26
593.80	1612.47
594.15	1599.08
594.50	1587.56
594.85	1577.47
595.20	1566.52
595.55	1556.71
595.90	1545.43
596.25	1534.48
596.60	1522.03
596.95	1507.45
597.30	1496.35
597.64	1536.68
597.99	1524.91
598.34	1521.18
598.69	1516.39
599.04	1510.30
599.39	1450.15
599.74	1439.76
600.09	1429.93
600.44	1420.12
600.78	1411.34
601.13	1405.37
601.48	1402.43
601.83	1395.08
602.18	1391.45
602.53	1385.50
602.88	1379.63
603.22	1371.23
603.57	1361.12
603.92	1348.55
604.27	1341.27
604.62	1334.81
604.97	1329.68
605.31	1324.91
605.66	1321.61
606.01	1313.79
606.36	1308.92
606.71	1299.56
607.05	1297.01
607.40	1293.54
607.75	1289.24
608.10	1282.87
608.44	1281.07
608.79	1274.61
609.14	1271.50
609.49	1269.90
609.84	1267.87
610.18	1268.45
610.53	1263.73
610.88	1260.38
611.23	1255.44
611.57	1251.55
611.92	1244.79
612.27	1243.92
612.62	1239.69
612.96	1240.23
613.31	1235.59
613.66	1230.93
614.00	1225.11
614.35	1223.12
614.70	1217.97
615.05	1217.10
615.39	1214.64
615.74	1214.11
616.09	1207.69
616.43	1205.49
616.78	1199.64
617.13	1196.97
617.47	1189.02
617.82	1185.08
618.17	1181.71
618.51	1178.53
618.86	1176.94
619.21	1179.21
619.55	1180.47
619.90	1178.39
620.25	1176.96
620.59	1173.59
620.94	1170.48
621.29	1168.86
621.63	1168.86
621.98	1167.81
622.32	1165.33
622.67	1164.25
623.02	1160.67
623.36	1155.15
623.71	1155.29
624.05	1153.81
624.40	1150.91
624.75	1152.69
625.09	1151.96
625.44	1148.85
625.78	1147.42
626.13	1146.96
626.48	1144.31
626.82	1142.32
627.17	1141.27
627.51	1141.17
627.86	1140.78
628.20	1136.63
628.55	1138.04
628.89	1137.36
629.24	1134.72
629.58	1135.67
629.93	1135.51
630.28	1133.17
630.62	1129.99
630.97	1130.92
631.31	1128.93
631.66	1130.31
632.00	1128.96
632.35	1130.48
632.69	1130.67
633.04	1127.90
633.38	1124.88
633.73	1125.52
634.07	1122.22
634.42	1121.56
634.76	1120.44
635.11	1121.63
635.45	1118.50
635.79	1122.66
636.14	1121.73
636.48	1118.31
636.83	1113.81
637.17	1114.19
637.52	1112.90
637.86	1110.37
638.21	1112.22
638.55	1112.74
638.89	1112.97
639.24	1112.08
639.58	1112.57
639.93	1115.41
640.27	1117.11
640.61	1116.62
640.96	1114.02
641.30	1113.16
641.65	1110.07
641.99	1107.61
642.33	1108.27
642.68	1105.65
643.02	1105.11
643.37	1108.03
643.71	1107.96
644.05	1106.96
644.40	1107.56
644.74	1105.86
645.08	1100.47
645.43	1102.49
645.77	1102.88
646.11	1104.45
646.46	1105.81
646.80	1108.74
647.14	1109.04
647.49	1109.13
647.83	1105.86
648.17	1105.25
648.52	1105.93
648.86	1102.95
649.20	1101.69
649.55	1102.39
649.89	1100.59
650.23	1096.52
650.57	1098.65
650.92	1097.97
651.26	1099.05
651.60	1099.98
651.95	1102.70
652.29	1100.75
652.63	1097.92
652.97	1097.43
653.32	1095.07
653.66	1091.39
654.00	1091.09
654.34	1093.05
654.69	1094.29
655.03	1095.21
655.37	1098.27
655.71	1100.03
656.05	1097.59
656.40	1095.79
656.74	1099.30
657.08	1097.78
657.42	1096.03
657.76	1098.41
658.11	1101.29
658.45	1099.70
658.79	1104.85
659.13	1103.09
659.47	1100.15
659.82	1096.78
660.16	1097.24
660.50	1092.84
660.84	1094.72
661.18	1094.41
661.52	1096.78
661.87	1093.38
662.21	1094.18
662.55	1095.89
662.89	1099.21
663.23	1096.70
663.57	1099.98
663.91	1097.62
664.25	1093.97
664.60	1094.01
664.94	1094.01
665.28	1090.78
665.62	1090.34
665.96	1091.11
666.30	1092.07
666.64	1092.12
666.98	1092.35
667.32	1092.19
667.66	1092.56
668.01	1090.69
668.35	1090.22
668.69	1091.32
669.03	1091.77
669.37	1090.01
669.71	1089.52
670.05	1092.21
670.39	1093.22
670.73	1092.16
671.07	1093.57
671.41	1094.95
671.75	1090.81
672.09	1088.72
672.43	1093.15
672.77	1093.17
673.11	1094.20
673.45	1095.09
673.79	1095.84
674.13	1093.69
674.47	1093.94
674.81	1091.46
675.15	1091.23
675.49	1091.04
675.83	1090.17
676.17	1089.12
676.51	1090.13
676.85	1089.87
677.19	1091.18
677.53	1093.01
677.87	1091.23
678.21	1088.16
678.55	1089.96
678.89	1087.79
679.23	1084.02
679.57	1088.26
679.90	1089.36
680.24	1090.88
680.58	1089.68
680.92	1093.57
681.26	1091.04
681.60	1090.64
681.94	1091.20
682.28	1094.32
682.62	1089.36
682.96	1088.58
683.29	1090.10
683.63	1088.75
683.97	1088.56
684.31	1090.34
684.65	1092.84
684.99	1089.31
685.33	1087.83
685.67	1083.60
686.00	1081.82
686.34	1080.41
686.68	1082.59
687.02	1082.61
687.36	1085.87
687.70	1086.97
688.03	1086.94
688.37	1088.12
688.71	1086.69
689.05	1084.00
689.39	1083.53
689.72	1083.93
690.06	1084.02
690.40	1083.86
690.74	1086.76
691.08	1091.20
691.41	1092.80
691.75	1090.62
692.09	1093.26
692.43	1091.18
692.76	1089.52
693.10	1090.36
693.44	1092.09
693.78	1090.55
694.11	1091.44
694.45	1088.89
694.79	1084.89
695.13	1086.57
695.46	1084.98
695.80	1085.12
696.14	1086.66
696.48	1089.31
696.81	1086.01
697.15	1088.63
697.49	1089.12
697.82	1089.66
698.16	1086.36
698.50	1086.10
698.83	1084.23
699.17	1082.61
699.51	1080.81
699.84	1084.28
700.18	1086.59
700.52	1085.63
700.85	1084.25
701.19	1084.23
701.53	1080.48
701.86	1081.05
702.20	1084.65
702.54	1088.65
702.87	1089.66
703.21	1094.20
703.55	1092.40
703.88	1091.63
704.22	1094.72
704.55	1096.17
704.89	1094.79
705.23	1094.25
705.56	1094.22
705.90	1090.83
706.23	1089.33
706.57	1088.47
706.91	1088.49
707.24	1090.76
707.58	1089.75
707.91	1092.02
708.25	1091.77
708.58	1089.29
708.92	1084.84
709.26	1087.34
709.59	1083.88
709.93	1085.47
710.26	1087.13
710.60	1085.38
710.93	1083.46
711.27	1085.49
711.60	1084.32
711.94	1085.00
712.27	1087.72
712.61	1086.76
712.94	1086.15
713.28	1085.10
713.61	1086.10
713.95	1084.65
714.28	1084.74
714.62	1083.32
714.95	1085.00
715.29	1087.67
715.62	1089.24
715.96	1089.87
716.29	1090.46
716.63	1089.50
716.96	1087.41
717.29	1088.56
717.63	1086.38
717.96	1086.27
718.30	1087.13
718.63	1084.09
718.97	1085.21
719.30	1085.54
719.63	1085.07
719.97	1084.72
720.30	1087.37
720.64	1088.21
720.97	1090.27
721.30	1091.67
721.64	1092.12
721.97	1093.10
722.31	1091.86
722.64	1090.67
722.97	1087.90
723.31	1088.23
723.64	1088.04
723.97	1086.31
724.31	1087.67
724.64	1091.53
724.98	1089.94
725.31	1089.47
725.64	1090.32
725.98	1091.77
726.31	1091.11
726.64	1090.15
726.97	1089.10
727.31	1089.73
727.64	1087.97
727.97	1088.23
728.31	1089.14
728.64	1088.16
728.97	1086.55
729.31	1085.19
729.64	1083.69
729.97	1085.21
730.30	1088.63
730.64	1089.10
730.97	1089.22
731.30	1089.89
731.63	1089.31
731.97	1086.24
732.30	1082.01
732.63	1082.57
732.96	1081.68
733.30	1078.82
733.63	1078.26
733.96	1084.23
734.29	1084.86
734.63	1084.18
734.96	1085.70
735.29	1090.74
735.62	1089.33
735.95	1088.19
736.29	1091.65
736.62	1095.35
736.95	1091.93
737.28	1092.94
737.61	1094.36
737.94	1093.97
738.28	1088.61
738.61	1086.52
738.94	1084.23
739.27	1080.72
739.60	1078.38
739.93	1081.26
740.27	1083.67
740.60	1085.49
740.93	1090.17
741.26	1091.63
741.59	1092.23
741.92	1093.64
742.25	1092.82
742.58	1090.64
742.91	1089.45
743.25	1086.13
743.58	1083.04
743.91	1080.58
744.24	1081.58
744.57	1083.01
744.90	1085.17
745.23	1084.81
745.56	1086.34
745.89	1087.60
746.22	1086.78
746.55	1086.50
746.88	1085.77
747.21	1088.07
747.54	1083.86
747.87	1084.84
748.20	1084.86
748.53	1089.45
748.87	1087.09
749.20	1088.79
749.53	1088.49
749.86	1089.50
750.19	1088.84
750.52	1089.92
750.85	1088.51
751.18	1086.99
751.51	1086.50
751.84	1085.63
752.16	1087.51
752.49	1090.15
752.82	1090.97
753.15	1089.78
753.48	1087.79
753.81	1084.63
754.14	1086.08
754.47	1085.35
754.80	1086.06
755.13	1087.83
755.46	1088.65
755.79	1087.18
756.12	1090.88
756.45	1093.08
756.78	1096.03
757.11	1096.00
757.43	1094.34
757.76	1089.71
758.09	1086.90
758.42	1083.55
758.75	1082.85
759.08	1082.50
759.41	1084.32
759.74	1084.58
760.07	1082.78
760.39	1083.01
760.72	1083.15
761.05	1083.41
761.38	1085.21
761.71	1085.96
762.04	1088.82
762.36	1092.30
762.69	1086.97
763.02	1083.34
763.35	1081.91
763.68	1078.40
764.01	1077.58
764.33	1077.89
764.66	1078.99
764.99	1080.02
765.32	1077.89
765.65	1076.76
765.97	1080.70
766.30	1084.79
766.63	1084.37
766.96	1090.83
767.28	1092.73
767.61	1091.72
767.94	1090.41
768.27	1093.71
768.59	1093.03
768.92	1088.28
769.25	1090.90
769.58	1087.44
769.90	1081.70
770.23	1079.01
770.56	1079.08
770.89	1075.97
771.21	1077.40
771.54	1080.16
771.87	1081.30
772.19	1084.23
772.52	1086.41
772.85	1086.13
773.17	1086.29
773.50	1084.56
773.83	1086.06
774.15	1085.61
774.48	1086.78
774.81	1087.32
775.13	1088.42
775.46	1087.16
775.79	1086.50
776.11	1090.55
776.44	1089.87
776.77	1086.92
777.09	1084.56
777.42	1088.19
777.74	1083.04
778.07	1084.49
778.40	1089.07
778.72	1091.98
779.05	1088.35
779.37	1088.28
779.70	1090.15
780.03	1087.62
780.35	1084.74
780.68	1086.38
781.00	1089.66
781.33	1086.57
781.65	1088.19
781.98	1089.36
782.31	1089.33
782.63	1085.10
782.96	1087.20
783.28	1084.60
783.61	1083.48
783.93	1085.05
784.26	1085.99
784.58	1083.50
784.91	1085.12
785.23	1086.99
785.56	1086.73
785.88	1089.00
786.21	1091.70
786.53	1089.07
786.86	1090.36
787.18	1087.09
787.51	1081.21
787.83	1081.28
788.16	1084.51
788.48	1081.47
788.81	1083.32
789.13	1085.12
789.46	1084.35
789.78	1082.80
790.10	1084.89
790.43	1085.24
790.75	1085.75
791.08	1086.83
791.40	1087.81
791.73	1091.84
792.05	1092.94
792.37	1095.39
792.70	1094.13
793.02	1090.64
793.35	1084.79
793.67	1084.49
793.99	1084.42
794.32	1089.47
794.64	1093.36
794.96	1092.05
795.29	1091.16
795.61	1091.84
795.93	1086.78
796.26	1085.05
796.58	1085.24
796.91	1083.43
797.23	1081.40
797.55	1081.33
797.87	1080.56
798.20	1082.66
798.52	1081.00
798.84	1084.02
799.17	1082.43
799.49	1080.13
799.81	1077.84
800.14	1079.38
800.46	1076.72
800.78	1077.82
801.10	1081.40
801.43	1083.04
801.75	1084.60
802.07	1082.08
802.40	1083.95
802.72	1083.39
803.04	1081.40
803.36	1082.12
803.69	1087.16
804.01	1082.87
804.33	1085.03
804.65	1089.10
804.97	1086.10
805.30	1083.36
805.62	1085.52
805.94	1085.21
806.26	1082.36
806.58	1085.70
806.91	1087.53
807.23	1087.41
807.55	1084.77
807.87	1086.69
808.19	1084.09
808.52	1081.82
808.84	1079.69
809.16	1081.66
809.48	1081.47
809.80	1080.04
810.12	1081.75
810.44	1085.10
810.77	1083.01
811.09	1080.93
811.41	1083.64
811.73	1081.16
812.05	1078.59
812.37	1077.70
812.69	1077.93
813.01	1076.86
813.33	1077.82
813.66	1079.22
813.98	1080.58
814.30	1081.26
814.62	1081.28
814.94	1083.15
815.26	1083.46
815.58	1083.18
815.90	1081.21
816.22	1082.90
816.54	1080.09
816.86	1081.82
817.18	1084.89
817.50	1089.26
817.82	1090.20
818.14	1091.58
818.46	1088.35
818.78	1085.35
819.10	1082.31
819.42	1081.44
819.74	1083.48
820.06	1086.13
820.38	1086.57
820.70	1088.26
821.02	1084.89
821.34	1083.71
821.66	1081.68
821.98	1082.33
822.30	1079.60
822.62	1081.05
822.94	1080.09
823.26	1081.26
823.58	1081.58
823.90	1084.60
824.22	1086.34
824.54	1088.84
824.86	1087.86
825.18	1085.28
825.50	1083.83
825.81	1082.17
826.13	1079.81
826.45	1081.37
826.77	1081.61
827.09	1082.71
827.41	1083.48
827.73	1084.93
828.05	1085.87
828.36	1089.33
828.68	1089.10
829.00	1089.10
829.32	1085.59
829.64	1084.32
829.96	1083.27
830.28	1080.88
830.59	1082.29
830.91	1085.94
831.23	1086.48
831.55	1084.60
831.87	1089.10
832.19	1087.18
832.50	1086.48
832.82	1086.36
833.14	1086.31
833.46	1083.50
833.78	1084.67
834.09	1082.43
834.41	1080.30
834.73	1083.01
835.05	1083.29
835.36	1082.83
835.68	1084.14
836.00	1087.51
836.32	1086.27
836.63	1087.69
836.95	1086.41
837.27	1086.85
837.59	1087.76
837.90	1087.51
838.22	1085.52
838.54	1086.10
838.85	1085.14
839.17	1083.01
839.49	1085.03
839.80	1087.25
840.12	1086.78
840.44	1086.99
840.76	1084.93
841.07	1085.19
841.39	1083.93
841.71	1086.15
842.02	1086.15
842.34	1084.98
842.65	1081.02
842.97	1079.88
843.29	1081.09
843.60	1084.28
843.92	1085.35
844.24	1089.82
844.55	1089.89
844.87	1087.30
845.18	1085.26
845.50	1084.58
845.82	1082.40
846.13	1083.67
846.45	1082.52
846.76	1083.22
847.08	1086.20
847.40	1085.94
847.71	1085.03
848.03	1086.50
848.34	1084.28
848.66	1082.78
848.97	1082.19
849.29	1083.50
849.60	1083.25
849.92	1083.01
850.24	1082.03
850.55	1082.33
850.87	1082.24
851.18	1081.16
851.50	1081.33
851.81	1080.41
852.13	1081.75
852.44	1083.13
852.76	1087.74
853.07	1088.02
853.39	1091.09
853.70	1091.49
854.01	1087.02
854.33	1083.57
854.64	1082.38
854.96	1082.10
855.27	1078.82
855.59	1081.94
855.90	1080.04
856.22	1079.10
856.53	1079.08
856.84	1081.28
857.16	1080.39
857.47	1079.67
857.79	1080.58
858.10	1079.29
858.41	1077.89
858.73	1075.34
859.04	1078.87
859.36	1077.93
859.67	1081.66
859.98	1082.15
860.30	1085.47
860.61	1080.58
860.92	1084.98
861.24	1080.95
861.55	1079.34
861.87	1075.48
862.18	1081.19
862.49	1079.53
862.81	1082.83
863.12	1083.08
863.43	1085.42
863.74	1084.21
864.06	1084.93
864.37	1084.14
864.68	1086.48
865.00	1085.91
865.31	1083.93
865.62	1083.55
865.94	1082.66
866.25	1084.79
866.56	1083.71
866.87	1087.90
867.19	1084.98
867.50	1086.27
867.81	1080.56
868.12	1079.20
868.44	1075.20
868.75	1079.36
869.06	1078.50
869.37	1080.41
869.68	1084.93
870.00	1083.79
870.31	1083.71
870.62	1082.08
870.93	1081.51
871.24	1083.36
871.56	1081.68
871.87	1077.70
872.18	1078.94
872.49	1078.71
872.80	1074.21
873.12	1077.86
873.43	1081.21
873.74	1079.62
874.05	1081.16
874.36	1079.99
874.67	1078.00
874.98	1076.83
875.29	1075.24
875.61	1074.47
875.92	1078.87
876.23	1082.76
876.54	1080.56
876.85	1080.60
877.16	1082.10
877.47	1080.18
877.78	1077.89
878.09	1078.61
878.40	1080.56
878.72	1082.40
879.03	1080.44
879.34	1080.67
879.65	1082.54
879.96	1082.76
880.27	1082.71
880.58	1084.53
880.89	1085.19
881.20	1082.76
881.51	1084.96
881.82	1081.73
882.13	1081.96
882.44	1083.95
882.75	1087.13
883.06	1087.74
883.37	1090.27
883.68	1089.80
883.99	1087.90
884.30	1087.41
884.61	1086.71
884.92	1085.94
885.23	1087.60
885.54	1088.72
885.85	1088.30
886.16	1088.37
886.47	1086.10
886.78	1085.26
887.08	1084.16
887.39	1082.54
887.70	1080.95
888.01	1083.46
888.32	1083.11
888.63	1082.38
888.94	1084.42
889.25	1084.42
889.56	1083.79
889.87	1082.22
890.17	1081.19
890.48	1079.57
890.79	1077.79
891.10	1079.31
891.41	1079.90
891.72	1080.77
892.03	1079.69
892.34	1080.51
892.64	1079.76
892.95	1084.04
893.26	1085.99
893.57	1086.62
893.88	1089.57
894.18	1090.53
894.49	1089.61
894.80	1090.01
895.11	1092.21
895.42	1088.68
895.72	1089.12
896.03	1085.40
896.34	1085.87
896.65	1082.05
896.96	1083.62
897.26	1080.04
897.57	1080.91
897.88	1078.28
898.19	1083.46
898.49	1082.47
898.80	1087.25
899.11	1086.71
899.41	1086.08
899.72	1080.72
900.03	1082.71
900.34	1080.86
900.64	1082.40
900.95	1084.65
901.26	1086.41
901.56	1087.46
901.87	1087.30
902.18	1088.28
902.48	1087.67
902.79	1084.11
903.10	1083.32
903.40	1081.44
903.71	1081.84
904.02	1080.81
904.32	1087.41
904.63	1086.29
904.94	1086.71
905.24	1084.46
905.55	1085.73
905.85	1080.23
906.16	1078.05
906.47	1077.96
906.77	1080.04
907.08	1077.14
907.38	1080.81
907.69	1082.17
908.00	1080.18
908.30	1077.61
908.61	1081.02
908.91	1083.01
909.22	1087.97
909.52	1087.90
909.83	1089.96
910.14	1087.67
910.44	1087.23
910.75	1084.79
911.05	1086.64
911.36	1085.05
911.66	1083.64
911.97	1085.66
912.27	1082.26
912.58	1081.77
912.88	1082.64
913.19	1083.95
913.49	1078.94
913.80	1078.71
914.10	1076.34
914.41	1075.48
914.71	1077.51
915.01	1080.91
915.32	1082.17
915.62	1083.32
915.93	1082.29
916.23	1080.72
916.54	1075.99
916.84	1074.75
917.15	1077.93
917.45	1078.78
917.75	1078.36
918.06	1082.90
918.36	1085.33
918.67	1082.01
918.97	1079.01
919.27	1079.76
919.58	1075.48
919.88	1074.42
920.18	1075.31
920.49	1079.64
920.79	1079.48
921.10	1079.90
921.40	1082.54
921.70	1083.69
922.01	1082.64
922.31	1084.23
922.61	1085.28
922.92	1083.29
923.22	1081.70
923.52	1081.21
923.82	1081.42
924.13	1082.52
924.43	1079.60
924.73	1081.73
925.04	1082.01
925.34	1079.34
925.64	1078.00
925.94	1079.99
926.25	1077.82
926.55	1076.25
926.85	1077.28
927.15	1079.15
927.46	1077.18
927.76	1078.92
928.06	1080.13
928.36	1078.36
928.67	1078.52
928.97	1081.87
929.27	1081.91
929.57	1083.50
929.87	1082.69
930.18	1085.21
930.48	1084.60
930.78	1086.13
931.08	1087.72
931.38	1089.40
931.69	1087.32
931.99	1084.93
932.29	1084.04
932.59	1084.35
932.89	1085.24
933.19	1085.38
933.49	1087.95
933.80	1086.73
934.10	1085.40
934.40	1082.40
934.70	1079.60
935.00	1078.66
935.30	1079.41
935.60	1078.12
935.90	1079.15
936.20	1083.29
936.50	1082.71
936.81	1080.34
937.11	1080.70
937.41	1083.01
937.71	1079.38
938.01	1082.17
938.31	1084.18
938.61	1083.29
938.91	1082.71
939.21	1082.92
939.51	1079.50
939.81	1078.31
940.11	1080.53
940.41	1081.80
940.71	1081.77
941.01	1081.51
941.31	1082.33
941.61	1084.00
941.91	1081.28
942.21	1084.84
942.51	1085.84
942.81	1085.19
943.11	1081.91
943.41	1083.27
943.71	1078.26
944.01	1074.40
944.31	1075.57
944.61	1077.07
944.90	1071.92
945.20	1074.33
945.50	1077.11
945.80	1076.55
946.10	1076.39
946.40	1078.85
946.70	1079.20
947.00	1080.74
947.30	1081.51
947.60	1081.80
947.89	1085.12
948.19	1084.84
948.49	1088.68
948.79	1089.52
949.09	1084.98
949.39	1084.74
949.69	1082.80
949.98	1078.75
950.28	1078.92
950.58	1079.43
950.88	1081.87
951.18	1080.93
951.48	1081.12
951.77	1078.45
952.07	1081.56
952.37	1079.03
952.67	1082.59
952.97	1081.61
953.26	1083.67
953.56	1084.70
953.86	1085.33
954.16	1084.58
954.45	1082.97
954.75	1084.63
955.05	1081.77
955.35	1078.03
955.64	1073.79
955.94	1076.27
956.24	1074.75
956.54	1077.25
956.83	1080.63
957.13	1088.04
957.43	1090.15
957.72	1088.77
958.02	1089.31
958.32	1088.70
958.61	1086.10
958.91	1084.11
959.21	1083.83
959.50	1080.79
959.80	1079.92
960.10	1080.88
960.39	1083.43
960.69	1085.52
960.99	1086.34
961.28	1089.59
961.58	1090.13
961.87	1088.19
962.17	1088.26
962.47	1088.51
962.76	1087.58
963.06	1084.60
963.36	1084.14
963.65	1084.25
963.95	1081.61
964.24	1082.29
964.54	1083.06
964.83	1083.81
965.13	1080.13
965.42	1083.06
965.72	1082.22
966.02	1080.98
966.31	1079.57
966.61	1082.12
966.90	1081.70
967.20	1078.85
967.49	1080.39
967.79	1079.36
968.08	1075.78
968.38	1078.14
968.67	1081.02
968.97	1079.13
969.26	1082.03
969.56	1084.96
969.85	1082.54
970.15	1084.42
970.44	1086.36
970.74	1085.94
971.03	1086.24
971.32	1086.90
971.62	1083.27
971.91	1081.02
972.21	1082.50
972.50	1081.37
972.80	1082.54
973.09	1084.14
973.38	1085.00
973.68	1083.86
973.97	1085.14
974.27	1084.81
974.56	1082.31
974.85	1081.94
975.15	1081.82
975.44	1084.04
975.73	1083.15
976.03	1081.98
976.32	1084.00
976.61	1082.40
976.91	1077.79
977.20	1078.31
977.49	1082.12
977.79	1081.73
978.08	1082.85
978.37	1086.48
978.67	1086.13
978.96	1085.40
979.25	1084.04
979.55	1084.58
979.84	1085.35
980.13	1080.98
980.42	1080.72
980.72	1084.67
981.01	1085.28
981.30	1082.36
981.59	1086.17
981.89	1089.71
982.18	1084.44
982.47	1082.19
982.76	1081.37
983.06	1080.81
983.35	1075.45
983.64	1076.41
983.93	1074.56
984.22	1076.34
984.52	1076.81
984.81	1077.33
985.10	1076.67
985.39	1078.21
985.68	1076.95
985.97	1077.51
986.27	1077.51
986.56	1080.25
986.85	1081.21
987.14	1079.76
987.43	1079.62
987.72	1078.21
988.01	1077.02
988.31	1077.54
988.60	1078.66
988.89	1075.50
989.18	1074.28
989.47	1077.00
989.76	1074.40
990.05	1073.49
990.34	1076.27
990.63	1080.09
990.92	1078.17
991.21	1081.40
991.51	1084.96
991.80	1081.47
992.09	1081.37
992.38	1082.94
992.67	1083.50
992.96	1081.61
993.25	1086.92
993.54	1088.12
993.83	1085.10
994.12	1084.84
994.41	1084.46
994.70	1082.85
994.99	1082.29
995.28	1083.90
995.57	1079.13
995.86	1082.69
996.15	1082.57
996.44	1081.73
996.73	1082.97
997.02	1085.82
997.31	1081.66
997.59	1083.69
997.88	1084.02
998.17	1083.22
998.46	1085.24
998.75	1088.72
999.04	1085.54
999.33	1086.34
999.62	1083.69
999.91	1081.37
1000.20	1080.67
1000.49	1080.11
1000.77	1078.40
1001.06	1079.22
1001.35	1083.67
1001.64	1086.43
1001.93	1089.78
1002.22	1091.04
1002.51	1091.91
1002.79	1086.87
1003.08	1082.64
1003.37	1080.56
1003.66	1075.97
1003.95	1076.95
1004.23	1077.86
1004.52	1077.96
1004.81	1080.16
1005.10	1083.41
1005.39	1083.34
1005.67	1085.10
1005.96	1085.05
1006.25	1083.20
1006.54	1085.33
1006.83	1084.49
1007.11	1082.12
1007.40	1082.97
1007.69	1082.69
1007.97	1079.43
1008.26	1079.17
1008.55	1082.17
1008.84	1078.40
1009.12	1079.62
1009.41	1078.50
1009.70	1078.78
1009.98	1079.15
1010.27	1082.22
1010.56	1084.18
1010.85	1085.68
1011.13	1081.91
1011.42	1080.58
1011.71	1081.73
1011.99	1079.69
1012.28	1082.61
1012.56	1088.98
1012.85	1088.28
1013.14	1088.19
1013.42	1090.50
1013.71	1090.24
1014.00	1086.69
1014.28	1086.08
1014.57	1087.51
1014.85	1084.86
1015.14	1084.14
1015.43	1087.06
1015.71	1087.18
1016.00	1086.10
1016.28	1086.78
1016.57	1084.60
1016.85	1085.38
1017.14	1084.63
1017.43	1084.32
1017.71	1080.74
1018.00	1080.63
1018.28	1075.31
1018.57	1075.92
1018.85	1072.32
1019.14	1075.76
1019.42	1076.93
1019.71	1078.00
1019.99	1079.01
1020.28	1080.44
1020.56	1080.65
1020.85	1083.95
1021.13	1083.43
1021.42	1082.10
1021.70	1082.54
1021.99	1080.51
1022.27	1076.30
1022.55	1078.05
1022.84	1073.60
>>>>>End Processed Spectral Data<<<<<
