SpectraSuite Data File
++++++++++++++++++++++++++++++++++++
Date: Mon Aug 26 10:26:59 PDT 2019
User: corrico
Dark Spectrum Present: No
Reference Spectrum Present: No
Number of Sampled Component Spectra: 1
Spectrometers: USB2+H06089
Integration Time (usec): 10000 (USB2+H06089)
Spectra Averaged: 20 (USB2+H06089)
Boxcar Smoothing: 2 (USB2+H06089)
Correct for Electrical Dark: No (USB2+H06089)
Strobe/Lamp Enabled: No (USB2+H06089)
Correct for Detector Non-linearity: No (USB2+H06089)
Correct for Stray Light: No (USB2+H06089)
Number of Pixels in Processed Spectrum: 2048
>>>>>Begin Processed Spectral Data<<<<<
339.70	1017.66
340.07	1017.66
340.45	988.27
340.82	968.12
341.19	948.24
341.57	924.25
341.94	912.65
342.31	908.41
342.69	906.19
343.06	900.76
343.43	901.06
343.81	902.00
344.18	900.78
344.55	903.49
344.93	909.49
345.30	919.36
345.67	929.59
346.04	939.21
346.42	948.60
346.79	956.79
347.16	963.18
347.54	968.00
347.91	973.26
348.28	982.16
348.65	992.39
349.03	1001.33
349.40	1010.13
349.77	1018.72
350.14	1025.20
350.52	1028.81
350.89	1033.60
351.26	1040.34
351.63	1048.63
352.01	1051.74
352.38	1058.11
352.75	1060.64
353.12	1063.35
353.50	1065.95
353.87	1070.00
354.24	1069.91
354.61	1074.89
354.98	1076.13
355.36	1077.65
355.73	1079.92
356.10	1083.74
356.47	1084.35
356.84	1085.49
357.22	1081.68
357.59	1076.48
357.96	1077.58
358.33	1076.04
358.70	1074.26
359.08	1076.81
359.45	1079.62
359.82	1076.95
360.19	1074.03
360.56	1075.31
360.94	1071.45
361.31	1069.11
361.68	1068.99
362.05	1072.04
362.42	1074.45
362.79	1077.91
363.16	1078.59
363.54	1079.01
363.91	1078.21
364.28	1076.13
364.65	1075.15
365.02	1077.49
365.39	1076.27
365.76	1075.90
366.14	1075.73
366.51	1074.94
366.88	1071.99
367.25	1071.17
367.62	1068.29
367.99	1065.15
368.36	1063.21
368.73	1063.38
369.10	1064.15
369.48	1064.80
369.85	1066.77
370.22	1069.23
370.59	1070.70
370.96	1069.13
371.33	1070.54
371.70	1069.06
372.07	1069.51
372.44	1069.41
372.81	1070.23
373.18	1072.15
373.55	1074.38
373.93	1072.01
374.30	1074.05
374.67	1076.65
375.04	1075.57
375.41	1074.66
375.78	1076.32
376.15	1075.01
376.52	1071.73
376.89	1071.03
377.26	1070.49
377.63	1069.55
378.00	1067.31
378.37	1070.82
378.74	1068.71
379.11	1069.11
379.48	1072.41
379.85	1074.68
380.22	1072.55
380.59	1073.37
380.96	1071.75
381.33	1068.97
381.70	1068.81
382.07	1070.98
382.44	1073.84
382.81	1076.48
383.18	1076.37
383.55	1072.20
383.92	1070.82
384.29	1070.47
384.66	1071.29
385.03	1073.88
385.40	1074.73
385.77	1077.18
386.14	1076.13
386.51	1074.91
386.88	1077.07
387.25	1079.67
387.62	1078.17
387.99	1076.04
388.36	1074.56
388.73	1071.94
389.10	1072.57
389.46	1073.58
389.83	1075.50
390.20	1075.80
390.57	1077.91
390.94	1078.57
391.31	1076.25
391.68	1076.95
392.05	1079.85
392.42	1077.82
392.79	1076.95
393.16	1079.24
393.53	1075.45
393.89	1075.01
394.26	1074.77
394.63	1072.46
395.00	1068.55
395.37	1070.33
395.74	1067.24
396.11	1066.16
396.48	1068.95
396.84	1072.27
397.21	1071.68
397.58	1072.67
397.95	1078.47
398.32	1077.40
398.69	1075.05
399.06	1077.33
399.42	1078.87
399.79	1076.30
400.16	1077.63
400.53	1080.27
400.90	1078.24
401.27	1076.55
401.64	1076.44
402.00	1075.62
402.37	1075.41
402.74	1076.83
403.11	1077.68
403.48	1077.07
403.84	1077.02
404.21	1074.80
404.58	1078.57
404.95	1080.34
405.32	1080.16
405.68	1080.16
406.05	1080.18
406.42	1076.67
406.79	1074.59
407.16	1073.74
407.52	1074.49
407.89	1075.80
408.26	1075.15
408.63	1074.63
408.99	1076.20
409.36	1074.45
409.73	1072.88
410.10	1073.25
410.47	1075.27
410.83	1072.76
411.20	1075.64
411.57	1078.10
411.94	1078.78
412.30	1080.44
412.67	1079.67
413.04	1078.54
413.40	1077.16
413.77	1076.53
414.14	1075.03
414.51	1076.11
414.87	1076.60
415.24	1076.01
415.61	1077.61
415.97	1077.89
416.34	1078.05
416.71	1077.98
417.08	1079.69
417.44	1079.03
417.81	1075.50
418.18	1074.89
418.54	1073.88
418.91	1072.97
419.28	1072.95
419.64	1077.35
420.01	1078.54
420.38	1080.04
420.74	1079.92
421.11	1082.69
421.48	1080.81
421.84	1082.76
422.21	1081.09
422.58	1079.31
422.94	1075.69
423.31	1076.81
423.68	1074.00
424.04	1069.53
424.41	1070.94
424.77	1072.01
425.14	1073.98
425.51	1074.96
425.87	1081.54
426.24	1081.23
426.61	1081.00
426.97	1077.68
427.34	1077.44
427.70	1078.05
428.07	1081.19
428.44	1080.79
428.80	1081.42
429.17	1079.53
429.53	1078.54
429.90	1076.27
430.27	1074.87
430.63	1074.82
431.00	1074.84
431.36	1073.11
431.73	1072.92
432.09	1074.87
432.46	1077.02
432.83	1077.79
433.19	1076.95
433.56	1076.88
433.92	1074.63
434.29	1070.02
434.65	1068.88
435.02	1069.39
435.38	1066.51
435.75	1069.30
436.11	1071.33
436.48	1075.03
436.84	1077.61
437.21	1080.23
437.57	1078.12
437.94	1077.21
438.30	1073.35
438.67	1071.36
439.03	1074.28
439.40	1074.75
439.76	1076.65
440.13	1079.99
440.49	1078.54
440.86	1076.74
441.22	1077.49
441.59	1077.11
441.95	1078.36
442.32	1078.19
442.68	1081.89
443.05	1084.18
443.41	1083.95
443.78	1080.84
444.14	1084.46
444.51	1080.79
444.87	1079.06
445.24	1082.01
445.60	1082.08
445.96	1082.43
446.33	1082.19
446.69	1084.39
447.06	1084.28
447.42	1087.65
447.79	1087.88
448.15	1088.72
448.51	1086.80
448.88	1084.46
449.24	1083.79
449.61	1081.28
449.97	1079.13
450.33	1078.31
450.70	1080.72
451.06	1078.78
451.43	1080.39
451.79	1083.48
452.15	1084.04
452.52	1079.67
452.88	1079.48
453.24	1078.19
453.61	1076.37
453.97	1074.31
454.34	1076.44
454.70	1075.31
455.06	1078.43
455.43	1080.04
455.79	1080.95
456.15	1078.26
456.52	1077.72
456.88	1074.77
457.24	1073.25
457.61	1073.11
457.97	1076.60
458.33	1077.96
458.70	1076.97
459.06	1076.06
459.42	1075.76
459.79	1074.68
460.15	1076.04
460.51	1076.67
460.88	1077.79
461.24	1081.68
461.60	1079.08
461.96	1079.22
462.33	1080.79
462.69	1079.27
463.05	1075.85
463.42	1078.03
463.78	1076.30
464.14	1073.74
464.50	1075.13
464.87	1079.64
465.23	1082.24
465.59	1082.64
465.95	1087.11
466.32	1087.06
466.68	1083.41
467.04	1080.06
467.40	1080.56
467.77	1077.82
468.13	1078.87
468.49	1076.74
468.85	1077.56
469.22	1078.33
469.58	1078.28
469.94	1080.13
470.30	1085.38
470.66	1087.04
471.03	1084.96
471.39	1083.86
471.75	1080.53
472.11	1079.34
472.47	1080.48
472.84	1084.30
473.20	1083.57
473.56	1085.35
473.92	1086.87
474.28	1084.86
474.65	1082.12
475.01	1084.86
475.37	1084.81
475.73	1079.60
476.09	1077.23
476.45	1078.33
476.81	1079.55
477.18	1077.79
477.54	1079.88
477.90	1079.97
478.26	1080.58
478.62	1079.08
478.98	1079.78
479.34	1079.15
479.71	1082.03
480.07	1081.94
480.43	1083.79
480.79	1083.95
481.15	1085.73
481.51	1085.61
481.87	1086.03
482.23	1081.91
482.59	1080.91
482.96	1079.20
483.32	1075.73
483.68	1070.61
484.04	1073.11
484.40	1072.57
484.76	1074.38
485.12	1075.90
485.48	1078.07
485.84	1080.53
486.20	1084.91
486.56	1085.00
486.92	1084.70
487.28	1088.12
487.64	1083.06
488.00	1081.28
488.37	1080.23
488.73	1079.13
489.09	1076.83
489.45	1077.70
489.81	1079.78
490.17	1080.32
490.53	1083.08
490.89	1083.15
491.25	1081.44
491.61	1082.97
491.97	1082.33
492.33	1080.25
492.69	1083.50
493.05	1085.26
493.41	1083.04
493.77	1080.53
494.13	1081.54
494.49	1077.35
494.85	1082.19
495.21	1080.11
495.57	1081.91
495.93	1083.25
496.29	1083.22
496.64	1078.17
497.00	1077.79
497.36	1078.21
497.72	1077.30
498.08	1080.23
498.44	1083.08
498.80	1082.17
499.16	1083.11
499.52	1084.79
499.88	1081.63
500.24	1080.79
500.60	1082.45
500.96	1085.89
501.32	1087.72
501.68	1090.85
502.03	1090.92
502.39	1091.02
502.75	1087.04
503.11	1084.25
503.47	1082.50
503.83	1082.33
504.19	1081.96
504.55	1084.04
504.91	1085.52
505.26	1086.97
505.62	1086.92
505.98	1090.60
506.34	1087.04
506.70	1084.63
507.06	1083.57
507.42	1083.29
507.78	1079.13
508.13	1081.44
508.49	1082.94
508.85	1081.87
509.21	1082.03
509.57	1083.95
509.93	1084.58
510.28	1083.29
510.64	1083.83
511.00	1082.52
511.36	1081.89
511.72	1078.66
512.07	1080.77
512.43	1081.33
512.79	1082.87
513.15	1083.36
513.51	1085.33
513.86	1086.03
514.22	1087.09
514.58	1084.60
514.94	1082.61
515.30	1081.19
515.65	1082.03
516.01	1078.89
516.37	1079.81
516.73	1080.32
517.08	1082.15
517.44	1081.09
517.80	1083.27
518.16	1084.07
518.51	1083.88
518.87	1082.22
519.23	1078.17
519.59	1078.78
519.94	1081.51
520.30	1083.06
520.66	1086.34
521.01	1088.58
521.37	1086.31
521.73	1084.67
522.09	1081.73
522.44	1078.05
522.80	1078.54
523.16	1077.70
523.51	1075.31
523.87	1076.69
524.23	1079.06
524.58	1076.34
524.94	1079.13
525.30	1078.40
525.65	1078.14
526.01	1077.75
526.37	1079.01
526.72	1077.82
527.08	1079.13
527.44	1078.19
527.79	1074.59
528.15	1072.71
528.51	1076.72
528.86	1080.09
529.22	1080.41
529.58	1084.39
529.93	1087.32
530.29	1083.18
530.65	1077.54
531.00	1080.23
531.36	1078.47
531.71	1079.74
532.07	1079.74
532.43	1082.31
532.78	1080.98
533.14	1083.15
533.49	1082.40
533.85	1087.55
534.21	1088.44
534.56	1090.01
534.92	1092.37
535.27	1092.00
535.63	1088.47
535.98	1089.05
536.34	1086.55
536.69	1083.32
537.05	1083.25
537.41	1082.80
537.76	1083.36
538.12	1086.94
538.47	1085.68
538.83	1087.30
539.18	1088.23
539.54	1087.37
539.89	1086.24
540.25	1088.42
540.60	1086.87
540.96	1084.89
541.31	1083.88
541.67	1082.87
542.02	1083.13
542.38	1086.29
542.73	1089.00
543.09	1090.71
543.44	1089.54
543.80	1090.29
544.15	1090.27
544.51	1087.13
544.86	1086.27
545.22	1086.52
545.57	1086.29
545.93	1083.36
546.28	1086.66
546.64	1088.72
546.99	1090.99
547.35	1093.52
547.70	1093.47
548.05	1091.42
548.41	1089.57
548.76	1087.34
549.12	1085.28
549.47	1086.24
549.83	1086.71
550.18	1084.67
550.53	1086.22
550.89	1083.41
551.24	1081.28
551.60	1081.44
551.95	1083.27
552.30	1082.17
552.66	1083.93
553.01	1082.99
553.37	1082.61
553.72	1080.88
554.07	1079.15
554.43	1074.24
554.78	1077.23
555.13	1075.92
555.49	1079.03
555.84	1081.94
556.19	1084.65
556.55	1083.27
556.90	1084.35
557.26	1081.96
557.61	1081.09
557.96	1082.59
558.32	1083.62
558.67	1084.23
559.02	1083.76
559.37	1082.05
559.73	1082.45
560.08	1082.59
560.43	1083.36
560.79	1086.01
561.14	1087.16
561.49	1088.84
561.85	1088.65
562.20	1086.29
562.55	1083.15
562.90	1084.58
563.26	1084.79
563.61	1084.37
563.96	1085.94
564.32	1086.62
564.67	1085.82
565.02	1082.80
565.37	1080.34
565.73	1078.57
566.08	1080.60
566.43	1077.96
566.78	1079.55
567.14	1083.97
567.49	1084.32
567.84	1082.45
568.19	1083.27
568.54	1080.58
568.90	1077.23
569.25	1079.41
569.60	1082.03
569.95	1082.69
570.31	1085.63
570.66	1086.76
571.01	1085.05
571.36	1080.27
571.71	1081.51
572.06	1080.67
572.42	1082.22
572.77	1083.27
573.12	1084.89
573.47	1085.75
573.82	1088.49
574.18	1086.80
574.53	1086.29
574.88	1087.51
575.23	1086.73
575.58	1085.84
575.93	1086.31
576.28	1085.82
576.64	1086.97
576.99	1085.03
577.34	1081.23
577.69	1081.87
578.04	1084.16
578.39	1080.91
578.74	1081.87
579.09	1083.69
579.44	1083.13
579.80	1081.66
580.15	1084.02
580.50	1083.13
580.85	1085.45
581.20	1085.56
581.55	1089.61
581.90	1089.64
582.25	1090.43
582.60	1086.36
582.95	1081.82
583.30	1078.85
583.65	1078.36
584.00	1079.48
584.35	1080.02
584.71	1082.99
585.06	1080.32
585.41	1080.34
585.76	1079.88
586.11	1083.11
586.46	1084.32
586.81	1088.28
587.16	1090.53
587.51	1092.05
587.86	1090.10
588.21	1089.61
588.56	1085.05
588.91	1083.36
589.26	1079.88
589.61	1078.03
589.96	1080.11
590.31	1079.22
590.66	1078.54
591.01	1081.02
591.36	1081.75
591.71	1080.41
592.06	1082.61
592.41	1085.17
592.76	1084.86
593.10	1086.31
593.45	1083.53
593.80	1082.43
594.15	1083.29
594.50	1081.54
594.85	1081.66
595.20	1081.37
595.55	1082.43
595.90	1078.61
596.25	1083.06
596.60	1079.74
596.95	1081.12
597.30	1083.34
597.64	1133.83
597.99	1133.38
598.34	1134.93
598.69	1138.37
599.04	1137.85
599.39	1089.89
599.74	1085.70
600.09	1086.34
600.44	1088.68
600.78	1088.93
601.13	1090.15
601.48	1093.31
601.83	1092.66
602.18	1087.79
602.53	1086.85
602.88	1083.18
603.22	1081.73
603.57	1084.91
603.92	1084.98
604.27	1086.27
604.62	1087.67
604.97	1087.25
605.31	1085.47
605.66	1084.44
606.01	1084.93
606.36	1083.95
606.71	1083.15
607.05	1083.08
607.40	1085.17
607.75	1080.60
608.10	1079.83
608.44	1083.15
608.79	1086.03
609.14	1090.39
609.49	1097.24
609.84	1100.52
610.18	1099.51
610.53	1101.15
610.88	1100.50
611.23	1100.52
611.57	1104.64
611.92	1104.15
612.27	1099.72
612.62	1095.75
612.96	1093.31
613.31	1087.53
613.66	1087.13
614.00	1090.67
614.35	1090.53
614.70	1089.96
615.05	1090.08
615.39	1088.47
615.74	1086.62
616.09	1090.13
616.43	1087.72
616.78	1087.16
617.13	1090.34
617.47	1088.91
617.82	1085.40
618.17	1087.79
618.51	1085.21
618.86	1085.87
619.21	1086.24
619.55	1091.72
619.90	1091.44
620.25	1091.39
620.59	1090.53
620.94	1091.06
621.29	1088.16
621.63	1088.00
621.98	1092.35
622.32	1090.06
622.67	1090.03
623.02	1083.79
623.36	1082.33
623.71	1079.90
624.05	1083.83
624.40	1086.17
624.75	1091.79
625.09	1094.60
625.44	1096.07
625.78	1092.82
626.13	1089.22
626.48	1088.37
626.82	1088.77
627.17	1088.93
627.51	1091.56
627.86	1094.57
628.20	1095.75
628.55	1092.19
628.89	1090.08
629.24	1089.03
629.58	1087.37
629.93	1085.05
630.28	1085.00
630.62	1087.23
630.97	1086.83
631.31	1083.81
631.66	1080.37
632.00	1080.37
632.35	1078.24
632.69	1072.88
633.04	1074.59
633.38	1080.53
633.73	1083.08
634.07	1084.53
634.42	1089.19
634.76	1088.70
635.11	1087.34
635.45	1086.01
635.79	1086.57
636.14	1086.13
636.48	1085.59
636.83	1083.25
637.17	1082.31
637.52	1082.94
637.86	1083.27
638.21	1083.60
638.55	1084.79
638.89	1085.87
639.24	1083.48
639.58	1082.24
639.93	1080.02
640.27	1078.21
640.61	1076.81
640.96	1078.05
641.30	1078.71
641.65	1080.74
641.99	1084.30
642.33	1084.77
642.68	1086.10
643.02	1086.31
643.37	1087.46
643.71	1084.51
644.05	1086.76
644.40	1082.71
644.74	1081.54
645.08	1078.45
645.43	1080.11
645.77	1078.28
646.11	1080.98
646.46	1083.48
646.80	1086.78
647.14	1084.86
647.49	1085.77
647.83	1080.98
648.17	1081.63
648.52	1079.10
648.86	1080.74
649.20	1078.87
649.55	1081.94
649.89	1081.09
650.23	1081.89
650.57	1078.47
650.92	1078.61
651.26	1081.98
651.60	1080.23
651.95	1080.46
652.29	1081.58
652.63	1080.34
652.97	1076.58
653.32	1078.52
653.66	1081.28
654.00	1083.39
654.34	1088.61
654.69	1092.66
655.03	1092.75
655.37	1088.86
655.71	1089.05
656.05	1084.46
656.40	1080.93
656.74	1079.17
657.08	1082.52
657.42	1082.78
657.76	1084.60
658.11	1085.82
658.45	1087.30
658.79	1084.21
659.13	1085.31
659.47	1086.13
659.82	1086.71
660.16	1084.46
660.50	1085.10
660.84	1080.46
661.18	1079.85
661.52	1078.59
661.87	1078.64
662.21	1079.13
662.55	1082.76
662.89	1080.63
663.23	1080.32
663.57	1080.93
663.91	1081.02
664.25	1080.53
664.60	1081.61
664.94	1082.66
665.28	1083.67
665.62	1085.03
665.96	1083.97
666.30	1085.56
666.64	1084.18
666.98	1082.71
667.32	1082.19
667.66	1082.78
668.01	1083.08
668.35	1083.36
668.69	1085.61
669.03	1086.13
669.37	1088.19
669.71	1086.50
670.05	1087.58
670.39	1086.64
670.73	1085.21
671.07	1084.70
671.41	1084.25
671.75	1081.35
672.09	1080.63
672.43	1078.00
672.77	1074.47
673.11	1074.91
673.45	1078.05
673.79	1079.13
674.13	1080.09
674.47	1080.60
674.81	1083.60
675.15	1084.14
675.49	1083.88
675.83	1086.55
676.17	1088.21
676.51	1085.80
676.85	1086.03
677.19	1083.43
677.53	1079.34
677.87	1077.72
678.21	1078.68
678.55	1074.59
678.89	1076.62
679.23	1081.91
679.57	1081.21
679.90	1077.40
680.24	1079.92
680.58	1077.30
680.92	1075.01
681.26	1077.54
681.60	1080.20
681.94	1078.75
682.28	1080.48
682.62	1080.34
682.96	1078.87
683.29	1080.70
683.63	1082.31
683.97	1082.59
684.31	1081.26
684.65	1080.56
684.99	1078.07
685.33	1078.17
685.67	1079.57
686.00	1078.54
686.34	1082.92
686.68	1081.80
687.02	1080.48
687.36	1077.70
687.70	1079.10
688.03	1076.01
688.37	1078.31
688.71	1078.21
689.05	1081.91
689.39	1082.97
689.72	1082.15
690.06	1083.22
690.40	1083.88
690.74	1081.98
691.08	1082.01
691.41	1083.74
691.75	1080.72
692.09	1082.33
692.43	1081.75
692.76	1083.06
693.10	1083.86
693.44	1086.52
693.78	1084.86
694.11	1085.19
694.45	1081.58
694.79	1080.67
695.13	1076.53
695.46	1077.58
695.80	1080.53
696.14	1080.44
696.48	1081.12
696.81	1082.69
697.15	1079.36
697.49	1078.54
697.82	1082.24
698.16	1080.48
698.50	1079.95
698.83	1081.75
699.17	1080.04
699.51	1080.98
699.84	1083.62
700.18	1086.80
700.52	1090.13
700.85	1088.54
701.19	1087.20
701.53	1086.83
701.86	1083.79
702.20	1080.13
702.54	1081.70
702.87	1079.92
703.21	1080.53
703.55	1081.21
703.88	1081.21
704.22	1080.93
704.55	1085.40
704.89	1080.98
705.23	1081.75
705.56	1086.34
705.90	1089.19
706.23	1085.77
706.57	1085.68
706.91	1084.96
707.24	1083.69
707.58	1081.16
707.91	1079.81
708.25	1085.87
708.58	1089.50
708.92	1089.26
709.26	1089.52
709.59	1091.39
709.93	1086.24
710.26	1081.82
710.60	1078.68
710.93	1077.11
711.27	1076.30
711.60	1077.40
711.94	1079.76
712.27	1080.30
712.61	1081.00
712.94	1082.12
713.28	1084.30
713.61	1082.97
713.95	1083.67
714.28	1084.53
714.62	1083.53
714.95	1081.68
715.29	1082.97
715.62	1083.93
715.96	1082.73
716.29	1085.26
716.63	1084.53
716.96	1083.83
717.29	1081.61
717.63	1083.69
717.96	1081.89
718.30	1082.83
718.63	1082.69
718.97	1085.26
719.30	1083.32
719.63	1080.63
719.97	1080.58
720.30	1081.19
720.64	1077.09
720.97	1077.14
721.30	1078.89
721.64	1080.79
721.97	1078.59
722.31	1079.83
722.64	1079.24
722.97	1080.11
723.31	1080.44
723.64	1082.29
723.97	1083.53
724.31	1086.57
724.64	1086.08
724.98	1082.76
725.31	1082.40
725.64	1083.18
725.98	1082.90
726.31	1082.03
726.64	1080.23
726.97	1082.73
727.31	1082.03
727.64	1081.66
727.97	1080.20
728.31	1082.45
728.64	1081.96
728.97	1083.32
729.31	1079.13
729.64	1085.54
729.97	1084.98
730.30	1084.77
730.64	1084.30
730.97	1085.52
731.30	1081.98
731.63	1082.54
731.97	1080.77
732.30	1079.99
732.63	1079.34
732.96	1077.44
733.30	1073.60
733.63	1073.37
733.96	1074.89
734.29	1075.73
734.63	1077.37
734.96	1083.29
735.29	1083.50
735.62	1080.39
735.95	1082.83
736.29	1084.02
736.62	1082.54
736.95	1082.71
737.28	1084.72
737.61	1083.36
737.94	1082.36
738.28	1078.71
738.61	1075.76
738.94	1077.28
739.27	1077.16
739.60	1077.33
739.93	1082.87
740.27	1082.26
740.60	1082.17
740.93	1083.41
741.26	1082.76
741.59	1079.01
741.92	1084.16
742.25	1081.33
742.58	1082.85
742.91	1084.67
743.25	1085.91
743.58	1083.55
743.91	1081.14
744.24	1079.13
744.57	1075.73
744.90	1075.41
745.23	1075.62
745.56	1079.90
745.89	1079.90
746.22	1080.77
746.55	1078.96
746.88	1078.17
747.21	1073.11
747.54	1075.17
747.87	1076.74
748.20	1077.44
748.53	1079.62
748.87	1080.86
749.20	1078.43
749.53	1077.37
749.86	1080.51
750.19	1078.57
750.52	1080.86
750.85	1079.48
751.18	1080.20
751.51	1076.86
751.84	1078.68
752.16	1081.87
752.49	1085.40
752.82	1083.32
753.15	1085.77
753.48	1086.62
753.81	1085.99
754.14	1085.52
754.47	1088.23
754.80	1085.84
755.13	1081.73
755.46	1077.40
755.79	1075.87
756.12	1076.13
756.45	1078.10
756.78	1080.51
757.11	1081.70
757.43	1079.62
757.76	1076.81
758.09	1076.30
758.42	1074.75
758.75	1073.07
759.08	1075.17
759.41	1075.08
759.74	1076.60
760.07	1077.02
760.39	1080.53
760.72	1080.70
761.05	1081.23
761.38	1082.92
761.71	1084.53
762.04	1085.21
762.36	1087.81
762.69	1088.35
763.02	1086.66
763.35	1087.46
763.68	1085.33
764.01	1082.10
764.33	1084.89
764.66	1084.46
764.99	1080.65
765.32	1081.80
765.65	1085.94
765.97	1084.28
766.30	1081.37
766.63	1086.13
766.96	1087.97
767.28	1085.42
767.61	1083.32
767.94	1086.41
768.27	1082.85
768.59	1081.23
768.92	1082.57
769.25	1083.18
769.58	1082.61
769.90	1081.75
770.23	1080.88
770.56	1074.49
770.89	1075.38
771.21	1072.83
771.54	1075.01
771.87	1078.38
772.19	1082.05
772.52	1082.24
772.85	1085.14
773.17	1088.37
773.50	1086.62
773.83	1086.80
774.15	1087.46
774.48	1088.86
774.81	1087.30
775.13	1084.86
775.46	1084.91
775.79	1085.24
776.11	1081.02
776.44	1078.68
776.77	1084.16
777.09	1086.20
777.42	1085.56
777.74	1086.90
778.07	1086.17
778.40	1083.34
778.72	1080.60
779.05	1079.62
779.37	1078.52
779.70	1080.41
780.03	1079.60
780.35	1079.24
780.68	1079.76
781.00	1081.70
781.33	1079.01
781.65	1080.41
781.98	1078.50
782.31	1077.63
782.63	1077.02
782.96	1079.22
783.28	1077.42
783.61	1079.69
783.93	1081.40
784.26	1081.66
784.58	1081.47
784.91	1082.47
785.23	1079.34
785.56	1078.89
785.88	1078.38
786.21	1081.05
786.53	1081.02
786.86	1086.52
787.18	1088.09
787.51	1086.43
787.83	1084.04
788.16	1082.08
788.48	1083.43
788.81	1082.87
789.13	1086.45
789.46	1086.69
789.78	1085.99
790.10	1080.60
790.43	1079.48
790.75	1078.38
791.08	1079.95
791.40	1079.78
791.73	1086.48
792.05	1085.96
792.37	1086.92
792.70	1085.07
793.02	1086.76
793.35	1080.51
793.67	1079.85
793.99	1077.56
794.32	1077.02
794.64	1079.31
794.96	1080.13
795.29	1078.87
795.61	1080.27
795.93	1080.27
796.26	1077.18
796.58	1077.23
796.91	1079.06
797.23	1078.87
797.55	1081.37
797.87	1083.32
798.20	1083.83
798.52	1083.08
798.84	1080.63
799.17	1079.08
799.49	1078.68
799.81	1078.75
800.14	1079.43
800.46	1081.30
800.78	1081.87
801.10	1079.92
801.43	1083.25
801.75	1079.97
802.07	1080.46
802.40	1079.74
802.72	1077.79
803.04	1073.44
803.36	1076.13
803.69	1078.19
804.01	1076.97
804.33	1079.83
804.65	1081.96
804.97	1081.09
805.30	1079.24
805.62	1078.38
805.94	1081.77
806.26	1079.46
806.58	1081.87
806.91	1081.68
807.23	1084.02
807.55	1080.44
807.87	1084.14
808.19	1085.99
808.52	1085.12
808.84	1083.20
809.16	1083.22
809.48	1081.96
809.80	1080.77
810.12	1081.26
810.44	1083.13
810.77	1084.39
811.09	1083.69
811.41	1082.57
811.73	1083.60
812.05	1085.26
812.37	1084.96
812.69	1085.45
813.01	1085.12
813.33	1083.53
813.66	1081.28
813.98	1078.78
814.30	1077.70
814.62	1077.11
814.94	1080.84
815.26	1082.10
815.58	1086.62
815.90	1085.82
816.22	1085.19
816.54	1082.47
816.86	1082.92
817.18	1082.64
817.50	1084.21
817.82	1084.37
818.14	1083.46
818.46	1080.74
818.78	1077.11
819.10	1080.93
819.42	1080.67
819.74	1079.43
820.06	1078.28
820.38	1077.91
820.70	1075.36
821.02	1075.36
821.34	1076.81
821.66	1078.07
821.98	1079.62
822.30	1078.12
822.62	1077.49
822.94	1080.09
823.26	1080.81
823.58	1080.86
823.90	1082.52
824.22	1082.38
824.54	1082.85
824.86	1082.24
825.18	1080.37
825.50	1076.58
825.81	1076.13
826.13	1075.48
826.45	1077.72
826.77	1079.29
827.09	1082.97
827.41	1086.59
827.73	1085.94
828.05	1085.61
828.36	1086.92
828.68	1082.54
829.00	1079.08
829.32	1075.92
829.64	1077.30
829.96	1074.54
830.28	1078.54
830.59	1081.77
830.91	1082.52
831.23	1078.24
831.55	1081.61
831.87	1082.31
832.19	1081.42
832.50	1080.95
832.82	1082.26
833.14	1078.19
833.46	1077.09
833.78	1077.44
834.09	1082.03
834.41	1080.93
834.73	1083.97
835.05	1081.26
835.36	1080.56
835.68	1079.08
836.00	1080.34
836.32	1079.48
836.63	1082.90
836.95	1081.87
837.27	1079.08
837.59	1078.07
837.90	1077.23
838.22	1078.14
838.54	1082.40
838.85	1082.43
839.17	1082.90
839.49	1084.02
839.80	1084.32
840.12	1081.33
840.44	1082.22
840.76	1085.19
841.07	1084.49
841.39	1082.85
841.71	1081.05
842.02	1080.18
842.34	1076.32
842.65	1075.59
842.97	1075.66
843.29	1078.17
843.60	1079.29
843.92	1081.68
844.24	1082.83
844.55	1080.27
844.87	1078.43
845.18	1080.37
845.50	1083.01
845.82	1079.81
846.13	1079.55
846.45	1079.88
846.76	1080.63
847.08	1077.54
847.40	1080.39
847.71	1080.88
848.03	1080.53
848.34	1075.83
848.66	1077.04
848.97	1077.35
849.29	1079.92
849.60	1084.14
849.92	1090.41
850.24	1088.82
850.55	1090.08
850.87	1090.03
851.18	1086.34
851.50	1079.46
851.81	1078.73
852.13	1078.40
852.44	1078.99
852.76	1079.97
853.07	1081.14
853.39	1081.40
853.70	1081.73
854.01	1078.96
854.33	1079.34
854.64	1080.60
854.96	1083.11
855.27	1080.98
855.59	1080.32
855.90	1080.41
856.22	1083.81
856.53	1081.19
856.84	1080.25
857.16	1081.26
857.47	1078.31
857.79	1075.85
858.10	1077.54
858.41	1081.61
858.73	1083.67
859.04	1085.73
859.36	1085.54
859.67	1081.89
859.98	1081.47
860.30	1078.68
860.61	1077.93
860.92	1078.61
861.24	1079.85
861.55	1079.69
861.87	1080.60
862.18	1081.75
862.49	1082.73
862.81	1083.55
863.12	1082.08
863.43	1083.20
863.74	1083.90
864.06	1079.38
864.37	1079.78
864.68	1080.09
865.00	1076.39
865.31	1076.74
865.62	1079.71
865.94	1074.73
866.25	1073.65
866.56	1075.71
866.87	1076.13
867.19	1076.32
867.50	1081.21
867.81	1082.85
868.12	1082.64
868.44	1079.38
868.75	1080.25
869.06	1079.20
869.37	1077.42
869.68	1081.47
870.00	1080.46
870.31	1079.10
870.62	1080.04
870.93	1080.06
871.24	1075.90
871.56	1078.33
871.87	1076.86
872.18	1078.28
872.49	1079.34
872.80	1078.54
873.12	1076.67
873.43	1077.30
873.74	1076.58
874.05	1075.66
874.36	1076.65
874.67	1078.64
874.98	1078.14
875.29	1076.30
875.61	1076.11
875.92	1076.76
876.23	1076.76
876.54	1077.61
876.85	1076.08
877.16	1078.14
877.47	1077.96
877.78	1079.17
878.09	1079.41
878.40	1083.34
878.72	1084.04
879.03	1084.35
879.34	1082.52
879.65	1082.90
879.96	1083.34
880.27	1082.22
880.58	1083.20
880.89	1082.24
881.20	1081.23
881.51	1082.50
881.82	1078.85
882.13	1079.08
882.44	1080.72
882.75	1083.95
883.06	1081.91
883.37	1086.34
883.68	1084.00
883.99	1084.02
884.30	1081.84
884.61	1082.22
884.92	1079.83
885.23	1082.10
885.54	1080.63
885.85	1079.90
886.16	1076.58
886.47	1076.76
886.78	1078.07
887.08	1079.15
887.39	1078.21
887.70	1079.88
888.01	1079.53
888.32	1077.86
888.63	1076.83
888.94	1078.00
889.25	1077.23
889.56	1076.32
889.87	1077.51
890.17	1078.38
890.48	1078.87
890.79	1080.34
891.10	1082.57
891.41	1082.17
891.72	1082.54
892.03	1082.01
892.34	1078.75
892.64	1077.96
892.95	1077.51
893.26	1076.88
893.57	1076.86
893.88	1080.58
894.18	1080.13
894.49	1077.49
894.80	1079.69
895.11	1076.79
895.42	1077.04
895.72	1077.72
896.03	1078.33
896.34	1078.10
896.65	1084.04
896.96	1084.11
897.26	1085.21
897.57	1086.87
897.88	1085.87
898.19	1080.09
898.49	1081.33
898.80	1081.37
899.11	1077.37
899.41	1078.80
899.72	1084.89
900.03	1083.06
900.34	1083.55
900.64	1086.06
900.95	1084.30
901.26	1084.18
901.56	1084.72
901.87	1085.21
902.18	1086.55
902.48	1087.72
902.79	1083.74
903.10	1082.99
903.40	1083.06
903.71	1081.12
904.02	1078.21
904.32	1078.00
904.63	1076.58
904.94	1074.80
905.24	1074.42
905.55	1076.67
905.85	1079.34
906.16	1078.10
906.47	1075.87
906.77	1078.07
907.08	1078.21
907.38	1075.90
907.69	1078.66
908.00	1084.25
908.30	1087.55
908.61	1086.52
908.91	1084.70
909.22	1085.33
909.52	1082.69
909.83	1081.82
910.14	1080.51
910.44	1085.10
910.75	1085.73
911.05	1085.63
911.36	1086.80
911.66	1088.72
911.97	1086.03
912.27	1085.49
912.58	1085.19
912.88	1078.47
913.19	1078.21
913.49	1078.07
913.80	1073.09
914.10	1073.49
914.41	1076.41
914.71	1078.07
915.01	1077.44
915.32	1080.65
915.62	1080.30
915.93	1080.51
916.23	1080.44
916.54	1080.32
916.84	1079.99
917.15	1080.27
917.45	1077.21
917.75	1076.65
918.06	1077.98
918.36	1079.55
918.67	1079.48
918.97	1083.83
919.27	1083.41
919.58	1083.71
919.88	1084.02
920.18	1084.04
920.49	1083.76
920.79	1085.70
921.10	1086.31
921.40	1085.26
921.70	1088.98
922.01	1089.00
922.31	1087.04
922.61	1086.50
922.92	1087.16
923.22	1083.06
923.52	1081.68
923.82	1078.10
924.13	1078.68
924.43	1076.83
924.73	1078.43
925.04	1076.86
925.34	1080.39
925.64	1079.97
925.94	1081.82
926.25	1081.33
926.55	1082.76
926.85	1083.04
927.15	1082.50
927.46	1084.42
927.76	1085.70
928.06	1087.06
928.36	1087.74
928.67	1087.02
928.97	1082.50
929.27	1080.86
929.57	1080.44
929.87	1078.00
930.18	1079.90
930.48	1082.61
930.78	1082.94
931.08	1084.72
931.38	1085.33
931.69	1085.10
931.99	1085.70
932.29	1085.73
932.59	1084.74
932.89	1085.28
933.19	1085.84
933.49	1086.69
933.80	1084.77
934.10	1086.83
934.40	1086.83
934.70	1088.82
935.00	1085.38
935.30	1085.54
935.60	1083.36
935.90	1083.25
936.20	1079.41
936.50	1082.87
936.81	1082.10
937.11	1080.11
937.41	1079.55
937.71	1078.89
938.01	1077.84
938.31	1077.18
938.61	1079.08
938.91	1080.84
939.21	1078.17
939.51	1075.62
939.81	1076.15
940.11	1076.79
940.41	1077.77
940.71	1083.08
941.01	1085.33
941.31	1084.72
941.61	1083.90
941.91	1084.44
942.21	1082.31
942.51	1080.65
942.81	1085.63
943.11	1084.21
943.41	1082.66
943.71	1079.85
944.01	1083.13
944.31	1079.08
944.61	1081.42
944.90	1081.51
945.20	1085.56
945.50	1081.91
945.80	1083.29
946.10	1082.01
946.40	1079.06
946.70	1080.23
947.00	1084.35
947.30	1086.13
947.60	1085.68
947.89	1089.22
948.19	1088.09
948.49	1086.31
948.79	1084.65
949.09	1082.03
949.39	1079.10
949.69	1079.90
949.98	1075.97
950.28	1077.54
950.58	1081.12
950.88	1082.76
951.18	1080.25
951.48	1082.10
951.77	1081.82
952.07	1082.29
952.37	1079.53
952.67	1080.27
952.97	1083.46
953.26	1082.38
953.56	1080.27
953.86	1080.72
954.16	1081.70
954.45	1077.47
954.75	1078.17
955.05	1078.19
955.35	1080.46
955.64	1081.33
955.94	1086.24
956.24	1082.69
956.54	1081.77
956.83	1080.37
957.13	1077.98
957.43	1072.20
957.72	1070.51
958.02	1070.51
958.32	1071.50
958.61	1072.60
958.91	1077.68
959.21	1079.55
959.50	1079.48
959.80	1079.46
960.10	1077.09
960.39	1075.90
960.69	1078.28
960.99	1076.39
961.28	1076.41
961.58	1080.30
961.87	1079.60
962.17	1079.38
962.47	1082.90
962.76	1081.58
963.06	1077.58
963.36	1077.61
963.65	1078.40
963.95	1082.12
964.24	1086.69
964.54	1088.33
964.83	1088.21
965.13	1087.58
965.42	1084.65
965.72	1081.98
966.02	1082.26
966.31	1085.33
966.61	1086.76
966.90	1085.19
967.20	1083.20
967.49	1085.66
967.79	1083.76
968.08	1081.63
968.38	1080.39
968.67	1082.10
968.97	1080.53
969.26	1080.70
969.56	1077.93
969.85	1080.77
970.15	1081.63
970.44	1081.49
970.74	1079.60
971.03	1082.61
971.32	1080.16
971.62	1078.87
971.91	1080.13
972.21	1079.62
972.50	1078.52
972.80	1081.42
973.09	1080.88
973.38	1079.78
973.68	1079.43
973.97	1079.88
974.27	1078.38
974.56	1078.99
974.85	1075.45
975.15	1076.04
975.44	1075.85
975.73	1074.66
976.03	1076.20
976.32	1080.13
976.61	1081.80
976.91	1085.24
977.20	1085.87
977.49	1081.84
977.79	1078.07
978.08	1077.07
978.37	1074.56
978.67	1075.66
978.96	1079.67
979.25	1082.76
979.55	1083.57
979.84	1084.18
980.13	1081.47
980.42	1079.43
980.72	1077.96
981.01	1076.32
981.30	1076.01
981.59	1079.08
981.89	1081.37
982.18	1084.28
982.47	1086.55
982.76	1085.05
983.06	1085.07
983.35	1087.32
983.64	1084.44
983.93	1081.61
984.22	1083.93
984.52	1082.97
984.81	1078.59
985.10	1081.96
985.39	1084.44
985.68	1081.33
985.97	1080.37
986.27	1079.06
986.56	1076.39
986.85	1074.63
987.14	1074.45
987.43	1074.66
987.72	1075.59
988.01	1075.99
988.31	1076.65
988.60	1083.29
988.89	1082.85
989.18	1083.55
989.47	1084.11
989.76	1086.01
990.05	1082.10
990.34	1081.16
990.63	1084.16
990.92	1086.27
991.21	1084.35
991.51	1085.47
991.80	1089.38
992.09	1087.04
992.38	1085.14
992.67	1085.61
992.96	1084.70
993.25	1080.13
993.54	1078.14
993.83	1078.89
994.12	1078.50
994.41	1076.88
994.70	1081.98
994.99	1084.28
995.28	1086.41
995.57	1086.10
995.86	1088.07
996.15	1085.56
996.44	1083.76
996.73	1079.50
997.02	1078.21
997.31	1080.60
997.59	1080.39
997.88	1083.76
998.17	1081.63
998.46	1082.08
998.75	1082.76
999.04	1081.26
999.33	1077.33
999.62	1082.19
999.91	1085.33
1000.20	1078.43
1000.49	1081.16
1000.77	1083.41
1001.06	1081.70
1001.35	1079.01
1001.64	1084.09
1001.93	1085.28
1002.22	1082.97
1002.51	1081.51
1002.79	1085.42
1003.08	1082.52
1003.37	1080.25
1003.66	1081.02
1003.95	1082.69
1004.23	1075.99
1004.52	1076.11
1004.81	1077.84
1005.10	1082.52
1005.39	1082.03
1005.67	1086.76
1005.96	1086.94
1006.25	1085.45
1006.54	1080.06
1006.83	1079.74
1007.11	1079.08
1007.40	1080.84
1007.69	1078.38
1007.97	1079.34
1008.26	1081.16
1008.55	1079.43
1008.84	1078.61
1009.12	1082.19
1009.41	1080.11
1009.70	1077.56
1009.98	1078.96
1010.27	1077.93
1010.56	1076.67
1010.85	1079.20
1011.13	1081.94
1011.42	1079.22
1011.71	1078.68
1011.99	1077.28
1012.28	1078.73
1012.56	1077.49
1012.85	1077.82
1013.14	1078.31
1013.42	1079.01
1013.71	1077.35
1014.00	1077.25
1014.28	1079.13
1014.57	1079.83
1014.85	1080.27
1015.14	1078.40
1015.43	1078.92
1015.71	1081.19
1016.00	1080.48
1016.28	1080.27
1016.57	1081.07
1016.85	1080.02
1017.14	1075.62
1017.43	1077.63
1017.71	1078.80
1018.00	1079.29
1018.28	1077.84
1018.57	1078.85
1018.85	1078.57
1019.14	1079.53
1019.42	1080.88
1019.71	1082.31
1019.99	1081.94
1020.28	1082.31
1020.56	1081.49
1020.85	1082.38
1021.13	1082.45
1021.42	1086.03
1021.70	1085.49
1021.99	1084.56
1022.27	1084.93
1022.55	1079.81
1022.84	1090.69
>>>>>End Processed Spectral Data<<<<<
