SpectraSuite Data File
++++++++++++++++++++++++++++++++++++
Date: Mon Aug 26 10:26:57 PDT 2019
User: corrico
Dark Spectrum Present: No
Reference Spectrum Present: No
Number of Sampled Component Spectra: 1
Spectrometers: USB2+H06089
Integration Time (usec): 10000 (USB2+H06089)
Spectra Averaged: 20 (USB2+H06089)
Boxcar Smoothing: 2 (USB2+H06089)
Correct for Electrical Dark: No (USB2+H06089)
Strobe/Lamp Enabled: No (USB2+H06089)
Correct for Detector Non-linearity: No (USB2+H06089)
Correct for Stray Light: No (USB2+H06089)
Number of Pixels in Processed Spectrum: 2048
>>>>>Begin Processed Spectral Data<<<<<
339.70	1019.54
340.07	1019.54
340.45	990.47
340.82	970.27
341.19	948.67
341.57	925.75
341.94	917.28
342.31	908.41
342.69	903.05
343.06	901.79
343.43	902.98
343.81	901.76
344.18	906.28
344.55	909.13
344.93	910.52
345.30	914.73
345.67	923.01
346.04	930.81
346.42	941.71
346.79	954.05
347.16	965.24
347.54	972.96
347.91	976.89
348.28	983.05
348.65	990.94
349.03	997.75
349.40	1008.12
349.77	1021.34
350.14	1032.06
350.52	1038.36
350.89	1044.98
351.26	1045.96
351.63	1049.26
352.01	1054.01
352.38	1062.06
352.75	1066.37
353.12	1073.79
353.50	1076.88
353.87	1078.71
354.24	1072.29
354.61	1073.28
354.98	1072.60
355.36	1076.30
355.73	1077.42
356.10	1083.86
356.47	1086.45
356.84	1087.95
357.22	1086.15
357.59	1085.61
357.96	1084.30
358.33	1083.86
358.70	1083.46
359.08	1080.44
359.45	1081.21
359.82	1079.50
360.19	1077.11
360.56	1076.62
360.94	1077.93
361.31	1076.62
361.68	1077.54
362.05	1078.47
362.42	1078.50
362.79	1078.19
363.16	1074.89
363.54	1073.72
363.91	1071.10
364.28	1068.90
364.65	1067.94
365.02	1070.00
365.39	1070.09
365.76	1070.28
366.14	1071.05
366.51	1069.79
366.88	1069.04
367.25	1065.95
367.62	1064.48
367.99	1066.02
368.36	1066.28
368.73	1067.21
369.10	1071.40
369.48	1069.72
369.85	1067.21
370.22	1068.34
370.59	1068.99
370.96	1070.77
371.33	1073.14
371.70	1075.66
372.07	1078.33
372.44	1075.87
372.81	1076.86
373.18	1075.94
373.55	1074.07
373.93	1070.65
374.30	1072.36
374.67	1066.61
375.04	1068.38
375.41	1070.77
375.78	1072.36
376.15	1072.97
376.52	1072.83
376.89	1069.88
377.26	1066.35
377.63	1066.49
378.00	1064.17
378.37	1065.93
378.74	1071.22
379.11	1071.59
379.48	1069.77
379.85	1073.63
380.22	1074.73
380.59	1071.87
380.96	1073.79
381.33	1074.73
381.70	1073.16
382.07	1073.74
382.44	1073.37
382.81	1073.32
383.18	1076.74
383.55	1078.33
383.92	1078.82
384.29	1077.93
384.66	1077.18
385.03	1072.20
385.40	1071.85
385.77	1071.19
386.14	1070.40
386.51	1070.09
386.88	1071.10
387.25	1069.55
387.62	1068.45
387.99	1070.68
388.36	1072.15
388.73	1071.61
389.10	1071.12
389.46	1075.05
389.83	1076.48
390.20	1076.23
390.57	1077.77
390.94	1077.82
391.31	1073.30
391.68	1075.27
392.05	1077.47
392.42	1078.38
392.79	1078.68
393.16	1081.07
393.53	1081.30
393.89	1080.91
394.26	1079.95
394.63	1078.82
395.00	1076.41
395.37	1072.50
395.74	1070.05
396.11	1070.21
396.48	1068.71
396.84	1066.49
397.21	1067.87
397.58	1070.07
397.95	1069.81
398.32	1074.73
398.69	1078.99
399.06	1079.36
399.42	1078.12
399.79	1077.98
400.16	1080.74
400.53	1082.73
400.90	1080.74
401.27	1078.61
401.64	1077.72
402.00	1073.88
402.37	1072.34
402.74	1073.23
403.11	1072.85
403.48	1076.04
403.84	1073.63
404.21	1071.75
404.58	1071.17
404.95	1072.41
405.32	1070.21
405.68	1071.08
406.05	1073.04
406.42	1077.18
406.79	1079.74
407.16	1081.33
407.52	1081.47
407.89	1079.99
408.26	1076.44
408.63	1073.25
408.99	1070.28
409.36	1069.39
409.73	1068.48
410.10	1070.21
410.47	1074.14
410.83	1076.53
411.20	1077.58
411.57	1081.26
411.94	1082.64
412.30	1079.41
412.67	1076.62
413.04	1078.36
413.40	1076.79
413.77	1074.91
414.14	1076.79
414.51	1080.77
414.87	1077.21
415.24	1077.25
415.61	1077.07
415.97	1077.21
416.34	1073.14
416.71	1075.17
417.08	1075.10
417.44	1073.16
417.81	1073.98
418.18	1075.01
418.54	1077.75
418.91	1078.21
419.28	1080.74
419.64	1075.24
420.01	1075.05
420.38	1072.60
420.74	1072.85
421.11	1072.88
421.48	1078.71
421.84	1080.16
422.21	1083.41
422.58	1081.14
422.94	1081.87
423.31	1080.09
423.68	1079.10
424.04	1076.72
424.41	1077.02
424.77	1074.82
425.14	1076.86
425.51	1082.29
425.87	1083.64
426.24	1086.55
426.61	1088.04
426.97	1087.83
427.34	1082.78
427.70	1081.84
428.07	1077.28
428.44	1074.75
428.80	1072.36
429.17	1070.05
429.53	1067.38
429.90	1072.25
430.27	1072.95
430.63	1073.91
431.00	1077.00
431.36	1080.79
431.73	1077.98
432.09	1078.28
432.46	1078.14
432.83	1080.95
433.19	1079.85
433.56	1080.72
433.92	1081.21
434.29	1078.24
434.65	1078.92
435.02	1079.62
435.38	1080.84
435.75	1080.74
436.11	1083.71
436.48	1086.08
436.84	1086.24
437.21	1085.75
437.57	1087.90
437.94	1086.78
438.30	1082.15
438.67	1081.91
439.03	1082.12
439.40	1082.17
439.76	1080.46
440.13	1081.61
440.49	1082.57
440.86	1083.48
441.22	1079.69
441.59	1082.61
441.95	1080.25
442.32	1076.34
442.68	1073.98
443.05	1074.28
443.41	1073.67
443.78	1074.77
444.14	1076.13
444.51	1075.90
444.87	1077.49
445.24	1077.96
445.60	1077.42
445.96	1078.47
446.33	1079.41
446.69	1079.17
447.06	1080.98
447.42	1081.47
447.79	1080.67
448.15	1078.26
448.51	1081.35
448.88	1079.27
449.24	1082.22
449.61	1082.26
449.97	1085.73
450.33	1083.46
450.70	1083.62
451.06	1079.85
451.43	1080.23
451.79	1078.24
452.15	1076.04
452.52	1074.14
452.88	1073.32
453.24	1073.77
453.61	1075.27
453.97	1076.39
454.34	1080.51
454.70	1080.48
455.06	1080.79
455.43	1080.86
455.79	1082.36
456.15	1079.81
456.52	1079.78
456.88	1079.22
457.24	1075.31
457.61	1075.90
457.97	1076.74
458.33	1080.27
458.70	1079.81
459.06	1082.66
459.42	1082.33
459.79	1081.96
460.15	1081.16
460.51	1081.66
460.88	1081.89
461.24	1082.22
461.60	1082.03
461.96	1080.37
462.33	1080.79
462.69	1079.67
463.05	1079.03
463.42	1075.92
463.78	1079.34
464.14	1078.94
464.50	1083.20
464.87	1084.60
465.23	1087.69
465.59	1087.37
465.95	1090.06
466.32	1087.51
466.68	1084.25
467.04	1084.77
467.40	1082.05
467.77	1077.82
468.13	1078.96
468.49	1081.87
468.85	1083.67
469.22	1084.63
469.58	1086.76
469.94	1083.95
470.30	1084.14
470.66	1079.53
471.03	1078.73
471.39	1078.45
471.75	1080.98
472.11	1081.28
472.47	1081.14
472.84	1081.73
473.20	1081.00
473.56	1079.62
473.92	1077.49
474.28	1079.90
474.65	1079.29
475.01	1079.41
475.37	1078.31
475.73	1078.36
476.09	1078.00
476.45	1076.67
476.81	1078.52
477.18	1076.55
477.54	1076.88
477.90	1078.07
478.26	1079.38
478.62	1078.12
478.98	1083.34
479.34	1081.02
479.71	1083.15
480.07	1082.99
480.43	1082.71
480.79	1080.46
481.15	1083.50
481.51	1080.34
481.87	1080.93
482.23	1080.20
482.59	1079.48
482.96	1081.30
483.32	1083.13
483.68	1082.54
484.04	1081.30
484.40	1082.05
484.76	1080.20
485.12	1080.48
485.48	1085.07
485.84	1088.12
486.20	1089.12
486.56	1089.00
486.92	1085.75
487.28	1078.71
487.64	1075.55
488.00	1075.05
488.37	1074.47
488.73	1073.25
489.09	1073.18
489.45	1074.75
489.81	1075.71
490.17	1076.62
490.53	1078.89
490.89	1083.55
491.25	1085.77
491.61	1085.21
491.97	1085.26
492.33	1085.75
492.69	1083.83
493.05	1081.21
493.41	1081.77
493.77	1079.15
494.13	1078.17
494.49	1077.61
494.85	1078.40
495.21	1077.37
495.57	1077.14
495.93	1076.53
496.29	1074.28
496.64	1076.79
497.00	1078.10
497.36	1077.63
497.72	1079.17
498.08	1082.50
498.44	1081.12
498.80	1078.28
499.16	1077.58
499.52	1080.27
499.88	1082.24
500.24	1082.45
500.60	1083.93
500.96	1087.65
501.32	1085.84
501.68	1085.24
502.03	1083.22
502.39	1083.93
502.75	1085.77
503.11	1083.29
503.47	1080.70
503.83	1081.09
504.19	1079.48
504.55	1075.90
504.91	1075.17
505.26	1078.73
505.62	1079.27
505.98	1080.23
506.34	1083.27
506.70	1086.69
507.06	1085.21
507.42	1083.57
507.78	1086.62
508.13	1084.65
508.49	1083.86
508.85	1082.24
509.21	1082.83
509.57	1080.23
509.93	1080.20
510.28	1083.11
510.64	1084.77
511.00	1086.43
511.36	1085.61
511.72	1087.25
512.07	1085.14
512.43	1083.67
512.79	1082.45
513.15	1086.06
513.51	1083.74
513.86	1083.34
514.22	1083.43
514.58	1081.09
514.94	1079.20
515.30	1083.06
515.65	1082.97
516.01	1083.18
516.37	1086.57
516.73	1084.81
517.08	1081.40
517.44	1081.00
517.80	1081.84
518.16	1081.16
518.51	1082.43
518.87	1083.20
519.23	1084.74
519.59	1083.93
519.94	1086.66
520.30	1087.79
520.66	1091.27
521.01	1090.81
521.37	1092.75
521.73	1089.66
522.09	1091.18
522.44	1088.93
522.80	1084.39
523.16	1080.20
523.51	1082.33
523.87	1080.09
524.23	1078.10
524.58	1083.57
524.94	1087.18
525.30	1087.46
525.65	1086.55
526.01	1083.88
526.37	1082.03
526.72	1082.43
527.08	1079.92
527.44	1077.86
527.79	1081.77
528.15	1083.11
528.51	1081.42
528.86	1081.94
529.22	1082.80
529.58	1081.23
529.93	1082.59
530.29	1083.11
530.65	1081.42
531.00	1082.83
531.36	1085.45
531.71	1084.18
532.07	1083.25
532.43	1086.03
532.78	1087.34
533.14	1085.77
533.49	1086.03
533.85	1086.59
534.21	1086.20
534.56	1084.60
534.92	1084.23
535.27	1080.20
535.63	1079.64
535.98	1081.40
536.34	1078.64
536.69	1079.24
537.05	1082.69
537.41	1087.32
537.76	1086.99
538.12	1090.08
538.47	1092.40
538.83	1089.75
539.18	1087.72
539.54	1086.34
539.89	1085.80
540.25	1081.12
540.60	1084.23
540.96	1081.42
541.31	1083.76
541.67	1088.00
542.02	1090.81
542.38	1091.53
542.73	1094.53
543.09	1092.40
543.44	1087.30
543.80	1089.12
544.15	1086.69
544.51	1086.57
544.86	1087.46
545.22	1091.34
545.57	1089.52
545.93	1091.37
546.28	1088.51
546.64	1089.85
546.99	1086.83
547.35	1083.57
547.70	1083.20
548.05	1086.66
548.41	1081.30
548.76	1081.19
549.12	1082.54
549.47	1083.76
549.83	1082.50
550.18	1085.84
550.53	1084.96
550.89	1087.39
551.24	1085.99
551.60	1083.76
551.95	1082.36
552.30	1083.53
552.66	1081.82
553.01	1078.12
553.37	1078.31
553.72	1081.77
554.07	1083.15
554.43	1084.21
554.78	1086.43
555.13	1088.00
555.49	1084.98
555.84	1081.37
556.19	1081.42
556.55	1080.60
556.90	1080.93
557.26	1078.61
557.61	1082.61
557.96	1082.12
558.32	1080.98
558.67	1078.59
559.02	1078.73
559.37	1076.08
559.73	1075.92
560.08	1077.82
560.43	1078.24
560.79	1080.48
561.14	1082.17
561.49	1084.42
561.85	1085.28
562.20	1082.24
562.55	1085.07
562.90	1084.93
563.26	1083.69
563.61	1084.81
563.96	1088.14
564.32	1085.56
564.67	1085.40
565.02	1084.96
565.37	1085.19
565.73	1085.35
566.08	1083.76
566.43	1084.74
566.78	1082.29
567.14	1079.50
567.49	1080.13
567.84	1083.15
568.19	1083.50
568.54	1086.36
568.90	1084.77
569.25	1083.57
569.60	1079.92
569.95	1079.29
570.31	1075.66
570.66	1077.30
571.01	1077.91
571.36	1077.09
571.71	1076.41
572.06	1079.97
572.42	1082.01
572.77	1081.58
573.12	1083.67
573.47	1084.46
573.82	1082.08
574.18	1083.11
574.53	1081.61
574.88	1083.71
575.23	1081.19
575.58	1086.83
575.93	1083.88
576.28	1087.90
576.64	1086.01
576.99	1085.99
577.34	1079.13
577.69	1082.97
578.04	1082.52
578.39	1082.40
578.74	1084.07
579.09	1085.45
579.44	1084.37
579.80	1085.07
580.15	1088.12
580.50	1084.93
580.85	1087.25
581.20	1085.24
581.55	1081.28
581.90	1076.62
582.25	1079.55
582.60	1078.47
582.95	1078.89
583.30	1078.61
583.65	1082.97
584.00	1082.57
584.35	1081.30
584.71	1082.36
585.06	1087.72
585.41	1083.64
585.76	1088.89
586.11	1089.87
586.46	1090.17
586.81	1086.62
587.16	1089.64
587.51	1085.87
587.86	1087.41
588.21	1087.13
588.56	1087.44
588.91	1087.34
589.26	1083.67
589.61	1082.50
589.96	1085.84
590.31	1086.73
590.66	1085.00
591.01	1088.49
591.36	1091.56
591.71	1086.99
592.06	1087.93
592.41	1088.35
592.76	1087.41
593.10	1083.08
593.45	1085.61
593.80	1083.76
594.15	1082.24
594.50	1084.49
594.85	1086.66
595.20	1085.75
595.55	1087.20
595.90	1088.42
596.25	1089.00
596.60	1087.30
596.95	1084.09
597.30	1081.37
597.64	1135.60
597.99	1135.56
598.34	1135.30
598.69	1138.95
599.04	1138.90
599.39	1088.19
599.74	1088.86
600.09	1089.33
600.44	1088.63
600.78	1087.39
601.13	1084.02
601.48	1078.96
601.83	1078.66
602.18	1076.95
602.53	1081.84
602.88	1084.60
603.22	1086.08
603.57	1088.30
603.92	1087.44
604.27	1086.43
604.62	1084.11
604.97	1082.17
605.31	1082.22
605.66	1084.86
606.01	1084.84
606.36	1086.92
606.71	1089.92
607.05	1087.25
607.40	1086.83
607.75	1085.12
608.10	1084.79
608.44	1081.44
608.79	1083.36
609.14	1085.82
609.49	1090.32
609.84	1091.20
610.18	1096.85
610.53	1101.50
610.88	1099.49
611.23	1099.33
611.57	1099.42
611.92	1100.43
612.27	1097.97
612.62	1097.34
612.96	1097.59
613.31	1097.43
613.66	1094.79
614.00	1093.38
614.35	1094.74
614.70	1093.36
615.05	1091.77
615.39	1089.75
615.74	1088.28
616.09	1088.65
616.43	1083.95
616.78	1081.87
617.13	1081.28
617.47	1079.85
617.82	1076.90
618.17	1079.41
618.51	1080.25
618.86	1081.35
619.21	1081.87
619.55	1082.17
619.90	1083.20
620.25	1084.49
620.59	1085.91
620.94	1086.73
621.29	1086.45
621.63	1083.81
621.98	1082.92
622.32	1080.56
622.67	1081.37
623.02	1083.15
623.36	1083.29
623.71	1081.19
624.05	1084.04
624.40	1084.84
624.75	1082.99
625.09	1082.76
625.44	1087.27
625.78	1087.04
626.13	1085.89
626.48	1084.79
626.82	1084.04
627.17	1082.59
627.51	1081.00
627.86	1080.60
628.20	1080.88
628.55	1086.45
628.89	1087.27
629.24	1087.39
629.58	1086.71
629.93	1093.71
630.28	1087.72
630.62	1083.34
630.97	1084.91
631.31	1087.11
631.66	1082.83
632.00	1085.54
632.35	1090.08
632.69	1088.75
633.04	1087.83
633.38	1087.06
633.73	1088.16
634.07	1084.32
634.42	1086.01
634.76	1081.94
635.11	1079.31
635.45	1076.32
635.79	1079.27
636.14	1076.51
636.48	1079.57
636.83	1078.28
637.17	1078.26
637.52	1078.43
637.86	1076.27
638.21	1076.97
638.55	1077.37
638.89	1081.54
639.24	1079.64
639.58	1082.66
639.93	1081.19
640.27	1084.16
640.61	1083.39
640.96	1082.57
641.30	1083.57
641.65	1085.42
641.99	1086.62
642.33	1085.10
642.68	1086.20
643.02	1085.54
643.37	1082.33
643.71	1082.47
644.05	1082.69
644.40	1085.26
644.74	1085.91
645.08	1085.91
645.43	1083.88
645.77	1080.65
646.11	1081.40
646.46	1080.27
646.80	1081.09
647.14	1080.63
647.49	1083.76
647.83	1078.14
648.17	1077.47
648.52	1078.33
648.86	1080.67
649.20	1086.01
649.55	1089.57
649.89	1090.50
650.23	1093.08
650.57	1091.74
650.92	1084.93
651.26	1082.05
651.60	1083.57
651.95	1079.69
652.29	1077.68
652.63	1077.00
652.97	1078.54
653.32	1074.49
653.66	1074.24
654.00	1078.80
654.34	1078.40
654.69	1078.21
655.03	1081.80
655.37	1087.11
655.71	1084.32
656.05	1085.75
656.40	1087.67
656.74	1085.84
657.08	1083.90
657.42	1083.53
657.76	1085.91
658.11	1085.59
658.45	1086.24
658.79	1082.73
659.13	1082.85
659.47	1080.13
659.82	1084.16
660.16	1084.28
660.50	1084.42
660.84	1081.19
661.18	1083.53
661.52	1079.29
661.87	1077.07
662.21	1077.42
662.55	1080.32
662.89	1078.21
663.23	1078.87
663.57	1080.72
663.91	1081.58
664.25	1083.11
664.60	1083.41
664.94	1084.98
665.28	1082.69
665.62	1082.92
665.96	1083.86
666.30	1084.49
666.64	1081.02
666.98	1082.90
667.32	1083.90
667.66	1086.34
668.01	1088.47
668.35	1090.78
668.69	1092.33
669.03	1090.95
669.37	1089.00
669.71	1086.22
670.05	1082.66
670.39	1082.03
670.73	1083.29
671.07	1081.19
671.41	1081.80
671.75	1083.29
672.09	1080.16
672.43	1078.03
672.77	1078.82
673.11	1081.16
673.45	1081.80
673.79	1085.42
674.13	1088.61
674.47	1086.62
674.81	1083.50
675.15	1085.21
675.49	1085.99
675.83	1084.84
676.17	1086.48
676.51	1092.16
676.85	1090.46
677.19	1087.86
677.53	1087.25
677.87	1086.64
678.21	1082.64
678.55	1082.52
678.89	1083.71
679.23	1083.64
679.57	1085.87
679.90	1084.21
680.24	1087.11
680.58	1085.84
680.92	1087.13
681.26	1088.56
681.60	1089.80
681.94	1087.27
682.28	1089.14
682.62	1089.94
682.96	1085.56
683.29	1085.75
683.63	1084.42
683.97	1084.09
684.31	1083.13
684.65	1084.72
684.99	1084.37
685.33	1083.11
685.67	1083.79
686.00	1084.46
686.34	1085.12
686.68	1084.23
687.02	1084.53
687.36	1083.04
687.70	1083.81
688.03	1085.24
688.37	1085.31
688.71	1085.24
689.05	1084.30
689.39	1083.71
689.72	1083.08
690.06	1086.94
690.40	1088.30
690.74	1091.91
691.08	1092.35
691.41	1087.65
691.75	1080.91
692.09	1081.30
692.43	1079.10
692.76	1077.16
693.10	1080.91
693.44	1085.82
693.78	1086.78
694.11	1086.97
694.45	1087.62
694.79	1086.48
695.13	1084.02
695.46	1079.99
695.80	1080.77
696.14	1079.22
696.48	1083.01
696.81	1083.71
697.15	1086.66
697.49	1085.17
697.82	1084.67
698.16	1078.52
698.50	1078.82
698.83	1079.31
699.17	1079.69
699.51	1081.40
699.84	1085.47
700.18	1084.39
700.52	1085.07
700.85	1085.35
701.19	1084.89
701.53	1082.24
701.86	1083.01
702.20	1084.46
702.54	1087.58
702.87	1086.92
703.21	1086.50
703.55	1085.99
703.88	1085.19
704.22	1080.98
704.55	1080.02
704.89	1080.79
705.23	1085.56
705.56	1085.61
705.90	1085.73
706.23	1085.84
706.57	1089.22
706.91	1086.48
707.24	1084.02
707.58	1082.64
707.91	1083.27
708.25	1079.95
708.58	1078.57
708.92	1079.81
709.26	1083.71
709.59	1085.38
709.93	1085.19
710.26	1083.50
710.60	1083.29
710.93	1080.58
711.27	1080.88
711.60	1080.58
711.94	1081.28
712.27	1080.23
712.61	1084.30
712.94	1085.00
713.28	1085.54
713.61	1083.64
713.95	1084.51
714.28	1080.93
714.62	1078.45
714.95	1078.73
715.29	1080.39
715.62	1081.21
715.96	1080.86
716.29	1080.81
716.63	1080.06
716.96	1080.20
717.29	1077.89
717.63	1079.17
717.96	1079.48
718.30	1080.41
718.63	1081.35
718.97	1083.97
719.30	1081.58
719.63	1082.94
719.97	1081.40
720.30	1080.27
720.64	1080.70
720.97	1082.78
721.30	1081.12
721.64	1084.49
721.97	1088.16
722.31	1086.13
722.64	1085.91
722.97	1087.11
723.31	1085.52
723.64	1080.79
723.97	1080.70
724.31	1080.25
724.64	1083.01
724.98	1081.09
725.31	1083.62
725.64	1084.53
725.98	1083.69
726.31	1079.24
726.64	1081.12
726.97	1079.08
727.31	1078.45
727.64	1078.96
727.97	1079.22
728.31	1080.09
728.64	1082.87
728.97	1083.69
729.31	1082.90
729.64	1081.14
729.97	1080.48
730.30	1078.73
730.64	1081.09
730.97	1083.46
731.30	1086.10
731.63	1084.93
731.97	1086.29
732.30	1082.69
732.63	1082.05
732.96	1082.57
733.30	1085.00
733.63	1086.64
733.96	1082.83
734.29	1083.01
734.63	1084.35
734.96	1083.08
735.29	1080.70
735.62	1085.52
735.95	1086.22
736.29	1085.31
736.62	1085.61
736.95	1085.10
737.28	1082.97
737.61	1083.86
737.94	1082.97
738.28	1081.84
738.61	1080.02
738.94	1080.53
739.27	1080.88
739.60	1082.94
739.93	1083.62
740.27	1088.16
740.60	1089.99
740.93	1085.73
741.26	1083.18
741.59	1082.50
741.92	1078.54
742.25	1077.86
742.58	1080.53
742.91	1082.83
743.25	1082.29
743.58	1083.67
743.91	1082.92
744.24	1083.43
744.57	1081.96
744.90	1085.07
745.23	1084.84
745.56	1086.41
745.89	1084.42
746.22	1085.68
746.55	1080.41
746.88	1081.12
747.21	1078.03
747.54	1077.42
747.87	1075.55
748.20	1078.87
748.53	1081.05
748.87	1083.95
749.20	1086.52
749.53	1086.69
749.86	1086.92
750.19	1085.99
750.52	1086.08
750.85	1084.70
751.18	1086.24
751.51	1086.45
751.84	1083.97
752.16	1080.63
752.49	1077.79
752.82	1077.47
753.15	1075.59
753.48	1077.72
753.81	1081.68
754.14	1085.49
754.47	1083.90
754.80	1083.55
755.13	1082.64
755.46	1080.77
755.79	1078.40
756.12	1080.04
756.45	1081.96
756.78	1083.79
757.11	1084.98
757.43	1084.39
757.76	1082.52
758.09	1082.99
758.42	1083.76
758.75	1084.02
759.08	1087.11
759.41	1086.76
759.74	1085.66
760.07	1078.96
760.39	1076.44
760.72	1076.97
761.05	1078.96
761.38	1077.82
761.71	1082.24
762.04	1082.26
762.36	1082.50
762.69	1083.08
763.02	1087.48
763.35	1086.03
763.68	1086.45
764.01	1085.70
764.33	1085.31
764.66	1081.00
764.99	1081.73
765.32	1081.96
765.65	1081.49
765.97	1081.51
766.30	1082.59
766.63	1084.21
766.96	1082.40
767.28	1078.07
767.61	1075.10
767.94	1074.42
768.27	1071.82
768.59	1074.24
768.92	1079.31
769.25	1080.84
769.58	1079.83
769.90	1083.13
770.23	1079.85
770.56	1080.18
770.89	1080.13
771.21	1084.86
771.54	1080.23
771.87	1082.50
772.19	1082.38
772.52	1081.47
772.85	1079.95
773.17	1084.18
773.50	1082.31
773.83	1077.86
774.15	1080.65
774.48	1077.91
774.81	1077.40
775.13	1078.28
775.46	1080.77
775.79	1081.75
776.11	1081.51
776.44	1080.39
776.77	1083.90
777.09	1084.04
777.42	1080.37
777.74	1079.83
778.07	1081.47
778.40	1079.50
778.72	1078.43
779.05	1081.26
779.37	1081.40
779.70	1079.53
780.03	1080.95
780.35	1080.44
780.68	1079.38
781.00	1081.02
781.33	1081.91
781.65	1084.28
781.98	1086.85
782.31	1087.81
782.63	1088.58
782.96	1086.55
783.28	1085.33
783.61	1084.81
783.93	1084.04
784.26	1083.48
784.58	1082.87
784.91	1082.38
785.23	1083.39
785.56	1085.66
785.88	1087.20
786.21	1087.72
786.53	1085.94
786.86	1086.64
787.18	1085.00
787.51	1084.44
787.83	1086.22
788.16	1086.92
788.48	1086.50
788.81	1084.30
789.13	1083.06
789.46	1083.27
789.78	1086.50
790.10	1085.38
790.43	1085.96
790.75	1084.44
791.08	1081.42
791.40	1080.32
791.73	1085.21
792.05	1083.57
792.37	1086.03
792.70	1086.20
793.02	1084.84
793.35	1079.10
793.67	1080.70
793.99	1080.48
794.32	1081.94
794.64	1081.68
794.96	1084.67
795.29	1084.16
795.61	1085.54
795.93	1085.82
796.26	1083.39
796.58	1080.65
796.91	1080.46
797.23	1077.98
797.55	1079.34
797.87	1081.68
798.20	1084.60
798.52	1084.96
798.84	1084.46
799.17	1083.83
799.49	1082.47
799.81	1082.33
800.14	1082.90
800.46	1084.32
800.78	1083.71
801.10	1087.55
801.43	1085.35
801.75	1085.96
802.07	1082.26
802.40	1079.43
802.72	1075.41
803.04	1074.52
803.36	1075.41
803.69	1077.79
804.01	1080.63
804.33	1081.44
804.65	1080.98
804.97	1083.27
805.30	1085.40
805.62	1083.36
805.94	1083.29
806.26	1083.90
806.58	1083.25
806.91	1081.21
807.23	1081.96
807.55	1081.94
807.87	1082.66
808.19	1080.48
808.52	1081.47
808.84	1083.01
809.16	1082.59
809.48	1079.27
809.80	1078.17
810.12	1076.95
810.44	1076.25
810.77	1080.23
811.09	1085.00
811.41	1085.07
811.73	1083.60
812.05	1083.64
812.37	1077.98
812.69	1074.84
813.01	1073.60
813.33	1074.73
813.66	1074.52
813.98	1077.28
814.30	1081.44
814.62	1082.10
814.94	1081.80
815.26	1083.08
815.58	1083.83
815.90	1080.25
816.22	1082.66
816.54	1086.36
816.86	1087.23
817.18	1084.91
817.50	1082.64
817.82	1080.93
818.14	1078.33
818.46	1081.80
818.78	1084.81
819.10	1088.96
819.42	1089.40
819.74	1093.12
820.06	1087.11
820.38	1085.19
820.70	1086.64
821.02	1087.58
821.34	1084.91
821.66	1086.50
821.98	1088.30
822.30	1084.63
822.62	1084.67
822.94	1084.67
823.26	1083.88
823.58	1079.78
823.90	1079.31
824.22	1078.50
824.54	1079.88
824.86	1082.69
825.18	1084.11
825.50	1086.66
825.81	1086.87
826.13	1085.84
826.45	1084.16
826.77	1084.77
827.09	1083.57
827.41	1082.52
827.73	1082.99
828.05	1083.34
828.36	1082.29
828.68	1082.31
829.00	1084.18
829.32	1082.22
829.64	1082.57
829.96	1083.83
830.28	1082.61
830.59	1082.38
830.91	1083.25
831.23	1082.57
831.55	1082.47
831.87	1084.81
832.19	1084.77
832.50	1084.56
832.82	1081.35
833.14	1079.55
833.46	1078.24
833.78	1078.24
834.09	1076.97
834.41	1080.16
834.73	1081.12
835.05	1081.61
835.36	1081.12
835.68	1082.92
836.00	1083.62
836.32	1084.56
836.63	1087.55
836.95	1087.16
837.27	1088.72
837.59	1088.21
837.90	1088.96
838.22	1084.32
838.54	1084.32
838.85	1081.91
839.17	1079.03
839.49	1079.74
839.80	1082.73
840.12	1080.53
840.44	1081.44
840.76	1084.58
841.07	1083.95
841.39	1080.93
841.71	1083.83
842.02	1081.37
842.34	1082.71
842.65	1080.84
842.97	1080.98
843.29	1081.12
843.60	1082.76
843.92	1079.76
844.24	1083.81
844.55	1084.21
844.87	1082.17
845.18	1082.83
845.50	1086.17
845.82	1082.22
846.13	1081.66
846.45	1082.85
846.76	1083.22
847.08	1078.26
847.40	1080.86
847.71	1082.92
848.03	1083.69
848.34	1082.73
848.66	1086.73
848.97	1084.60
849.29	1083.13
849.60	1081.80
849.92	1085.35
850.24	1085.47
850.55	1085.42
850.87	1086.85
851.18	1089.99
851.50	1085.24
851.81	1084.25
852.13	1083.93
852.44	1082.24
852.76	1082.71
853.07	1085.10
853.39	1085.12
853.70	1085.05
854.01	1086.71
854.33	1082.85
854.64	1080.11
854.96	1081.21
855.27	1083.04
855.59	1084.96
855.90	1085.38
856.22	1087.72
856.53	1086.48
856.84	1082.52
857.16	1080.09
857.47	1080.58
857.79	1079.13
858.10	1075.13
858.41	1075.69
858.73	1073.35
859.04	1072.97
859.36	1073.25
859.67	1078.94
859.98	1082.87
860.30	1086.78
860.61	1088.65
860.92	1089.57
861.24	1087.16
861.55	1087.34
861.87	1083.29
862.18	1078.92
862.49	1078.31
862.81	1078.14
863.12	1075.97
863.43	1080.63
863.74	1082.92
864.06	1086.20
864.37	1085.35
864.68	1084.70
865.00	1080.93
865.31	1083.13
865.62	1081.47
865.94	1082.71
866.25	1085.17
866.56	1086.83
866.87	1085.63
867.19	1086.01
867.50	1082.71
867.81	1079.24
868.12	1078.71
868.44	1077.30
868.75	1073.95
869.06	1076.32
869.37	1077.33
869.68	1076.79
870.00	1077.00
870.31	1076.27
870.62	1076.86
870.93	1076.30
871.24	1079.34
871.56	1079.34
871.87	1082.54
872.18	1082.05
872.49	1083.93
872.80	1080.44
873.12	1082.01
873.43	1081.63
873.74	1083.74
874.05	1085.12
874.36	1089.24
874.67	1088.16
874.98	1085.17
875.29	1088.77
875.61	1088.89
875.92	1085.35
876.23	1084.58
876.54	1088.84
876.85	1082.29
877.16	1083.01
877.47	1082.22
877.78	1083.18
878.09	1082.24
878.40	1085.96
878.72	1083.93
879.03	1083.27
879.34	1083.69
879.65	1082.01
879.96	1079.92
880.27	1079.88
880.58	1083.36
880.89	1082.47
881.20	1085.07
881.51	1086.92
881.82	1085.80
882.13	1084.46
882.44	1084.84
882.75	1085.03
883.06	1082.97
883.37	1085.91
883.68	1086.64
883.99	1086.08
884.30	1082.40
884.61	1080.98
884.92	1075.55
885.23	1076.90
885.54	1074.82
885.85	1076.93
886.16	1080.79
886.47	1083.88
886.78	1084.91
887.08	1088.77
887.39	1088.07
887.70	1085.12
888.01	1084.79
888.32	1084.09
888.63	1080.06
888.94	1080.25
889.25	1081.96
889.56	1083.79
889.87	1079.15
890.17	1082.01
890.48	1082.92
890.79	1084.72
891.10	1082.78
891.41	1083.41
891.72	1082.22
892.03	1080.30
892.34	1080.63
892.64	1080.39
892.95	1082.64
893.26	1084.49
893.57	1083.25
893.88	1080.93
894.18	1082.03
894.49	1081.37
894.80	1079.76
895.11	1081.23
895.42	1080.13
895.72	1078.87
896.03	1080.27
896.34	1080.06
896.65	1080.67
896.96	1080.95
897.26	1084.84
897.57	1083.79
897.88	1083.55
898.19	1084.84
898.49	1088.07
898.80	1085.89
899.11	1086.97
899.41	1088.58
899.72	1086.50
900.03	1082.71
900.34	1080.32
900.64	1076.97
900.95	1075.73
901.26	1077.40
901.56	1078.99
901.87	1079.67
902.18	1081.75
902.48	1080.95
902.79	1079.76
903.10	1077.58
903.40	1075.41
903.71	1075.43
904.02	1076.15
904.32	1076.67
904.63	1078.82
904.94	1082.47
905.24	1084.96
905.55	1086.48
905.85	1088.23
906.16	1088.28
906.47	1084.84
906.77	1083.43
907.08	1084.49
907.38	1086.24
907.69	1089.36
908.00	1089.54
908.30	1089.78
908.61	1086.90
908.91	1080.72
909.22	1077.18
909.52	1078.05
909.83	1076.34
910.14	1078.73
910.44	1081.23
910.75	1080.88
911.05	1084.00
911.36	1082.03
911.66	1081.94
911.97	1082.08
912.27	1083.11
912.58	1081.44
912.88	1082.92
913.19	1079.69
913.49	1081.30
913.80	1081.26
914.10	1078.14
914.41	1078.24
914.71	1083.90
915.01	1082.22
915.32	1081.89
915.62	1085.03
915.93	1087.16
916.23	1084.70
916.54	1085.63
916.84	1085.84
917.15	1084.28
917.45	1082.01
917.75	1080.13
918.06	1080.39
918.36	1079.90
918.67	1080.34
918.97	1081.09
919.27	1082.94
919.58	1082.31
919.88	1082.80
920.18	1082.24
920.49	1082.26
920.79	1081.94
921.10	1081.96
921.40	1080.79
921.70	1083.15
922.01	1082.29
922.31	1081.40
922.61	1081.02
922.92	1082.99
923.22	1081.47
923.52	1084.70
923.82	1083.43
924.13	1083.69
924.43	1081.12
924.73	1084.18
925.04	1084.35
925.34	1089.80
925.64	1091.70
925.94	1090.34
926.25	1086.99
926.55	1082.36
926.85	1081.44
927.15	1078.85
927.46	1080.67
927.76	1084.70
928.06	1086.38
928.36	1080.56
928.67	1081.73
928.97	1080.63
929.27	1078.66
929.57	1078.10
929.87	1083.29
930.18	1081.91
930.48	1083.04
930.78	1078.57
931.08	1078.92
931.38	1077.28
931.69	1077.54
931.99	1078.43
932.29	1082.69
932.59	1082.38
932.89	1082.85
933.19	1083.15
933.49	1082.99
933.80	1084.56
934.10	1086.31
934.40	1085.47
934.70	1087.51
935.00	1084.60
935.30	1081.44
935.60	1078.47
935.90	1079.15
936.20	1080.20
936.50	1082.22
936.81	1083.81
937.11	1088.98
937.41	1087.69
937.71	1086.13
938.01	1086.20
938.31	1082.87
938.61	1080.56
938.91	1082.64
939.21	1078.33
939.51	1077.37
939.81	1079.38
940.11	1076.62
940.41	1073.37
940.71	1078.07
941.01	1079.08
941.31	1080.16
941.61	1084.93
941.91	1087.48
942.21	1085.87
942.51	1086.15
942.81	1087.30
943.11	1086.15
943.41	1087.79
943.71	1088.47
944.01	1086.69
944.31	1086.83
944.61	1086.57
944.90	1084.63
945.20	1084.23
945.50	1084.91
945.80	1082.47
946.10	1081.91
946.40	1079.06
946.70	1078.75
947.00	1078.87
947.30	1078.78
947.60	1077.75
947.89	1076.88
948.19	1075.01
948.49	1073.81
948.79	1076.37
949.09	1075.80
949.39	1077.98
949.69	1080.20
949.98	1081.87
950.28	1079.69
950.58	1080.41
950.88	1081.96
951.18	1080.79
951.48	1082.69
951.77	1082.87
952.07	1082.76
952.37	1082.19
952.67	1083.34
952.97	1082.31
953.26	1082.33
953.56	1082.26
953.86	1081.54
954.16	1079.13
954.45	1080.13
954.75	1082.12
955.05	1081.23
955.35	1082.36
955.64	1082.66
955.94	1081.14
956.24	1078.26
956.54	1080.37
956.83	1080.44
957.13	1081.47
957.43	1081.49
957.72	1082.17
958.02	1081.84
958.32	1081.12
958.61	1084.98
958.91	1085.47
959.21	1083.22
959.50	1083.34
959.80	1085.17
960.10	1082.50
960.39	1079.55
960.69	1084.23
960.99	1084.56
961.28	1081.16
961.58	1078.66
961.87	1081.68
962.17	1078.45
962.47	1079.24
962.76	1082.71
963.06	1081.37
963.36	1081.91
963.65	1083.18
963.95	1081.75
964.24	1080.91
964.54	1083.97
964.83	1083.43
965.13	1082.40
965.42	1080.91
965.72	1079.99
966.02	1081.68
966.31	1078.07
966.61	1076.81
966.90	1078.00
967.20	1078.19
967.49	1077.25
967.79	1082.54
968.08	1084.96
968.38	1083.27
968.67	1083.64
968.97	1082.38
969.26	1081.00
969.56	1084.77
969.85	1088.07
970.15	1084.16
970.44	1085.75
970.74	1086.03
971.03	1085.24
971.32	1085.54
971.62	1088.72
971.91	1092.30
972.21	1093.36
972.50	1088.56
972.80	1088.72
973.09	1090.03
973.38	1084.23
973.68	1083.64
973.97	1085.31
974.27	1083.08
974.56	1081.75
974.85	1082.80
975.15	1084.02
975.44	1084.09
975.73	1086.69
976.03	1086.80
976.32	1087.06
976.61	1085.40
976.91	1086.48
977.20	1080.95
977.49	1079.41
977.79	1075.83
978.08	1074.40
978.37	1073.53
978.67	1076.69
978.96	1079.67
979.25	1082.26
979.55	1080.27
979.84	1078.61
980.13	1076.06
980.42	1074.49
980.72	1076.08
981.01	1079.29
981.30	1080.44
981.59	1085.70
981.89	1087.55
982.18	1085.52
982.47	1086.36
982.76	1087.25
983.06	1084.67
983.35	1081.47
983.64	1081.80
983.93	1078.78
984.22	1077.68
984.52	1080.11
984.81	1083.41
985.10	1086.13
985.39	1087.32
985.68	1089.26
985.97	1088.82
986.27	1088.09
986.56	1087.44
986.85	1087.32
987.14	1087.09
987.43	1085.00
987.72	1083.55
988.01	1082.57
988.31	1085.21
988.60	1084.56
988.89	1083.48
989.18	1083.46
989.47	1084.56
989.76	1078.99
990.05	1075.76
990.34	1076.39
990.63	1078.03
990.92	1077.30
991.21	1078.54
991.51	1078.07
991.80	1080.34
992.09	1079.97
992.38	1079.13
992.67	1079.76
992.96	1082.54
993.25	1082.05
993.54	1080.81
993.83	1080.53
994.12	1082.03
994.41	1085.05
994.70	1079.41
994.99	1079.43
995.28	1082.47
995.57	1080.72
995.86	1079.41
996.15	1084.74
996.44	1086.01
996.73	1083.11
997.02	1082.87
997.31	1081.09
997.59	1078.26
997.88	1079.17
998.17	1079.55
998.46	1083.11
998.75	1084.65
999.04	1085.38
999.33	1081.63
999.62	1081.23
999.91	1079.36
1000.20	1079.06
1000.49	1078.75
1000.77	1080.74
1001.06	1078.50
1001.35	1078.17
1001.64	1078.52
1001.93	1079.83
1002.22	1078.52
1002.51	1083.18
1002.79	1081.51
1003.08	1081.21
1003.37	1082.66
1003.66	1085.31
1003.95	1081.70
1004.23	1080.39
1004.52	1080.56
1004.81	1080.44
1005.10	1077.75
1005.39	1081.51
1005.67	1086.76
1005.96	1086.38
1006.25	1081.51
1006.54	1083.34
1006.83	1082.12
1007.11	1079.38
1007.40	1078.12
1007.69	1082.80
1007.97	1083.67
1008.26	1082.08
1008.55	1083.69
1008.84	1082.92
1009.12	1080.27
1009.41	1076.62
1009.70	1080.18
1009.98	1077.07
1010.27	1076.79
1010.56	1077.21
1010.85	1077.54
1011.13	1075.29
1011.42	1080.70
1011.71	1081.09
1011.99	1083.29
1012.28	1085.91
1012.56	1084.98
1012.85	1084.86
1013.14	1086.78
1013.42	1085.42
1013.71	1084.11
1014.00	1083.86
1014.28	1080.91
1014.57	1080.23
1014.85	1081.56
1015.14	1082.24
1015.43	1082.22
1015.71	1083.86
1016.00	1084.25
1016.28	1081.40
1016.57	1082.26
1016.85	1084.07
1017.14	1084.18
1017.43	1084.25
1017.71	1083.15
1018.00	1081.89
1018.28	1080.91
1018.57	1079.17
1018.85	1078.33
1019.14	1082.69
1019.42	1083.90
1019.71	1085.45
1019.99	1085.56
1020.28	1086.29
1020.56	1087.88
1020.85	1086.50
1021.13	1085.73
1021.42	1085.96
1021.70	1086.22
1021.99	1083.60
1022.27	1086.69
1022.55	1084.84
1022.84	1095.72
>>>>>End Processed Spectral Data<<<<<
