SpectraSuite Data File
++++++++++++++++++++++++++++++++++++
Date: Mon Aug 26 10:26:57 PDT 2019
User: corrico
Dark Spectrum Present: No
Reference Spectrum Present: No
Number of Sampled Component Spectra: 1
Spectrometers: USB2+H06089
Integration Time (usec): 10000 (USB2+H06089)
Spectra Averaged: 20 (USB2+H06089)
Boxcar Smoothing: 2 (USB2+H06089)
Correct for Electrical Dark: No (USB2+H06089)
Strobe/Lamp Enabled: No (USB2+H06089)
Correct for Detector Non-linearity: No (USB2+H06089)
Correct for Stray Light: No (USB2+H06089)
Number of Pixels in Processed Spectrum: 2048
>>>>>Begin Processed Spectral Data<<<<<
339.70	1028.43
340.07	1028.43
340.45	995.83
340.82	974.48
341.19	952.50
341.57	927.79
341.94	917.79
342.31	909.84
342.69	906.28
343.06	904.59
343.43	904.87
343.81	904.78
344.18	905.60
344.55	909.20
344.93	910.47
345.30	914.94
345.67	921.98
346.04	932.54
346.42	941.85
346.79	951.36
347.16	960.70
347.54	968.35
347.91	974.39
348.28	982.25
348.65	989.34
349.03	996.13
349.40	1004.65
349.77	1012.73
350.14	1019.61
350.52	1028.90
350.89	1037.44
351.26	1041.66
351.63	1049.36
352.01	1052.47
352.38	1060.80
352.75	1065.22
353.12	1071.05
353.50	1073.28
353.87	1077.35
354.24	1077.21
354.61	1077.93
354.98	1079.50
355.36	1078.36
355.73	1076.67
356.10	1077.61
356.47	1077.58
356.84	1077.61
357.22	1080.93
357.59	1085.49
357.96	1083.76
358.33	1083.97
358.70	1086.94
359.08	1084.51
359.45	1079.69
359.82	1077.63
360.19	1079.74
360.56	1074.84
360.94	1072.92
361.31	1073.28
361.68	1073.04
362.05	1070.40
362.42	1070.68
362.79	1073.88
363.16	1073.79
363.54	1074.49
363.91	1077.33
364.28	1079.01
364.65	1076.04
365.02	1076.58
365.39	1075.20
365.76	1069.84
366.14	1069.88
366.51	1072.22
366.88	1068.27
367.25	1067.89
367.62	1066.91
367.99	1064.17
368.36	1063.89
368.73	1066.77
369.10	1066.11
369.48	1071.40
369.85	1073.67
370.22	1070.96
370.59	1072.20
370.96	1073.60
371.33	1072.18
371.70	1071.90
372.07	1074.77
372.44	1074.31
372.81	1074.56
373.18	1075.31
373.55	1073.63
373.93	1073.84
374.30	1075.03
374.67	1074.52
375.04	1070.54
375.41	1068.83
375.78	1067.45
376.15	1066.96
376.52	1069.02
376.89	1071.47
377.26	1071.75
377.63	1072.81
378.00	1074.07
378.37	1071.43
378.74	1070.84
379.11	1074.12
379.48	1070.51
379.85	1067.24
380.22	1066.65
380.59	1068.50
380.96	1069.20
381.33	1073.93
381.70	1075.36
382.07	1078.10
382.44	1076.55
382.81	1076.95
383.18	1076.46
383.55	1078.38
383.92	1077.63
384.29	1075.64
384.66	1073.37
385.03	1075.97
385.40	1076.58
385.77	1077.25
386.14	1080.74
386.51	1078.92
386.88	1074.56
387.25	1073.49
387.62	1073.51
387.99	1071.52
388.36	1075.08
388.73	1077.84
389.10	1078.07
389.46	1076.97
389.83	1077.86
390.20	1074.19
390.57	1071.94
390.94	1068.13
391.31	1067.73
391.68	1065.51
392.05	1066.23
392.42	1067.33
392.79	1072.78
393.16	1078.38
393.53	1084.02
393.89	1084.25
394.26	1082.03
394.63	1078.73
395.00	1074.89
395.37	1069.84
395.74	1071.17
396.11	1072.81
396.48	1072.95
396.84	1073.63
397.21	1076.39
397.58	1077.07
397.95	1075.99
398.32	1077.09
398.69	1076.93
399.06	1072.15
399.42	1073.65
399.79	1074.26
400.16	1071.38
400.53	1070.02
400.90	1071.59
401.27	1068.08
401.64	1071.61
402.00	1076.81
402.37	1078.03
402.74	1080.02
403.11	1080.06
403.48	1079.60
403.84	1075.73
404.21	1072.48
404.58	1071.52
404.95	1074.31
405.32	1074.33
405.68	1074.73
406.05	1077.37
406.42	1078.10
406.79	1077.54
407.16	1077.23
407.52	1078.03
407.89	1079.36
408.26	1079.48
408.63	1080.11
408.99	1078.40
409.36	1079.24
409.73	1078.03
410.10	1073.91
410.47	1073.25
410.83	1073.51
411.20	1074.17
411.57	1071.71
411.94	1076.60
412.30	1078.31
412.67	1078.52
413.04	1076.69
413.40	1078.33
413.77	1082.31
414.14	1082.59
414.51	1084.25
414.87	1084.14
415.24	1083.01
415.61	1080.30
415.97	1077.30
416.34	1074.12
416.71	1074.31
417.08	1076.74
417.44	1075.24
417.81	1074.70
418.18	1073.74
418.54	1070.84
418.91	1068.71
419.28	1067.64
419.64	1068.95
420.01	1071.33
420.38	1074.31
420.74	1075.87
421.11	1079.24
421.48	1078.03
421.84	1075.66
422.21	1076.62
422.58	1075.17
422.94	1071.66
423.31	1071.54
423.68	1075.73
424.04	1076.44
424.41	1078.59
424.77	1082.33
425.14	1082.52
425.51	1081.80
425.87	1081.56
426.24	1080.70
426.61	1077.65
426.97	1081.30
427.34	1077.40
427.70	1076.79
428.07	1079.10
428.44	1078.96
428.80	1077.37
429.17	1081.77
429.53	1080.77
429.90	1077.16
430.27	1077.23
430.63	1076.67
431.00	1072.29
431.36	1072.41
431.73	1071.45
432.09	1073.44
432.46	1073.98
432.83	1079.03
433.19	1078.73
433.56	1080.74
433.92	1079.74
434.29	1078.36
434.65	1074.12
435.02	1076.34
435.38	1076.90
435.75	1079.60
436.11	1079.97
436.48	1083.08
436.84	1082.17
437.21	1082.15
437.57	1081.14
437.94	1083.11
438.30	1079.67
438.67	1077.89
439.03	1078.78
439.40	1078.28
439.76	1077.75
440.13	1080.81
440.49	1085.24
440.86	1087.39
441.22	1088.86
441.59	1090.36
441.95	1088.86
442.32	1089.05
442.68	1086.24
443.05	1085.63
443.41	1081.66
443.78	1082.80
444.14	1080.79
444.51	1080.04
444.87	1079.69
445.24	1079.36
445.60	1081.09
445.96	1082.10
446.33	1084.93
446.69	1081.23
447.06	1082.08
447.42	1078.87
447.79	1076.13
448.15	1075.01
448.51	1079.60
448.88	1079.53
449.24	1080.13
449.61	1082.90
449.97	1081.75
450.33	1077.86
450.70	1079.69
451.06	1079.22
451.43	1079.15
451.79	1079.38
452.15	1084.00
452.52	1084.37
452.88	1087.02
453.24	1087.18
453.61	1087.32
453.97	1085.12
454.34	1084.30
454.70	1085.28
455.06	1085.19
455.43	1088.63
455.79	1087.95
456.15	1084.70
456.52	1082.83
456.88	1078.96
457.24	1075.17
457.61	1077.77
457.97	1078.43
458.33	1075.48
458.70	1078.47
459.06	1081.07
459.42	1078.14
459.79	1079.27
460.15	1082.43
460.51	1082.15
460.88	1081.56
461.24	1082.97
461.60	1084.93
461.96	1083.62
462.33	1085.12
462.69	1083.83
463.05	1081.87
463.42	1081.61
463.78	1084.84
464.14	1084.44
464.50	1082.83
464.87	1083.18
465.23	1082.22
465.59	1082.12
465.95	1082.40
466.32	1083.41
466.68	1082.80
467.04	1084.18
467.40	1083.55
467.77	1080.27
468.13	1079.22
468.49	1078.40
468.85	1077.96
469.22	1075.03
469.58	1075.50
469.94	1078.36
470.30	1077.44
470.66	1075.55
471.03	1075.85
471.39	1076.69
471.75	1076.06
472.11	1077.61
472.47	1080.04
472.84	1081.09
473.20	1078.14
473.56	1078.92
473.92	1080.79
474.28	1080.30
474.65	1079.76
475.01	1081.49
475.37	1079.60
475.73	1081.37
476.09	1082.71
476.45	1084.63
476.81	1085.31
477.18	1086.52
477.54	1083.46
477.90	1080.58
478.26	1079.64
478.62	1079.48
478.98	1078.07
479.34	1076.83
479.71	1078.05
480.07	1080.02
480.43	1080.51
480.79	1082.40
481.15	1086.80
481.51	1085.31
481.87	1082.05
482.23	1082.03
482.59	1080.63
482.96	1077.61
483.32	1081.00
483.68	1081.47
484.04	1083.08
484.40	1081.94
484.76	1083.29
485.12	1086.45
485.48	1086.08
485.84	1087.90
486.20	1089.99
486.56	1088.89
486.92	1083.46
487.28	1082.29
487.64	1080.13
488.00	1081.16
488.37	1084.04
488.73	1084.11
489.09	1085.31
489.45	1086.24
489.81	1082.40
490.17	1081.40
490.53	1081.77
490.89	1080.88
491.25	1078.54
491.61	1080.13
491.97	1077.77
492.33	1077.58
492.69	1080.86
493.05	1083.83
493.41	1085.26
493.77	1086.36
494.13	1086.10
494.49	1085.00
494.85	1081.80
495.21	1079.34
495.57	1077.84
495.93	1075.99
496.29	1075.97
496.64	1077.49
497.00	1079.97
497.36	1082.38
497.72	1086.01
498.08	1083.27
498.44	1083.55
498.80	1083.46
499.16	1085.61
499.52	1086.08
499.88	1090.15
500.24	1091.56
500.60	1090.03
500.96	1084.60
501.32	1081.51
501.68	1081.02
502.03	1077.77
502.39	1077.77
502.75	1077.84
503.11	1079.76
503.47	1078.14
503.83	1079.53
504.19	1081.37
504.55	1083.13
504.91	1082.36
505.26	1082.26
505.62	1085.17
505.98	1085.63
506.34	1086.76
506.70	1084.91
507.06	1084.65
507.42	1080.20
507.78	1076.39
508.13	1074.47
508.49	1074.24
508.85	1074.75
509.21	1077.30
509.57	1081.54
509.93	1084.72
510.28	1086.71
510.64	1084.86
511.00	1083.83
511.36	1082.12
511.72	1082.15
512.07	1083.81
512.43	1083.83
512.79	1082.31
513.15	1081.96
513.51	1081.75
513.86	1080.81
514.22	1079.41
514.58	1081.19
514.94	1080.51
515.30	1080.39
515.65	1079.97
516.01	1084.81
516.37	1082.03
516.73	1081.87
517.08	1081.26
517.44	1080.91
517.80	1079.15
518.16	1079.06
518.51	1081.80
518.87	1081.12
519.23	1079.10
519.59	1081.21
519.94	1081.42
520.30	1079.57
520.66	1081.98
521.01	1083.13
521.37	1082.85
521.73	1085.70
522.09	1087.86
522.44	1084.63
522.80	1086.64
523.16	1084.77
523.51	1087.51
523.87	1084.89
524.23	1086.50
524.58	1085.73
524.94	1086.92
525.30	1083.01
525.65	1085.80
526.01	1082.22
526.37	1082.05
526.72	1082.64
527.08	1082.36
527.44	1081.80
527.79	1084.39
528.15	1086.36
528.51	1084.53
528.86	1086.83
529.22	1086.15
529.58	1085.84
529.93	1086.92
530.29	1086.71
530.65	1087.53
531.00	1089.89
531.36	1091.84
531.71	1088.21
532.07	1090.97
532.43	1087.44
532.78	1086.66
533.14	1085.47
533.49	1087.51
533.85	1087.27
534.21	1092.30
534.56	1092.37
534.92	1092.80
535.27	1092.84
535.63	1089.82
535.98	1084.93
536.34	1082.64
536.69	1079.01
537.05	1075.99
537.41	1075.15
537.76	1075.22
538.12	1075.50
538.47	1075.94
538.83	1080.04
539.18	1081.73
539.54	1083.95
539.89	1085.87
540.25	1088.51
540.60	1088.35
540.96	1088.07
541.31	1085.68
541.67	1085.59
542.02	1087.44
542.38	1087.76
542.73	1087.81
543.09	1090.32
543.44	1089.71
543.80	1089.26
544.15	1086.24
544.51	1089.61
544.86	1089.07
545.22	1089.26
545.57	1087.97
545.93	1090.34
546.28	1090.29
546.64	1087.65
546.99	1086.22
547.35	1088.70
547.70	1087.76
548.05	1086.22
548.41	1087.18
548.76	1085.47
549.12	1082.59
549.47	1082.73
549.83	1080.79
550.18	1081.94
550.53	1083.79
550.89	1083.22
551.24	1082.33
551.60	1083.81
551.95	1085.82
552.30	1083.50
552.66	1083.15
553.01	1083.01
553.37	1082.66
553.72	1079.29
554.07	1082.76
554.43	1083.60
554.78	1082.29
555.13	1081.87
555.49	1082.10
555.84	1081.68
556.19	1082.29
556.55	1086.41
556.90	1087.60
557.26	1088.63
557.61	1088.35
557.96	1086.06
558.32	1080.79
558.67	1080.30
559.02	1080.25
559.37	1077.09
559.73	1080.51
560.08	1085.84
560.43	1086.17
560.79	1088.07
561.14	1091.42
561.49	1089.57
561.85	1086.27
562.20	1085.99
562.55	1083.57
562.90	1080.60
563.26	1083.22
563.61	1087.53
563.96	1086.17
564.32	1087.86
564.67	1089.92
565.02	1088.07
565.37	1083.08
565.73	1081.23
566.08	1080.37
566.43	1079.03
566.78	1075.99
567.14	1073.11
567.49	1075.71
567.84	1073.79
568.19	1074.47
568.54	1075.99
568.90	1078.57
569.25	1077.23
569.60	1078.38
569.95	1077.49
570.31	1078.75
570.66	1082.10
571.01	1082.01
571.36	1082.80
571.71	1085.59
572.06	1084.09
572.42	1082.80
572.77	1085.84
573.12	1085.45
573.47	1083.83
573.82	1085.35
574.18	1085.84
574.53	1086.45
574.88	1087.46
575.23	1086.20
575.58	1084.04
575.93	1085.19
576.28	1081.44
576.64	1080.04
576.99	1083.04
577.34	1081.37
577.69	1081.66
578.04	1083.62
578.39	1085.21
578.74	1080.09
579.09	1084.86
579.44	1083.22
579.80	1083.32
580.15	1081.37
580.50	1088.89
580.85	1089.24
581.20	1087.67
581.55	1086.94
581.90	1087.39
582.25	1084.09
582.60	1081.84
582.95	1083.83
583.30	1083.97
583.65	1083.27
584.00	1083.36
584.35	1081.23
584.71	1079.38
585.06	1078.64
585.41	1081.40
585.76	1081.16
586.11	1081.54
586.46	1081.42
586.81	1081.33
587.16	1078.71
587.51	1080.11
587.86	1081.16
588.21	1084.89
588.56	1086.57
588.91	1092.09
589.26	1088.79
589.61	1090.08
589.96	1088.61
590.31	1087.67
590.66	1080.51
591.01	1083.50
591.36	1081.14
591.71	1080.53
592.06	1080.67
592.41	1083.43
592.76	1082.38
593.10	1088.09
593.45	1090.64
593.80	1088.23
594.15	1086.50
594.50	1087.76
594.85	1086.66
595.20	1082.61
595.55	1085.89
595.90	1085.82
596.25	1081.94
596.60	1078.19
596.95	1078.07
597.30	1078.43
597.64	1129.64
597.99	1135.32
598.34	1138.06
598.69	1141.48
599.04	1140.64
599.39	1088.04
599.74	1085.75
600.09	1086.15
600.44	1085.31
600.78	1082.05
601.13	1086.55
601.48	1086.85
601.83	1086.15
602.18	1084.02
602.53	1086.94
602.88	1085.24
603.22	1085.77
603.57	1087.02
603.92	1090.27
604.27	1089.57
604.62	1090.53
604.97	1087.16
605.31	1086.48
605.66	1084.65
606.01	1085.54
606.36	1086.52
606.71	1085.31
607.05	1085.84
607.40	1085.07
607.75	1083.04
608.10	1079.95
608.44	1082.85
608.79	1082.19
609.14	1086.34
609.49	1090.69
609.84	1095.07
610.18	1097.52
610.53	1099.12
610.88	1100.80
611.23	1103.68
611.57	1102.63
611.92	1106.11
612.27	1104.76
612.62	1100.57
612.96	1097.08
613.31	1096.85
613.66	1092.05
614.00	1094.27
614.35	1092.52
614.70	1091.25
615.05	1090.88
615.39	1087.62
615.74	1085.63
616.09	1085.17
616.43	1087.58
616.78	1087.83
617.13	1091.20
617.47	1090.99
617.82	1091.44
618.17	1090.06
618.51	1091.72
618.86	1093.80
619.21	1093.01
619.55	1096.28
619.90	1097.73
620.25	1096.82
620.59	1095.51
620.94	1096.92
621.29	1092.61
621.63	1090.95
621.98	1086.73
622.32	1085.31
622.67	1083.34
623.02	1085.70
623.36	1084.14
623.71	1088.23
624.05	1088.12
624.40	1085.12
624.75	1083.13
625.09	1085.28
625.44	1083.50
625.78	1083.55
626.13	1084.72
626.48	1084.98
626.82	1082.85
627.17	1081.47
627.51	1083.62
627.86	1086.29
628.20	1086.62
628.55	1088.75
628.89	1089.59
629.24	1086.41
629.58	1086.43
629.93	1087.81
630.28	1087.90
630.62	1089.12
630.97	1088.75
631.31	1087.41
631.66	1085.19
632.00	1081.91
632.35	1080.34
632.69	1080.30
633.04	1079.41
633.38	1080.09
633.73	1081.23
634.07	1080.51
634.42	1083.64
634.76	1083.93
635.11	1081.73
635.45	1077.70
635.79	1080.25
636.14	1077.63
636.48	1075.08
636.83	1078.68
637.17	1083.88
637.52	1079.85
637.86	1076.11
638.21	1076.34
638.55	1075.85
638.89	1076.30
639.24	1080.04
639.58	1082.03
639.93	1087.11
640.27	1086.45
640.61	1084.21
640.96	1082.85
641.30	1084.89
641.65	1083.34
641.99	1083.74
642.33	1083.95
642.68	1083.25
643.02	1082.85
643.37	1086.13
643.71	1087.04
644.05	1088.12
644.40	1088.72
644.74	1088.89
645.08	1082.90
645.43	1080.04
645.77	1079.92
646.11	1081.42
646.46	1081.87
646.80	1084.65
647.14	1087.30
647.49	1086.01
647.83	1082.08
648.17	1083.15
648.52	1084.09
648.86	1083.93
649.20	1086.22
649.55	1088.37
649.89	1085.73
650.23	1085.00
650.57	1083.11
650.92	1080.34
651.26	1080.60
651.60	1081.07
651.95	1081.33
652.29	1081.16
652.63	1082.92
652.97	1083.81
653.32	1084.63
653.66	1083.32
654.00	1082.40
654.34	1080.39
654.69	1080.88
655.03	1084.25
655.37	1085.31
655.71	1086.97
656.05	1089.31
656.40	1084.81
656.74	1082.17
657.08	1080.86
657.42	1079.38
657.76	1079.60
658.11	1083.86
658.45	1085.17
658.79	1085.70
659.13	1087.72
659.47	1088.42
659.82	1087.46
660.16	1085.03
660.50	1087.37
660.84	1087.53
661.18	1087.06
661.52	1086.41
661.87	1085.31
662.21	1082.71
662.55	1081.87
662.89	1081.30
663.23	1084.14
663.57	1087.04
663.91	1087.13
664.25	1088.86
664.60	1085.31
664.94	1081.44
665.28	1079.08
665.62	1079.38
665.96	1078.92
666.30	1080.48
666.64	1082.76
666.98	1084.63
667.32	1086.64
667.66	1086.22
668.01	1088.42
668.35	1086.69
668.69	1085.05
669.03	1081.49
669.37	1082.29
669.71	1079.67
670.05	1080.98
670.39	1081.40
670.73	1082.80
671.07	1079.41
671.41	1079.17
671.75	1081.33
672.09	1079.74
672.43	1079.29
672.77	1078.64
673.11	1081.73
673.45	1079.38
673.79	1083.34
674.13	1085.35
674.47	1088.09
674.81	1084.72
675.15	1082.33
675.49	1077.09
675.83	1073.30
676.17	1071.10
676.51	1070.42
676.85	1073.21
677.19	1077.72
677.53	1076.32
677.87	1080.16
678.21	1082.80
678.55	1084.84
678.89	1085.05
679.23	1088.40
679.57	1088.44
679.90	1090.10
680.24	1087.16
680.58	1086.08
680.92	1089.71
681.26	1088.75
681.60	1087.39
681.94	1088.30
682.28	1088.16
682.62	1083.20
682.96	1084.42
683.29	1087.51
683.63	1085.70
683.97	1083.83
684.31	1088.37
684.65	1085.96
684.99	1082.26
685.33	1083.41
685.67	1083.27
686.00	1080.95
686.34	1082.59
686.68	1083.04
687.02	1085.35
687.36	1085.66
687.70	1081.75
688.03	1081.98
688.37	1081.42
688.71	1081.54
689.05	1081.73
689.39	1089.12
689.72	1087.30
690.06	1086.71
690.40	1086.73
690.74	1085.70
691.08	1082.99
691.41	1081.87
691.75	1083.13
692.09	1078.71
692.43	1080.53
692.76	1078.33
693.10	1082.26
693.44	1081.91
693.78	1083.15
694.11	1080.65
694.45	1081.91
694.79	1079.20
695.13	1076.41
695.46	1076.74
695.80	1077.70
696.14	1078.17
696.48	1078.89
696.81	1081.82
697.15	1081.98
697.49	1084.84
697.82	1086.24
698.16	1085.87
698.50	1086.24
698.83	1087.60
699.17	1088.47
699.51	1087.79
699.84	1088.91
700.18	1088.65
700.52	1086.43
700.85	1085.94
701.19	1082.99
701.53	1081.28
701.86	1079.99
702.20	1082.99
702.54	1082.24
702.87	1085.63
703.21	1084.37
703.55	1084.51
703.88	1081.54
704.22	1082.52
704.55	1081.61
704.89	1084.51
705.23	1084.77
705.56	1087.27
705.90	1085.49
706.23	1085.82
706.57	1085.70
706.91	1085.75
707.24	1084.11
707.58	1084.37
707.91	1081.19
708.25	1080.98
708.58	1078.17
708.92	1078.78
709.26	1077.37
709.59	1078.85
709.93	1079.38
710.26	1082.54
710.60	1082.22
710.93	1084.46
711.27	1084.70
711.60	1084.44
711.94	1086.99
712.27	1087.60
712.61	1086.69
712.94	1087.81
713.28	1085.89
713.61	1082.29
713.95	1081.02
714.28	1082.17
714.62	1079.76
714.95	1078.00
715.29	1078.92
715.62	1081.19
715.96	1079.10
716.29	1080.39
716.63	1082.05
716.96	1083.90
717.29	1085.56
717.63	1086.29
717.96	1086.48
718.30	1086.43
718.63	1082.78
718.97	1078.07
719.30	1076.76
719.63	1077.09
719.97	1077.28
720.30	1079.78
720.64	1079.97
720.97	1081.49
721.30	1084.25
721.64	1086.34
721.97	1085.31
722.31	1090.29
722.64	1088.70
722.97	1086.01
723.31	1084.58
723.64	1085.59
723.97	1082.50
724.31	1084.02
724.64	1083.86
724.98	1083.32
725.31	1083.22
725.64	1081.42
725.98	1081.70
726.31	1080.23
726.64	1080.60
726.97	1082.29
727.31	1085.63
727.64	1085.49
727.97	1087.11
728.31	1085.00
728.64	1083.62
728.97	1078.94
729.31	1078.24
729.64	1074.73
729.97	1078.17
730.30	1078.87
730.64	1082.80
730.97	1084.42
731.30	1086.08
731.63	1085.99
731.97	1084.07
732.30	1082.40
732.63	1080.88
732.96	1080.72
733.30	1079.92
733.63	1080.39
733.96	1079.15
734.29	1079.90
734.63	1080.58
734.96	1079.83
735.29	1079.15
735.62	1080.60
735.95	1076.93
736.29	1078.33
736.62	1079.24
736.95	1080.77
737.28	1079.81
737.61	1084.84
737.94	1084.32
738.28	1084.91
738.61	1084.96
738.94	1086.80
739.27	1084.67
739.60	1087.74
739.93	1088.86
740.27	1087.53
740.60	1088.02
740.93	1088.23
741.26	1087.37
741.59	1084.63
741.92	1087.53
742.25	1085.99
742.58	1085.87
742.91	1085.21
743.25	1087.27
743.58	1087.23
743.91	1085.61
744.24	1085.28
744.57	1084.91
744.90	1084.60
745.23	1083.55
745.56	1087.41
745.89	1088.86
746.22	1089.96
746.55	1088.77
746.88	1089.07
747.21	1089.59
747.54	1089.19
747.87	1085.84
748.20	1085.38
748.53	1081.58
748.87	1079.85
749.20	1078.52
749.53	1080.70
749.86	1083.22
750.19	1085.14
750.52	1085.99
750.85	1081.70
751.18	1078.21
751.51	1076.08
751.84	1076.88
752.16	1077.04
752.49	1082.73
752.82	1084.86
753.15	1084.37
753.48	1079.88
753.81	1076.37
754.14	1074.52
754.47	1073.84
754.80	1075.62
755.13	1080.46
755.46	1080.79
755.79	1084.00
756.12	1089.12
756.45	1088.28
756.78	1085.35
757.11	1082.92
757.43	1080.74
757.76	1078.33
758.09	1077.02
758.42	1077.47
758.75	1082.05
759.08	1083.86
759.41	1086.83
759.74	1087.13
760.07	1087.72
760.39	1089.96
760.72	1089.92
761.05	1085.19
761.38	1088.54
761.71	1089.43
762.04	1084.35
762.36	1083.01
762.69	1080.67
763.02	1076.55
763.35	1078.05
763.68	1077.84
764.01	1076.25
764.33	1077.00
764.66	1075.43
764.99	1073.02
765.32	1073.67
765.65	1074.49
765.97	1076.20
766.30	1078.96
766.63	1079.69
766.96	1081.37
767.28	1079.50
767.61	1080.56
767.94	1081.66
768.27	1081.26
768.59	1080.81
768.92	1083.13
769.25	1081.21
769.58	1079.62
769.90	1080.88
770.23	1079.06
770.56	1081.30
770.89	1079.17
771.21	1083.27
771.54	1082.08
771.87	1083.76
772.19	1081.51
772.52	1084.74
772.85	1082.90
773.17	1081.68
773.50	1083.01
773.83	1083.06
774.15	1084.32
774.48	1081.91
774.81	1082.92
775.13	1083.27
775.46	1084.60
775.79	1083.67
776.11	1084.04
776.44	1082.12
776.77	1079.99
777.09	1078.14
777.42	1077.09
777.74	1076.60
778.07	1080.41
778.40	1084.74
778.72	1086.69
779.05	1087.37
779.37	1088.65
779.70	1087.53
780.03	1083.01
780.35	1085.68
780.68	1085.33
781.00	1086.87
781.33	1086.22
781.65	1085.84
781.98	1082.17
782.31	1080.09
782.63	1077.44
782.96	1077.72
783.28	1080.88
783.61	1081.94
783.93	1084.56
784.26	1084.63
784.58	1085.94
784.91	1084.16
785.23	1083.36
785.56	1080.84
785.88	1083.20
786.21	1083.76
786.53	1084.44
786.86	1082.59
787.18	1083.97
787.51	1079.46
787.83	1080.25
788.16	1079.29
788.48	1078.59
788.81	1080.39
789.13	1083.32
789.46	1081.19
789.78	1082.38
790.10	1082.31
790.43	1080.65
790.75	1084.63
791.08	1086.97
791.40	1086.08
791.73	1091.18
792.05	1091.13
792.37	1085.73
792.70	1084.56
793.02	1081.54
793.35	1078.28
793.67	1076.88
793.99	1079.38
794.32	1080.48
794.64	1084.74
794.96	1082.19
795.29	1083.22
795.61	1078.87
795.93	1078.43
796.26	1078.94
796.58	1080.67
796.91	1080.27
797.23	1082.54
797.55	1081.37
797.87	1077.37
798.20	1078.94
798.52	1081.28
798.84	1080.72
799.17	1077.00
799.49	1080.93
799.81	1080.02
800.14	1079.08
800.46	1079.90
800.78	1082.76
801.10	1078.82
801.43	1079.69
801.75	1079.64
802.07	1083.11
802.40	1082.54
802.72	1081.66
803.04	1081.33
803.36	1081.82
803.69	1076.93
804.01	1075.92
804.33	1079.88
804.65	1079.60
804.97	1078.57
805.30	1077.23
805.62	1079.67
805.94	1079.10
806.26	1079.17
806.58	1079.76
806.91	1083.62
807.23	1084.02
807.55	1083.50
807.87	1084.74
808.19	1085.61
808.52	1084.96
808.84	1081.51
809.16	1079.69
809.48	1078.17
809.80	1077.58
810.12	1078.68
810.44	1083.50
810.77	1086.10
811.09	1087.79
811.41	1089.47
811.73	1087.97
812.05	1083.71
812.37	1087.48
812.69	1086.64
813.01	1083.36
813.33	1085.89
813.66	1088.75
813.98	1082.47
814.30	1079.60
814.62	1077.63
814.94	1077.58
815.26	1077.04
815.58	1079.57
815.90	1084.35
816.22	1087.25
816.54	1087.81
816.86	1090.62
817.18	1090.60
817.50	1089.94
817.82	1089.71
818.14	1085.12
818.46	1080.34
818.78	1078.40
819.10	1077.49
819.42	1078.12
819.74	1079.85
820.06	1081.80
820.38	1082.94
820.70	1081.07
821.02	1078.89
821.34	1080.56
821.66	1080.51
821.98	1082.78
822.30	1084.09
822.62	1087.23
822.94	1086.01
823.26	1085.14
823.58	1084.07
823.90	1082.78
824.22	1082.94
824.54	1081.33
824.86	1080.70
825.18	1076.39
825.50	1078.07
825.81	1076.30
826.13	1079.01
826.45	1079.34
826.77	1087.41
827.09	1083.32
827.41	1083.41
827.73	1082.73
828.05	1084.86
828.36	1080.30
828.68	1080.81
829.00	1079.81
829.32	1081.98
829.64	1081.42
829.96	1080.39
830.28	1083.27
830.59	1082.73
830.91	1078.52
831.23	1076.01
831.55	1080.44
831.87	1082.57
832.19	1086.17
832.50	1086.48
832.82	1086.10
833.14	1080.70
833.46	1080.65
833.78	1078.78
834.09	1080.30
834.41	1082.97
834.73	1085.05
835.05	1080.46
835.36	1080.88
835.68	1077.18
836.00	1077.30
836.32	1077.75
836.63	1079.13
836.95	1079.17
837.27	1084.30
837.59	1083.79
837.90	1083.48
838.22	1086.62
838.54	1086.08
838.85	1086.31
839.17	1087.93
839.49	1088.61
839.80	1084.89
840.12	1084.60
840.44	1083.46
840.76	1082.08
841.07	1079.92
841.39	1079.78
841.71	1077.79
842.02	1076.79
842.34	1077.42
842.65	1077.49
842.97	1080.30
843.29	1082.57
843.60	1084.21
843.92	1085.03
844.24	1086.06
844.55	1082.45
844.87	1084.84
845.18	1082.52
845.50	1078.80
845.82	1078.75
846.13	1084.30
846.45	1080.86
846.76	1084.14
847.08	1084.77
847.40	1083.41
847.71	1080.25
848.03	1083.62
848.34	1081.56
848.66	1082.24
848.97	1083.22
849.29	1081.07
849.60	1078.96
849.92	1077.44
850.24	1077.28
850.55	1078.99
850.87	1078.85
851.18	1079.60
851.50	1083.06
851.81	1083.29
852.13	1084.70
852.44	1088.91
852.76	1087.79
853.07	1086.27
853.39	1086.69
853.70	1082.33
854.01	1078.85
854.33	1079.17
854.64	1075.22
854.96	1073.56
855.27	1073.07
855.59	1075.50
855.90	1077.51
856.22	1079.46
856.53	1083.29
856.84	1088.77
857.16	1090.41
857.47	1090.08
857.79	1092.54
858.10	1089.61
858.41	1088.77
858.73	1084.65
859.04	1081.70
859.36	1079.90
859.67	1079.20
859.98	1079.08
860.30	1081.07
860.61	1078.99
860.92	1080.77
861.24	1079.78
861.55	1075.50
861.87	1075.78
862.18	1077.42
862.49	1076.90
862.81	1079.36
863.12	1080.77
863.43	1080.30
863.74	1079.57
864.06	1079.97
864.37	1078.10
864.68	1078.94
865.00	1080.39
865.31	1087.95
865.62	1087.95
865.94	1086.76
866.25	1089.22
866.56	1086.27
866.87	1081.61
867.19	1078.45
867.50	1081.02
867.81	1079.97
868.12	1085.21
868.44	1084.79
868.75	1085.56
869.06	1086.38
869.37	1084.86
869.68	1078.40
870.00	1079.20
870.31	1081.28
870.62	1080.93
870.93	1079.69
871.24	1084.72
871.56	1087.25
871.87	1086.43
872.18	1088.54
872.49	1091.65
872.80	1088.02
873.12	1083.27
873.43	1086.41
873.74	1086.01
874.05	1086.06
874.36	1086.94
874.67	1085.49
874.98	1084.09
875.29	1082.10
875.61	1080.02
875.92	1078.94
876.23	1083.18
876.54	1079.50
876.85	1077.25
877.16	1075.29
877.47	1075.90
877.78	1072.34
878.09	1076.37
878.40	1077.58
878.72	1076.13
879.03	1074.80
879.34	1077.00
879.65	1071.08
879.96	1071.50
880.27	1075.90
880.58	1076.53
880.89	1077.00
881.20	1082.85
881.51	1083.18
881.82	1083.04
882.13	1083.55
882.44	1081.63
882.75	1077.40
883.06	1080.39
883.37	1077.02
883.68	1074.82
883.99	1076.15
884.30	1081.00
884.61	1077.86
884.92	1080.48
885.23	1082.90
885.54	1082.94
885.85	1083.57
886.16	1083.88
886.47	1083.18
886.78	1084.65
887.08	1083.90
887.39	1082.45
887.70	1081.40
888.01	1082.36
888.32	1082.40
888.63	1083.74
888.94	1083.55
889.25	1086.08
889.56	1083.69
889.87	1081.66
890.17	1082.01
890.48	1077.04
890.79	1075.94
891.10	1078.64
891.41	1080.30
891.72	1080.70
892.03	1085.05
892.34	1084.91
892.64	1081.33
892.95	1082.52
893.26	1083.46
893.57	1082.33
893.88	1082.64
894.18	1083.43
894.49	1079.43
894.80	1075.05
895.11	1074.61
895.42	1072.43
895.72	1074.56
896.03	1076.74
896.34	1077.63
896.65	1078.57
896.96	1080.30
897.26	1081.80
897.57	1085.12
897.88	1089.96
898.19	1090.32
898.49	1090.55
898.80	1088.21
899.11	1088.93
899.41	1084.79
899.72	1086.15
900.03	1087.25
900.34	1088.75
900.64	1081.94
900.95	1079.36
901.26	1076.81
901.56	1076.60
901.87	1076.34
902.18	1081.61
902.48	1084.67
902.79	1087.48
903.10	1085.75
903.40	1085.89
903.71	1084.02
904.02	1084.21
904.32	1080.91
904.63	1081.84
904.94	1079.78
905.24	1081.58
905.55	1082.31
905.85	1083.27
906.16	1082.26
906.47	1082.05
906.77	1079.88
907.08	1080.58
907.38	1081.82
907.69	1083.83
908.00	1085.38
908.30	1085.19
908.61	1082.69
908.91	1082.36
909.22	1080.93
909.52	1080.18
909.83	1080.93
910.14	1080.74
910.44	1079.36
910.75	1078.12
911.05	1080.51
911.36	1077.89
911.66	1078.80
911.97	1078.68
912.27	1081.44
912.58	1081.21
912.88	1081.80
913.19	1085.77
913.49	1089.61
913.80	1087.58
914.10	1086.83
914.41	1088.23
914.71	1083.48
915.01	1079.20
915.32	1080.46
915.62	1078.68
915.93	1081.12
916.23	1082.99
916.54	1084.74
916.84	1083.18
917.15	1081.61
917.45	1077.89
917.75	1075.45
918.06	1074.82
918.36	1076.74
918.67	1080.70
918.97	1083.06
919.27	1085.49
919.58	1085.49
919.88	1081.96
920.18	1078.52
920.49	1079.74
920.79	1078.89
921.10	1078.36
921.40	1080.56
921.70	1086.08
922.01	1082.76
922.31	1082.97
922.61	1082.31
922.92	1082.87
923.22	1080.93
923.52	1082.78
923.82	1080.46
924.13	1082.57
924.43	1082.08
924.73	1080.58
925.04	1081.73
925.34	1083.81
925.64	1084.44
925.94	1084.91
926.25	1086.10
926.55	1082.64
926.85	1083.62
927.15	1080.60
927.46	1080.63
927.76	1079.46
928.06	1078.80
928.36	1078.82
928.67	1080.39
928.97	1080.23
929.27	1079.85
929.57	1081.21
929.87	1081.30
930.18	1084.93
930.48	1083.79
930.78	1086.17
931.08	1086.99
931.38	1086.83
931.69	1083.04
931.99	1082.52
932.29	1081.98
932.59	1082.66
932.89	1083.55
933.19	1082.10
933.49	1083.55
933.80	1081.91
934.10	1081.02
934.40	1078.59
934.70	1079.53
935.00	1080.63
935.30	1081.07
935.60	1083.13
935.90	1082.94
936.20	1083.48
936.50	1083.55
936.81	1082.08
937.11	1080.65
937.41	1081.80
937.71	1083.22
938.01	1081.49
938.31	1080.39
938.61	1081.42
938.91	1078.43
939.21	1077.47
939.51	1076.11
939.81	1079.99
940.11	1077.61
940.41	1079.69
940.71	1078.10
941.01	1081.51
941.31	1079.38
941.61	1084.70
941.91	1083.90
942.21	1083.53
942.51	1083.22
942.81	1082.24
943.11	1077.28
943.41	1079.01
943.71	1081.54
944.01	1081.61
944.31	1082.31
944.61	1082.80
944.90	1081.19
945.20	1080.53
945.50	1076.86
945.80	1077.56
946.10	1077.63
946.40	1078.00
946.70	1078.99
947.00	1084.28
947.30	1086.80
947.60	1088.77
947.89	1087.88
948.19	1085.91
948.49	1085.19
948.79	1084.74
949.09	1083.22
949.39	1085.31
949.69	1086.92
949.98	1085.96
950.28	1084.74
950.58	1082.26
950.88	1082.92
951.18	1084.11
951.48	1083.71
951.77	1081.40
952.07	1083.29
952.37	1080.88
952.67	1079.88
952.97	1078.57
953.26	1078.64
953.56	1080.06
953.86	1083.86
954.16	1083.39
954.45	1084.65
954.75	1084.72
955.05	1083.71
955.35	1079.60
955.64	1079.48
955.94	1075.62
956.24	1076.44
956.54	1076.11
956.83	1079.83
957.13	1079.50
957.43	1085.84
957.72	1084.91
958.02	1086.27
958.32	1083.62
958.61	1084.09
958.91	1081.77
959.21	1084.70
959.50	1085.19
959.80	1086.13
960.10	1086.27
960.39	1085.63
960.69	1082.94
960.99	1080.72
961.28	1080.30
961.58	1079.31
961.87	1078.43
962.17	1078.89
962.47	1081.61
962.76	1082.33
963.06	1081.87
963.36	1083.76
963.65	1084.89
963.95	1082.22
964.24	1081.61
964.54	1082.29
964.83	1081.66
965.13	1082.57
965.42	1081.23
965.72	1082.78
966.02	1082.83
966.31	1082.54
966.61	1081.68
966.90	1084.23
967.20	1080.13
967.49	1080.93
967.79	1080.23
968.08	1080.13
968.38	1079.60
968.67	1082.12
968.97	1080.77
969.26	1082.52
969.56	1084.28
969.85	1084.14
970.15	1082.87
970.44	1084.96
970.74	1082.92
971.03	1082.57
971.32	1083.50
971.62	1086.24
971.91	1082.64
972.21	1086.17
972.50	1086.22
972.80	1086.69
973.09	1083.41
973.38	1086.13
973.68	1083.50
973.97	1084.07
974.27	1083.57
974.56	1086.71
974.85	1086.57
975.15	1087.55
975.44	1088.26
975.73	1088.47
976.03	1088.75
976.32	1088.33
976.61	1087.02
976.91	1084.60
977.20	1084.32
977.49	1082.80
977.79	1082.17
978.08	1081.40
978.37	1081.05
978.67	1078.40
978.96	1081.09
979.25	1083.62
979.55	1081.12
979.84	1081.98
980.13	1084.23
980.42	1080.51
980.72	1078.85
981.01	1083.13
981.30	1081.19
981.59	1084.77
981.89	1084.21
982.18	1084.74
982.47	1083.55
982.76	1084.46
983.06	1078.12
983.35	1078.21
983.64	1077.65
983.93	1076.62
984.22	1075.99
984.52	1076.34
984.81	1075.38
985.10	1076.20
985.39	1078.45
985.68	1080.30
985.97	1083.95
986.27	1090.08
986.56	1089.24
986.85	1086.24
987.14	1085.75
987.43	1083.48
987.72	1078.38
988.01	1076.11
988.31	1078.47
988.60	1076.62
988.89	1075.97
989.18	1078.14
989.47	1080.81
989.76	1080.98
990.05	1081.44
990.34	1082.52
990.63	1082.40
990.92	1082.12
991.21	1082.15
991.51	1084.32
991.80	1084.23
992.09	1082.94
992.38	1081.77
992.67	1081.35
992.96	1081.84
993.25	1084.63
993.54	1084.89
993.83	1085.75
994.12	1083.55
994.41	1081.40
994.70	1077.68
994.99	1079.27
995.28	1077.70
995.57	1079.55
995.86	1080.18
996.15	1080.34
996.44	1079.85
996.73	1082.45
997.02	1084.16
997.31	1084.35
997.59	1084.51
997.88	1083.48
998.17	1080.65
998.46	1078.54
998.75	1078.31
999.04	1077.93
999.33	1079.53
999.62	1078.21
999.91	1076.27
1000.20	1080.16
1000.49	1081.87
1000.77	1081.33
1001.06	1085.49
1001.35	1088.75
1001.64	1083.97
1001.93	1082.08
1002.22	1081.98
1002.51	1082.73
1002.79	1084.02
1003.08	1083.97
1003.37	1089.24
1003.66	1085.68
1003.95	1084.46
1004.23	1082.38
1004.52	1084.02
1004.81	1079.90
1005.10	1081.63
1005.39	1080.23
1005.67	1082.99
1005.96	1082.03
1006.25	1081.49
1006.54	1080.86
1006.83	1082.97
1007.11	1081.75
1007.40	1083.57
1007.69	1084.65
1007.97	1086.01
1008.26	1086.29
1008.55	1085.21
1008.84	1084.14
1009.12	1083.13
1009.41	1083.88
1009.70	1083.74
1009.98	1082.64
1010.27	1085.49
1010.56	1087.83
1010.85	1088.23
1011.13	1087.53
1011.42	1089.14
1011.71	1085.21
1011.99	1084.23
1012.28	1084.81
1012.56	1081.91
1012.85	1082.69
1013.14	1083.69
1013.42	1084.91
1013.71	1084.53
1014.00	1085.49
1014.28	1083.74
1014.57	1085.00
1014.85	1084.65
1015.14	1080.86
1015.43	1080.58
1015.71	1080.70
1016.00	1078.59
1016.28	1076.11
1016.57	1078.21
1016.85	1078.31
1017.14	1079.15
1017.43	1080.88
1017.71	1080.53
1018.00	1080.11
1018.28	1081.66
1018.57	1080.04
1018.85	1078.12
1019.14	1077.30
1019.42	1077.14
1019.71	1076.34
1019.99	1079.67
1020.28	1081.98
1020.56	1083.50
1020.85	1085.49
1021.13	1087.44
1021.42	1084.98
1021.70	1080.46
1021.99	1081.73
1022.27	1078.36
1022.55	1085.66
1022.84	1068.10
>>>>>End Processed Spectral Data<<<<<
