SpectraSuite Data File
++++++++++++++++++++++++++++++++++++
Date: Mon Aug 26 10:26:58 PDT 2019
User: corrico
Dark Spectrum Present: No
Reference Spectrum Present: No
Number of Sampled Component Spectra: 1
Spectrometers: USB2+H06089
Integration Time (usec): 10000 (USB2+H06089)
Spectra Averaged: 20 (USB2+H06089)
Boxcar Smoothing: 2 (USB2+H06089)
Correct for Electrical Dark: No (USB2+H06089)
Strobe/Lamp Enabled: No (USB2+H06089)
Correct for Detector Non-linearity: No (USB2+H06089)
Correct for Stray Light: No (USB2+H06089)
Number of Pixels in Processed Spectrum: 2048
>>>>>Begin Processed Spectral Data<<<<<
339.70	1026.44
340.07	1026.44
340.45	995.99
340.82	974.58
341.19	954.49
341.57	929.10
341.94	920.53
342.31	910.96
342.69	908.41
343.06	901.71
343.43	900.05
343.81	898.70
344.18	902.89
344.55	901.62
344.93	909.18
345.30	915.34
345.67	923.01
346.04	929.19
346.42	940.29
346.79	948.67
347.16	958.07
347.54	965.85
347.91	972.49
348.28	981.95
348.65	989.11
349.03	997.44
349.40	1007.62
349.77	1017.01
350.14	1022.58
350.52	1028.06
350.89	1036.90
351.26	1042.57
351.63	1045.75
352.01	1053.29
352.38	1057.76
352.75	1059.19
353.12	1062.09
353.50	1067.40
353.87	1068.27
354.24	1071.22
354.61	1074.80
354.98	1076.69
355.36	1078.73
355.73	1079.74
356.10	1082.47
356.47	1082.19
356.84	1081.96
357.22	1081.56
357.59	1082.94
357.96	1082.17
358.33	1080.98
358.70	1078.75
359.08	1073.77
359.45	1072.88
359.82	1073.07
360.19	1074.84
360.56	1076.72
360.94	1078.68
361.31	1075.94
361.68	1071.59
362.05	1073.25
362.42	1073.98
362.79	1077.18
363.16	1077.02
363.54	1079.03
363.91	1074.77
364.28	1072.08
364.65	1069.02
365.02	1068.85
365.39	1067.05
365.76	1067.07
366.14	1068.20
366.51	1067.89
366.88	1067.73
367.25	1069.46
367.62	1069.62
367.99	1069.09
368.36	1069.39
368.73	1071.68
369.10	1072.15
369.48	1073.04
369.85	1072.55
370.22	1074.52
370.59	1074.45
370.96	1074.12
371.33	1072.29
371.70	1069.98
372.07	1067.73
372.44	1065.53
372.81	1064.48
373.18	1065.08
373.55	1066.56
373.93	1067.19
374.30	1066.72
374.67	1065.25
375.04	1066.98
375.41	1068.31
375.78	1065.58
376.15	1067.52
376.52	1068.17
376.89	1066.25
377.26	1065.08
377.63	1066.09
378.00	1064.76
378.37	1067.26
378.74	1068.45
379.11	1071.33
379.48	1073.84
379.85	1075.94
380.22	1076.37
380.59	1075.13
380.96	1072.48
381.33	1070.65
381.70	1070.00
382.07	1071.15
382.44	1069.20
382.81	1069.51
383.18	1069.60
383.55	1071.47
383.92	1069.04
384.29	1070.61
384.66	1073.67
385.03	1069.93
385.40	1068.69
385.77	1066.72
386.14	1068.27
386.51	1066.18
386.88	1073.46
387.25	1073.04
387.62	1076.25
387.99	1076.46
388.36	1076.39
388.73	1072.34
389.10	1073.16
389.46	1070.44
389.83	1069.46
390.20	1068.45
390.57	1069.37
390.94	1069.37
391.31	1070.00
391.68	1070.19
392.05	1069.06
392.42	1069.67
392.79	1066.07
393.16	1069.72
393.53	1071.92
393.89	1071.82
394.26	1071.61
394.63	1074.80
395.00	1071.57
395.37	1071.08
395.74	1072.27
396.11	1073.49
396.48	1073.37
396.84	1073.28
397.21	1075.45
397.58	1075.15
397.95	1074.05
398.32	1074.98
398.69	1074.45
399.06	1069.32
399.42	1070.35
399.79	1068.99
400.16	1067.10
400.53	1068.83
400.90	1073.16
401.27	1074.12
401.64	1076.32
402.00	1076.39
402.37	1079.03
402.74	1080.41
403.11	1079.83
403.48	1077.72
403.84	1080.44
404.21	1077.93
404.58	1075.38
404.95	1073.39
405.32	1076.93
405.68	1076.83
406.05	1081.58
406.42	1079.85
406.79	1081.70
407.16	1077.84
407.52	1078.07
407.89	1075.57
408.26	1079.22
408.63	1076.48
408.99	1076.48
409.36	1073.84
409.73	1068.64
410.10	1066.91
410.47	1069.86
410.83	1073.18
411.20	1075.64
411.57	1077.04
411.94	1077.28
412.30	1080.48
412.67	1078.73
413.04	1075.34
413.40	1077.04
413.77	1074.28
414.14	1070.72
414.51	1074.07
414.87	1076.46
415.24	1079.31
415.61	1082.22
415.97	1085.21
416.34	1082.80
416.71	1082.10
417.08	1078.92
417.44	1077.70
417.81	1071.08
418.18	1072.69
418.54	1070.68
418.91	1073.09
419.28	1071.24
419.64	1076.79
420.01	1075.24
420.38	1075.90
420.74	1074.28
421.11	1073.77
421.48	1075.66
421.84	1075.71
422.21	1079.41
422.58	1079.64
422.94	1083.11
423.31	1080.27
423.68	1080.18
424.04	1079.90
424.41	1079.31
424.77	1079.01
425.14	1078.54
425.51	1077.63
425.87	1075.43
426.24	1078.05
426.61	1074.35
426.97	1076.88
427.34	1076.83
427.70	1077.91
428.07	1075.50
428.44	1078.75
428.80	1076.79
429.17	1081.30
429.53	1082.19
429.90	1083.48
430.27	1080.30
430.63	1080.86
431.00	1078.10
431.36	1076.53
431.73	1076.41
432.09	1076.27
432.46	1074.77
432.83	1076.30
433.19	1076.32
433.56	1073.79
433.92	1078.19
434.29	1081.35
434.65	1078.78
435.02	1081.84
435.38	1083.74
435.75	1084.49
436.11	1078.28
436.48	1078.54
436.84	1074.42
437.21	1075.13
437.57	1072.76
437.94	1078.12
438.30	1080.37
438.67	1080.63
439.03	1080.93
439.40	1082.33
439.76	1081.94
440.13	1079.29
440.49	1078.19
440.86	1079.08
441.22	1077.61
441.59	1076.72
441.95	1074.00
442.32	1073.07
442.68	1069.13
443.05	1066.91
443.41	1067.40
443.78	1071.12
444.14	1076.01
444.51	1079.46
444.87	1082.15
445.24	1082.83
445.60	1081.16
445.96	1078.59
446.33	1076.83
446.69	1074.84
447.06	1072.74
447.42	1075.64
447.79	1075.52
448.15	1072.88
448.51	1075.15
448.88	1074.63
449.24	1074.21
449.61	1074.00
449.97	1079.38
450.33	1078.82
450.70	1079.97
451.06	1081.98
451.43	1082.94
451.79	1082.24
452.15	1082.64
452.52	1082.85
452.88	1079.17
453.24	1083.36
453.61	1079.81
453.97	1078.40
454.34	1076.13
454.70	1074.35
455.06	1070.58
455.43	1071.54
455.79	1076.95
456.15	1081.51
456.52	1085.77
456.88	1085.82
457.24	1085.87
457.61	1082.01
457.97	1079.38
458.33	1078.57
458.70	1077.47
459.06	1077.02
459.42	1076.04
459.79	1077.91
460.15	1078.17
460.51	1078.68
460.88	1077.14
461.24	1079.57
461.60	1076.06
461.96	1074.49
462.33	1075.83
462.69	1076.55
463.05	1075.50
463.42	1078.66
463.78	1078.71
464.14	1075.43
464.50	1077.49
464.87	1077.49
465.23	1074.26
465.59	1075.08
465.95	1075.52
466.32	1076.79
466.68	1076.86
467.04	1078.82
467.40	1080.70
467.77	1084.07
468.13	1080.51
468.49	1079.74
468.85	1078.75
469.22	1076.93
469.58	1075.69
469.94	1076.23
470.30	1076.18
470.66	1078.03
471.03	1076.81
471.39	1074.98
471.75	1076.76
472.11	1078.14
472.47	1075.99
472.84	1076.46
473.20	1078.92
473.56	1078.99
473.92	1080.23
474.28	1082.22
474.65	1081.96
475.01	1082.54
475.37	1083.81
475.73	1081.40
476.09	1080.88
476.45	1081.56
476.81	1078.82
477.18	1077.42
477.54	1078.78
477.90	1078.71
478.26	1076.95
478.62	1080.30
478.98	1080.65
479.34	1082.66
479.71	1084.42
480.07	1086.97
480.43	1085.28
480.79	1086.71
481.15	1082.01
481.51	1079.29
481.87	1079.85
482.23	1078.17
482.59	1075.66
482.96	1077.44
483.32	1077.58
483.68	1075.55
484.04	1079.43
484.40	1079.38
484.76	1082.83
485.12	1085.61
485.48	1086.13
485.84	1082.94
486.20	1081.28
486.56	1078.07
486.92	1078.54
487.28	1080.09
487.64	1084.58
488.00	1088.37
488.37	1088.09
488.73	1088.09
489.09	1086.66
489.45	1084.86
489.81	1083.79
490.17	1083.86
490.53	1080.67
490.89	1081.73
491.25	1079.50
491.61	1080.53
491.97	1081.63
492.33	1082.15
492.69	1081.30
493.05	1079.57
493.41	1078.80
493.77	1077.47
494.13	1078.26
494.49	1078.12
494.85	1076.32
495.21	1075.20
495.57	1078.94
495.93	1080.46
496.29	1082.43
496.64	1088.65
497.00	1089.54
497.36	1085.59
497.72	1085.40
498.08	1086.03
498.44	1081.51
498.80	1080.88
499.16	1084.07
499.52	1084.07
499.88	1081.28
500.24	1083.43
500.60	1088.12
500.96	1082.99
501.32	1083.64
501.68	1083.88
502.03	1082.64
502.39	1077.75
502.75	1078.68
503.11	1077.77
503.47	1078.78
503.83	1079.90
504.19	1079.08
504.55	1080.51
504.91	1081.56
505.26	1080.23
505.62	1080.86
505.98	1082.66
506.34	1081.42
506.70	1078.50
507.06	1080.84
507.42	1078.85
507.78	1078.12
508.13	1078.75
508.49	1082.08
508.85	1081.82
509.21	1084.56
509.57	1086.85
509.93	1089.12
510.28	1085.33
510.64	1084.60
511.00	1084.11
511.36	1084.32
511.72	1081.66
512.07	1082.26
512.43	1086.22
512.79	1087.18
513.15	1084.91
513.51	1088.19
513.86	1090.83
514.22	1087.34
514.58	1084.53
514.94	1085.56
515.30	1081.98
515.65	1080.41
516.01	1080.63
516.37	1079.53
516.73	1078.17
517.08	1082.83
517.44	1085.12
517.80	1084.42
518.16	1088.09
518.51	1089.26
518.87	1086.45
519.23	1082.19
519.59	1082.22
519.94	1080.32
520.30	1078.57
520.66	1079.29
521.01	1081.37
521.37	1078.33
521.73	1081.61
522.09	1081.66
522.44	1079.50
522.80	1079.74
523.16	1085.91
523.51	1083.18
523.87	1084.72
524.23	1087.06
524.58	1083.60
524.94	1078.73
525.30	1080.48
525.65	1080.06
526.01	1078.96
526.37	1082.29
526.72	1084.79
527.08	1085.12
527.44	1084.89
527.79	1085.52
528.15	1084.16
528.51	1082.10
528.86	1080.51
529.22	1081.94
529.58	1078.61
529.93	1078.19
530.29	1078.12
530.65	1076.39
531.00	1074.35
531.36	1079.43
531.71	1081.73
532.07	1080.41
532.43	1080.79
532.78	1083.32
533.14	1081.47
533.49	1079.24
533.85	1085.96
534.21	1086.41
534.56	1084.86
534.92	1084.86
535.27	1085.42
535.63	1084.28
535.98	1087.93
536.34	1088.40
536.69	1086.80
537.05	1086.92
537.41	1083.25
537.76	1081.40
538.12	1082.99
538.47	1084.02
538.83	1085.19
539.18	1083.34
539.54	1079.99
539.89	1078.59
540.25	1079.17
540.60	1077.14
540.96	1079.15
541.31	1078.94
541.67	1080.88
542.02	1080.32
542.38	1083.15
542.73	1087.58
543.09	1090.67
543.44	1089.31
543.80	1090.29
544.15	1086.80
544.51	1084.00
544.86	1086.45
545.22	1083.62
545.57	1085.54
545.93	1086.94
546.28	1085.26
546.64	1084.77
546.99	1090.76
547.35	1086.10
547.70	1087.16
548.05	1086.83
548.41	1084.77
548.76	1080.18
549.12	1081.82
549.47	1084.93
549.83	1084.96
550.18	1083.67
550.53	1084.96
550.89	1084.23
551.24	1082.92
551.60	1085.49
551.95	1083.79
552.30	1080.48
552.66	1082.71
553.01	1080.77
553.37	1078.40
553.72	1080.48
554.07	1082.83
554.43	1080.09
554.78	1078.96
555.13	1081.61
555.49	1083.79
555.84	1085.21
556.19	1087.34
556.55	1088.00
556.90	1086.45
557.26	1084.09
557.61	1081.91
557.96	1081.19
558.32	1081.73
558.67	1079.38
559.02	1077.96
559.37	1081.00
559.73	1080.93
560.08	1081.35
560.43	1086.06
560.79	1090.43
561.14	1085.87
561.49	1088.58
561.85	1087.55
562.20	1080.51
562.55	1077.72
562.90	1080.25
563.26	1079.69
563.61	1081.12
563.96	1086.41
564.32	1084.16
564.67	1083.39
565.02	1082.71
565.37	1079.74
565.73	1078.78
566.08	1081.54
566.43	1081.00
566.78	1081.05
567.14	1080.25
567.49	1081.66
567.84	1078.80
568.19	1081.80
568.54	1083.36
568.90	1086.78
569.25	1085.49
569.60	1087.30
569.95	1087.39
570.31	1085.21
570.66	1082.85
571.01	1080.91
571.36	1080.91
571.71	1078.05
572.06	1080.44
572.42	1081.94
572.77	1084.02
573.12	1080.86
573.47	1082.26
573.82	1080.11
574.18	1081.94
574.53	1078.38
574.88	1082.57
575.23	1084.30
575.58	1083.06
575.93	1081.89
576.28	1086.06
576.64	1083.55
576.99	1080.27
577.34	1080.72
577.69	1079.29
578.04	1078.03
578.39	1082.73
578.74	1084.39
579.09	1084.56
579.44	1085.24
579.80	1087.23
580.15	1082.80
580.50	1081.94
580.85	1080.18
581.20	1081.56
581.55	1078.07
581.90	1082.73
582.25	1080.65
582.60	1079.43
582.95	1077.51
583.30	1079.31
583.65	1075.80
584.00	1080.13
584.35	1082.92
584.71	1083.41
585.06	1081.68
585.41	1084.39
585.76	1081.98
586.11	1083.15
586.46	1084.77
586.81	1086.57
587.16	1085.03
587.51	1086.87
587.86	1089.57
588.21	1090.34
588.56	1090.15
588.91	1090.76
589.26	1090.50
589.61	1089.99
589.96	1088.23
590.31	1087.39
590.66	1088.51
591.01	1087.48
591.36	1083.32
591.71	1081.82
592.06	1084.32
592.41	1083.08
592.76	1085.59
593.10	1087.18
593.45	1087.83
593.80	1085.91
594.15	1087.60
594.50	1084.96
594.85	1083.36
595.20	1087.93
595.55	1088.72
595.90	1087.67
596.25	1087.11
596.60	1088.00
596.95	1083.69
597.30	1082.05
597.64	1131.56
597.99	1135.00
598.34	1133.47
598.69	1136.12
599.04	1137.52
599.39	1088.68
599.74	1083.46
600.09	1085.87
600.44	1086.78
600.78	1086.76
601.13	1082.22
601.48	1086.41
601.83	1085.24
602.18	1085.89
602.53	1087.16
602.88	1091.46
603.22	1089.45
603.57	1091.20
603.92	1089.24
604.27	1087.81
604.62	1087.04
604.97	1089.38
605.31	1083.69
605.66	1084.65
606.01	1086.99
606.36	1085.14
606.71	1084.11
607.05	1089.03
607.40	1087.72
607.75	1085.63
608.10	1086.52
608.44	1087.95
608.79	1089.33
609.14	1092.59
609.49	1095.51
609.84	1099.77
610.18	1098.76
610.53	1098.46
610.88	1099.98
611.23	1099.86
611.57	1100.68
611.92	1103.35
612.27	1104.87
612.62	1100.96
612.96	1102.65
613.31	1098.18
613.66	1095.77
614.00	1095.42
614.35	1095.28
614.70	1092.80
615.05	1095.79
615.39	1096.40
615.74	1093.73
616.09	1094.65
616.43	1092.91
616.78	1088.00
617.13	1088.16
617.47	1089.47
617.82	1085.77
618.17	1084.96
618.51	1085.05
618.86	1083.79
619.21	1080.34
619.55	1082.05
619.90	1082.54
620.25	1082.19
620.59	1078.66
620.94	1085.19
621.29	1086.01
621.63	1084.39
621.98	1087.81
622.32	1090.22
622.67	1084.28
623.02	1081.89
623.36	1084.63
623.71	1083.71
624.05	1081.44
624.40	1083.06
624.75	1085.00
625.09	1086.52
625.44	1085.56
625.78	1090.36
626.13	1094.18
626.48	1093.17
626.82	1090.69
627.17	1094.11
627.51	1093.29
627.86	1089.33
628.20	1085.68
628.55	1083.90
628.89	1078.24
629.24	1075.85
629.58	1075.64
629.93	1079.88
630.28	1081.16
630.62	1084.44
630.97	1083.46
631.31	1085.26
631.66	1083.20
632.00	1083.88
632.35	1082.40
632.69	1083.27
633.04	1083.25
633.38	1084.25
633.73	1084.96
634.07	1086.50
634.42	1085.61
634.76	1082.71
635.11	1081.66
635.45	1077.86
635.79	1079.46
636.14	1083.29
636.48	1085.45
636.83	1087.44
637.17	1091.27
637.52	1087.95
637.86	1085.35
638.21	1084.72
638.55	1083.50
638.89	1079.60
639.24	1077.77
639.58	1079.71
639.93	1078.00
640.27	1077.68
640.61	1080.13
640.96	1082.71
641.30	1079.36
641.65	1081.21
641.99	1081.82
642.33	1084.56
642.68	1085.84
643.02	1089.14
643.37	1087.41
643.71	1088.14
644.05	1086.55
644.40	1085.10
644.74	1084.14
645.08	1083.76
645.43	1082.15
645.77	1082.36
646.11	1082.17
646.46	1081.07
646.80	1082.64
647.14	1085.66
647.49	1084.44
647.83	1082.85
648.17	1083.97
648.52	1082.90
648.86	1079.17
649.20	1082.38
649.55	1082.80
649.89	1081.30
650.23	1084.65
650.57	1087.32
650.92	1082.38
651.26	1083.62
651.60	1083.97
651.95	1078.57
652.29	1079.78
652.63	1080.67
652.97	1080.39
653.32	1078.59
653.66	1081.73
654.00	1079.62
654.34	1080.67
654.69	1081.54
655.03	1086.83
655.37	1085.87
655.71	1086.66
656.05	1085.26
656.40	1086.48
656.74	1083.88
657.08	1086.22
657.42	1085.94
657.76	1083.41
658.11	1081.77
658.45	1081.94
658.79	1082.19
659.13	1082.33
659.47	1083.79
659.82	1084.30
660.16	1085.45
660.50	1085.75
660.84	1085.49
661.18	1088.54
661.52	1086.27
661.87	1083.79
662.21	1081.70
662.55	1078.75
662.89	1078.19
663.23	1079.15
663.57	1079.92
663.91	1079.71
664.25	1080.95
664.60	1080.60
664.94	1082.38
665.28	1081.68
665.62	1079.90
665.96	1082.19
666.30	1080.27
666.64	1076.88
666.98	1076.04
667.32	1080.67
667.66	1079.88
668.01	1082.26
668.35	1084.25
668.69	1084.23
669.03	1082.40
669.37	1080.84
669.71	1082.19
670.05	1084.04
670.39	1086.73
670.73	1088.02
671.07	1089.52
671.41	1086.76
671.75	1086.76
672.09	1087.02
672.43	1084.39
672.77	1085.24
673.11	1086.08
673.45	1087.41
673.79	1087.81
674.13	1086.57
674.47	1082.87
674.81	1082.50
675.15	1080.02
675.49	1076.15
675.83	1078.07
676.17	1079.15
676.51	1080.30
676.85	1081.87
677.19	1083.71
677.53	1083.95
677.87	1088.19
678.21	1087.23
678.55	1085.05
678.89	1084.84
679.23	1087.58
679.57	1084.35
679.90	1080.25
680.24	1081.09
680.58	1077.96
680.92	1074.07
681.26	1075.36
681.60	1079.31
681.94	1078.40
682.28	1080.72
682.62	1083.62
682.96	1083.11
683.29	1081.87
683.63	1081.16
683.97	1079.03
684.31	1076.23
684.65	1073.91
684.99	1072.83
685.33	1074.28
685.67	1075.45
686.00	1075.03
686.34	1076.25
686.68	1078.03
687.02	1079.13
687.36	1085.68
687.70	1087.53
688.03	1086.90
688.37	1087.65
688.71	1086.90
689.05	1083.62
689.39	1085.19
689.72	1085.73
690.06	1087.67
690.40	1085.26
690.74	1084.25
691.08	1082.36
691.41	1085.84
691.75	1082.01
692.09	1085.52
692.43	1082.97
692.76	1082.24
693.10	1079.50
693.44	1080.25
693.78	1077.28
694.11	1078.52
694.45	1076.65
694.79	1076.90
695.13	1077.25
695.46	1077.23
695.80	1077.33
696.14	1080.04
696.48	1080.09
696.81	1076.18
697.15	1076.23
697.49	1080.48
697.82	1081.75
698.16	1081.37
698.50	1088.19
698.83	1088.12
699.17	1085.19
699.51	1084.32
699.84	1080.39
700.18	1077.42
700.52	1078.73
700.85	1077.21
701.19	1077.82
701.53	1080.25
701.86	1079.55
702.20	1077.35
702.54	1077.42
702.87	1075.57
703.21	1077.47
703.55	1079.90
703.88	1079.60
704.22	1081.26
704.55	1081.70
704.89	1081.56
705.23	1081.68
705.56	1084.39
705.90	1083.60
706.23	1084.84
706.57	1085.40
706.91	1084.18
707.24	1085.75
707.58	1087.34
707.91	1085.10
708.25	1084.96
708.58	1082.83
708.92	1081.40
709.26	1078.45
709.59	1081.02
709.93	1081.47
710.26	1083.71
710.60	1082.50
710.93	1083.48
711.27	1083.83
711.60	1079.62
711.94	1079.83
712.27	1082.29
712.61	1082.66
712.94	1080.13
713.28	1080.56
713.61	1081.14
713.95	1077.89
714.28	1078.43
714.62	1076.72
714.95	1078.92
715.29	1079.38
715.62	1082.54
715.96	1081.47
716.29	1086.59
716.63	1088.26
716.96	1086.03
717.29	1081.47
717.63	1083.48
717.96	1079.24
718.30	1077.25
718.63	1080.98
718.97	1087.02
719.30	1086.20
719.63	1089.19
719.97	1090.74
720.30	1088.51
720.64	1083.71
720.97	1082.12
721.30	1082.19
721.64	1079.24
721.97	1078.94
722.31	1081.61
722.64	1081.51
722.97	1081.63
723.31	1083.76
723.64	1083.79
723.97	1082.90
724.31	1085.45
724.64	1084.02
724.98	1084.91
725.31	1085.61
725.64	1085.19
725.98	1084.11
726.31	1084.84
726.64	1083.46
726.97	1080.44
727.31	1081.21
727.64	1077.98
727.97	1076.86
728.31	1077.16
728.64	1077.68
728.97	1081.07
729.31	1082.92
729.64	1082.83
729.97	1080.18
730.30	1081.47
730.64	1077.30
730.97	1078.38
731.30	1078.28
731.63	1082.10
731.97	1084.56
732.30	1087.67
732.63	1087.74
732.96	1085.82
733.30	1086.52
733.63	1083.67
733.96	1083.18
734.29	1085.63
734.63	1088.61
734.96	1088.40
735.29	1089.03
735.62	1088.75
735.95	1087.41
736.29	1086.87
736.62	1082.31
736.95	1084.04
737.28	1081.96
737.61	1082.08
737.94	1084.28
738.28	1084.09
738.61	1084.23
738.94	1083.32
739.27	1082.22
739.60	1078.71
739.93	1081.68
740.27	1079.17
740.60	1079.81
740.93	1079.81
741.26	1080.56
741.59	1079.64
741.92	1080.63
742.25	1081.58
742.58	1078.12
742.91	1078.59
743.25	1082.50
743.58	1080.63
743.91	1080.06
744.24	1084.07
744.57	1085.03
744.90	1079.99
745.23	1080.51
745.56	1080.91
745.89	1081.35
746.22	1081.82
746.55	1085.73
746.88	1086.59
747.21	1084.74
747.54	1086.94
747.87	1084.67
748.20	1083.83
748.53	1083.50
748.87	1088.04
749.20	1084.51
749.53	1085.68
749.86	1083.81
750.19	1084.89
750.52	1083.39
750.85	1083.41
751.18	1083.41
751.51	1084.53
751.84	1085.52
752.16	1084.16
752.49	1086.41
752.82	1085.52
753.15	1085.91
753.48	1084.00
753.81	1085.05
754.14	1083.27
754.47	1084.11
754.80	1081.82
755.13	1080.23
755.46	1076.46
755.79	1076.62
756.12	1079.67
756.45	1078.19
756.78	1079.13
757.11	1080.98
757.43	1079.50
757.76	1077.16
758.09	1079.46
758.42	1079.85
758.75	1079.17
759.08	1079.55
759.41	1077.16
759.74	1075.66
760.07	1077.68
760.39	1075.97
760.72	1075.41
761.05	1074.82
761.38	1078.19
761.71	1079.41
762.04	1079.97
762.36	1081.70
762.69	1085.87
763.02	1085.38
763.35	1082.01
763.68	1084.00
764.01	1082.45
764.33	1079.38
764.66	1077.89
764.99	1078.57
765.32	1078.71
765.65	1080.74
765.97	1080.41
766.30	1083.32
766.63	1083.01
766.96	1082.31
767.28	1080.67
767.61	1082.31
767.94	1082.50
768.27	1081.75
768.59	1081.89
768.92	1083.11
769.25	1082.78
769.58	1080.27
769.90	1081.42
770.23	1080.74
770.56	1077.04
770.89	1077.54
771.21	1077.56
771.54	1076.39
771.87	1079.17
772.19	1080.95
772.52	1077.25
772.85	1078.14
773.17	1078.59
773.50	1077.28
773.83	1076.51
774.15	1080.23
774.48	1078.78
774.81	1077.47
775.13	1078.80
775.46	1079.81
775.79	1079.13
776.11	1080.16
776.44	1080.48
776.77	1078.47
777.09	1078.28
777.42	1076.97
777.74	1074.75
778.07	1075.31
778.40	1076.23
778.72	1077.68
779.05	1076.48
779.37	1078.75
779.70	1076.90
780.03	1076.39
780.35	1078.10
780.68	1076.37
781.00	1074.68
781.33	1078.89
781.65	1081.70
781.98	1080.56
782.31	1085.68
782.63	1087.62
782.96	1087.13
783.28	1086.80
783.61	1088.23
783.93	1087.51
784.26	1088.72
784.58	1085.28
784.91	1081.89
785.23	1077.68
785.56	1078.40
785.88	1076.27
786.21	1080.39
786.53	1080.84
786.86	1081.66
787.18	1079.20
787.51	1079.10
787.83	1077.56
788.16	1077.96
788.48	1079.08
788.81	1081.77
789.13	1080.39
789.46	1080.53
789.78	1081.80
790.10	1082.52
790.43	1079.22
790.75	1080.46
791.08	1079.20
791.40	1080.37
791.73	1086.64
792.05	1088.79
792.37	1087.06
792.70	1086.24
793.02	1085.77
793.35	1080.74
793.67	1081.44
793.99	1085.59
794.32	1090.69
794.64	1090.36
794.96	1089.96
795.29	1088.30
795.61	1085.49
795.93	1082.90
796.26	1082.87
796.58	1078.94
796.91	1079.15
797.23	1079.27
797.55	1077.04
797.87	1073.53
798.20	1073.37
798.52	1072.55
798.84	1073.32
799.17	1074.56
799.49	1075.31
799.81	1075.34
800.14	1073.67
800.46	1075.73
800.78	1075.13
801.10	1075.87
801.43	1077.86
801.75	1080.20
802.07	1075.55
802.40	1072.11
802.72	1075.05
803.04	1075.38
803.36	1076.34
803.69	1082.03
804.01	1085.70
804.33	1082.97
804.65	1080.67
804.97	1081.56
805.30	1079.97
805.62	1079.29
805.94	1078.21
806.26	1080.32
806.58	1077.98
806.91	1078.40
807.23	1078.80
807.55	1081.35
807.87	1083.01
808.19	1082.33
808.52	1081.49
808.84	1080.56
809.16	1079.85
809.48	1079.64
809.80	1080.09
810.12	1081.89
810.44	1084.74
810.77	1085.70
811.09	1083.32
811.41	1083.06
811.73	1079.31
812.05	1077.00
812.37	1078.73
812.69	1081.33
813.01	1082.10
813.33	1083.43
813.66	1087.93
813.98	1084.28
814.30	1082.15
814.62	1082.90
814.94	1082.57
815.26	1080.32
815.58	1080.41
815.90	1081.66
816.22	1078.07
816.54	1079.85
816.86	1081.63
817.18	1081.96
817.50	1082.69
817.82	1085.80
818.14	1084.02
818.46	1080.30
818.78	1079.41
819.10	1081.05
819.42	1080.44
819.74	1080.13
820.06	1079.34
820.38	1082.31
820.70	1082.29
821.02	1084.32
821.34	1085.63
821.66	1089.31
821.98	1089.31
822.30	1082.19
822.62	1081.33
822.94	1082.99
823.26	1079.95
823.58	1077.84
823.90	1079.41
824.22	1080.60
824.54	1076.74
824.86	1076.67
825.18	1079.24
825.50	1082.76
825.81	1083.93
826.13	1085.38
826.45	1084.14
826.77	1080.37
827.09	1079.13
827.41	1074.91
827.73	1077.14
828.05	1082.69
828.36	1083.39
828.68	1085.07
829.00	1088.33
829.32	1087.62
829.64	1086.38
829.96	1086.22
830.28	1085.42
830.59	1082.19
830.91	1081.58
831.23	1081.51
831.55	1083.69
831.87	1086.27
832.19	1089.66
832.50	1088.93
832.82	1085.68
833.14	1086.85
833.46	1085.73
833.78	1084.77
834.09	1086.76
834.41	1086.20
834.73	1082.31
835.05	1081.96
835.36	1082.15
835.68	1079.27
836.00	1078.21
836.32	1079.71
836.63	1079.74
836.95	1079.48
837.27	1082.40
837.59	1085.05
837.90	1087.79
838.22	1085.38
838.54	1086.80
838.85	1086.20
839.17	1087.58
839.49	1085.68
839.80	1086.71
840.12	1081.89
840.44	1080.95
840.76	1079.88
841.07	1079.57
841.39	1079.67
841.71	1080.58
842.02	1081.73
842.34	1081.23
842.65	1080.65
842.97	1079.43
843.29	1083.20
843.60	1080.74
843.92	1082.08
844.24	1084.16
844.55	1084.37
844.87	1080.67
845.18	1081.05
845.50	1081.37
845.82	1080.16
846.13	1081.63
846.45	1083.76
846.76	1084.74
847.08	1085.54
847.40	1082.71
847.71	1083.22
848.03	1083.32
848.34	1084.74
848.66	1081.30
848.97	1082.50
849.29	1082.87
849.60	1083.29
849.92	1080.84
850.24	1084.56
850.55	1086.20
850.87	1084.53
851.18	1081.14
851.50	1081.47
851.81	1077.44
852.13	1078.50
852.44	1076.44
852.76	1078.80
853.07	1080.39
853.39	1083.90
853.70	1083.57
854.01	1085.80
854.33	1085.12
854.64	1085.03
854.96	1081.63
855.27	1080.58
855.59	1080.34
855.90	1079.88
856.22	1080.41
856.53	1082.83
856.84	1086.13
857.16	1082.03
857.47	1082.78
857.79	1079.50
858.10	1077.56
858.41	1071.87
858.73	1074.89
859.04	1076.13
859.36	1075.92
859.67	1079.20
859.98	1082.19
860.30	1086.43
860.61	1086.31
860.92	1086.27
861.24	1085.49
861.55	1083.25
861.87	1078.07
862.18	1074.61
862.49	1077.86
862.81	1079.24
863.12	1077.33
863.43	1079.22
863.74	1081.30
864.06	1077.21
864.37	1073.25
864.68	1074.59
865.00	1074.19
865.31	1075.78
865.62	1078.43
865.94	1080.86
866.25	1083.55
866.56	1081.19
866.87	1081.09
867.19	1080.51
867.50	1079.46
867.81	1079.06
868.12	1083.74
868.44	1084.25
868.75	1083.95
869.06	1085.49
869.37	1085.00
869.68	1085.47
870.00	1084.53
870.31	1084.11
870.62	1084.74
870.93	1085.63
871.24	1085.87
871.56	1087.62
871.87	1091.18
872.18	1089.45
872.49	1087.34
872.80	1085.26
873.12	1085.10
873.43	1084.39
873.74	1084.35
874.05	1085.03
874.36	1083.97
874.67	1080.86
874.98	1080.16
875.29	1077.49
875.61	1077.51
875.92	1078.80
876.23	1079.90
876.54	1077.49
876.85	1078.36
877.16	1079.27
877.47	1077.33
877.78	1077.54
878.09	1080.58
878.40	1083.11
878.72	1083.32
879.03	1085.99
879.34	1082.73
879.65	1081.40
879.96	1081.49
880.27	1076.81
880.58	1074.66
880.89	1077.02
881.20	1077.07
881.51	1072.92
881.82	1077.44
882.13	1077.65
882.44	1075.90
882.75	1076.76
883.06	1080.39
883.37	1077.21
883.68	1081.07
883.99	1082.97
884.30	1081.51
884.61	1081.77
884.92	1083.53
885.23	1082.54
885.54	1083.57
885.85	1086.31
886.16	1086.41
886.47	1086.87
886.78	1086.97
887.08	1084.96
887.39	1081.42
887.70	1082.10
888.01	1082.85
888.32	1081.89
888.63	1082.94
888.94	1085.14
889.25	1085.38
889.56	1084.28
889.87	1081.00
890.17	1081.70
890.48	1080.16
890.79	1079.48
891.10	1080.46
891.41	1079.97
891.72	1077.93
892.03	1081.21
892.34	1079.88
892.64	1081.07
892.95	1084.28
893.26	1085.38
893.57	1083.64
893.88	1082.19
894.18	1079.78
894.49	1081.30
894.80	1083.11
895.11	1085.77
895.42	1087.76
895.72	1088.58
896.03	1086.94
896.34	1084.98
896.65	1080.65
896.96	1080.88
897.26	1082.33
897.57	1083.67
897.88	1082.33
898.19	1082.59
898.49	1080.16
898.80	1079.53
899.11	1078.99
899.41	1079.85
899.72	1081.21
900.03	1084.28
900.34	1084.07
900.64	1082.99
900.95	1083.69
901.26	1084.81
901.56	1083.32
901.87	1084.14
902.18	1081.44
902.48	1083.06
902.79	1077.98
903.10	1079.46
903.40	1077.11
903.71	1080.56
904.02	1080.11
904.32	1084.44
904.63	1084.79
904.94	1085.47
905.24	1081.82
905.55	1080.93
905.85	1079.48
906.16	1078.64
906.47	1078.66
906.77	1081.75
907.08	1080.65
907.38	1082.66
907.69	1082.92
908.00	1085.35
908.30	1085.68
908.61	1083.46
908.91	1078.96
909.22	1077.86
909.52	1078.85
909.83	1079.38
910.14	1083.41
910.44	1086.22
910.75	1086.76
911.05	1086.13
911.36	1083.11
911.66	1084.91
911.97	1085.38
912.27	1083.34
912.58	1078.64
912.88	1082.57
913.19	1081.47
913.49	1081.42
913.80	1082.52
914.10	1083.93
914.41	1084.04
914.71	1085.82
915.01	1083.48
915.32	1084.81
915.62	1086.17
915.93	1085.00
916.23	1082.92
916.54	1084.00
916.84	1083.34
917.15	1084.49
917.45	1084.30
917.75	1084.46
918.06	1086.66
918.36	1087.13
918.67	1083.88
918.97	1082.52
919.27	1080.58
919.58	1076.48
919.88	1077.44
920.18	1078.92
920.49	1078.85
920.79	1079.55
921.10	1080.56
921.40	1079.76
921.70	1079.20
922.01	1080.32
922.31	1079.31
922.61	1078.71
922.92	1078.45
923.22	1079.03
923.52	1078.94
923.82	1080.23
924.13	1081.28
924.43	1079.38
924.73	1079.41
925.04	1077.09
925.34	1076.67
925.64	1075.31
925.94	1076.58
926.25	1074.84
926.55	1076.90
926.85	1074.87
927.15	1077.21
927.46	1078.07
927.76	1079.81
928.06	1080.39
928.36	1082.45
928.67	1082.61
928.97	1081.35
929.27	1080.51
929.57	1079.74
929.87	1080.30
930.18	1078.28
930.48	1078.66
930.78	1080.98
931.08	1081.07
931.38	1079.27
931.69	1082.59
931.99	1083.08
932.29	1082.73
932.59	1081.96
932.89	1081.05
933.19	1079.50
933.49	1080.56
933.80	1077.04
934.10	1076.62
934.40	1075.45
934.70	1077.70
935.00	1076.51
935.30	1080.37
935.60	1082.52
935.90	1084.81
936.20	1084.16
936.50	1083.95
936.81	1081.00
937.11	1082.83
937.41	1083.20
937.71	1084.70
938.01	1085.80
938.31	1086.85
938.61	1085.07
938.91	1087.76
939.21	1082.69
939.51	1083.95
939.81	1082.59
940.11	1081.91
940.41	1083.76
940.71	1084.72
941.01	1080.58
941.31	1084.63
941.61	1087.16
941.91	1082.80
942.21	1083.97
942.51	1086.41
942.81	1084.86
943.11	1080.63
943.41	1081.07
943.71	1080.30
944.01	1079.69
944.31	1080.91
944.61	1083.90
944.90	1083.32
945.20	1083.20
945.50	1082.59
945.80	1082.12
946.10	1082.03
946.40	1081.47
946.70	1083.18
947.00	1082.64
947.30	1078.75
947.60	1076.97
947.89	1078.05
948.19	1075.97
948.49	1077.54
948.79	1082.71
949.09	1083.41
949.39	1083.04
949.69	1081.40
949.98	1080.48
950.28	1079.83
950.58	1080.91
950.88	1080.81
951.18	1084.84
951.48	1084.25
951.77	1085.45
952.07	1084.25
952.37	1083.20
952.67	1081.37
952.97	1083.34
953.26	1082.03
953.56	1079.06
953.86	1083.83
954.16	1083.41
954.45	1080.30
954.75	1080.67
955.05	1083.41
955.35	1080.67
955.64	1080.51
955.94	1081.75
956.24	1079.01
956.54	1077.11
956.83	1078.71
957.13	1079.31
957.43	1081.00
957.72	1082.31
958.02	1083.71
958.32	1082.03
958.61	1082.45
958.91	1078.94
959.21	1079.15
959.50	1076.74
959.80	1079.62
960.10	1079.10
960.39	1079.57
960.69	1077.72
960.99	1079.74
961.28	1076.13
961.58	1074.94
961.87	1079.76
962.17	1080.81
962.47	1084.14
962.76	1087.53
963.06	1088.91
963.36	1086.43
963.65	1085.89
963.95	1086.08
964.24	1082.94
964.54	1085.73
964.83	1086.45
965.13	1086.36
965.42	1084.32
965.72	1085.47
966.02	1084.89
966.31	1087.86
966.61	1087.04
966.90	1082.12
967.20	1080.18
967.49	1076.58
967.79	1072.53
968.08	1075.27
968.38	1079.60
968.67	1080.93
968.97	1078.52
969.26	1079.31
969.56	1078.10
969.85	1077.35
970.15	1076.34
970.44	1081.82
970.74	1083.15
971.03	1085.59
971.32	1088.02
971.62	1089.57
971.91	1089.75
972.21	1088.26
972.50	1084.96
972.80	1083.79
973.09	1080.63
973.38	1077.58
973.68	1077.63
973.97	1077.25
974.27	1077.11
974.56	1078.59
974.85	1080.93
975.15	1078.24
975.44	1080.70
975.73	1080.93
976.03	1085.70
976.32	1084.28
976.61	1085.21
976.91	1085.63
977.20	1084.23
977.49	1077.30
977.79	1075.80
978.08	1074.66
978.37	1072.34
978.67	1074.42
978.96	1077.72
979.25	1080.93
979.55	1083.11
979.84	1083.71
980.13	1080.09
980.42	1081.73
980.72	1082.80
981.01	1083.34
981.30	1084.42
981.59	1086.62
981.89	1086.73
982.18	1082.12
982.47	1083.34
982.76	1079.67
983.06	1079.46
983.35	1077.84
983.64	1079.15
983.93	1081.21
984.22	1084.70
984.52	1086.52
984.81	1088.63
985.10	1093.97
985.39	1092.49
985.68	1091.16
985.97	1087.32
986.27	1083.13
986.56	1078.96
986.85	1079.22
987.14	1083.06
987.43	1085.87
987.72	1087.72
988.01	1088.33
988.31	1086.71
988.60	1085.05
988.89	1083.08
989.18	1085.40
989.47	1086.97
989.76	1087.18
990.05	1083.41
990.34	1085.45
990.63	1085.73
990.92	1080.20
991.21	1077.82
991.51	1077.89
991.80	1075.71
992.09	1074.33
992.38	1075.52
992.67	1078.45
992.96	1079.69
993.25	1079.62
993.54	1074.96
993.83	1077.11
994.12	1075.52
994.41	1075.05
994.70	1075.66
994.99	1080.93
995.28	1080.18
995.57	1081.42
995.86	1083.71
996.15	1083.11
996.44	1080.60
996.73	1080.09
997.02	1080.44
997.31	1079.27
997.59	1079.97
997.88	1079.41
998.17	1080.48
998.46	1075.99
998.75	1075.45
999.04	1074.10
999.33	1070.70
999.62	1071.17
999.91	1074.87
1000.20	1073.46
1000.49	1074.03
1000.77	1080.27
1001.06	1078.89
1001.35	1078.50
1001.64	1078.12
1001.93	1078.03
1002.22	1074.35
1002.51	1076.97
1002.79	1079.67
1003.08	1080.25
1003.37	1080.48
1003.66	1081.77
1003.95	1079.24
1004.23	1075.78
1004.52	1077.37
1004.81	1076.81
1005.10	1079.29
1005.39	1079.22
1005.67	1080.60
1005.96	1080.46
1006.25	1083.74
1006.54	1082.47
1006.83	1085.42
1007.11	1085.45
1007.40	1084.70
1007.69	1083.90
1007.97	1083.74
1008.26	1083.06
1008.55	1078.71
1008.84	1081.12
1009.12	1080.44
1009.41	1081.61
1009.70	1076.88
1009.98	1082.90
1010.27	1080.79
1010.56	1080.63
1010.85	1078.66
1011.13	1081.00
1011.42	1080.84
1011.71	1081.89
1011.99	1083.11
1012.28	1082.69
1012.56	1083.25
1012.85	1079.92
1013.14	1079.55
1013.42	1080.58
1013.71	1079.03
1014.00	1076.48
1014.28	1078.38
1014.57	1077.37
1014.85	1076.11
1015.14	1080.37
1015.43	1082.50
1015.71	1081.40
1016.00	1081.63
1016.28	1079.50
1016.57	1077.86
1016.85	1077.65
1017.14	1078.00
1017.43	1077.91
1017.71	1081.05
1018.00	1080.98
1018.28	1082.92
1018.57	1083.11
1018.85	1079.01
1019.14	1076.04
1019.42	1075.80
1019.71	1076.37
1019.99	1073.91
1020.28	1074.75
1020.56	1073.98
1020.85	1073.72
1021.13	1074.40
1021.42	1077.40
1021.70	1080.25
1021.99	1082.15
1022.27	1080.72
1022.55	1080.63
1022.84	1071.26
>>>>>End Processed Spectral Data<<<<<
