SpectraSuite Data File
++++++++++++++++++++++++++++++++++++
Date: Mon Aug 26 10:26:44 PDT 2019
User: corrico
Dark Spectrum Present: No
Reference Spectrum Present: No
Number of Sampled Component Spectra: 1
Spectrometers: USB2+H06089
Integration Time (usec): 10000 (USB2+H06089)
Spectra Averaged: 20 (USB2+H06089)
Boxcar Smoothing: 2 (USB2+H06089)
Correct for Electrical Dark: No (USB2+H06089)
Strobe/Lamp Enabled: No (USB2+H06089)
Correct for Detector Non-linearity: No (USB2+H06089)
Correct for Stray Light: No (USB2+H06089)
Number of Pixels in Processed Spectrum: 2048
>>>>>Begin Processed Spectral Data<<<<<
339.70	1044.70
340.07	1044.70
340.45	1005.19
340.82	982.70
341.19	958.38
341.57	933.41
341.94	925.49
342.31	916.04
342.69	905.18
343.06	900.40
343.43	898.72
343.81	899.00
344.18	903.10
344.55	910.35
344.93	915.03
345.30	922.90
345.67	928.02
346.04	933.73
346.42	942.00
346.79	950.89
347.16	955.87
347.54	963.50
347.91	972.84
348.28	983.07
348.65	992.13
349.03	1001.82
349.40	1012.52
349.77	1021.11
350.14	1028.76
350.52	1035.85
350.89	1044.63
351.26	1048.89
351.63	1057.06
352.01	1061.64
352.38	1068.81
352.75	1072.06
353.12	1075.83
353.50	1079.57
353.87	1083.01
354.24	1084.81
354.61	1086.76
354.98	1089.96
355.36	1090.36
355.73	1091.20
356.10	1090.13
356.47	1088.68
356.84	1091.46
357.22	1089.71
357.59	1089.43
357.96	1087.76
358.33	1089.07
358.70	1087.32
359.08	1089.50
359.45	1087.53
359.82	1090.06
360.19	1084.63
360.56	1083.81
360.94	1081.73
361.31	1084.11
361.68	1082.05
362.05	1085.52
362.42	1085.17
362.79	1083.36
363.16	1080.95
363.54	1080.91
363.91	1081.37
364.28	1079.29
364.65	1083.69
365.02	1085.49
365.39	1085.59
365.76	1084.00
366.14	1082.15
366.51	1077.23
366.88	1078.24
367.25	1078.82
367.62	1079.64
367.99	1083.69
368.36	1087.09
368.73	1083.64
369.10	1084.98
369.48	1085.42
369.85	1083.22
370.22	1081.12
370.59	1081.73
370.96	1079.97
371.33	1081.19
371.70	1081.33
372.07	1080.84
372.44	1078.80
372.81	1078.26
373.18	1079.15
373.55	1078.05
373.93	1080.18
374.30	1084.16
374.67	1084.18
375.04	1083.53
375.41	1084.63
375.78	1085.80
376.15	1086.29
376.52	1087.97
376.89	1088.07
377.26	1088.07
377.63	1088.77
378.00	1087.65
378.37	1084.65
378.74	1083.20
379.11	1082.85
379.48	1080.72
379.85	1079.83
380.22	1080.44
380.59	1080.91
380.96	1084.56
381.33	1084.32
381.70	1085.70
382.07	1088.07
382.44	1085.77
382.81	1083.15
383.18	1083.83
383.55	1085.10
383.92	1087.11
384.29	1087.90
384.66	1088.98
385.03	1090.90
385.40	1090.53
385.77	1087.81
386.14	1089.29
386.51	1089.05
386.88	1086.83
387.25	1083.81
387.62	1084.67
387.99	1083.11
388.36	1086.55
388.73	1086.13
389.10	1089.12
389.46	1091.04
389.83	1093.71
390.20	1091.86
390.57	1092.73
390.94	1088.98
391.31	1083.95
391.68	1084.23
392.05	1084.07
392.42	1084.16
392.79	1084.44
393.16	1085.47
393.53	1084.98
393.89	1084.74
394.26	1087.02
394.63	1090.46
395.00	1095.30
395.37	1096.12
395.74	1095.11
396.11	1091.06
396.48	1089.40
396.84	1084.07
397.21	1081.00
397.58	1084.18
397.95	1086.85
398.32	1087.41
398.69	1093.26
399.06	1096.70
399.42	1094.69
399.79	1095.70
400.16	1096.17
400.53	1092.56
400.90	1089.03
401.27	1090.83
401.64	1091.16
402.00	1090.74
402.37	1091.20
402.74	1092.47
403.11	1091.51
403.48	1088.16
403.84	1088.21
404.21	1088.19
404.58	1090.10
404.95	1090.76
405.32	1091.91
405.68	1093.26
406.05	1092.94
406.42	1091.49
406.79	1092.61
407.16	1095.37
407.52	1095.11
407.89	1096.00
408.26	1097.50
408.63	1096.21
408.99	1093.66
409.36	1095.51
409.73	1095.14
410.10	1097.59
410.47	1097.83
410.83	1096.87
411.20	1098.04
411.57	1098.69
411.94	1098.09
412.30	1101.29
412.67	1100.78
413.04	1099.96
413.40	1103.12
413.77	1102.39
414.14	1100.96
414.51	1105.60
414.87	1106.16
415.24	1107.24
415.61	1104.90
415.97	1102.39
416.34	1101.88
416.71	1101.11
417.08	1096.80
417.44	1098.74
417.81	1099.28
418.18	1101.29
418.54	1102.79
418.91	1108.17
419.28	1108.69
419.64	1109.11
420.01	1106.18
420.38	1106.93
420.74	1105.76
421.11	1106.84
421.48	1108.34
421.84	1110.16
422.21	1111.29
422.58	1110.87
422.94	1113.58
423.31	1115.24
423.68	1115.48
424.04	1112.08
424.41	1110.68
424.77	1106.35
425.14	1108.20
425.51	1110.61
425.87	1111.68
426.24	1112.22
426.61	1113.30
426.97	1112.34
427.34	1110.37
427.70	1112.95
428.07	1113.37
428.44	1114.89
428.80	1110.40
429.17	1110.77
429.53	1107.26
429.90	1109.27
430.27	1110.58
430.63	1113.74
431.00	1116.30
431.36	1118.96
431.73	1118.66
432.09	1118.00
432.46	1118.26
432.83	1116.76
433.19	1116.95
433.56	1115.83
433.92	1117.42
434.29	1114.68
434.65	1114.26
435.02	1112.50
435.38	1113.98
435.75	1113.09
436.11	1113.98
436.48	1111.12
436.84	1112.76
437.21	1108.97
437.57	1107.82
437.94	1109.09
438.30	1109.95
438.67	1110.65
439.03	1114.52
439.40	1116.06
439.76	1111.26
440.13	1113.32
440.49	1110.40
440.86	1107.24
441.22	1102.16
441.59	1101.74
441.95	1099.49
442.32	1100.57
442.68	1101.99
443.05	1104.48
443.41	1110.51
443.78	1111.87
444.14	1112.08
444.51	1111.05
444.87	1110.84
445.24	1108.90
445.60	1109.39
445.96	1108.95
446.33	1109.32
446.69	1110.21
447.06	1108.01
447.42	1106.16
447.79	1104.59
448.15	1100.45
448.51	1097.76
448.88	1098.58
449.24	1098.30
449.61	1102.93
449.97	1107.78
450.33	1108.59
450.70	1111.26
451.06	1112.74
451.43	1110.05
451.79	1112.76
452.15	1114.70
452.52	1116.51
452.88	1116.62
453.24	1117.49
453.61	1113.74
453.97	1113.53
454.34	1112.90
454.70	1113.86
455.06	1112.55
455.43	1114.45
455.79	1117.72
456.15	1115.05
456.52	1114.66
456.88	1113.49
457.24	1111.50
457.61	1109.60
457.97	1109.20
458.33	1107.19
458.70	1107.92
459.06	1107.68
459.42	1108.45
459.79	1112.18
460.15	1113.30
460.51	1115.10
460.88	1116.44
461.24	1115.43
461.60	1110.54
461.96	1107.66
462.33	1108.97
462.69	1109.62
463.05	1109.93
463.42	1114.00
463.78	1118.82
464.14	1117.96
464.50	1117.82
464.87	1117.35
465.23	1116.60
465.59	1116.79
465.95	1116.90
466.32	1119.76
466.68	1124.51
467.04	1126.69
467.40	1127.06
467.77	1129.99
468.13	1131.18
468.49	1130.81
468.85	1133.45
469.22	1138.76
469.58	1139.02
469.94	1137.73
470.30	1142.56
470.66	1143.26
471.03	1142.09
471.39	1143.16
471.75	1149.69
472.11	1146.63
472.47	1148.57
472.84	1150.35
473.20	1154.82
473.56	1152.81
473.92	1155.31
474.28	1160.09
474.65	1164.56
475.01	1166.17
475.37	1175.23
475.73	1178.04
476.09	1183.59
476.45	1190.63
476.81	1194.35
477.18	1196.76
477.54	1202.94
477.90	1204.39
478.26	1204.81
478.62	1212.91
478.98	1218.51
479.34	1230.63
479.71	1238.61
480.07	1248.35
480.43	1255.70
480.79	1264.94
481.15	1272.01
481.51	1284.72
481.87	1293.89
482.23	1311.36
482.59	1324.20
482.96	1339.42
483.32	1353.34
483.68	1372.89
484.04	1382.53
484.40	1397.63
484.76	1414.76
485.12	1430.75
485.48	1449.66
485.84	1472.20
486.20	1493.75
486.56	1508.97
486.92	1534.41
487.28	1553.34
487.64	1577.71
488.00	1605.28
488.37	1635.38
488.73	1663.96
489.09	1698.69
489.45	1731.43
489.81	1765.16
490.17	1806.45
490.53	1843.78
490.89	1886.68
491.25	1926.71
491.61	1975.81
491.97	2021.87
492.33	2075.28
492.69	2124.01
493.05	2182.15
493.41	2238.61
493.77	2298.29
494.13	2363.15
494.49	2426.90
494.85	2502.27
495.21	2574.75
495.57	2658.71
495.93	2734.85
496.29	2821.94
496.64	2910.64
497.00	3000.89
497.36	3100.79
497.72	3208.08
498.08	3321.85
498.44	3432.16
498.80	3561.90
499.16	3684.14
499.52	3821.30
499.88	3968.85
500.24	4129.08
500.60	4279.20
500.96	4437.54
501.32	4602.97
501.68	4768.49
502.03	4948.17
502.39	5153.91
502.75	5365.28
503.11	5600.76
503.47	5826.81
503.83	6072.15
504.19	6321.62
504.55	6587.34
504.91	6845.67
505.26	7132.62
505.62	7422.96
505.98	7730.70
506.34	8065.93
506.70	8422.79
507.06	8800.72
507.42	9199.38
507.78	9599.94
508.13	9995.26
508.49	10431.88
508.85	10893.84
509.21	11368.82
509.57	11883.30
509.93	12444.21
510.28	13010.85
510.64	13609.16
511.00	14219.43
511.36	14801.31
511.72	15377.58
512.07	16020.05
512.43	16620.26
512.79	17277.37
513.15	17984.40
513.51	18729.62
513.86	19456.17
514.22	20291.93
514.58	21077.53
514.94	21920.97
515.30	22750.64
515.65	23549.74
516.01	24368.86
516.37	25212.81
516.73	25981.40
517.08	26828.27
517.44	27665.06
517.80	28453.26
518.16	29282.86
518.51	30104.09
518.87	30859.94
519.23	31706.98
519.59	32571.13
519.94	33391.51
520.30	34246.72
520.66	35008.09
521.01	35798.77
521.37	36485.56
521.73	37097.26
522.09	37670.15
522.44	38321.90
522.80	38719.76
523.16	39060.83
523.51	39340.87
523.87	39653.78
524.23	39903.37
524.58	40186.83
524.94	40560.95
525.30	40893.09
525.65	41095.95
526.01	41138.36
526.37	41149.96
526.72	41094.19
527.08	40960.80
527.44	40758.16
527.79	40625.78
528.15	40495.18
528.51	40248.76
528.86	40021.19
529.22	39793.25
529.58	39520.09
529.93	39144.78
530.29	38718.24
530.65	38360.91
531.00	38003.61
531.36	37558.25
531.71	37083.28
532.07	36609.49
532.43	36037.58
532.78	35394.92
533.14	34853.34
533.49	34336.24
533.85	33752.19
534.21	33149.69
534.56	32608.02
534.92	32001.47
535.27	31361.49
535.63	30755.15
535.98	30131.87
536.34	29504.40
536.69	28857.64
537.05	28263.40
537.41	27738.51
537.76	27241.03
538.12	26694.04
538.47	26229.78
538.83	25784.04
539.18	25323.26
539.54	24865.43
539.89	24408.46
540.25	23870.96
540.60	23372.10
540.96	22867.48
541.31	22384.53
541.67	21978.10
542.02	21606.84
542.38	21204.01
542.73	20778.74
543.09	20396.18
543.44	20034.19
543.80	19697.08
544.15	19301.16
544.51	18969.76
544.86	18658.10
545.22	18298.64
545.57	17930.96
545.93	17571.01
546.28	17260.73
546.64	16938.20
546.99	16605.26
547.35	16281.96
547.70	15997.00
548.05	15689.29
548.41	15370.51
548.76	15078.11
549.12	14787.74
549.47	14509.54
549.83	14237.81
550.18	13934.24
550.53	13618.03
550.89	13335.41
551.24	13081.44
551.60	12785.27
551.95	12539.35
552.30	12303.77
552.66	12066.35
553.01	11795.86
553.37	11537.16
553.72	11262.52
554.07	10999.75
554.43	10715.46
554.78	10446.16
555.13	10194.23
555.49	9973.02
555.84	9783.44
556.19	9605.25
556.55	9404.97
556.90	9206.12
557.26	8997.14
557.61	8774.90
557.96	8526.95
558.32	8326.57
558.67	8129.20
559.02	7914.36
559.37	7729.60
559.73	7590.24
560.08	7435.30
560.43	7284.12
560.79	7163.44
561.14	7005.25
561.49	6841.69
561.85	6690.33
562.20	6539.22
562.55	6406.44
562.90	6284.39
563.26	6162.28
563.61	6052.88
563.96	5947.30
564.32	5819.11
564.67	5698.43
565.02	5576.70
565.37	5462.48
565.73	5350.82
566.08	5255.79
566.43	5149.81
566.78	5047.18
567.14	4939.37
567.49	4832.97
567.84	4729.59
568.19	4624.59
568.54	4537.60
568.90	4448.80
569.25	4373.55
569.60	4301.16
569.95	4232.44
570.31	4156.70
570.66	4077.10
571.01	3992.11
571.36	3897.09
571.71	3822.07
572.06	3752.79
572.42	3692.36
572.77	3633.28
573.12	3577.65
573.47	3516.47
573.82	3454.68
574.18	3391.62
574.53	3329.18
574.88	3275.84
575.23	3225.33
575.58	3174.14
575.93	3123.42
576.28	3070.20
576.64	3017.54
576.99	2959.30
577.34	2903.97
577.69	2850.77
578.04	2801.48
578.39	2747.63
578.74	2711.11
579.09	2674.04
579.44	2637.18
579.80	2603.52
580.15	2565.34
580.50	2525.67
580.85	2486.16
581.20	2450.38
581.55	2416.95
581.90	2394.18
582.25	2366.09
582.60	2333.26
582.95	2294.03
583.30	2254.80
583.65	2214.97
584.00	2176.49
584.35	2144.84
584.71	2120.10
585.06	2091.64
585.41	2062.57
585.76	2037.58
586.11	2009.02
586.46	1981.73
586.81	1958.09
587.16	1937.94
587.51	1918.23
587.86	1901.69
588.21	1884.58
588.56	1865.22
588.91	1846.38
589.26	1824.87
589.61	1807.43
589.96	1790.51
590.31	1778.85
590.66	1766.82
591.01	1749.78
591.36	1732.32
591.71	1711.52
592.06	1693.80
592.41	1670.51
592.76	1658.11
593.10	1644.91
593.45	1632.03
593.80	1612.47
594.15	1598.14
594.50	1582.23
594.85	1568.51
595.20	1557.39
595.55	1549.72
595.90	1543.96
596.25	1536.33
596.60	1525.89
596.95	1514.23
597.30	1505.48
597.64	1546.77
597.99	1538.48
598.34	1526.17
598.69	1519.50
599.04	1511.07
599.39	1447.25
599.74	1435.85
600.09	1426.98
600.44	1420.99
600.78	1411.86
601.13	1407.13
601.48	1400.62
601.83	1398.75
602.18	1391.03
602.53	1385.81
602.88	1375.13
603.22	1366.36
603.57	1356.60
603.92	1344.78
604.27	1336.80
604.62	1335.04
604.97	1330.24
605.31	1323.83
605.66	1319.57
606.01	1314.35
606.36	1305.34
606.71	1301.50
607.05	1294.90
607.40	1291.62
607.75	1286.71
608.10	1283.62
608.44	1278.63
608.79	1276.97
609.14	1271.43
609.49	1264.64
609.84	1262.06
610.18	1254.83
610.53	1252.87
610.88	1251.13
611.23	1251.16
611.57	1250.15
611.92	1248.65
612.27	1242.96
612.62	1238.82
612.96	1234.49
613.31	1228.52
613.66	1224.59
614.00	1221.46
614.35	1220.33
614.70	1216.21
615.05	1209.75
615.39	1205.10
615.74	1203.39
616.09	1197.44
616.43	1195.52
616.78	1195.69
617.13	1195.52
617.47	1190.33
617.82	1189.32
618.17	1186.16
618.51	1184.15
618.86	1183.09
619.21	1184.50
619.55	1182.88
619.90	1180.07
620.25	1174.25
620.59	1171.65
620.94	1168.89
621.29	1167.18
621.63	1167.01
621.98	1166.36
622.32	1163.64
622.67	1159.52
623.02	1155.78
623.36	1153.72
623.71	1151.92
624.05	1149.13
624.40	1150.82
624.75	1149.46
625.09	1148.20
625.44	1148.06
625.78	1149.37
626.13	1145.65
626.48	1144.78
626.82	1142.42
627.17	1139.77
627.51	1140.40
627.86	1140.57
628.20	1141.25
628.55	1138.76
628.89	1138.34
629.24	1134.81
629.58	1133.99
629.93	1129.71
630.28	1133.45
630.62	1135.18
630.97	1134.48
631.31	1132.52
631.66	1131.27
632.00	1125.33
632.35	1123.71
632.69	1124.32
633.04	1122.24
633.38	1123.06
633.73	1123.88
634.07	1122.43
634.42	1121.54
634.76	1119.71
635.11	1117.32
635.45	1117.18
635.79	1116.27
636.14	1114.42
636.48	1116.06
636.83	1116.76
637.17	1113.74
637.52	1114.56
637.86	1111.99
638.21	1108.83
638.55	1104.87
638.89	1105.04
639.24	1100.36
639.58	1102.63
639.93	1105.83
640.27	1109.69
640.61	1110.54
640.96	1113.79
641.30	1112.18
641.65	1112.46
641.99	1110.37
642.33	1109.30
642.68	1109.09
643.02	1107.47
643.37	1104.55
643.71	1103.91
644.05	1103.77
644.40	1102.37
644.74	1102.79
645.08	1101.85
645.43	1105.13
645.77	1105.58
646.11	1106.04
646.46	1108.69
646.80	1108.29
647.14	1106.21
647.49	1104.50
647.83	1102.44
648.17	1096.66
648.52	1098.09
648.86	1096.56
649.20	1099.02
649.55	1099.02
649.89	1098.98
650.23	1097.38
650.57	1097.57
650.92	1096.73
651.26	1098.04
651.60	1097.17
651.95	1098.37
652.29	1098.48
652.63	1097.95
652.97	1096.70
653.32	1102.49
653.66	1100.96
654.00	1100.26
654.34	1099.05
654.69	1100.29
655.03	1097.90
655.37	1099.93
655.71	1102.67
656.05	1101.95
656.40	1102.02
656.74	1098.83
657.08	1094.90
657.42	1092.49
657.76	1092.05
658.11	1092.40
658.45	1095.00
658.79	1096.89
659.13	1096.75
659.47	1099.14
659.82	1098.25
660.16	1094.79
660.50	1093.62
660.84	1094.36
661.18	1091.72
661.52	1090.83
661.87	1093.52
662.21	1094.53
662.55	1093.73
662.89	1093.10
663.23	1091.86
663.57	1092.82
663.91	1094.27
664.25	1093.10
664.60	1095.25
664.94	1097.29
665.28	1097.85
665.62	1093.01
665.96	1094.67
666.30	1095.18
666.64	1096.66
666.98	1093.69
667.32	1098.18
667.66	1097.45
668.01	1098.58
668.35	1093.19
668.69	1093.59
669.03	1092.00
669.37	1092.80
669.71	1091.60
670.05	1095.51
670.39	1098.65
670.73	1099.07
671.07	1096.87
671.41	1097.03
671.75	1096.05
672.09	1091.46
672.43	1091.18
672.77	1091.30
673.11	1086.31
673.45	1086.59
673.79	1088.40
674.13	1087.67
674.47	1087.62
674.81	1091.70
675.15	1089.89
675.49	1090.83
675.83	1089.87
676.17	1089.26
676.51	1087.72
676.85	1085.94
677.19	1084.00
677.53	1086.64
677.87	1089.68
678.21	1091.51
678.55	1095.44
678.89	1094.39
679.23	1093.36
679.57	1092.23
679.90	1090.39
680.24	1089.05
680.58	1093.08
680.92	1092.23
681.26	1092.19
681.60	1093.71
681.94	1093.73
682.28	1089.89
682.62	1090.01
682.96	1089.22
683.29	1088.35
683.63	1089.61
683.97	1091.56
684.31	1091.46
684.65	1089.66
684.99	1089.57
685.33	1087.34
685.67	1086.29
686.00	1087.74
686.34	1085.89
686.68	1085.89
687.02	1087.83
687.36	1089.26
687.70	1089.71
688.03	1093.10
688.37	1092.42
688.71	1090.01
689.05	1090.99
689.39	1088.35
689.72	1089.54
690.06	1088.47
690.40	1092.02
690.74	1092.42
691.08	1094.86
691.41	1095.32
691.75	1098.18
692.09	1093.50
692.43	1094.11
692.76	1093.71
693.10	1093.45
693.44	1094.29
693.78	1097.50
694.11	1095.30
694.45	1095.75
694.79	1096.73
695.13	1096.42
695.46	1094.55
695.80	1092.30
696.14	1091.63
696.48	1088.75
696.81	1087.39
697.15	1088.68
697.49	1091.04
697.82	1089.54
698.16	1089.80
698.50	1091.25
698.83	1089.40
699.17	1085.42
699.51	1087.20
699.84	1089.85
700.18	1085.52
700.52	1086.83
700.85	1088.02
701.19	1086.20
701.53	1084.93
701.86	1088.14
702.20	1086.55
702.54	1088.77
702.87	1089.47
703.21	1087.65
703.55	1085.28
703.88	1087.13
704.22	1085.61
704.55	1082.90
704.89	1082.85
705.23	1086.76
705.56	1085.56
705.90	1087.97
706.23	1092.77
706.57	1091.74
706.91	1091.18
707.24	1093.38
707.58	1091.79
707.91	1089.73
708.25	1092.94
708.58	1092.75
708.92	1089.73
709.26	1088.77
709.59	1088.26
709.93	1082.66
710.26	1080.93
710.60	1083.20
710.93	1081.49
711.27	1083.34
711.60	1085.49
711.94	1085.10
712.27	1081.68
712.61	1082.43
712.94	1078.28
713.28	1077.42
713.61	1078.38
713.95	1080.41
714.28	1081.09
714.62	1081.58
714.95	1085.10
715.29	1087.02
715.62	1087.32
715.96	1088.72
716.29	1091.49
716.63	1092.42
716.96	1089.80
717.29	1086.92
717.63	1084.98
717.96	1086.36
718.30	1087.97
718.63	1088.35
718.97	1091.67
719.30	1094.15
719.63	1090.34
719.97	1087.55
720.30	1089.73
720.64	1090.22
720.97	1088.02
721.30	1089.71
721.64	1090.88
721.97	1088.61
722.31	1086.85
722.64	1087.30
722.97	1088.09
723.31	1085.38
723.64	1083.06
723.97	1084.04
724.31	1083.50
724.64	1083.46
724.98	1085.24
725.31	1088.42
725.64	1091.67
725.98	1093.33
726.31	1092.91
726.64	1094.88
726.97	1095.04
727.31	1091.56
727.64	1091.32
727.97	1093.94
728.31	1088.91
728.64	1084.46
728.97	1086.01
729.31	1087.37
729.64	1083.95
729.97	1083.34
730.30	1087.58
730.64	1087.20
730.97	1086.52
731.30	1087.23
731.63	1089.54
731.97	1088.54
732.30	1088.84
732.63	1088.96
732.96	1089.85
733.30	1090.08
733.63	1087.27
733.96	1086.36
734.29	1087.65
734.63	1085.47
734.96	1085.54
735.29	1088.16
735.62	1086.41
735.95	1087.20
736.29	1087.41
736.62	1087.34
736.95	1084.14
737.28	1087.93
737.61	1087.04
737.94	1085.49
738.28	1083.76
738.61	1086.66
738.94	1084.77
739.27	1080.46
739.60	1085.35
739.93	1084.84
740.27	1083.06
740.60	1083.74
740.93	1088.79
741.26	1087.32
741.59	1090.88
741.92	1093.76
742.25	1091.63
742.58	1090.78
742.91	1089.24
743.25	1087.97
743.58	1088.58
743.91	1087.30
744.24	1083.71
744.57	1084.18
744.90	1081.51
745.23	1083.83
745.56	1086.01
745.89	1086.45
746.22	1084.37
746.55	1087.32
746.88	1085.89
747.21	1087.55
747.54	1086.13
747.87	1088.47
748.20	1087.79
748.53	1086.08
748.87	1085.47
749.20	1087.44
749.53	1086.71
749.86	1088.65
750.19	1086.17
750.52	1085.45
750.85	1085.54
751.18	1090.03
751.51	1085.73
751.84	1085.75
752.16	1085.87
752.49	1085.24
752.82	1080.72
753.15	1081.70
753.48	1085.61
753.81	1085.94
754.14	1087.39
754.47	1087.90
754.80	1089.19
755.13	1085.49
755.46	1085.52
755.79	1083.69
756.12	1085.40
756.45	1084.79
756.78	1086.06
757.11	1085.75
757.43	1089.89
757.76	1086.29
758.09	1087.48
758.42	1087.88
758.75	1087.93
759.08	1081.21
759.41	1084.32
759.74	1084.23
760.07	1082.52
760.39	1077.75
760.72	1081.02
761.05	1078.64
761.38	1077.11
761.71	1079.74
762.04	1082.50
762.36	1083.43
762.69	1082.83
763.02	1084.09
763.35	1080.72
763.68	1084.63
764.01	1085.21
764.33	1087.32
764.66	1087.90
764.99	1093.03
765.32	1092.94
765.65	1092.30
765.97	1091.79
766.30	1090.69
766.63	1088.28
766.96	1087.13
767.28	1087.37
767.61	1084.65
767.94	1084.56
768.27	1083.74
768.59	1085.07
768.92	1082.52
769.25	1083.39
769.58	1082.43
769.90	1082.36
770.23	1081.05
770.56	1085.94
770.89	1087.27
771.21	1088.14
771.54	1093.10
771.87	1089.89
772.19	1086.76
772.52	1087.09
772.85	1085.73
773.17	1080.86
773.50	1085.49
773.83	1085.61
774.15	1085.47
774.48	1089.19
774.81	1091.51
775.13	1090.34
775.46	1089.43
775.79	1088.47
776.11	1085.63
776.44	1082.52
776.77	1081.35
777.09	1080.41
777.42	1083.01
777.74	1084.81
778.07	1085.10
778.40	1085.77
778.72	1089.03
779.05	1088.70
779.37	1087.79
779.70	1089.87
780.03	1089.57
780.35	1088.16
780.68	1087.76
781.00	1087.48
781.33	1088.82
781.65	1087.30
781.98	1088.89
782.31	1086.87
782.63	1086.03
782.96	1082.38
783.28	1080.95
783.61	1079.99
783.93	1081.94
784.26	1083.39
784.58	1081.77
784.91	1082.59
785.23	1081.58
785.56	1081.16
785.88	1080.56
786.21	1082.59
786.53	1085.77
786.86	1086.90
787.18	1088.47
787.51	1089.71
787.83	1088.16
788.16	1084.44
788.48	1081.84
788.81	1078.43
789.13	1075.99
789.46	1075.48
789.78	1078.57
790.10	1081.37
790.43	1081.98
790.75	1083.81
791.08	1087.16
791.40	1085.91
791.73	1090.10
792.05	1091.20
792.37	1087.93
792.70	1085.35
793.02	1087.69
793.35	1084.98
793.67	1084.77
793.99	1089.33
794.32	1092.94
794.64	1090.50
794.96	1089.38
795.29	1092.56
795.61	1091.49
795.93	1088.51
796.26	1089.45
796.58	1087.02
796.91	1081.61
797.23	1079.46
797.55	1080.39
797.87	1078.78
798.20	1079.71
798.52	1084.37
798.84	1082.52
799.17	1081.05
799.49	1079.85
799.81	1078.85
800.14	1077.70
800.46	1080.53
800.78	1082.59
801.10	1085.63
801.43	1086.22
801.75	1085.31
802.07	1083.46
802.40	1083.15
802.72	1083.55
803.04	1085.61
803.36	1086.38
803.69	1089.38
804.01	1088.70
804.33	1087.55
804.65	1089.22
804.97	1088.00
805.30	1089.45
805.62	1090.17
805.94	1087.53
806.26	1086.48
806.58	1088.28
806.91	1088.04
807.23	1089.52
807.55	1090.32
807.87	1086.97
808.19	1084.18
808.52	1083.01
808.84	1083.88
809.16	1086.38
809.48	1086.17
809.80	1090.10
810.12	1089.96
810.44	1087.65
810.77	1084.77
811.09	1086.41
811.41	1082.01
811.73	1084.14
812.05	1083.22
812.37	1085.17
812.69	1085.89
813.01	1086.80
813.33	1082.22
813.66	1079.31
813.98	1078.36
814.30	1077.72
814.62	1076.13
814.94	1080.81
815.26	1082.73
815.58	1079.95
815.90	1077.23
816.22	1079.31
816.54	1077.28
816.86	1080.27
817.18	1086.73
817.50	1089.50
817.82	1090.27
818.14	1089.40
818.46	1090.01
818.78	1087.72
819.10	1087.20
819.42	1086.80
819.74	1086.24
820.06	1084.07
820.38	1083.86
820.70	1083.90
821.02	1083.74
821.34	1085.24
821.66	1084.44
821.98	1083.50
822.30	1079.29
822.62	1079.64
822.94	1079.76
823.26	1081.14
823.58	1081.40
823.90	1085.19
824.22	1085.21
824.54	1081.56
824.86	1079.90
825.18	1077.16
825.50	1076.15
825.81	1078.66
826.13	1080.11
826.45	1080.16
826.77	1082.50
827.09	1085.12
827.41	1080.53
827.73	1084.72
828.05	1085.70
828.36	1089.61
828.68	1088.04
829.00	1088.47
829.32	1087.60
829.64	1084.84
829.96	1081.37
830.28	1084.07
830.59	1082.80
830.91	1081.73
831.23	1083.97
831.55	1084.37
831.87	1083.13
832.19	1085.99
832.50	1083.57
832.82	1082.85
833.14	1081.51
833.46	1078.61
833.78	1076.25
834.09	1076.88
834.41	1079.08
834.73	1080.46
835.05	1083.01
835.36	1085.77
835.68	1084.77
836.00	1085.40
836.32	1087.18
836.63	1084.60
836.95	1083.86
837.27	1085.59
837.59	1083.69
837.90	1080.39
838.22	1081.05
838.54	1079.99
838.85	1078.94
839.17	1079.99
839.49	1081.70
839.80	1081.89
840.12	1082.69
840.44	1085.31
840.76	1084.44
841.07	1080.30
841.39	1080.48
841.71	1080.04
842.02	1077.70
842.34	1076.51
842.65	1078.89
842.97	1079.34
843.29	1079.48
843.60	1079.92
843.92	1080.04
844.24	1080.16
844.55	1079.92
844.87	1078.78
845.18	1076.46
845.50	1076.55
845.82	1078.96
846.13	1081.91
846.45	1083.18
846.76	1089.40
847.08	1088.51
847.40	1089.31
847.71	1088.37
848.03	1088.51
848.34	1086.55
848.66	1089.85
848.97	1088.02
849.29	1088.30
849.60	1087.74
849.92	1087.41
850.24	1086.57
850.55	1088.58
850.87	1089.03
851.18	1088.42
851.50	1086.62
851.81	1085.12
852.13	1081.47
852.44	1075.43
852.76	1076.32
853.07	1077.84
853.39	1076.55
853.70	1080.11
854.01	1084.00
854.33	1083.20
854.64	1081.61
854.96	1083.57
855.27	1081.70
855.59	1079.20
855.90	1082.50
856.22	1082.92
856.53	1082.76
856.84	1079.46
857.16	1080.16
857.47	1077.09
857.79	1078.61
858.10	1079.69
858.41	1084.58
858.73	1088.96
859.04	1087.41
859.36	1084.74
859.67	1085.26
859.98	1084.42
860.30	1082.52
860.61	1083.60
860.92	1084.14
861.24	1082.47
861.55	1080.65
861.87	1077.72
862.18	1077.09
862.49	1078.14
862.81	1079.71
863.12	1078.66
863.43	1081.70
863.74	1082.78
864.06	1082.17
864.37	1080.84
864.68	1084.56
865.00	1081.73
865.31	1085.05
865.62	1082.01
865.94	1082.08
866.25	1080.16
866.56	1082.15
866.87	1079.62
867.19	1082.99
867.50	1085.96
867.81	1084.86
868.12	1087.46
868.44	1089.59
868.75	1090.48
869.06	1087.48
869.37	1088.35
869.68	1087.58
870.00	1088.96
870.31	1084.98
870.62	1085.77
870.93	1086.64
871.24	1086.80
871.56	1085.07
871.87	1086.38
872.18	1087.67
872.49	1088.91
872.80	1085.84
873.12	1086.59
873.43	1088.49
873.74	1084.58
874.05	1084.21
874.36	1084.81
874.67	1081.77
874.98	1083.97
875.29	1085.59
875.61	1082.73
875.92	1083.46
876.23	1082.12
876.54	1078.94
876.85	1079.67
877.16	1081.21
877.47	1081.33
877.78	1080.02
878.09	1081.84
878.40	1080.58
878.72	1081.12
879.03	1080.95
879.34	1082.26
879.65	1080.93
879.96	1080.70
880.27	1079.24
880.58	1081.23
880.89	1082.71
881.20	1084.44
881.51	1088.09
881.82	1085.77
882.13	1085.26
882.44	1087.27
882.75	1086.20
883.06	1084.35
883.37	1085.45
883.68	1081.84
883.99	1078.43
884.30	1080.09
884.61	1080.70
884.92	1081.82
885.23	1082.69
885.54	1081.05
885.85	1076.81
886.16	1077.58
886.47	1077.93
886.78	1078.61
887.08	1082.26
887.39	1081.70
887.70	1078.43
888.01	1080.39
888.32	1081.73
888.63	1082.40
888.94	1085.35
889.25	1086.71
889.56	1086.99
889.87	1087.74
890.17	1085.61
890.48	1083.34
890.79	1084.51
891.10	1080.72
891.41	1078.75
891.72	1083.67
892.03	1087.37
892.34	1087.06
892.64	1090.67
892.95	1090.74
893.26	1087.79
893.57	1086.15
893.88	1086.59
894.18	1084.56
894.49	1085.49
894.80	1084.37
895.11	1086.45
895.42	1087.09
895.72	1087.13
896.03	1084.60
896.34	1086.48
896.65	1083.76
896.96	1082.52
897.26	1082.61
897.57	1084.79
897.88	1084.53
898.19	1085.42
898.49	1086.34
898.80	1086.52
899.11	1088.65
899.41	1087.55
899.72	1089.61
900.03	1089.64
900.34	1088.77
900.64	1087.74
900.95	1086.01
901.26	1082.22
901.56	1079.60
901.87	1080.48
902.18	1078.50
902.48	1079.10
902.79	1079.50
903.10	1079.48
903.40	1080.06
903.71	1080.04
904.02	1084.25
904.32	1085.49
904.63	1085.80
904.94	1083.81
905.24	1085.47
905.55	1080.88
905.85	1078.24
906.16	1078.03
906.47	1078.50
906.77	1079.03
907.08	1079.97
907.38	1079.95
907.69	1081.42
908.00	1081.61
908.30	1080.79
908.61	1080.32
908.91	1083.34
909.22	1080.25
909.52	1079.95
909.83	1080.84
910.14	1083.20
910.44	1083.46
910.75	1086.71
911.05	1088.26
911.36	1082.43
911.66	1082.08
911.97	1080.65
912.27	1078.92
912.58	1079.83
912.88	1083.55
913.19	1083.34
913.49	1083.34
913.80	1084.49
914.10	1082.36
914.41	1082.80
914.71	1084.46
915.01	1084.63
915.32	1082.24
915.62	1084.53
915.93	1083.53
916.23	1080.60
916.54	1080.95
916.84	1081.16
917.15	1076.58
917.45	1078.64
917.75	1078.14
918.06	1079.60
918.36	1080.81
918.67	1081.28
918.97	1077.30
919.27	1078.75
919.58	1075.34
919.88	1075.55
920.18	1077.54
920.49	1081.44
920.79	1082.08
921.10	1084.58
921.40	1085.42
921.70	1087.02
922.01	1087.58
922.31	1085.26
922.61	1084.84
922.92	1085.19
923.22	1081.68
923.52	1082.59
923.82	1083.60
924.13	1085.87
924.43	1085.19
924.73	1088.30
925.04	1084.86
925.34	1085.10
925.64	1083.34
925.94	1081.94
926.25	1082.36
926.55	1082.90
926.85	1084.21
927.15	1083.53
927.46	1086.03
927.76	1084.28
928.06	1085.89
928.36	1084.53
928.67	1085.40
928.97	1082.05
929.27	1081.21
929.57	1078.52
929.87	1077.68
930.18	1077.14
930.48	1081.05
930.78	1083.95
931.08	1086.20
931.38	1088.30
931.69	1088.96
931.99	1086.83
932.29	1085.63
932.59	1086.34
932.89	1083.86
933.19	1082.64
933.49	1085.82
933.80	1085.80
934.10	1081.91
934.40	1083.79
934.70	1082.94
935.00	1082.33
935.30	1083.60
935.60	1083.79
935.90	1079.06
936.20	1078.33
936.50	1075.99
936.81	1072.97
937.11	1078.47
937.41	1081.05
937.71	1083.08
938.01	1082.31
938.31	1083.20
938.61	1078.43
938.91	1081.84
939.21	1079.71
939.51	1080.46
939.81	1078.66
940.11	1078.85
940.41	1077.44
940.71	1080.72
941.01	1080.79
941.31	1084.58
941.61	1089.64
941.91	1088.26
942.21	1086.94
942.51	1086.48
942.81	1086.73
943.11	1082.61
943.41	1082.85
943.71	1081.44
944.01	1082.29
944.31	1080.34
944.61	1079.95
944.90	1079.50
945.20	1081.75
945.50	1083.29
945.80	1083.04
946.10	1087.06
946.40	1089.33
946.70	1087.02
947.00	1085.54
947.30	1085.35
947.60	1081.07
947.89	1078.89
948.19	1080.46
948.49	1077.93
948.79	1078.38
949.09	1078.50
949.39	1078.07
949.69	1075.92
949.98	1077.56
950.28	1078.99
950.58	1078.99
950.88	1080.63
951.18	1079.88
951.48	1078.40
951.77	1075.94
952.07	1078.87
952.37	1076.37
952.67	1078.43
952.97	1079.99
953.26	1079.62
953.56	1075.85
953.86	1077.04
954.16	1081.21
954.45	1083.79
954.75	1083.39
955.05	1087.48
955.35	1089.92
955.64	1085.94
955.94	1084.11
956.24	1087.25
956.54	1085.14
956.83	1083.20
957.13	1083.53
957.43	1082.50
957.72	1084.16
958.02	1085.87
958.32	1087.34
958.61	1086.80
958.91	1088.40
959.21	1088.77
959.50	1088.21
959.80	1087.58
960.10	1089.99
960.39	1088.54
960.69	1085.38
960.99	1084.30
961.28	1082.87
961.58	1079.85
961.87	1079.03
962.17	1077.04
962.47	1077.37
962.76	1079.06
963.06	1079.95
963.36	1083.74
963.65	1086.76
963.95	1088.12
964.24	1090.55
964.54	1093.26
964.83	1088.42
965.13	1088.09
965.42	1085.24
965.72	1078.36
966.02	1074.98
966.31	1075.78
966.61	1074.98
966.90	1076.11
967.20	1079.46
967.49	1080.63
967.79	1084.32
968.08	1083.86
968.38	1079.76
968.67	1078.73
968.97	1078.03
969.26	1077.14
969.56	1077.68
969.85	1081.12
970.15	1081.42
970.44	1082.92
970.74	1086.64
971.03	1083.25
971.32	1082.80
971.62	1084.25
971.91	1082.52
972.21	1078.71
972.50	1081.42
972.80	1079.27
973.09	1080.56
973.38	1081.68
973.68	1077.42
973.97	1078.54
974.27	1082.12
974.56	1079.15
974.85	1080.13
975.15	1084.86
975.44	1084.32
975.73	1082.38
976.03	1082.54
976.32	1081.84
976.61	1078.00
976.91	1081.26
977.20	1082.43
977.49	1080.91
977.79	1079.53
978.08	1084.00
978.37	1081.77
978.67	1080.09
978.96	1084.07
979.25	1086.48
979.55	1084.23
979.84	1084.14
980.13	1085.99
980.42	1085.77
980.72	1084.00
981.01	1083.93
981.30	1081.58
981.59	1080.32
981.89	1076.90
982.18	1077.93
982.47	1078.38
982.76	1081.14
983.06	1084.32
983.35	1090.50
983.64	1087.34
983.93	1088.70
984.22	1086.22
984.52	1085.45
984.81	1081.09
985.10	1083.08
985.39	1082.59
985.68	1079.15
985.97	1077.28
986.27	1074.70
986.56	1073.49
986.85	1071.92
987.14	1076.13
987.43	1076.08
987.72	1078.17
988.01	1076.32
988.31	1073.88
988.60	1075.22
988.89	1074.68
989.18	1075.13
989.47	1075.59
989.76	1075.97
990.05	1075.90
990.34	1081.16
990.63	1083.64
990.92	1088.30
991.21	1093.99
991.51	1092.26
991.80	1085.40
992.09	1084.02
992.38	1081.56
992.67	1076.39
992.96	1078.61
993.25	1082.59
993.54	1079.20
993.83	1078.54
994.12	1081.54
994.41	1079.24
994.70	1077.86
994.99	1079.53
995.28	1084.60
995.57	1083.11
995.86	1086.66
996.15	1087.09
996.44	1087.34
996.73	1085.80
997.02	1087.27
997.31	1083.32
997.59	1087.09
997.88	1088.19
998.17	1086.10
998.46	1082.64
998.75	1084.16
999.04	1082.52
999.33	1085.03
999.62	1084.63
999.91	1086.66
1000.20	1087.16
1000.49	1083.90
1000.77	1082.19
1001.06	1084.30
1001.35	1085.03
1001.64	1085.00
1001.93	1087.67
1002.22	1086.97
1002.51	1085.45
1002.79	1086.03
1003.08	1087.79
1003.37	1086.62
1003.66	1088.19
1003.95	1087.09
1004.23	1086.13
1004.52	1081.96
1004.81	1080.60
1005.10	1080.13
1005.39	1082.03
1005.67	1084.04
1005.96	1085.91
1006.25	1086.34
1006.54	1084.96
1006.83	1084.56
1007.11	1081.54
1007.40	1080.09
1007.69	1081.77
1007.97	1081.09
1008.26	1080.60
1008.55	1081.49
1008.84	1081.07
1009.12	1078.19
1009.41	1081.37
1009.70	1080.34
1009.98	1081.09
1010.27	1083.08
1010.56	1081.70
1010.85	1081.37
1011.13	1083.46
1011.42	1081.00
1011.71	1081.09
1011.99	1082.45
1012.28	1077.98
1012.56	1077.63
1012.85	1078.99
1013.14	1078.85
1013.42	1080.23
1013.71	1085.40
1014.00	1080.79
1014.28	1081.05
1014.57	1078.82
1014.85	1080.53
1015.14	1078.00
1015.43	1082.76
1015.71	1083.27
1016.00	1084.53
1016.28	1083.64
1016.57	1086.50
1016.85	1083.29
1017.14	1084.79
1017.43	1086.17
1017.71	1083.62
1018.00	1080.09
1018.28	1080.02
1018.57	1079.06
1018.85	1072.92
1019.14	1073.84
1019.42	1072.25
1019.71	1073.95
1019.99	1074.59
1020.28	1080.65
1020.56	1081.82
1020.85	1085.61
1021.13	1086.97
1021.42	1084.98
1021.70	1085.19
1021.99	1082.69
1022.27	1081.75
1022.55	1071.38
1022.84	1086.59
>>>>>End Processed Spectral Data<<<<<
