SpectraSuite Data File
++++++++++++++++++++++++++++++++++++
Date: Mon Aug 26 10:26:47 PDT 2019
User: corrico
Dark Spectrum Present: No
Reference Spectrum Present: No
Number of Sampled Component Spectra: 1
Spectrometers: USB2+H06089
Integration Time (usec): 10000 (USB2+H06089)
Spectra Averaged: 20 (USB2+H06089)
Boxcar Smoothing: 2 (USB2+H06089)
Correct for Electrical Dark: No (USB2+H06089)
Strobe/Lamp Enabled: No (USB2+H06089)
Correct for Detector Non-linearity: No (USB2+H06089)
Correct for Stray Light: No (USB2+H06089)
Number of Pixels in Processed Spectrum: 2048
>>>>>Begin Processed Spectral Data<<<<<
339.70	1028.31
340.07	1028.31
340.45	993.60
340.82	973.05
341.19	951.17
341.57	927.72
341.94	918.64
342.31	908.50
342.69	904.43
343.06	901.74
343.43	900.33
343.81	903.47
344.18	906.91
344.55	907.85
344.93	912.93
345.30	919.95
345.67	927.84
346.04	935.77
346.42	943.82
346.79	951.71
347.16	956.25
347.54	961.91
347.91	971.30
348.28	982.81
348.65	993.11
349.03	1007.18
349.40	1017.88
349.77	1028.57
350.14	1035.94
350.52	1040.20
350.89	1049.10
351.26	1054.18
351.63	1056.73
352.01	1057.55
352.38	1061.69
352.75	1061.01
353.12	1067.07
353.50	1071.19
353.87	1080.11
354.24	1085.40
354.61	1090.97
354.98	1092.70
355.36	1095.86
355.73	1094.39
356.10	1092.16
356.47	1090.24
356.84	1090.20
357.22	1087.95
357.59	1087.60
357.96	1089.94
358.33	1089.89
358.70	1090.46
359.08	1093.59
359.45	1094.08
359.82	1094.06
360.19	1093.83
360.56	1091.72
360.94	1087.79
361.31	1085.45
361.68	1081.49
362.05	1080.41
362.42	1078.61
362.79	1079.50
363.16	1081.21
363.54	1083.79
363.91	1082.29
364.28	1083.01
364.65	1081.58
365.02	1082.71
365.39	1079.99
365.76	1077.00
366.14	1074.40
366.51	1070.98
366.88	1066.61
367.25	1068.01
367.62	1071.10
367.99	1072.95
368.36	1078.87
368.73	1080.16
369.10	1079.95
369.48	1079.76
369.85	1079.34
370.22	1078.17
370.59	1079.15
370.96	1081.12
371.33	1082.29
371.70	1081.89
372.07	1077.72
372.44	1079.10
372.81	1080.34
373.18	1081.37
373.55	1077.56
373.93	1079.10
374.30	1077.42
374.67	1076.79
375.04	1076.20
375.41	1080.60
375.78	1082.08
376.15	1082.29
376.52	1078.96
376.89	1079.31
377.26	1080.60
377.63	1080.77
378.00	1081.73
378.37	1084.39
378.74	1083.32
379.11	1085.68
379.48	1087.34
379.85	1087.53
380.22	1088.72
380.59	1088.93
380.96	1084.23
381.33	1083.62
381.70	1084.84
382.07	1084.56
382.44	1085.91
382.81	1085.35
383.18	1084.81
383.55	1083.81
383.92	1083.04
384.29	1084.77
384.66	1086.10
385.03	1088.79
385.40	1087.18
385.77	1084.11
386.14	1079.95
386.51	1082.99
386.88	1079.62
387.25	1079.36
387.62	1081.54
387.99	1081.73
388.36	1080.18
388.73	1079.99
389.10	1082.57
389.46	1084.21
389.83	1086.13
390.20	1083.93
390.57	1085.77
390.94	1084.93
391.31	1084.49
391.68	1087.27
392.05	1091.86
392.42	1090.99
392.79	1089.82
393.16	1090.22
393.53	1084.93
393.89	1082.33
394.26	1083.81
394.63	1084.86
395.00	1085.68
395.37	1089.54
395.74	1091.25
396.11	1091.95
396.48	1094.27
396.84	1090.97
397.21	1090.69
397.58	1090.22
397.95	1086.78
398.32	1086.64
398.69	1086.24
399.06	1083.46
399.42	1085.42
399.79	1089.40
400.16	1089.96
400.53	1094.15
400.90	1096.85
401.27	1095.18
401.64	1095.02
402.00	1093.29
402.37	1093.94
402.74	1094.22
403.11	1095.77
403.48	1096.03
403.84	1100.68
404.21	1098.98
404.58	1100.68
404.95	1102.16
405.32	1101.48
405.68	1096.42
406.05	1096.33
406.42	1094.57
406.79	1092.28
407.16	1094.65
407.52	1096.82
407.89	1097.90
408.26	1097.50
408.63	1095.72
408.99	1094.53
409.36	1094.27
409.73	1095.04
410.10	1097.57
410.47	1099.70
410.83	1098.11
411.20	1098.09
411.57	1099.14
411.94	1103.21
412.30	1103.21
412.67	1102.70
413.04	1105.27
413.40	1101.48
413.77	1095.37
414.14	1096.40
414.51	1097.71
414.87	1096.17
415.24	1098.79
415.61	1099.23
415.97	1100.99
416.34	1100.94
416.71	1101.62
417.08	1101.48
417.44	1103.12
417.81	1102.21
418.18	1103.89
418.54	1103.33
418.91	1106.72
419.28	1107.64
419.64	1106.21
420.01	1103.16
420.38	1102.21
420.74	1097.27
421.11	1094.36
421.48	1097.59
421.84	1102.67
422.21	1107.03
422.58	1108.95
422.94	1111.40
423.31	1112.32
423.68	1110.42
424.04	1109.25
424.41	1109.11
424.77	1108.83
425.14	1109.32
425.51	1110.89
425.87	1113.39
426.24	1115.01
426.61	1117.49
426.97	1118.57
427.34	1117.61
427.70	1115.34
428.07	1116.74
428.44	1115.43
428.80	1114.31
429.17	1111.87
429.53	1111.43
429.90	1112.67
430.27	1112.92
430.63	1110.44
431.00	1113.07
431.36	1112.69
431.73	1109.98
432.09	1108.43
432.46	1113.09
432.83	1113.25
433.19	1113.04
433.56	1114.68
433.92	1116.41
434.29	1112.88
434.65	1114.94
435.02	1115.66
435.38	1114.75
435.75	1111.89
436.11	1108.88
436.48	1108.71
436.84	1108.36
437.21	1106.96
437.57	1111.85
437.94	1111.57
438.30	1109.25
438.67	1109.91
439.03	1113.25
439.40	1109.84
439.76	1111.52
440.13	1110.58
440.49	1111.31
440.86	1105.74
441.22	1106.02
441.59	1107.24
441.95	1109.74
442.32	1109.16
442.68	1112.36
443.05	1111.45
443.41	1112.20
443.78	1108.78
444.14	1105.53
444.51	1103.96
444.87	1107.26
445.24	1104.73
445.60	1104.08
445.96	1106.93
446.33	1108.71
446.69	1106.58
447.06	1106.51
447.42	1110.49
447.79	1109.44
448.15	1109.32
448.51	1108.22
448.88	1110.21
449.24	1108.13
449.61	1108.43
449.97	1107.31
450.33	1109.16
450.70	1110.09
451.06	1111.45
451.43	1112.90
451.79	1115.92
452.15	1115.22
452.52	1112.97
452.88	1113.25
453.24	1110.49
453.61	1109.13
453.97	1106.65
454.34	1107.68
454.70	1108.90
455.06	1111.64
455.43	1109.91
455.79	1115.34
456.15	1113.91
456.52	1110.94
456.88	1111.29
457.24	1113.58
457.61	1109.86
457.97	1112.04
458.33	1116.32
458.70	1114.94
459.06	1115.97
459.42	1118.85
459.79	1115.27
460.15	1113.67
460.51	1116.20
460.88	1116.08
461.24	1116.60
461.60	1121.84
461.96	1119.03
462.33	1116.65
462.69	1116.74
463.05	1117.75
463.42	1116.72
463.78	1117.56
464.14	1115.78
464.50	1116.65
464.87	1117.04
465.23	1118.54
465.59	1121.84
465.95	1128.86
466.32	1132.35
466.68	1128.86
467.04	1129.19
467.40	1130.97
467.77	1131.25
468.13	1128.04
468.49	1134.81
468.85	1136.94
469.22	1136.47
469.58	1133.57
469.94	1137.90
470.30	1136.40
470.66	1133.45
471.03	1136.47
471.39	1142.04
471.75	1142.16
472.11	1144.38
472.47	1149.11
472.84	1151.47
473.20	1154.52
473.56	1158.35
473.92	1161.23
474.28	1162.50
474.65	1165.96
475.01	1170.41
475.37	1172.73
475.73	1175.60
476.09	1183.82
476.45	1187.35
476.81	1190.82
477.18	1198.21
477.54	1206.22
477.90	1209.89
478.26	1211.39
478.62	1214.71
478.98	1218.55
479.34	1222.37
479.71	1231.52
480.07	1244.09
480.43	1254.60
480.79	1264.10
481.15	1274.80
481.51	1283.11
481.87	1290.99
482.23	1303.28
482.59	1315.69
482.96	1328.58
483.32	1342.91
483.68	1358.26
484.04	1371.83
484.40	1386.72
484.76	1404.02
485.12	1419.46
485.48	1439.85
485.84	1456.94
486.20	1477.56
486.56	1500.68
486.92	1525.98
487.28	1551.61
487.64	1580.12
488.00	1611.34
488.37	1636.62
488.73	1670.81
489.09	1702.88
489.45	1741.87
489.81	1776.14
490.17	1815.32
490.53	1853.89
490.89	1896.42
491.25	1931.92
491.61	1974.10
491.97	2018.85
492.33	2070.91
492.69	2119.00
493.05	2172.11
493.41	2228.31
493.77	2294.78
494.13	2354.23
494.49	2423.46
494.85	2496.67
495.21	2570.68
495.57	2646.40
495.93	2731.94
496.29	2812.69
496.64	2908.84
497.00	2998.46
497.36	3095.85
497.72	3190.41
498.08	3300.16
498.44	3407.73
498.80	3530.46
499.16	3658.89
499.52	3796.09
499.88	3947.76
500.24	4103.71
500.60	4260.88
500.96	4418.16
501.32	4581.51
501.68	4740.78
502.03	4921.35
502.39	5135.63
502.75	5349.53
503.11	5576.86
503.47	5803.19
503.83	6041.51
504.19	6278.42
504.55	6536.95
504.91	6808.08
505.26	7096.81
505.62	7393.33
505.98	7706.12
506.34	8039.44
506.70	8403.39
507.06	8787.82
507.42	9185.64
507.78	9590.39
508.13	10006.00
508.49	10416.37
508.85	10870.15
509.21	11332.76
509.57	11836.60
509.93	12370.92
510.28	12948.31
510.64	13544.75
511.00	14153.29
511.36	14729.37
511.72	15316.04
512.07	15957.07
512.43	16556.27
512.79	17224.92
513.15	17948.49
513.51	18683.63
513.86	19411.89
514.22	20244.49
514.58	21030.39
514.94	21858.45
515.30	22689.76
515.65	23503.82
516.01	24329.78
516.37	25178.66
516.73	25937.18
517.08	26806.46
517.44	27639.57
517.80	28418.57
518.16	29239.70
518.51	30058.82
518.87	30780.10
519.23	31619.33
519.59	32484.58
519.94	33307.95
520.30	34182.68
520.66	34957.63
521.01	35743.73
521.37	36419.88
521.73	37018.45
522.09	37610.04
522.44	38240.61
522.80	38648.12
523.16	39000.23
523.51	39287.30
523.87	39567.88
524.23	39852.30
524.58	40111.73
524.94	40500.93
525.30	40854.78
525.65	41045.79
526.01	41065.33
526.37	41081.64
526.72	41015.78
527.08	40852.16
527.44	40666.71
527.79	40518.25
528.15	40385.69
528.51	40136.79
528.86	39939.49
529.22	39718.52
529.58	39477.37
529.93	39123.04
530.29	38694.44
530.65	38311.06
531.00	37966.06
531.36	37504.11
531.71	37056.37
532.07	36597.30
532.43	36044.30
532.78	35393.93
533.14	34843.98
533.49	34268.79
533.85	33654.91
534.21	33029.10
534.56	32472.92
534.92	31868.17
535.27	31252.82
535.63	30674.05
535.98	30060.83
536.34	29451.48
536.69	28833.86
537.05	28239.83
537.41	27720.11
537.76	27247.28
538.12	26717.07
538.47	26234.99
538.83	25790.71
539.18	25309.08
539.54	24838.09
539.89	24365.87
540.25	23852.14
540.60	23360.51
540.96	22870.50
541.31	22377.91
541.67	21966.63
542.02	21602.16
542.38	21182.67
542.73	20759.87
543.09	20388.10
543.44	20023.05
543.80	19674.89
544.15	19287.70
544.51	18948.86
544.86	18628.51
545.22	18277.36
545.57	17881.74
545.93	17534.17
546.28	17226.81
546.64	16906.30
546.99	16565.89
547.35	16259.56
547.70	15969.12
548.05	15655.47
548.41	15358.71
548.76	15074.66
549.12	14785.89
549.47	14500.51
549.83	14236.66
550.18	13912.89
550.53	13573.16
550.89	13304.17
551.24	13037.88
551.60	12742.34
551.95	12493.55
552.30	12277.47
552.66	12029.67
553.01	11792.48
553.37	11518.99
553.72	11251.87
554.07	10984.27
554.43	10703.29
554.78	10418.12
555.13	10171.80
555.49	9938.36
555.84	9746.32
556.19	9561.09
556.55	9366.68
556.90	9183.63
557.26	8987.59
557.61	8770.24
557.96	8544.76
558.32	8347.33
558.67	8146.96
559.02	7935.40
559.37	7752.16
559.73	7589.84
560.08	7436.40
560.43	7291.21
560.79	7171.14
561.14	7022.94
561.49	6873.52
561.85	6722.07
562.20	6571.66
562.55	6425.00
562.90	6296.95
563.26	6175.20
563.61	6052.44
563.96	5938.31
564.32	5820.16
564.67	5698.48
565.02	5572.14
565.37	5460.75
565.73	5345.88
566.08	5244.74
566.43	5139.54
566.78	5036.76
567.14	4929.59
567.49	4822.35
567.84	4719.34
568.19	4612.66
568.54	4518.71
568.90	4438.55
569.25	4363.79
569.60	4290.90
569.95	4227.59
570.31	4152.95
570.66	4065.37
571.01	3978.42
571.36	3894.25
571.71	3813.65
572.06	3747.22
572.42	3688.57
572.77	3633.54
573.12	3575.75
573.47	3515.93
573.82	3455.08
574.18	3386.83
574.53	3326.60
574.88	3276.33
575.23	3226.45
575.58	3180.69
575.93	3139.41
576.28	3084.73
576.64	3021.16
576.99	2964.62
577.34	2905.59
577.69	2845.65
578.04	2796.43
578.39	2752.59
578.74	2713.22
579.09	2674.25
579.44	2638.88
579.80	2600.12
580.15	2556.52
580.50	2511.04
580.85	2473.78
581.20	2440.08
581.55	2410.96
581.90	2386.64
582.25	2361.44
582.60	2323.26
582.95	2283.94
583.30	2246.05
583.65	2212.06
584.00	2174.10
584.35	2147.11
584.71	2120.17
585.06	2092.13
585.41	2060.49
585.76	2035.89
586.11	2008.60
586.46	1985.13
586.81	1965.75
587.16	1945.34
587.51	1926.24
587.86	1908.82
588.21	1888.34
588.56	1865.08
588.91	1842.17
589.26	1816.96
589.61	1799.33
589.96	1785.90
590.31	1767.67
590.66	1752.64
591.01	1739.72
591.36	1718.49
591.71	1701.27
592.06	1686.17
592.41	1672.48
592.76	1656.51
593.10	1647.25
593.45	1630.16
593.80	1615.60
594.15	1601.89
594.50	1588.66
594.85	1570.80
595.20	1558.26
595.55	1545.97
595.90	1534.81
596.25	1526.40
596.60	1514.44
596.95	1504.52
597.30	1493.59
597.64	1531.46
597.99	1525.21
598.34	1520.27
598.69	1509.20
599.04	1504.29
599.39	1448.35
599.74	1439.13
600.09	1428.52
600.44	1418.62
600.78	1409.52
601.13	1401.37
601.48	1389.72
601.83	1385.29
602.18	1380.80
602.53	1376.66
602.88	1369.14
603.22	1360.37
603.57	1349.20
603.92	1343.91
604.27	1334.99
604.62	1327.95
604.97	1325.84
605.31	1323.46
605.66	1316.11
606.01	1308.57
606.36	1302.70
606.71	1295.35
607.05	1290.01
607.40	1285.84
607.75	1283.18
608.10	1279.48
608.44	1274.49
608.79	1270.40
609.14	1265.60
609.49	1264.66
609.84	1264.17
610.18	1263.68
610.53	1262.37
610.88	1260.66
611.23	1257.48
611.57	1253.54
611.92	1247.39
612.27	1241.86
612.62	1239.57
612.96	1235.19
613.31	1229.83
613.66	1228.17
614.00	1223.66
614.35	1220.31
614.70	1210.43
615.05	1210.45
615.39	1209.50
615.74	1207.58
616.09	1202.57
616.43	1204.63
616.78	1200.62
617.13	1195.48
617.47	1196.06
617.82	1194.80
618.17	1191.47
618.51	1189.98
618.86	1186.98
619.21	1181.06
619.55	1176.33
619.90	1172.23
620.25	1164.28
620.59	1162.90
620.94	1162.31
621.29	1162.33
621.63	1162.40
621.98	1167.08
622.32	1166.69
622.67	1163.04
623.02	1160.65
623.36	1160.55
623.71	1154.89
624.05	1151.33
624.40	1149.53
624.75	1150.26
625.09	1150.51
625.44	1150.21
625.78	1148.55
626.13	1148.15
626.48	1145.50
626.82	1140.75
627.17	1141.60
627.51	1143.19
627.86	1143.19
628.20	1143.52
628.55	1142.74
628.89	1135.82
629.24	1131.49
629.58	1129.66
629.93	1128.89
630.28	1128.35
630.62	1129.64
630.97	1128.56
631.31	1128.61
631.66	1128.33
632.00	1125.26
632.35	1125.84
632.69	1125.54
633.04	1123.32
633.38	1121.02
633.73	1121.26
634.07	1119.41
634.42	1118.66
634.76	1118.14
635.11	1117.68
635.45	1119.92
635.79	1118.40
636.14	1120.18
636.48	1118.85
636.83	1113.35
637.17	1110.47
637.52	1112.90
637.86	1113.11
638.21	1112.36
638.55	1116.74
638.89	1113.93
639.24	1115.62
639.58	1116.44
639.93	1119.45
640.27	1121.65
640.61	1124.53
640.96	1123.62
641.30	1118.00
641.65	1113.49
641.99	1109.79
642.33	1108.66
642.68	1106.84
643.02	1109.11
643.37	1109.72
643.71	1108.34
644.05	1112.85
644.40	1110.33
644.74	1109.02
645.08	1109.72
645.43	1111.87
645.77	1107.49
646.11	1108.85
646.46	1108.59
646.80	1109.32
647.14	1104.50
647.49	1107.38
647.83	1102.98
648.17	1100.64
648.52	1100.05
648.86	1104.15
649.20	1101.69
649.55	1104.17
649.89	1105.01
650.23	1104.80
650.57	1102.46
650.92	1098.53
651.26	1097.34
651.60	1097.17
651.95	1098.20
652.29	1097.36
652.63	1096.54
652.97	1097.64
653.32	1098.23
653.66	1094.29
654.00	1093.66
654.34	1093.90
654.69	1094.57
655.03	1091.39
655.37	1090.69
655.71	1087.81
656.05	1090.01
656.40	1090.13
656.74	1094.74
657.08	1094.36
657.42	1095.98
657.76	1094.53
658.11	1093.90
658.45	1091.30
658.79	1092.70
659.13	1094.27
659.47	1097.69
659.82	1095.23
660.16	1097.97
660.50	1096.99
660.84	1096.85
661.18	1093.55
661.52	1097.36
661.87	1095.72
662.21	1095.07
662.55	1097.88
662.89	1098.44
663.23	1094.13
663.57	1093.73
663.91	1100.29
664.25	1098.79
664.60	1099.56
664.94	1102.49
665.28	1103.23
665.62	1100.50
665.96	1101.60
666.30	1100.59
666.64	1101.41
666.98	1098.95
667.32	1093.10
667.66	1090.03
668.01	1089.68
668.35	1085.35
668.69	1084.39
669.03	1087.02
669.37	1087.48
669.71	1087.62
670.05	1088.91
670.39	1091.70
670.73	1089.85
671.07	1087.83
671.41	1087.53
671.75	1086.90
672.09	1089.57
672.43	1091.46
672.77	1091.86
673.11	1090.92
673.45	1093.29
673.79	1089.57
674.13	1089.89
674.47	1090.62
674.81	1092.66
675.15	1090.06
675.49	1092.37
675.83	1094.65
676.17	1094.15
676.51	1094.86
676.85	1094.36
677.19	1091.49
677.53	1090.76
677.87	1091.09
678.21	1086.48
678.55	1088.33
678.89	1088.26
679.23	1088.14
679.57	1089.07
679.90	1091.86
680.24	1090.78
680.58	1092.91
680.92	1090.50
681.26	1086.20
681.60	1084.60
681.94	1083.71
682.28	1080.79
682.62	1081.07
682.96	1085.73
683.29	1088.30
683.63	1089.40
683.97	1089.43
684.31	1089.19
684.65	1090.50
684.99	1089.12
685.33	1090.53
685.67	1092.68
686.00	1096.45
686.34	1094.60
686.68	1093.69
687.02	1093.92
687.36	1088.86
687.70	1085.89
688.03	1084.23
688.37	1087.25
688.71	1087.37
689.05	1092.98
689.39	1093.05
689.72	1095.16
690.06	1092.96
690.40	1093.66
690.74	1092.19
691.08	1091.67
691.41	1091.06
691.75	1092.75
692.09	1090.46
692.43	1090.76
692.76	1091.13
693.10	1091.77
693.44	1091.88
693.78	1094.46
694.11	1094.13
694.45	1095.32
694.79	1095.11
695.13	1093.83
695.46	1089.57
695.80	1090.53
696.14	1088.28
696.48	1086.94
696.81	1085.59
697.15	1088.49
697.49	1086.64
697.82	1085.99
698.16	1086.31
698.50	1086.34
698.83	1085.56
699.17	1086.92
699.51	1091.53
699.84	1088.96
700.18	1088.26
700.52	1084.89
700.85	1080.86
701.19	1077.91
701.53	1081.09
701.86	1080.77
702.20	1083.62
702.54	1085.56
702.87	1085.63
703.21	1081.61
703.55	1084.02
703.88	1085.61
704.22	1086.69
704.55	1089.45
704.89	1091.67
705.23	1091.56
705.56	1089.43
705.90	1088.49
706.23	1087.97
706.57	1089.82
706.91	1091.06
707.24	1093.94
707.58	1094.06
707.91	1093.05
708.25	1093.12
708.58	1090.60
708.92	1088.91
709.26	1090.29
709.59	1089.80
709.93	1090.48
710.26	1091.81
710.60	1090.76
710.93	1086.99
711.27	1085.96
711.60	1085.07
711.94	1086.36
712.27	1086.97
712.61	1086.80
712.94	1088.21
713.28	1090.81
713.61	1089.45
713.95	1088.54
714.28	1092.54
714.62	1092.91
714.95	1090.43
715.29	1089.19
715.62	1089.54
715.96	1086.99
716.29	1085.73
716.63	1082.71
716.96	1085.05
717.29	1082.22
717.63	1084.09
717.96	1082.38
718.30	1082.22
718.63	1080.93
718.97	1083.88
719.30	1081.75
719.63	1084.67
719.97	1088.19
720.30	1089.03
720.64	1088.49
720.97	1090.60
721.30	1089.17
721.64	1086.76
721.97	1084.96
722.31	1082.50
722.64	1083.29
722.97	1082.59
723.31	1083.64
723.64	1084.32
723.97	1086.48
724.31	1085.35
724.64	1088.77
724.98	1089.80
725.31	1090.67
725.64	1091.63
725.98	1095.65
726.31	1092.37
726.64	1092.09
726.97	1092.66
727.31	1092.75
727.64	1089.07
727.97	1089.24
728.31	1088.56
728.64	1084.51
728.97	1085.03
729.31	1086.43
729.64	1083.62
729.97	1083.15
730.30	1089.45
730.64	1086.97
730.97	1084.49
731.30	1087.51
731.63	1089.85
731.97	1088.35
732.30	1090.08
732.63	1090.20
732.96	1088.02
733.30	1086.31
733.63	1083.67
733.96	1083.93
734.29	1083.29
734.63	1085.21
734.96	1087.69
735.29	1086.99
735.62	1088.37
735.95	1090.10
736.29	1089.89
736.62	1088.19
736.95	1087.88
737.28	1087.65
737.61	1088.19
737.94	1089.36
738.28	1089.29
738.61	1091.72
738.94	1089.31
739.27	1087.74
739.60	1084.04
739.93	1085.05
740.27	1084.93
740.60	1084.58
740.93	1086.13
741.26	1088.37
741.59	1086.92
741.92	1086.57
742.25	1090.67
742.58	1086.62
742.91	1086.38
743.25	1084.42
743.58	1082.76
743.91	1081.56
744.24	1086.50
744.57	1086.73
744.90	1089.22
745.23	1091.63
745.56	1091.67
745.89	1090.62
746.22	1092.91
746.55	1093.94
746.88	1093.15
747.21	1093.33
747.54	1092.14
747.87	1091.88
748.20	1090.50
748.53	1091.46
748.87	1090.39
749.20	1090.01
749.53	1087.67
749.86	1088.30
750.19	1088.63
750.52	1088.96
750.85	1088.37
751.18	1090.20
751.51	1089.61
751.84	1086.90
752.16	1085.99
752.49	1086.22
752.82	1088.47
753.15	1090.03
753.48	1092.89
753.81	1094.90
754.14	1093.08
754.47	1090.55
754.80	1086.90
755.13	1084.04
755.46	1080.25
755.79	1083.13
756.12	1082.29
756.45	1082.40
756.78	1084.09
757.11	1085.47
757.43	1085.05
757.76	1085.84
758.09	1085.54
758.42	1084.49
758.75	1083.60
759.08	1084.35
759.41	1085.45
759.74	1086.83
760.07	1087.02
760.39	1089.43
760.72	1087.51
761.05	1087.51
761.38	1086.55
761.71	1083.01
762.04	1079.27
762.36	1080.27
762.69	1078.80
763.02	1082.24
763.35	1084.44
763.68	1084.98
764.01	1084.60
764.33	1084.93
764.66	1082.66
764.99	1082.45
765.32	1085.87
765.65	1088.00
765.97	1085.10
766.30	1083.36
766.63	1083.93
766.96	1080.81
767.28	1078.64
767.61	1080.70
767.94	1081.98
768.27	1080.79
768.59	1082.80
768.92	1084.14
769.25	1084.56
769.58	1082.83
769.90	1085.35
770.23	1083.46
770.56	1081.49
770.89	1082.29
771.21	1085.26
771.54	1086.43
771.87	1086.90
772.19	1088.58
772.52	1087.74
772.85	1084.93
773.17	1082.47
773.50	1087.25
773.83	1087.39
774.15	1085.99
774.48	1087.23
774.81	1084.21
775.13	1080.58
775.46	1079.64
775.79	1082.69
776.11	1082.47
776.44	1084.81
776.77	1085.59
777.09	1087.34
777.42	1087.76
777.74	1091.42
778.07	1098.39
778.40	1096.82
778.72	1097.88
779.05	1095.07
779.37	1089.78
779.70	1082.64
780.03	1084.96
780.35	1082.83
780.68	1084.28
781.00	1086.97
781.33	1090.67
781.65	1088.56
781.98	1086.78
782.31	1083.74
782.63	1084.96
782.96	1083.60
783.28	1083.08
783.61	1085.61
783.93	1087.74
784.26	1085.91
784.58	1086.29
784.91	1088.35
785.23	1087.20
785.56	1087.20
785.88	1088.02
786.21	1088.75
786.53	1085.42
786.86	1085.94
787.18	1085.31
787.51	1086.24
787.83	1083.34
788.16	1085.24
788.48	1084.63
788.81	1086.15
789.13	1083.67
789.46	1084.63
789.78	1086.10
790.10	1086.59
790.43	1084.77
790.75	1084.91
791.08	1087.74
791.40	1086.99
791.73	1091.25
792.05	1089.05
792.37	1087.58
792.70	1083.18
793.02	1084.28
793.35	1079.31
793.67	1084.89
793.99	1088.16
794.32	1091.98
794.64	1093.64
794.96	1092.54
795.29	1093.43
795.61	1092.45
795.93	1089.45
796.26	1086.29
796.58	1089.54
796.91	1086.92
797.23	1084.77
797.55	1084.65
797.87	1085.80
798.20	1084.89
798.52	1081.94
798.84	1083.55
799.17	1082.94
799.49	1083.01
799.81	1082.61
800.14	1085.42
800.46	1083.79
800.78	1084.56
801.10	1083.32
801.43	1083.62
801.75	1079.85
802.07	1083.25
802.40	1082.31
802.72	1080.91
803.04	1081.77
803.36	1084.49
803.69	1081.54
804.01	1083.46
804.33	1083.53
804.65	1083.46
804.97	1082.29
805.30	1083.69
805.62	1081.68
805.94	1083.18
806.26	1081.42
806.58	1083.32
806.91	1082.08
807.23	1081.02
807.55	1073.56
807.87	1073.79
808.19	1072.25
808.52	1073.23
808.84	1078.14
809.16	1081.63
809.48	1080.04
809.80	1081.40
810.12	1084.74
810.44	1083.81
810.77	1089.00
811.09	1093.01
811.41	1092.77
811.73	1090.71
812.05	1088.75
812.37	1084.93
812.69	1086.01
813.01	1084.09
813.33	1084.37
813.66	1085.21
813.98	1088.65
814.30	1089.66
814.62	1093.90
814.94	1092.07
815.26	1090.43
815.58	1087.46
815.90	1085.19
816.22	1084.07
816.54	1084.70
816.86	1084.49
817.18	1089.75
817.50	1088.68
817.82	1089.03
818.14	1089.50
818.46	1092.87
818.78	1089.17
819.10	1090.17
819.42	1089.31
819.74	1088.72
820.06	1084.96
820.38	1084.09
820.70	1079.55
821.02	1075.99
821.34	1077.56
821.66	1078.96
821.98	1079.08
822.30	1081.87
822.62	1084.60
822.94	1083.67
823.26	1085.87
823.58	1085.66
823.90	1085.84
824.22	1086.22
824.54	1084.53
824.86	1082.80
825.18	1084.58
825.50	1087.51
825.81	1086.83
826.13	1088.93
826.45	1091.27
826.77	1091.18
827.09	1086.31
827.41	1087.25
827.73	1086.94
828.05	1085.49
828.36	1085.77
828.68	1086.64
829.00	1087.20
829.32	1086.64
829.64	1085.28
829.96	1086.10
830.28	1090.60
830.59	1092.80
830.91	1094.57
831.23	1096.42
831.55	1095.07
831.87	1092.30
832.19	1087.30
832.50	1086.08
832.82	1084.49
833.14	1083.13
833.46	1082.03
833.78	1082.10
834.09	1081.66
834.41	1082.10
834.73	1082.80
835.05	1082.52
835.36	1084.72
835.68	1085.21
836.00	1086.99
836.32	1088.16
836.63	1089.33
836.95	1090.50
837.27	1091.37
837.59	1088.79
837.90	1087.90
838.22	1084.79
838.54	1082.45
838.85	1078.50
839.17	1078.47
839.49	1078.71
839.80	1077.75
840.12	1080.70
840.44	1082.47
840.76	1082.12
841.07	1082.03
841.39	1085.96
841.71	1082.97
842.02	1086.69
842.34	1085.47
842.65	1085.99
842.97	1085.26
843.29	1087.04
843.60	1085.00
843.92	1088.96
844.24	1090.55
844.55	1089.33
844.87	1089.24
845.18	1088.12
845.50	1085.05
845.82	1082.22
846.13	1084.37
846.45	1084.35
846.76	1083.97
847.08	1085.80
847.40	1084.39
847.71	1084.16
848.03	1083.36
848.34	1085.61
848.66	1081.68
848.97	1082.92
849.29	1080.70
849.60	1080.20
849.92	1079.48
850.24	1081.16
850.55	1081.77
850.87	1081.21
851.18	1078.54
851.50	1078.14
851.81	1081.91
852.13	1082.92
852.44	1085.87
852.76	1087.44
853.07	1088.47
853.39	1086.43
853.70	1087.72
854.01	1084.00
854.33	1085.31
854.64	1084.25
854.96	1086.45
855.27	1084.09
855.59	1087.83
855.90	1089.36
856.22	1088.82
856.53	1087.55
856.84	1087.79
857.16	1085.33
857.47	1082.33
857.79	1083.06
858.10	1081.37
858.41	1080.56
858.73	1082.92
859.04	1084.09
859.36	1081.68
859.67	1081.73
859.98	1083.53
860.30	1082.29
860.61	1080.81
860.92	1079.71
861.24	1079.62
861.55	1078.64
861.87	1076.41
862.18	1080.18
862.49	1082.97
862.81	1086.66
863.12	1085.35
863.43	1090.55
863.74	1089.43
864.06	1091.34
864.37	1088.96
864.68	1090.64
865.00	1086.69
865.31	1086.45
865.62	1084.56
865.94	1084.25
866.25	1085.75
866.56	1088.07
866.87	1087.67
867.19	1086.48
867.50	1088.26
867.81	1088.70
868.12	1087.93
868.44	1088.63
868.75	1090.83
869.06	1091.93
869.37	1089.45
869.68	1088.70
870.00	1087.27
870.31	1084.11
870.62	1080.86
870.93	1081.37
871.24	1084.39
871.56	1085.24
871.87	1086.20
872.18	1086.48
872.49	1085.80
872.80	1083.81
873.12	1083.01
873.43	1084.09
873.74	1081.75
874.05	1079.99
874.36	1078.92
874.67	1079.60
874.98	1082.69
875.29	1083.32
875.61	1083.04
875.92	1084.53
876.23	1085.26
876.54	1081.30
876.85	1082.66
877.16	1084.84
877.47	1081.68
877.78	1081.47
878.09	1082.97
878.40	1081.84
878.72	1086.06
879.03	1088.96
879.34	1089.26
879.65	1088.70
879.96	1089.57
880.27	1084.77
880.58	1084.46
880.89	1081.51
881.20	1081.87
881.51	1083.57
881.82	1080.91
882.13	1078.85
882.44	1077.68
882.75	1077.77
883.06	1076.90
883.37	1080.65
883.68	1082.36
883.99	1086.69
884.30	1088.61
884.61	1086.85
884.92	1089.52
885.23	1089.57
885.54	1089.57
885.85	1088.77
886.16	1089.73
886.47	1084.56
886.78	1081.05
887.08	1080.63
887.39	1081.14
887.70	1082.45
888.01	1085.38
888.32	1088.77
888.63	1088.58
888.94	1083.81
889.25	1084.16
889.56	1081.35
889.87	1082.47
890.17	1079.81
890.48	1083.15
890.79	1079.60
891.10	1079.71
891.41	1077.68
891.72	1077.47
892.03	1076.72
892.34	1079.48
892.64	1080.84
892.95	1079.13
893.26	1079.24
893.57	1079.38
893.88	1080.63
894.18	1080.39
894.49	1085.54
894.80	1087.23
895.11	1087.16
895.42	1082.87
895.72	1083.36
896.03	1079.03
896.34	1078.94
896.65	1081.56
896.96	1087.27
897.26	1085.03
897.57	1086.55
897.88	1085.59
898.19	1083.46
898.49	1079.31
898.80	1079.57
899.11	1074.49
899.41	1077.49
899.72	1076.93
900.03	1076.01
900.34	1076.39
900.64	1081.68
900.95	1081.02
901.26	1081.63
901.56	1082.03
901.87	1084.04
902.18	1083.43
902.48	1084.79
902.79	1086.10
903.10	1086.34
903.40	1087.55
903.71	1088.86
904.02	1085.94
904.32	1085.66
904.63	1085.26
904.94	1081.19
905.24	1079.31
905.55	1079.41
905.85	1077.02
906.16	1076.86
906.47	1078.71
906.77	1081.51
907.08	1081.54
907.38	1080.91
907.69	1083.57
908.00	1084.35
908.30	1082.36
908.61	1081.98
908.91	1083.46
909.22	1082.64
909.52	1081.49
909.83	1080.34
910.14	1082.03
910.44	1082.66
910.75	1082.12
911.05	1083.06
911.36	1084.04
911.66	1082.54
911.97	1083.57
912.27	1083.11
912.58	1082.94
912.88	1081.00
913.19	1078.78
913.49	1073.91
913.80	1076.06
914.10	1078.14
914.41	1077.75
914.71	1082.50
915.01	1085.61
915.32	1083.97
915.62	1080.65
915.93	1081.82
916.23	1080.60
916.54	1076.81
916.84	1076.20
917.15	1073.09
917.45	1072.97
917.75	1073.02
918.06	1076.27
918.36	1075.73
918.67	1079.78
918.97	1079.97
919.27	1077.04
919.58	1077.63
919.88	1076.65
920.18	1078.57
920.49	1079.38
920.79	1080.84
921.10	1079.06
921.40	1081.54
921.70	1082.40
922.01	1079.81
922.31	1080.86
922.61	1080.67
922.92	1081.40
923.22	1079.15
923.52	1080.32
923.82	1077.96
924.13	1081.00
924.43	1081.96
924.73	1083.95
925.04	1085.94
925.34	1087.04
925.64	1086.27
925.94	1083.50
926.25	1078.59
926.55	1079.15
926.85	1081.28
927.15	1079.55
927.46	1080.44
927.76	1086.06
928.06	1082.19
928.36	1081.37
928.67	1084.00
928.97	1084.04
929.27	1082.08
929.57	1088.65
929.87	1088.77
930.18	1089.03
930.48	1090.01
930.78	1088.14
931.08	1086.03
931.38	1085.66
931.69	1082.73
931.99	1080.95
932.29	1080.79
932.59	1081.70
932.89	1082.40
933.19	1084.39
933.49	1084.46
933.80	1087.27
934.10	1081.30
934.40	1079.01
934.70	1078.50
935.00	1079.57
935.30	1077.61
935.60	1080.02
935.90	1081.30
936.20	1080.72
936.50	1081.98
936.81	1083.34
937.11	1086.17
937.41	1086.43
937.71	1087.41
938.01	1085.52
938.31	1085.05
938.61	1082.69
938.91	1082.29
939.21	1083.48
939.51	1083.22
939.81	1084.23
940.11	1084.77
940.41	1087.34
940.71	1087.41
941.01	1087.23
941.31	1083.57
941.61	1088.84
941.91	1084.60
942.21	1084.67
942.51	1085.21
942.81	1087.30
943.11	1083.46
943.41	1083.06
943.71	1082.29
944.01	1082.43
944.31	1081.58
944.61	1078.26
944.90	1079.13
945.20	1079.92
945.50	1078.89
945.80	1081.75
946.10	1081.49
946.40	1082.05
946.70	1077.65
947.00	1075.80
947.30	1071.68
947.60	1073.72
947.89	1071.57
948.19	1072.50
948.49	1076.25
948.79	1079.55
949.09	1080.63
949.39	1085.17
949.69	1090.34
949.98	1089.14
950.28	1088.19
950.58	1087.90
950.88	1084.74
951.18	1079.99
951.48	1082.10
951.77	1080.09
952.07	1078.43
952.37	1080.09
952.67	1083.69
952.97	1081.14
953.26	1084.46
953.56	1087.34
953.86	1085.49
954.16	1081.40
954.45	1082.12
954.75	1078.45
955.05	1076.55
955.35	1079.06
955.64	1080.95
955.94	1079.90
956.24	1080.72
956.54	1076.13
956.83	1076.32
957.13	1075.36
957.43	1075.59
957.72	1076.06
958.02	1080.56
958.32	1077.42
958.61	1077.93
958.91	1077.61
959.21	1076.88
959.50	1074.42
959.80	1078.19
960.10	1077.91
960.39	1077.68
960.69	1078.57
960.99	1079.95
961.28	1080.13
961.58	1078.12
961.87	1080.02
962.17	1082.29
962.47	1083.97
962.76	1082.08
963.06	1085.42
963.36	1083.04
963.65	1080.39
963.95	1081.16
964.24	1082.97
964.54	1081.44
964.83	1081.61
965.13	1080.56
965.42	1077.02
965.72	1076.48
966.02	1077.18
966.31	1079.85
966.61	1081.66
966.90	1083.53
967.20	1081.35
967.49	1082.36
967.79	1081.77
968.08	1083.15
968.38	1084.89
968.67	1082.66
968.97	1080.39
969.26	1082.29
969.56	1082.76
969.85	1078.61
970.15	1081.89
970.44	1078.89
970.74	1076.55
971.03	1075.66
971.32	1079.41
971.62	1079.99
971.91	1085.54
972.21	1085.70
972.50	1081.23
972.80	1082.33
973.09	1081.66
973.38	1080.48
973.68	1080.20
973.97	1083.95
974.27	1082.99
974.56	1082.73
974.85	1081.70
975.15	1083.08
975.44	1084.25
975.73	1084.23
976.03	1085.68
976.32	1086.73
976.61	1084.25
976.91	1083.39
977.20	1082.38
977.49	1080.86
977.79	1083.90
978.08	1083.71
978.37	1082.05
978.67	1081.87
978.96	1079.69
979.25	1077.00
979.55	1079.22
979.84	1079.06
980.13	1078.19
980.42	1076.86
980.72	1076.65
981.01	1075.08
981.30	1078.61
981.59	1081.21
981.89	1082.22
982.18	1081.23
982.47	1081.87
982.76	1080.02
983.06	1079.99
983.35	1079.29
983.64	1079.15
983.93	1079.43
984.22	1079.64
984.52	1077.49
984.81	1079.34
985.10	1081.35
985.39	1081.54
985.68	1079.53
985.97	1080.72
986.27	1082.59
986.56	1081.66
986.85	1079.99
987.14	1079.99
987.43	1079.15
987.72	1080.32
988.01	1080.86
988.31	1080.58
988.60	1081.07
988.89	1082.24
989.18	1080.86
989.47	1080.56
989.76	1081.19
990.05	1081.19
990.34	1079.95
990.63	1080.58
990.92	1081.70
991.21	1083.90
991.51	1083.01
991.80	1083.43
992.09	1083.48
992.38	1078.21
992.67	1078.03
992.96	1079.10
993.25	1078.38
993.54	1076.37
993.83	1077.47
994.12	1076.32
994.41	1077.98
994.70	1077.86
994.99	1078.36
995.28	1079.83
995.57	1080.16
995.86	1078.94
996.15	1080.93
996.44	1082.33
996.73	1082.01
997.02	1082.38
997.31	1084.32
997.59	1084.49
997.88	1084.14
998.17	1085.73
998.46	1083.83
998.75	1082.61
999.04	1081.51
999.33	1081.66
999.62	1083.48
999.91	1084.58
1000.20	1085.77
1000.49	1084.79
1000.77	1081.56
1001.06	1078.47
1001.35	1078.05
1001.64	1078.10
1001.93	1079.90
1002.22	1078.38
1002.51	1079.31
1002.79	1078.64
1003.08	1076.41
1003.37	1075.73
1003.66	1079.88
1003.95	1083.34
1004.23	1083.43
1004.52	1084.04
1004.81	1082.97
1005.10	1083.20
1005.39	1081.21
1005.67	1080.44
1005.96	1081.89
1006.25	1082.36
1006.54	1080.41
1006.83	1079.76
1007.11	1082.69
1007.40	1082.15
1007.69	1082.29
1007.97	1085.14
1008.26	1082.19
1008.55	1081.16
1008.84	1079.74
1009.12	1079.99
1009.41	1080.32
1009.70	1082.59
1009.98	1082.80
1010.27	1084.49
1010.56	1084.23
1010.85	1080.72
1011.13	1079.81
1011.42	1080.93
1011.71	1079.08
1011.99	1077.89
1012.28	1081.84
1012.56	1082.17
1012.85	1082.71
1013.14	1082.92
1013.42	1085.12
1013.71	1083.01
1014.00	1082.85
1014.28	1080.48
1014.57	1079.38
1014.85	1075.08
1015.14	1070.84
1015.43	1072.95
1015.71	1074.31
1016.00	1076.74
1016.28	1081.56
1016.57	1085.47
1016.85	1087.11
1017.14	1087.18
1017.43	1087.81
1017.71	1087.69
1018.00	1087.76
1018.28	1083.69
1018.57	1084.51
1018.85	1086.01
1019.14	1084.49
1019.42	1085.31
1019.71	1086.76
1019.99	1084.25
1020.28	1083.11
1020.56	1083.36
1020.85	1082.99
1021.13	1081.16
1021.42	1082.22
1021.70	1083.97
1021.99	1083.11
1022.27	1082.29
1022.55	1076.76
1022.84	1077.35
>>>>>End Processed Spectral Data<<<<<
